iteration,time_sampling,stoc_pol_mean,stoc_pol_std,stoc_pol_max,stoc_pol_min,rollout_success,alpha,delta,time_vpg,time_npg,kl_dist,surr_improvement,running_score,rwd_sparse,rwd_dense,success_percentage,num_samples,time_VF,VF_error_before,VF_error_after,eval_score,eval_success
0,3.447519063949585,-86.73934609785842,240.3077782714422,871.1765094554506,-270.17673289082825,6.25,7.151692010514225,0.1,0.025493383407592773,0.46990513801574707,0.05083111,0.014526755,-86.73934609785842,-0.8836803474661107,-0.4343053474661107,6.25,19200,1.73602294921875,1.0000657786730678,0.7437359402246014,-79.6520336933578,6.25
1,3.1905410289764404,-112.63002270969612,202.88228860129408,1055.125856703473,-280.45171058569576,1.0416666666666667,5.682899133591751,0.1,0.013852834701538086,0.343294620513916,0.055184636,0.017261518,-89.32841375904218,-0.9127277111657003,-0.5635610444990335,1.0416666666666667,19200,1.675734519958496,0.6424070860854574,0.5123713457921361,-83.9427659235821,6.25
2,3.8428173065185547,-81.4844904239293,255.16308987563758,1111.405295153296,-259.866725904654,6.25,5.820244536359846,0.1,0.014336347579956055,0.33922433853149414,0.051259484,0.014810025,-88.54402142553089,-0.8695243788296909,-0.40764937882969093,6.25,19200,2.156400680541992,0.6102569400453982,0.5227277413756698,-77.11240108849984,6.25
3,3.8132359981536865,-74.64831644487981,251.21164585368177,840.4830013303812,-297.1979232071434,5.208333333333333,5.518121527560329,0.1,0.014008045196533203,0.3611259460449219,0.049853973,0.019477451,-87.15445092746579,-0.9054378437686612,-0.3731461771019944,5.208333333333333,19200,3.1761038303375244,0.6911869417641581,0.5311354827800047,-57.57985962182943,12.5
4,3.570380926132202,-92.05713963208164,240.47611361411393,794.6363345829649,-300.0801659606597,8.333333333333334,6.088576855552884,0.1,0.023097991943359375,0.3764660358428955,0.04736533,0.016569857,-87.64471979792738,-0.9074872992989098,-0.46061229929890984,8.333333333333334,19200,2.699019432067871,0.5567298472538443,0.4869694971332968,-9.840545788088551,12.5
5,3.8567190170288086,-25.3578072424808,296.3973460487347,836.7335567599569,-256.49068507264104,14.583333333333334,7.94808122340737,0.1,0.01271820068359375,0.2742307186126709,0.043900203,0.0132923545,-81.41602854238273,-0.874195337582326,-0.1266953375823261,14.583333333333334,19200,2.656712055206299,0.5416440798374653,0.378841286406479,-4.557031311999555,12.5
6,3.7841439247131348,-65.86539090813511,281.4939807452041,852.6128509191404,-277.04209472532096,11.458333333333334,7.086921341778535,0.1,0.01671767234802246,0.30608534812927246,0.061285935,0.016216867,-79.86096477895798,-0.9079900502059367,-0.3296567168726033,11.458333333333334,19200,2.669160842895508,0.39339751716784715,0.3257769710864858,5.302076567656581,12.5
7,3.8097352981567383,-43.64411145620173,310.96567159558356,944.22926569353,-284.69432725116104,14.583333333333334,8.480045082854726,0.1,0.0141143798828125,0.312793493270874,0.064802155,0.013375526,-76.23927944668235,-0.8874993907244827,-0.2185410573911494,14.583333333333334,19200,3.649334192276001,0.36229093075561264,0.29246791867576544,6.179916820603367,12.5
8,3.7814841270446777,-49.41380265459321,287.9192850129642,1006.1709253052383,-275.43965202781965,9.375,8.465413766769702,0.1,0.012949228286743164,0.27297139167785645,0.052490324,0.010437236,-73.55673176747342,-0.8701433790728096,-0.24701837907280969,9.375,19200,2.7473645210266113,0.3336145392540519,0.2648308032780083,8.084942602123405,12.5
9,3.611990213394165,-43.42623047480464,311.0885990898092,1018.4294378472332,-279.44266002106394,9.375,7.290344916635203,0.1,0.012820243835449219,0.27445173263549805,0.048869204,0.014199057,-70.54368163820654,-0.880671954516585,-0.21733862118325167,9.375,19200,2.6818811893463135,0.24875307236805885,0.16780691662683594,28.18848328789357,12.5
10,3.812035083770752,-28.276219629425015,289.68283024883164,1001.6545171559814,-288.88134641799167,12.5,6.4235401923970965,0.1,0.023594379425048828,0.310589075088501,0.05075924,0.016628636,-66.31693543732838,-0.8435411196782384,-0.14124945301157174,12.5,19200,3.2578859329223633,0.30666053512871105,0.23099439142606837,24.579733294701054,12.5
11,4.0560972690582275,-36.932415127212835,299.7650511886053,948.0058340474723,-285.0371626184192,13.541666666666666,6.952975417320882,0.1,0.014238357543945312,0.31441307067871094,0.054280408,0.016267525,-63.37848340631683,-0.8784206899107131,-0.18487902324404637,13.541666666666666,19200,3.382760524749756,0.3185509598899688,0.24470773934094286,27.6218115027936,12.5
12,3.567805528640747,-16.606903477745167,304.46947967520236,864.8055316791326,-262.2088744569405,18.75,8.4532783912058,0.1,0.014025211334228516,0.3086357116699219,0.051863424,0.011534981,-58.70132541345967,-0.8612973946286835,-0.08317239462868364,18.75,19200,3.235088348388672,0.2278829689868366,0.19895393902136405,52.56564111834736,12.5
13,3.618628740310669,-38.88184820632568,266.50489023552234,823.3107255248835,-283.4140830966121,12.5,7.479712582844097,0.1,0.011893510818481445,0.32892417907714844,0.04585187,0.013075228,-56.71937769274627,-0.8511720692139731,-0.19429706921397313,12.5,19200,2.5279946327209473,0.2571839102093635,0.1866741948931242,53.90918680853184,12.5
14,3.610224485397339,-74.34473545728987,238.59140729706334,1029.0020922170715,-299.73237901816265,10.416666666666666,5.884116072785896,0.1,0.0143585205078125,0.3861222267150879,0.049914893,0.018075075,-58.481913469200634,-0.8726629390685723,-0.3716212724019055,10.416666666666666,19200,2.8889973163604736,0.2726532637661002,0.22474666100153576,57.60909992361367,12.5
15,3.750549554824829,-2.8058592224085253,320.3779333755279,907.9923034223337,-266.1231861660037,13.541666666666666,10.095634481532487,0.1,0.01667022705078125,0.3765389919281006,0.045507673,0.009608333,-52.91430804452143,-0.8155297823329205,-0.014696448999587115,13.541666666666666,19200,2.68617582321167,0.3201950009491409,0.27126638224650595,45.22994927859592,12.5
16,3.7724506855010986,-17.60929636882487,330.3048406131747,918.2298182618158,-272.42188443762325,13.541666666666666,7.917191658208503,0.1,0.012427806854248047,0.30759668350219727,0.053372104,0.011917679,-49.38380687695177,-0.8697124937823014,-0.08846249378230137,13.541666666666666,19200,2.574746608734131,0.19375668197800497,0.14875767167165613,44.75350012088607,12.5
17,3.9954659938812256,56.46943974290724,389.56872403310064,1132.3053703626742,-265.49037900551366,16.666666666666668,7.836264861561117,0.1,0.013594627380371094,0.36374974250793457,0.048680328,0.013826757,-38.79848221496587,-0.8120752607357963,0.28229973926420343,16.666666666666668,19200,3.0802462100982666,0.21085969632710136,0.17977789137685574,45.855458073700724,12.5
18,3.9086310863494873,67.67221529624562,394.72173817286534,1072.4430387535983,-308.7719296112004,19.791666666666668,10.96730533323209,0.1,0.020807504653930664,0.3440268039703369,0.05237571,0.008457064,-28.15141246384472,-0.8064132814387307,0.33775338522793596,19.791666666666668,19200,2.5577356815338135,0.17311172991988957,0.13180217317045342,41.463553295549225,12.5
19,3.591038942337036,-0.5991069070873323,321.34086819679624,1021.0677960358003,-243.88447154807704,13.541666666666666,6.910618417230855,0.1,0.012318849563598633,0.33776044845581055,0.05279055,0.013115019,-25.396181908168984,-0.7982255267551132,-0.003225526755112895,13.541666666666666,19200,2.7039196491241455,0.23672020974751726,0.18839793034288216,50.030197558410734,12.5
20,3.7964060306549072,25.1763883562685,357.5835990233581,1085.8167026868596,-277.4294002924114,13.541666666666666,6.0598299037237515,0.1,0.012006044387817383,0.3267848491668701,0.052880798,0.016513867,-20.338924881725234,-0.8209785791310679,0.12547975420226531,13.541666666666666,19200,2.5054080486297607,0.23164988833731262,0.19700644561559513,63.67303694227951,12.5
21,3.7409908771514893,82.80391814436105,441.0548677367488,1153.625958167305,-283.56310897838415,20.833333333333332,7.334073267126562,0.1,0.012385368347167969,0.3374018669128418,0.04821931,0.013206449,-10.024640579116605,-0.7884731997873334,0.41381846687933327,20.833333333333332,19200,2.5282251834869385,0.1468629998873208,0.09631566917740597,70.27007355999484,12.5
22,3.579714059829712,76.49796839189781,419.5559797844302,1126.6633962713713,-282.8281723326607,17.708333333333332,5.42725353569463,0.1,0.011959314346313477,0.31430530548095703,0.04860063,0.015775526,-1.3723796820151621,-0.779212481013492,0.3820375189865079,17.708333333333332,19200,2.4800124168395996,0.2101574571872152,0.15036550306167884,77.17515645822985,12.5
23,3.801856517791748,40.44217817665805,372.7364056061461,1213.4308587987282,-255.68449111808013,15.625,5.256246008749292,0.1,0.012445211410522461,0.32227611541748047,0.053130835,0.018984767,2.809076103852159,-0.794228752165283,0.20222958116805034,15.625,19200,2.5859694480895996,0.15996353690401552,0.12284250322724781,93.89192656849704,12.5
24,3.765157461166382,83.77021264688655,455.10769176244395,1190.7019166387192,-270.68246888098946,18.75,4.981834090152178,0.1,0.018144845962524414,0.3560938835144043,0.049296673,0.018676603,10.905189758155599,-0.7790520745871344,0.4184479254128653,18.75,19200,2.646460771560669,0.1580561934187213,0.12636632493851538,115.57647315047919,12.5
25,3.7905497550964355,33.25126699344472,403.5560791846755,1222.1503436373266,-283.82720487833154,16.666666666666668,8.256608531275376,0.1,0.01283717155456543,0.2791459560394287,0.05120025,0.011627358,13.139797481684512,-0.8068496846279066,0.1658586487054267,16.666666666666668,19200,2.5515341758728027,0.08420595260795602,0.06438295820487888,94.69037136612049,12.5
26,3.80293345451355,56.412107399223295,420.2165502665385,1207.3393643127001,-274.78630448948087,16.666666666666668,6.152163702225895,0.1,0.013113021850585938,0.34215879440307617,0.05112007,0.017076746,17.46702847343839,-0.8187422817588809,0.28188271824111927,16.666666666666668,19200,2.9890453815460205,0.14061395200747667,0.10259973231541208,111.64183308576328,12.5
27,3.8064634799957275,72.79355100098839,424.7841705543787,1223.2252291505092,-290.7605770523207,18.75,6.749970648272668,0.1,0.012414216995239258,0.34699249267578125,0.050788563,0.01444789,22.99968072619339,-0.7848288356164551,0.3632961643835449,18.75,19200,2.4383084774017334,0.08738543280755362,0.06340082561955179,118.49680983692602,18.75
28,3.518955945968628,134.9848582769777,500.51562325346083,1388.1745497940972,-271.37904738131334,20.833333333333332,7.877629532898116,0.1,0.012620210647583008,0.296356201171875,0.05104413,0.013378627,34.19819848127182,-0.767766204885223,0.6743171284481103,20.833333333333332,19200,3.220369338989258,0.10443473126722258,0.06659840569518533,129.0693425593867,18.75
29,4.091673851013184,160.09369388041685,469.8080439301761,1249.779011342027,-279.122174151954,22.916666666666668,7.273635638540648,0.1,0.01938152313232422,0.2897956371307373,0.049208187,0.013493809,46.787748021186324,-0.7347099222905725,0.8000817443760943,22.916666666666668,19200,2.441652774810791,0.11144177474891255,0.06306662948114843,150.5180192655281,18.75
30,3.6295907497406006,173.8748324865393,494.6884611233923,1397.9260461534896,-273.3327403570772,23.958333333333332,7.081386117016748,0.1,0.013770103454589844,0.3577752113342285,0.056195203,0.014592504,59.49645646772163,-0.7375177814266403,0.8687322185733599,23.958333333333332,19200,3.4236080646514893,0.08939898075563037,0.06773242407339157,165.55778270807062,18.75
31,3.600696563720703,33.89024377677146,397.7778350385809,1375.393523031394,-280.77772724040517,12.5,6.232274121263453,0.1,0.013747930526733398,0.40805673599243164,0.05270584,0.015532402,56.93583519862661,-0.7782546875526607,0.16903697911400586,12.5,19200,2.5962111949920654,0.11669656202732398,0.06826658348483303,196.57583507556888,18.75
32,3.7971649169921875,88.68403682838714,469.77995428295,1404.2551040022997,-271.94126138989725,18.75,6.871806013683884,0.1,0.012401342391967773,0.34686803817749023,0.052750513,0.015179162,60.11065536160267,-0.7621962137226679,0.4430121196106655,18.75,19200,2.604515314102173,0.0985184585434539,0.07253859217264838,211.4875020966419,18.75
33,3.7632412910461426,105.63673756918645,478.0007334284707,1408.8705403219137,-287.5417620987715,19.791666666666668,5.86299912694765,0.1,0.014153718948364258,0.3474297523498535,0.05023948,0.015364908,64.66326358236105,-0.7752918042640639,0.5280415290692697,19.791666666666668,19200,3.096794843673706,0.06028446366225869,0.03543817781681512,202.86114473492896,18.75
34,3.5776214599609375,95.63081966315293,469.28638555016516,1352.9746109327052,-286.84228352704315,19.791666666666668,5.201920449671499,0.1,0.019507646560668945,0.35507702827453613,0.05241797,0.020066746,67.76001919044025,-0.7897778306997975,0.4775138359668693,19.791666666666668,19200,2.5446345806121826,0.06792240722761123,0.04163546793801723,231.5260002801888,18.75
35,3.7801382541656494,162.7663214835508,469.4058017250828,1418.1121384515889,-300.3477316998923,22.916666666666668,5.855957672801293,0.1,0.012141704559326172,0.27617812156677246,0.048876494,0.01738189,77.2606494197513,-0.7413814821582525,0.8136185178417478,22.916666666666668,19200,2.6661736965179443,0.09376885346031114,0.061227306102436985,227.16276440078224,18.75
36,3.830873727798462,185.81444133088448,488.068404447939,1236.5037256578719,-287.277577383724,26.041666666666668,6.454856869965382,0.1,0.01337122917175293,0.3663933277130127,0.050807517,0.015096663,88.11602861086463,-0.736109569861014,0.9284737634723195,26.041666666666668,19200,3.238196849822998,0.0479310656791701,0.03417778333173113,229.69788048134487,18.75
37,3.8243489265441895,234.35710974042175,516.9555604165075,1244.7968587697585,-274.4692881867146,31.25,5.90030332512417,0.1,0.014081954956054688,0.27214670181274414,0.050927345,0.016510157,102.74013672382036,-0.6905967015177256,1.1716949651489414,31.25,19200,2.5554141998291016,0.05884855782015209,0.04317258772240053,238.6499190457148,18.75
38,3.8381340503692627,182.33731198752295,501.2598824573221,1309.5019204779148,-254.78435170311118,25.0,7.74184709004202,0.1,0.01354217529296875,0.30184221267700195,0.048757974,0.013616198,110.69985425019061,-0.7098624343525947,0.9103458989807386,25.0,19200,3.242985725402832,0.07965436211157075,0.05871312839639316,239.85575441665054,18.75
39,3.9323208332061768,33.57278282449613,406.42724841762595,1347.4449713297877,-270.65613206235435,12.5,7.842588119656696,0.1,0.013065099716186523,0.2848472595214844,0.046830893,0.013877136,102.98714710762117,-0.7711296229968108,0.1672037103365224,12.5,19200,2.559014081954956,0.12949332067972358,0.07989179225027979,250.96187364666898,25.0
40,3.814019203186035,144.6079208373658,514.1357348555451,1371.9426584863459,-280.0518472404385,21.875,7.234367828136576,0.1,0.01244664192199707,0.27581286430358887,0.050377827,0.014854142,107.14922448059563,-0.7591482267959567,0.7216851065373766,21.875,19200,2.427764415740967,0.05027786372276018,0.030029110472373232,251.45400004405303,18.75
41,4.107731580734253,130.09088202644,469.2630447386033,1330.1725037473946,-282.5396280973099,18.75,5.874144660519387,0.1,0.012439727783203125,0.27387285232543945,0.04875568,0.01738462,109.44339023518006,-0.7418233982765878,0.6500516017234121,18.75,19200,2.570589780807495,0.09354872948523774,0.06284203935382952,245.71200948635908,18.75
42,3.672475814819336,255.68168183134625,531.3242362209768,1504.6901278218813,-276.93226976908556,26.041666666666668,6.546728885783334,0.1,0.012763261795043945,0.27359771728515625,0.048574775,0.015177918,124.0672193947967,-0.6871328670559648,1.2770337996107017,26.041666666666668,19200,2.5676565170288086,0.058177351825634924,0.037932993570035926,250.44563303362273,18.75
43,3.8628485202789307,137.14610911100974,479.8782656192883,1347.78199747038,-298.4709930534181,18.75,6.543747951419409,0.1,0.013213157653808594,0.3462374210357666,0.043412674,0.0136956815,125.375108366418,-0.7450617092779624,0.6855632907220376,18.75,19200,2.715914011001587,0.07481571326613858,0.04481311984165099,258.0316385281044,18.75
44,3.6361453533172607,90.14074768614387,433.1201573581911,1271.8284074469877,-271.6904764721865,15.625,7.100413373473609,0.1,0.012831449508666992,0.31511998176574707,0.05366762,0.014482355,121.8516722983906,-0.761802155674682,0.45028117765865144,15.625,19200,2.666452407836914,0.05760906589066999,0.029641545013247412,264.86638774699406,18.75
45,3.8055613040924072,79.6230326610071,434.3108163774892,1385.2110854889581,-296.42942839578393,12.5,5.9046442461821425,0.1,0.012224197387695312,0.33611416816711426,0.045328412,0.01595433,117.62880833465225,-0.7548260023175425,0.3974656643491244,12.5,19200,2.63334059715271,0.058987147744244975,0.03343390504122879,266.2041472831172,18.75
46,3.709890365600586,226.1383804832269,522.4688015784604,1556.397400978783,-251.87978571416195,23.958333333333332,6.931686869883504,0.1,0.012331724166870117,0.3409082889556885,0.045624357,0.014386141,128.47976554950972,-0.6768413448381735,1.1300336551618264,23.958333333333332,19200,2.5872151851654053,0.0703880579104926,0.03259190885005181,268.3896596581957,18.75
47,3.8102784156799316,216.27977246475893,569.8405798877366,1563.312533144593,-282.25241295678825,26.041666666666668,8.03413067661068,0.1,0.012427806854248047,0.34203457832336426,0.051010232,0.012398222,137.25976624103464,-0.7063584673158775,1.080724866017456,26.041666666666668,19200,2.6464579105377197,0.044867379441400186,0.03419815050666326,290.8050943621695,31.25
48,3.2895424365997314,151.0851748506029,536.3270239660837,1547.0193639139432,-252.66316169878255,21.875,6.789682730288772,0.1,0.012084007263183594,0.3261094093322754,0.050032977,0.01308756,138.64230710199146,-0.7578846941452789,0.7552403058547209,21.875,19200,2.7002532482147217,0.043452536658949235,0.027967696265509087,303.79388448125894,31.25
49,3.8016932010650635,118.74677733774074,496.24829130411933,1411.3059658498944,-310.2879792195771,18.75,5.349336094606422,0.1,0.012675046920776367,0.34429192543029785,0.047608167,0.018281994,136.6527541255664,-0.7811424526046052,0.5917742140620614,18.75,19200,2.611126661300659,0.10161048838387576,0.04847688872316564,285.91276333126893,25.0
50,3.798553943634033,156.1892612462048,493.52229363656477,1369.5347405486875,-259.9012275875463,19.791666666666668,7.078888467711568,0.1,0.012619733810424805,0.3179945945739746,0.049147215,0.012501074,138.60640483763024,-0.740165537316284,0.779834462683716,19.791666666666668,19200,2.576388120651245,0.04451323370903139,0.027015061139142964,312.8323613075264,31.25
51,3.6831157207489014,163.56941763798,492.4811618155149,1408.1678398979227,-253.06304657834582,19.791666666666668,7.078450360484215,0.1,0.014166593551635742,0.3706521987915039,0.048515406,0.013747773,141.1027061176652,-0.7092736487175038,0.8171846846158294,19.791666666666668,19200,2.5017848014831543,0.053057864608746626,0.026708156038844792,298.1425397247411,31.25
52,4.050626754760742,184.5768830530475,506.85122755650366,1346.7860857522628,-286.0189783643451,22.916666666666668,6.288010767836973,0.1,0.015470027923583984,0.35489487648010254,0.046630893,0.016591253,145.45012381120344,-0.7344778763399774,0.9217721236600226,22.916666666666668,19200,3.3106555938720703,0.029403183681136827,0.018970283727010148,269.7259550980229,25.0
53,3.834083318710327,278.91096611876407,559.0708144253553,1547.8676059981224,-294.8912497830137,28.125,7.923602977739372,0.1,0.01455831527709961,0.41509056091308594,0.047171712,0.013019288,158.79620804195952,-0.6671496474880391,1.394100352511961,28.125,19200,2.5700125694274902,0.04337475176080948,0.026250450012846354,268.0755528870528,25.0
54,3.8520634174346924,216.1772538809496,512.9473100325868,1544.9556451873505,-264.2167478175796,22.916666666666668,7.931486301860278,0.1,0.015474557876586914,0.37456345558166504,0.054796454,0.011573964,164.53431262585852,-0.6930499579919897,1.0807000420080104,22.916666666666668,19200,3.107694149017334,0.04403092309164073,0.025121987229177918,300.7526675729844,31.25
55,3.810396909713745,191.4083730436582,537.4463185756658,1539.4324573339884,-257.47730979701583,22.916666666666668,6.630190785767083,0.1,0.012727975845336914,0.33543872833251953,0.052885473,0.015298924,167.2217186676385,-0.7222667898637724,0.9568998768028943,22.916666666666668,19200,2.6238672733306885,0.040146394090104474,0.02880283566510653,297.2027382346919,31.25
56,3.846226453781128,130.0448917153071,450.16661208168534,1325.449547453875,-266.12497839205423,17.708333333333332,9.065662549451282,0.1,0.012641668319702148,0.3474886417388916,0.050121702,0.010624828,163.50403597240535,-0.730234870828386,0.6493484625049474,17.708333333333332,19200,2.710352897644043,0.05347634129063046,0.03470342506187311,294.08100634944424,31.25
57,3.7435994148254395,261.15679925863674,582.4353096309749,1558.739883159907,-292.2837436773739,29.166666666666668,6.115544295171329,0.1,0.017894506454467773,0.35822010040283203,0.050098,0.015695402,173.2693123010285,-0.7041943575334008,1.3053889757999328,29.166666666666668,19200,2.4955265522003174,0.031289368287813354,0.022059292987372806,297.3196875830914,31.25
58,3.734158515930176,224.53968544150362,541.9899638057622,1380.979443423318,-250.23485914647685,29.166666666666668,5.371580971149629,0.1,0.013597249984741211,0.3568298816680908,0.050196793,0.017515311,178.39634961507602,-0.7065352091776193,1.1220064574890474,29.166666666666668,19200,2.471412420272827,0.039074413501604253,0.027193440056723445,309.2453046824339,31.25
59,3.594291925430298,223.47280712804354,553.5385146303939,1350.8191521482277,-280.93754494645356,28.125,6.390166751851822,0.1,0.01573038101196289,0.382326602935791,0.044521168,0.0147273885,182.90399536637278,-0.7139750430849783,1.1160249569150218,28.125,19200,3.1033527851104736,0.01970220218822818,0.012150618211099036,288.810598885891,31.25
60,3.8398964405059814,192.44032063403324,523.7370302337551,1543.0169286825571,-281.6022987496307,21.875,6.94516979315033,0.1,0.02373647689819336,0.3672952651977539,0.0495276,0.014066639,183.85762789313884,-0.7282491330130895,0.9617508669869105,21.875,19200,2.633533239364624,0.042794693829976714,0.022625799963968938,263.51996423842303,18.75
61,3.830514430999756,212.93413062090505,542.4329608762164,1519.7093437505766,-279.89585156295556,26.041666666666668,6.941134137906728,0.1,0.012893438339233398,0.3415658473968506,0.047052756,0.012745433,186.76527816591548,-0.7061912601612059,1.0640170731721272,26.041666666666668,19200,2.583544969558716,0.03317686699532075,0.02329409024170113,263.8467593336738,18.75
62,3.7868192195892334,156.74218019038042,474.1367538667114,1377.9392162228505,-295.04283255827795,19.791666666666668,6.849328268731296,0.1,0.012952804565429688,0.3189225196838379,0.048630413,0.015899235,183.76296836836198,-0.7572845660918498,0.7837571005748168,19.791666666666668,19200,2.5032882690429688,0.05369172430371957,0.027877717141585392,283.6952762697162,25.0
63,3.9545652866363525,178.80865720310442,509.4800461161928,1560.45359087297,-275.4243129950378,21.875,5.344579849286396,0.1,0.012027502059936523,0.3394947052001953,0.05161711,0.020297293,183.26753725183625,-0.7286850415251965,0.8929816251414703,21.875,19200,2.559941053390503,0.030238648572896716,0.019749558542341714,270.03160840237024,18.75
64,3.9013731479644775,111.83256469421889,488.74761662476726,1379.729000801894,-263.11131737916565,17.708333333333332,7.017841577327152,0.1,0.014093875885009766,0.372267484664917,0.05073155,0.0136926435,176.12403999607452,-0.7387003762978456,0.5592162903688209,17.708333333333332,19200,3.246736526489258,0.022633713288971718,0.011970551945570224,268.279476228454,18.75
65,3.8150768280029297,315.1620055196299,600.5371855638634,1550.35733603963,-261.2125840966797,32.291666666666664,7.782365838224937,0.1,0.013933897018432617,0.3678009510040283,0.046333686,0.013182989,190.02783654843006,-0.6773022262630444,1.5733227737369555,32.291666666666664,19200,3.234327554702759,0.04107368969244248,0.021214519309812524,265.7270356233886,18.75
66,3.8515193462371826,251.10063770488034,563.1629016319406,1517.9644372578973,-269.75531110489595,26.041666666666668,7.718541061774078,0.1,0.012323617935180664,0.30915141105651855,0.048015565,0.014884079,196.1351166640751,-0.7031052346170038,1.2546030987163295,26.041666666666668,19200,2.535496473312378,0.02428366371349116,0.017550111025858454,264.17554000497614,18.75
67,3.9274699687957764,281.12294659255576,547.6579301917383,1443.2055165288118,-266.5814722895579,28.125,5.62544482152713,0.1,0.01606130599975586,0.3193180561065674,0.050586134,0.024920039,204.63389965692318,-0.6750883482718173,1.4049116517281828,28.125,19200,2.5637004375457764,0.03817741202169459,0.024156313445754724,266.33127377053404,18.75
68,3.8558425903320312,136.03346873570194,494.10298998420575,1292.1415749600305,-271.4291356838761,18.75,6.720895891481322,0.1,0.012471675872802734,0.3520851135253906,0.04949944,0.015406357,197.77385656480106,-0.7457146090707081,0.6790770575959586,18.75,19200,2.7067670822143555,0.03161691113616761,0.019150293812086733,270.47642631115,18.75
69,3.8292393684387207,247.49290428944605,533.6874066414489,1541.2478612284988,-285.89994953344865,21.875,5.667773749357461,0.1,0.012490510940551758,0.3096301555633545,0.056916848,0.020541102,202.74576133726555,-0.6673786452951723,1.2365796880381608,21.875,19200,2.6257858276367188,0.034489053137895395,0.023309313012147406,268.6516663746876,18.75
70,3.8118538856506348,282.1450787592878,556.4350746503874,1483.5363572677602,-249.89782019711194,29.166666666666668,7.453155573313944,0.1,0.013050556182861328,0.35117149353027344,0.053720646,0.012747708,210.68569307946777,-0.6864211550074085,1.409412178325925,29.166666666666668,19200,2.5586323738098145,0.0188199533233213,0.008424308734599038,284.37614943072646,25.0
71,3.8251829147338867,330.745561669554,568.1262648367835,1545.338922170784,-266.35533043294447,32.291666666666664,8.866134234404793,0.1,0.01405787467956543,0.33176565170288086,0.043733932,0.010238291,222.6916799384764,-0.6612487777229398,1.6531262222770602,32.291666666666664,19200,2.6184256076812744,0.027685068627350234,0.014802040195040745,271.86921351642906,18.75
72,3.7108633518218994,179.91176929989703,512.7626716392652,1539.7956293797602,-266.60706066550506,17.708333333333332,6.596296164354412,0.1,0.02266836166381836,0.357990026473999,0.050895542,0.013981634,218.41368887461846,-0.7095620487936335,0.8996046178730333,17.708333333333332,19200,2.7036051750183105,0.0459772147805071,0.026281135281210604,281.0152164971874,25.0
73,3.7938640117645264,176.18803990674778,503.86530233550627,1529.5067684551946,-248.2024106015383,15.625,8.17813257184523,0.1,0.013042449951171875,0.30141186714172363,0.046229366,0.013521623,214.1911239778314,-0.7176387089071726,0.8800696244261607,15.625,19200,2.6355066299438477,0.03880905585241552,0.023213263726194273,301.7912757277152,25.0
74,3.8261947631835938,175.34691918385087,509.92631514590744,1394.7722310524227,-280.0575772704332,19.791666666666668,6.680371456578529,0.1,0.013351917266845703,0.3270585536956787,0.050875448,0.016989797,210.30670349843336,-0.7185296713057161,0.8758453286942839,19.791666666666668,19200,2.5636441707611084,0.02913110044051918,0.018496182786305073,317.7213735408451,25.0
75,3.68280029296875,220.182494661905,494.645959767778,1539.676282517381,-251.30842471767792,18.75,7.555805879520217,0.1,0.01245880126953125,0.3427565097808838,0.052172318,0.0152389305,211.29428261478054,-0.6714316337466942,1.1002350329199724,18.75,19200,2.4740447998046875,0.04583122389093235,0.030080549037112936,307.8463273674035,25.0
76,3.8349480628967285,330.5988619558827,584.0242264454064,1541.9795344245965,-279.2973622020437,33.333333333333336,8.735618613627816,0.1,0.014564275741577148,0.391467809677124,0.052051272,0.010175091,223.22474054889076,-0.6750830653689337,1.653041934631066,33.333333333333336,19200,3.1634819507598877,0.018628293441870156,0.0083909922600007,332.9066600910579,25.0
77,3.851473093032837,207.6694843477288,533.2507751979053,1539.631614739313,-260.84391389352976,19.791666666666668,5.005325939739533,0.1,0.01405191421508789,0.3792002201080322,0.048574552,0.024250276,221.66921492877455,-0.7147977478310051,1.0374939188356616,19.791666666666668,19200,3.1119136810302734,0.03199455689928448,0.01895335600384176,340.7457533249926,25.0
78,3.950078010559082,205.46213191277593,560.3258729254838,1488.647904955046,-289.6855084388482,20.833333333333332,6.447722735497467,0.1,0.014332056045532227,0.35332345962524414,0.048398387,0.017303254,220.04850662717467,-0.7068596202599925,1.026473713073341,20.833333333333332,19200,3.0405397415161133,0.02968440366466502,0.018950487847586666,341.51412983357744,25.0
79,3.8087306022644043,248.74205427570382,554.8993961501451,1484.1053231257426,-281.98742437094825,25.0,6.400162054494713,0.1,0.011805534362792969,0.3373982906341553,0.051029403,0.015524532,222.9178613920276,-0.6930001137008001,1.2428332196325333,25.0,19200,2.5472986698150635,0.02811943694815252,0.015855083528073764,320.5000887835156,25.0
80,3.8390052318573,173.2207991358467,533.3926282767936,1547.1649328588026,-255.98047622841176,17.708333333333332,5.269231346530922,0.1,0.012992620468139648,0.3501858711242676,0.04625575,0.02128298,217.94815516640952,-0.7314656922424545,0.8647843077575456,17.708333333333332,19200,3.3682258129119873,0.05437237968889848,0.02308575807603821,317.8680047218958,25.0
81,3.8888044357299805,148.4707230889171,514.9166395296712,1535.890570244171,-267.3683207887004,18.75,6.035775080078763,0.1,0.012887001037597656,0.3289339542388916,0.047995076,0.014660359,211.0004119586603,-0.7345496626339667,0.7419086706993666,18.75,19200,2.619244337081909,0.03871294112052328,0.01975833794173282,317.6310744543183,25.0
82,3.7965450286865234,224.69735194663807,537.4447223050678,1540.578699325865,-267.3702621448081,22.916666666666668,6.114097653673023,0.1,0.01583075523376465,0.29351258277893066,0.051194765,0.014708648,212.37010595745807,-0.6913820137337673,1.1223679862662328,22.916666666666668,19200,2.6714048385620117,0.02815569523919654,0.015089040191369403,311.7104759853695,25.0
83,3.831408977508545,188.91347029743739,532.3277705714752,1313.2056064353096,-265.99810656658343,22.916666666666668,6.692452543345053,0.1,0.012483358383178711,0.33564162254333496,0.047801137,0.014497447,210.024442391456,-0.7264723085405945,0.9437360247927384,22.916666666666668,19200,2.6704132556915283,0.019965407059955594,0.010271737219306937,296.54445021871504,25.0
84,3.6556947231292725,111.21227371971743,484.6898632824332,1476.8953916349585,-277.8859037494128,13.541666666666666,4.230623237845182,0.1,0.013614892959594727,0.2759885787963867,0.04620435,0.02300137,200.14322552428214,-0.7624271109810543,0.5556978890189459,13.541666666666666,19200,2.6885299682617188,0.041459408651401713,0.025369224182300493,284.2599794915892,18.75
85,3.8705673217773438,154.00440942609512,507.49979715368437,1396.265248943726,-263.4611159595827,14.583333333333334,7.0719724930439005,0.1,0.012167215347290039,0.33205485343933105,0.048306145,0.014504366,195.52934391446345,-0.7131017519565898,0.7693982480434104,14.583333333333334,19200,2.7346749305725098,0.03498904127146885,0.021239285810655838,286.84463308340855,18.75
86,3.5482804775238037,201.2706147172331,540.5362640906684,1534.0370497284107,-292.21234563442937,22.916666666666668,6.1132900041080305,0.1,0.012978076934814453,0.3400113582611084,0.05006438,0.014293791,196.1034709947404,-0.7290850227655197,1.0054983105678135,22.916666666666668,19200,2.716787815093994,0.036679668364685225,0.017546191130100468,308.1965774828052,18.75
87,3.6119773387908936,208.1875748369532,487.8719745357105,1385.0351551521321,-286.964574173556,19.791666666666668,8.708310251831067,0.1,0.01599597930908203,0.36071157455444336,0.05188467,0.011367135,197.3118813789617,-0.6691591750115706,1.0397991583217625,19.791666666666668,19200,2.7376046180725098,0.048127232395457145,0.02447043782418145,313.4199913028492,25.0
88,3.8384811878204346,266.49416843557464,519.4045834453506,1506.248780612411,-264.87258544492676,22.916666666666668,6.479778131560804,0.1,0.014557838439941406,0.3764839172363281,0.05161942,0.016554872,204.230110084623,-0.6710919024390091,1.3316164308943244,22.916666666666668,19200,3.192756414413452,0.03460512773094869,0.025822331529059904,343.9644096814858,31.25
89,3.740785837173462,309.5121890709524,563.5544579558107,1526.5651824920255,-265.09845008425197,29.166666666666668,5.94219112394656,0.1,0.013623952865600586,0.3066070079803467,0.049926613,0.016692195,214.75831798325595,-0.6671114929291951,1.5464301737374717,29.166666666666668,19200,3.296494245529175,0.035456925357307226,0.022033934607378056,352.39545189760815,31.25
90,3.8760576248168945,107.91724262528074,466.01966706486536,1508.1823012634352,-238.9647144204384,14.583333333333334,5.986659740530092,0.1,0.01446533203125,0.3802986145019531,0.05468398,0.016911043,204.07421044745843,-0.7140894802627625,0.5396605197372374,14.583333333333334,19200,3.156989574432373,0.04880098168659094,0.029102292700453492,348.2655769472243,31.25
91,3.335498571395874,266.9440901010486,528.1187474372982,1448.3218660200712,-285.2885921432295,20.833333333333332,5.847912442945121,0.1,0.013086557388305664,0.3367879390716553,0.04835975,0.017440153,210.36119841281746,-0.6813375837776777,1.3338707495556557,20.833333333333332,19200,2.51019549369812,0.05995199171906441,0.02751287702582096,347.1192620514568,31.25
92,3.8376317024230957,213.4818144667381,522.4355138276385,1407.7436951607488,-264.594275839851,17.708333333333332,6.652938176498596,0.1,0.013985157012939453,0.3666646480560303,0.052517667,0.01573688,210.67326001820953,-0.6954029120107433,1.0664720879892566,17.708333333333332,19200,3.176431894302368,0.03219861743792396,0.021101154169615114,348.7382133804398,31.25
93,3.640331506729126,213.16939816039755,538.8538764046533,1534.8690896181674,-263.21541268129323,20.833333333333332,6.282401232021506,0.1,0.014603853225708008,0.4512288570404053,0.054168187,0.016189096,210.92287383242834,-0.7258601412887389,1.0651815253779275,20.833333333333332,19200,3.4325523376464844,0.03429433622949272,0.021768940171827306,346.57493030714875,25.0
94,3.789172887802124,175.19171058046902,487.40500532775553,1249.5599299421692,-249.51818421223905,21.875,5.790488876616781,0.1,0.01425313949584961,0.3778524398803711,0.052854925,0.014928112,207.34975750723243,-0.7052273940674372,0.8745642725992292,21.875,19200,3.22351336479187,0.08714269647528144,0.03359358223370593,354.108854160579,31.25
95,3.642258882522583,332.2649185132049,565.6662545383799,1463.998403113845,-262.3340758652234,32.291666666666664,7.6234765513894605,0.1,0.012929916381835938,0.3480064868927002,0.04435095,0.009684641,219.8412736078297,-0.6548193846213407,1.6599722820453262,32.291666666666664,19200,2.594127655029297,0.029382572524656567,0.01329314767774714,351.1670351265118,31.25
96,3.5549941062927246,275.0729496066024,553.0457695705408,1328.558224337243,-282.244917854056,28.125,7.900093874069013,0.1,0.013846158981323242,0.36439943313598633,0.052749928,0.012463721,225.36444120770696,-0.6949399247760831,1.3742267418905836,28.125,19200,3.219672679901123,0.02980009671072516,0.018869976468605096,350.0816458508891,31.25
97,2.9257752895355225,189.56619138841629,512.2315859053725,1442.4073515606176,-262.7806619433167,19.791666666666668,6.627182534541171,0.1,0.011947870254516602,0.33980512619018555,0.05315799,0.015422535,221.7846162257779,-0.7144883978876931,0.9473866021123069,19.791666666666668,19200,2.6265060901641846,0.039413525436905614,0.02003680453002497,335.61580843294865,31.25
98,3.8411357402801514,254.67774977187833,511.2784861819804,1317.6389097988426,-276.9754964542231,21.875,5.5340849533656336,0.1,0.012621402740478516,0.32154273986816406,0.04821098,0.0149725,225.07392958038795,-0.6598105253991359,1.272689474600864,21.875,19200,2.6310834884643555,0.042456464726799786,0.024368796881664885,340.92393348809713,31.25
99,3.198147773742676,167.20804560032866,457.22148723380855,1277.3583431084753,-246.27363850945108,15.625,6.099523150667226,0.1,0.01661062240600586,0.34003520011901855,0.049152553,0.016927015,219.28734118238202,-0.718564402992572,0.8349772636740947,15.625,19200,2.5422770977020264,0.0445584779538551,0.02421744205571874,347.4876083886226,31.25
100,3.8257803916931152,183.12914858587973,473.9570394193648,1281.2669138223873,-256.2394162756314,16.666666666666668,6.170751640466558,0.1,0.012823104858398438,0.3441905975341797,0.050849717,0.016299624,215.6715219227318,-0.7219043587951287,0.9147623078715382,16.666666666666668,19200,2.5360095500946045,0.04562578695321718,0.0300526295573656,346.2968054032772,31.25
101,3.8484268188476562,229.9911276517217,538.5847699808073,1470.8417779956906,-277.54863476800074,22.916666666666668,6.129105725603657,0.1,0.014415740966796875,0.33637261390686035,0.04161696,0.016090192,217.10348249563083,-0.6872704209871007,1.1496045790128993,22.916666666666668,19200,2.6937930583953857,0.025846912417472553,0.013796712769585046,345.1177491599263,31.25
102,3.642740249633789,217.97716737689726,542.5478786465194,1412.015670224123,-278.2145363464136,21.875,6.959556036022022,0.1,0.015526771545410156,0.3473970890045166,0.05058269,0.013817346,217.19085098375746,-0.6800347934841801,1.0885068731824867,21.875,19200,2.744255304336548,0.029037357703331042,0.021648208788295185,345.09143718949787,31.25
103,3.5814454555511475,264.68222607344313,553.5796141010253,1539.8148993555747,-263.29371185393234,23.958333333333332,7.707703033891942,0.1,0.013052225112915039,0.34494948387145996,0.04785539,0.013411328,221.93998849272606,-0.6575026740581081,1.322705659275225,23.958333333333332,19200,2.694101572036743,0.03282465440451334,0.019465849466451232,354.8734158045843,37.5
104,3.636258840560913,277.717801907047,558.7827342180996,1540.2523893464931,-265.73978815207244,23.958333333333332,5.129264617142175,0.1,0.012876272201538086,0.34369540214538574,0.048540585,0.019770823,227.51776983415817,-0.6734064263008096,1.3868019070325233,23.958333333333332,19200,2.7289845943450928,0.03337517809725834,0.022053369746754824,354.4047263480221,31.25
105,3.89162540435791,170.25077902263914,501.9405038994216,1528.503162015418,-265.78448036239325,19.791666666666668,6.052285835523551,0.1,0.012355804443359375,0.35011744499206543,0.048916522,0.016114322,221.79107075300627,-0.7083983715782516,0.8507682950884151,19.791666666666668,19200,2.6427102088928223,0.04304744512942987,0.023456680968783075,352.40247906919416,31.25
106,3.5004217624664307,230.69918718966588,491.75686307711374,1430.7160332286303,-252.3233784225076,17.708333333333332,7.958273140452563,0.1,0.014141321182250977,0.3855419158935547,0.05186536,0.011017844,222.68188239667222,-0.6709183255755656,1.1530400077577678,17.708333333333332,19200,3.3067524433135986,0.033851552556464035,0.021617199148053583,357.14245360244945,31.25
107,3.6759369373321533,135.07708101874888,459.0606920379768,1415.7765700868488,-255.18569953334725,12.5,6.620937032970311,0.1,0.014936447143554688,0.40764689445495605,0.04924303,0.015171733,213.9214022588799,-0.7207142048763786,0.6742857951236213,12.5,19200,3.318236827850342,0.036709204106266186,0.01743852219161721,356.1429588298529,31.25
108,3.9204294681549072,281.71022947233115,558.4455931557235,1536.3978198049801,-260.93208260620327,27.083333333333332,5.826806778462064,0.1,0.016064167022705078,0.35331201553344727,0.047697417,0.019512074,220.70028498022504,-0.6821327352590326,1.4074505980743008,27.083333333333332,19200,2.6843326091766357,0.029951002880652593,0.016768372600654783,365.10104969083346,37.5
109,3.5645651817321777,228.14612752083622,521.8860552418806,1539.188216162308,-247.39538064042193,19.791666666666668,7.502006772247557,0.1,0.015782833099365234,0.4151570796966553,0.04645977,0.01436122,221.44486923428616,-0.6773387356588255,1.1403695976745079,19.791666666666668,19200,3.455610513687134,0.04513854945630281,0.028924523270284865,358.65194410339046,37.5
110,3.9786994457244873,248.92104453099105,537.9554790993751,1310.6143628804311,-271.96641842791377,26.041666666666668,7.471678518253958,0.1,0.012556076049804688,0.3200681209564209,0.052503772,0.01417736,224.19248676395665,-0.6824935162398335,1.2437564837601665,26.041666666666668,19200,2.931309461593628,0.030170624216526446,0.015939903330228617,359.9494834291461,37.5
111,2.9462099075317383,175.38046357384454,483.4989250861262,1426.6822678532776,-264.1273139744101,18.75,5.656696795440501,0.1,0.015204191207885742,0.4010200500488281,0.052338026,0.017513638,219.31128444494544,-0.7135676855748362,0.8762239810918304,18.75,19200,2.7758424282073975,0.04308869632684996,0.025078687927868718,362.84237484829237,37.5
112,3.8818070888519287,196.52747899282176,516.1217255408708,1533.7300757488692,-276.8091426168292,18.75,5.822999668156954,0.1,0.013067245483398438,0.3451688289642334,0.04946826,0.017896503,217.03290389973307,-0.7035096907723243,0.9814903092276756,18.75,19200,2.6146023273468018,0.03534245517816375,0.017490101788950396,370.71912102363075,37.5
113,3.6474287509918213,229.9216262739053,539.406782843255,1483.7708331895706,-256.4044115110255,20.833333333333332,7.8678530816468575,0.1,0.014955282211303711,0.4212665557861328,0.05396211,0.012045439,218.32177613715032,-0.6907988982942413,1.1492011017057584,20.833333333333332,19200,2.783784866333008,0.050402866070502476,0.01721685636979967,370.2271697258401,37.5
114,3.8480565547943115,285.31756986675504,537.0333343797143,1347.5070489803948,-269.3229054099143,26.041666666666668,5.186727143156903,0.1,0.014982938766479492,0.38945531845092773,0.05096787,0.02139443,225.0213555101108,-0.679511230206796,1.426113769793204,26.041666666666668,19200,2.853391647338867,0.031645985906072815,0.019371594981272763,357.033034079381,37.5
115,3.8447885513305664,237.30969437190643,516.277964367131,1537.0509202914502,-275.5551432682974,22.916666666666668,8.292181307079442,0.1,0.01402425765991211,0.3689136505126953,0.04980816,0.011168584,226.25018939629038,-0.6718433107943439,1.1858650225389895,22.916666666666668,19200,3.532147169113159,0.03645601008927476,0.022219052716639653,356.7445219035859,37.5
116,4.095574140548706,190.219922661199,520.2617072662599,1339.2958388225688,-257.8031055347074,21.875,6.892998095035376,0.1,0.012990236282348633,0.3424835205078125,0.046996325,0.009220238,222.64716272278125,-0.7127063498154609,0.9502103168512058,21.875,19200,2.845374822616577,0.03598793379013886,0.01283980145907388,366.0586996315493,37.5
117,3.9066686630249023,290.95595905722047,572.0358602235829,1546.2696071983623,-262.4040376604337,27.083333333333332,6.316718343604049,0.1,0.020006895065307617,0.3621830940246582,0.04893057,0.01587876,229.47804235622516,-0.6692413012456907,1.4538836987543096,27.083333333333332,19200,2.845982313156128,0.0242413340205468,0.01571896095826012,367.6500158828759,37.5
118,3.6351943016052246,217.98862214356632,520.508998889943,1535.533549151584,-274.513861530602,18.75,6.112823543452206,0.1,0.014516353607177734,0.38803958892822266,0.04842878,0.016225835,228.3291003349593,-0.6732167145828615,1.089074952083805,18.75,19200,3.0343592166900635,0.03436925600659334,0.022679563497855413,376.33114465267374,37.5
119,3.80501127243042,222.50711787171272,540.223768601444,1457.3368896768638,-256.4286945260668,22.916666666666668,6.5826322117842055,0.1,0.015088558197021484,0.4004542827606201,0.04521052,0.014048783,227.74690208863464,-0.6931552018610598,1.111636464805607,22.916666666666668,19200,3.1641502380371094,0.02786950420526069,0.01630233337074756,373.5669008948109,37.5
120,3.8022842407226562,285.08965570789877,547.8505060143593,1470.085145932297,-250.90812237058566,30.208333333333332,5.909765916151864,0.1,0.014019012451171875,0.43782782554626465,0.050940372,0.0150894495,233.48117745056106,-0.6681845629587371,1.424523770374596,30.208333333333332,19200,2.8967907428741455,0.0293526563904208,0.012848408135350313,377.9328500390108,37.5
121,3.8583791255950928,265.36483802906633,528.19487967006,1544.2985849044026,-239.89167077661202,20.833333333333332,5.962489478642747,0.1,0.014163017272949219,0.3801918029785156,0.0475799,0.01958996,236.6695435084116,-0.6580659945677102,1.3256840054322898,20.833333333333332,19200,2.834664821624756,0.03631203851819153,0.02374554799186466,375.86980399042653,37.5
122,4.108081817626953,165.6769539953348,490.38734175299305,1532.0430417167875,-266.88461286157815,17.708333333333332,6.570773805618806,0.1,0.013585805892944336,0.36959004402160645,0.053247593,0.0137086,229.57028455710392,-0.6976976904852957,0.8281356428480376,17.708333333333332,19200,2.8530783653259277,0.03584453250712338,0.018465669105788896,381.20326396317625,37.5
123,3.8323230743408203,235.611418087501,511.43103627656956,1387.9263323696014,-273.71457050332765,19.791666666666668,6.000529314577364,0.1,0.041632652282714844,0.4500882625579834,0.047929,0.01654019,230.17439791014363,-0.6988849779406318,1.1773650220593683,19.791666666666668,19200,3.3907103538513184,0.02649598659959227,0.013715447427998026,384.236117332209,37.5
124,3.5613741874694824,295.71637243269913,575.191252938292,1536.7163741689276,-262.33044154571877,26.041666666666668,6.778127454545349,0.1,0.014019012451171875,0.45160698890686035,0.04917015,0.014710822,236.72859536239918,-0.6412967692023317,1.4770365641310017,26.041666666666668,19200,2.930945873260498,0.03201885884925125,0.016511890564785484,387.94577202123503,37.5
125,3.696619987487793,206.7773479583004,506.1209579668661,1430.6928741423862,-273.7702126082698,19.791666666666668,6.3343475736690635,0.1,0.01567697525024414,0.4158945083618164,0.047157485,0.017148396,233.7334706219893,-0.6981057591562955,1.0327275741770376,19.791666666666668,19200,3.454909086227417,0.03335685383074234,0.019379244543422384,385.85473091453144,37.5
126,3.484428644180298,331.76125485266056,568.2889569684178,1534.1213794928813,-273.2462260843124,26.041666666666668,6.337692186962739,0.1,0.016785621643066406,0.401320219039917,0.046362612,0.015023711,243.53624904505645,-0.6495976278861636,1.6576940387805033,26.041666666666668,19200,2.9885518550872803,0.028115577769136833,0.020747922681743036,383.24707748306173,37.5
127,3.830845594406128,223.99644320647027,529.2979264702049,1538.363586422939,-272.76477758894384,28.125,7.3776189515137105,0.1,0.014553546905517578,0.39500951766967773,0.051712677,0.014274556,241.58226846119783,-0.6917243057486115,1.1195256942513885,28.125,19200,2.856206178665161,0.0358556437845388,0.01855275558956366,389.17202304592195,37.5
128,4.076903343200684,294.9671120879222,552.8816322763447,1439.4100181794497,-258.36619905113986,23.958333333333332,6.864211925408647,0.1,0.013668537139892578,0.3810238838195801,0.0501744,0.015218714,246.92075282387026,-0.6619492737023137,1.4734673929643531,23.958333333333332,19200,2.820986032485962,0.03165693587094686,0.015102652467013863,388.7150350576104,37.5
129,3.8454391956329346,278.62728983693637,581.3200455715212,1502.7328966925759,-269.06099936269777,25.0,7.079527399449298,0.1,0.03339505195617676,0.4932417869567871,0.044524625,0.012306327,250.0914065251769,-0.6656696016930886,1.3918303983069114,25.0,19200,3.19553542137146,0.0202103766828569,0.012607854013142157,396.1391453415126,37.5
130,3.4806323051452637,322.87783457674647,554.5746587027354,1453.3203360866048,-237.31671452991137,29.166666666666668,6.954063909186605,0.1,0.013287544250488281,0.34061288833618164,0.043694552,0.011886091,257.37004933033387,-0.6411323946598565,1.6128259386734767,29.166666666666668,19200,2.8078131675720215,0.03139457672116897,0.01536853971855642,393.77124747865867,37.5
131,3.8173916339874268,411.614957854896,620.0993769457295,1539.7722959561318,-254.0585666586803,40.625,5.037423439002378,0.1,0.012858867645263672,0.3494248390197754,0.043060467,0.016703423,272.7945401827901,-0.6170842760476701,2.05604072395233,40.625,19200,2.637561798095703,0.028592148154641766,0.014725956974119972,396.5914234833872,37.5
132,3.85863995552063,297.30005042264787,588.0635292755803,1484.9135464725427,-277.9323685726173,29.166666666666668,6.7790992335666145,0.1,0.014548301696777344,0.3820497989654541,0.049100865,0.015903521,275.2450912067759,-0.67434604682955,1.4858622865037834,29.166666666666668,19200,2.6976301670074463,0.01642550818567596,0.009669954729906914,386.91348726323145,37.5
133,3.3920843601226807,230.33953917939684,558.6362879138096,1441.4270808984277,-276.58366904939857,20.833333333333332,6.592305976911638,0.1,0.015328407287597656,0.410078763961792,0.04990679,0.015292778,270.754536004038,-0.6993925712927079,1.1510240953739588,20.833333333333332,19200,2.784675121307373,0.02061379618814653,0.010452817836063943,390.14119572031814,37.5
134,4.083673477172852,252.65653464781408,552.3187645626438,1428.4380837934857,-274.7326625335692,22.916666666666668,5.6020217221581845,0.1,0.013880491256713867,0.38506650924682617,0.051514383,0.01990737,268.94473586841565,-0.6773293959638752,1.2626706040361249,22.916666666666668,19200,3.3090660572052,0.019014414956170615,0.011832563686464919,383.7505418399781,37.5
135,3.790731906890869,305.4730959808165,581.7909768102444,1500.1226619158729,-296.94990302596364,28.125,5.737766555300272,0.1,0.013123273849487305,0.3437678813934326,0.05110499,0.017922873,272.59757187965573,-0.6797287098832658,1.527146290116734,28.125,19200,2.787662982940674,0.024266866126439718,0.011916088878616256,394.0442271015367,37.5
136,3.8447861671447754,274.5196712778126,578.53671043231,1540.4718009546577,-285.7802662662915,23.958333333333332,6.04178913655246,0.1,0.029009580612182617,0.4083728790283203,0.047559578,0.01651228,272.78978181947144,-0.6631582607471779,1.3708000725861555,23.958333333333332,19200,2.857067823410034,0.032257058582390204,0.016108324762907935,391.0759984682955,37.5
137,3.667721748352051,311.97135026856654,597.6336967191133,1545.9933761566404,-309.94636200848174,32.291666666666664,5.649435387789982,0.1,0.015001535415649414,0.408672571182251,0.051869076,0.018153118,276.70793866438095,-0.6802133978477617,1.558953268818905,32.291666666666664,19200,2.9021048545837402,0.016755308751126612,0.010635453099344425,405.3910977514427,37.5
138,3.8735623359680176,245.50140198044804,574.5105731950239,1551.177636739369,-255.42817764448708,23.958333333333332,6.463239263261948,0.1,0.013370513916015625,0.33414745330810547,0.052909996,0.01543261,273.58728499598766,-0.6947245009400999,1.2275671657265668,23.958333333333332,19200,2.6547188758850098,0.02549909687720135,0.009417380619071172,396.2830645350419,37.5
139,3.711672067642212,224.3333301889794,558.9042344848851,1447.4953783913518,-282.214050537407,26.041666666666668,6.449462826453895,0.1,0.015773296356201172,0.42547154426574707,0.050250042,0.015529568,268.6618895152868,-0.6873335423971598,1.1203747909361736,26.041666666666668,19200,2.6081912517547607,0.016854762919660617,0.007747548385296147,404.55449211276107,37.5
140,4.122001886367798,261.04918256094317,545.0364245841214,1541.5193675077576,-265.3328396642788,27.083333333333332,5.628698047189685,0.1,0.012924671173095703,0.34681057929992676,0.047849085,0.017402688,267.90061881985247,-0.6746243949161626,1.304333938417171,27.083333333333332,19200,2.5750162601470947,0.025342993033147774,0.01389780284977404,418.5213689110511,37.5
141,3.855849504470825,271.7292380680356,536.5624923122232,1479.1747940883026,-269.54571118392005,23.958333333333332,6.647760289099795,0.1,0.020620346069335938,0.4348418712615967,0.04753946,0.0149247935,268.2834807446708,-0.6534982151125356,1.3577517848874647,23.958333333333332,19200,2.842602252960205,0.023940994047223597,0.013189149697991252,405.49810073068477,31.25
142,3.8357269763946533,235.45367323078554,550.3666071900894,1513.183481211902,-278.2088493158019,25.0,7.65703151617126,0.1,0.013008356094360352,0.3531317710876465,0.049685787,0.012923617,265.0004999932823,-0.7167357329511775,1.1761809337154892,25.0,19200,2.7961337566375732,0.02785606765867831,0.014704151798277729,402.52529063999793,31.25
143,3.7955286502838135,141.30412856747148,487.701359225772,1542.94363427698,-263.3764081593524,18.75,5.815468684465404,0.1,0.013109207153320312,0.3357973098754883,0.050598532,0.015224349,252.63086285070122,-0.7189877662440033,0.7053872337559964,18.75,19200,2.722808837890625,0.03180499828943296,0.016924739477336352,406.3329200190981,31.25
144,3.850445032119751,218.93211647254387,543.6379018728937,1367.2847396466223,-286.97933446023046,25.0,6.653984329587222,0.1,0.014441251754760742,0.37451601028442383,0.051319584,0.014739322,249.26098821288548,-0.7220314476081539,1.0935935523918465,25.0,19200,2.764437675476074,0.03231146634080736,0.012068397330861296,417.2255708289174,37.5
145,3.60452938079834,475.0436837698906,616.1176280326008,1545.603434318744,-277.75489522523543,37.5,5.341643217310134,0.1,0.023055076599121094,0.4536426067352295,0.040446177,0.015680384,271.839257768586,-0.6042589891619339,2.373657677504733,37.5,19200,3.4688243865966797,0.017615232535330098,0.007991477227344649,403.74743944440024,31.25
146,2.8437511920928955,162.8871207857596,525.666064860542,1420.7975097409446,-293.6646123179164,19.791666666666668,6.049584169910238,0.1,0.013533592224121094,0.3512074947357178,0.04886952,0.016257249,260.94404407030333,-0.7497803185561046,0.8137613481105621,19.791666666666668,19200,2.724832057952881,0.020724885124131114,0.008489471476362734,403.6914469985165,31.25
147,3.792966365814209,247.9042462004376,533.4816615208335,1392.570692899561,-264.2218782113111,22.916666666666668,7.354041272619392,0.1,0.012813568115234375,0.3558213710784912,0.050196987,0.011942532,259.64006428331675,-0.6973402199371838,1.2391181133961495,22.916666666666668,19200,2.6023449897766113,0.02376212437397538,0.010855586638255265,409.5253234045219,31.25
148,3.852689266204834,253.56581547464558,565.6106990656954,1550.9548017045668,-247.72428736917655,25.0,5.654646794533376,0.1,0.014278650283813477,0.49553918838500977,0.04549148,0.019228736,259.03263940244966,-0.6989024127883902,1.2665142538782765,25.0,19200,3.0107176303863525,0.022158946965753164,0.008107284383311757,414.0857251865966,37.5
149,3.910954236984253,297.6068090949773,549.2096844297156,1550.437622196681,-224.1175968052068,25.0,7.214020126542419,0.1,0.015247344970703125,0.38288140296936035,0.049199745,0.01422999,262.8900563717024,-0.645833407469851,1.486249925863482,25.0,19200,3.427086353302002,0.03140593859200324,0.01585929286215577,413.774025300094,37.5
150,3.798776626586914,239.38368405523613,538.0082407019155,1548.4526036237196,-268.9096040545077,20.833333333333332,6.179460203312014,0.1,0.012524127960205078,0.3248887062072754,0.048908703,0.015564043,260.53941914005577,-0.6766721925267069,1.1960361408066265,20.833333333333332,19200,2.7700047492980957,0.021692414850402224,0.010696122669380382,401.85747954091835,31.25
151,4.062136173248291,232.43072222177435,550.8013245307761,1540.9691292256173,-262.45128379610367,26.041666666666668,7.0538096654263995,0.1,0.017786026000976562,0.4049811363220215,0.046908952,0.014283638,257.7285494482276,-0.6886825112472881,1.1617341554193785,26.041666666666668,19200,2.7796287536621094,0.02020643358896577,0.011712392765823476,412.9809097498934,37.5
152,3.5848026275634766,282.1155274716893,572.0926913209873,1553.2309968178415,-244.46871547026848,25.0,6.919458575583413,0.1,0.016230344772338867,0.5757520198822021,0.051398892,0.014704326,260.1672472505738,-0.6699141644595207,1.4092525022071463,25.0,19200,2.877856731414795,0.025185152670676295,0.010111831941155057,409.98892681339356,37.5
153,3.8326163291931152,300.9262499601864,566.4713342337941,1489.0924344832656,-282.4809389222005,29.166666666666668,6.507208888746187,0.1,0.014804601669311523,0.3852550983428955,0.048833657,0.016053079,264.24314752153504,-0.6685564450633724,1.5039435549366278,29.166666666666668,19200,3.4448728561401367,0.013388557324036725,0.00639069658848668,404.7592666348269,37.5
154,3.816826105117798,343.3812368944261,584.0960860900669,1533.8293758977811,-276.30459768972577,33.333333333333336,6.600468009473781,0.1,0.020584821701049805,0.4464249610900879,0.047374066,0.017327348,272.15695645882414,-0.646354199354125,1.7153124673125417,33.333333333333336,19200,3.1288983821868896,0.019389906838207724,0.011479866687628196,400.77267267579043,37.5
155,3.826932907104492,238.04946447425542,535.8621358736519,1397.1293912163496,-265.60487175908213,25.0,7.176955624430221,0.1,0.012241840362548828,0.34655308723449707,0.050845373,0.014596128,268.74620726036727,-0.7080594265053711,1.1894405734946285,25.0,19200,2.6516799926757812,0.021224920814099445,0.01216248152845705,382.91062599771027,31.25
156,3.870750665664673,366.0623722189104,610.2225078882643,1393.2980025457712,-292.5809153742209,36.458333333333336,6.293076483517443,0.1,0.012420892715454102,0.33958983421325684,0.050375257,0.015081739,278.4778237562216,-0.6573082898833039,1.8287333767833627,36.458333333333336,19200,2.6925268173217773,0.013918515689993687,0.0075463273766508635,385.2114803244741,37.5
157,3.8327202796936035,250.85822926062886,549.7513016415741,1511.01420148767,-266.21643028451433,23.958333333333332,5.851188352985745,0.1,0.014750003814697266,0.3567020893096924,0.04559491,0.017354587,275.7158643066623,-0.6672632995382957,1.2533617004617044,23.958333333333332,19200,2.719305992126465,0.016960505102040387,0.00756037913217659,384.32555793720167,31.25
158,3.674309253692627,371.1033262277961,581.716100573258,1556.1963340886587,-254.7287494861207,33.333333333333336,6.508631972497732,0.1,0.016605138778686523,0.40805840492248535,0.046719592,0.013887721,285.25461049877566,-0.633764469317737,1.8539438640155963,33.333333333333336,19200,2.6802420616149902,0.01343978119893257,0.0062435876473921495,394.56899410486017,37.5
159,3.84259295463562,235.51392492872796,527.408883301931,1290.1002098703138,-270.7971293514303,27.083333333333332,5.755459073565116,0.1,0.014041900634765625,0.40198588371276855,0.050053652,0.016609622,280.28054194177093,-0.697065197840546,1.176684802159454,27.083333333333332,19200,2.8428795337677,0.0225630821205501,0.015508291536594289,399.7370455370146,37.5
160,3.497234582901001,272.3970106776689,581.1506822767484,1495.293437281106,-250.76389673331946,26.041666666666668,6.875911472619931,0.1,0.024220705032348633,0.440140962600708,0.04515859,0.013832293,279.49218881536075,-0.6587650806942973,1.3608182526390362,26.041666666666668,19200,3.520738124847412,0.0091595124668168,0.005437471060527992,405.8621659729288,37.5
161,3.8195645809173584,311.8019186394145,551.955444810584,1401.2964719183626,-253.8700387020633,27.083333333333332,6.7116335466990105,0.1,0.015870332717895508,0.3985409736633301,0.04737304,0.01613355,282.7231617977661,-0.6552202656789868,1.5581130676543467,27.083333333333332,19200,2.6926774978637695,0.023292138054049442,0.010172229287439166,408.2807454487278,37.5
162,3.8338687419891357,320.80635759286037,574.7775126412176,1413.1847003586922,-272.24937975018514,30.208333333333332,6.492089304803791,0.1,0.014341354370117188,0.3911750316619873,0.04819439,0.015049982,286.53148137727555,-0.6442011851045285,1.602673814895472,30.208333333333332,19200,2.710592746734619,0.01788287285618771,0.011622321302491653,396.48853157084045,37.5
163,3.8272452354431152,279.79711349702205,553.2803172492412,1406.5812429722191,-244.1165827952411,28.125,6.559236806465848,0.1,0.020482540130615234,0.4254155158996582,0.050917022,0.015388696,285.8580445892502,-0.6573473505481645,1.3980693161185025,28.125,19200,3.508270025253296,0.020289352340313354,0.01261456782255687,397.78152219223034,37.5
164,3.8741037845611572,266.0498889631174,575.6941336907747,1529.3489542623322,-268.1216960321241,27.083333333333332,5.782613996996904,0.1,0.014913558959960938,0.4499380588531494,0.045089565,0.01444384,283.87722902663694,-0.6679392477580341,1.3295607522419661,27.083333333333332,19200,3.4916796684265137,0.020105737709672365,0.012440005286205142,413.8819346344155,37.5
165,3.6246047019958496,252.1774836836167,533.447521604482,1494.8952165416347,-264.08765447278944,25.0,6.221821531136136,0.1,0.015906572341918945,0.4162318706512451,0.049379706,0.015995504,280.7072544923349,-0.6723357036396891,1.259539296360311,25.0,19200,3.3032937049865723,0.03115542556088725,0.013260213765064748,415.78377016216274,37.5
166,3.853614091873169,283.3079583372294,582.1061927842369,1475.967226573398,-283.9334229353765,31.25,5.984545444055294,0.1,0.014748096466064453,0.39574265480041504,0.05098541,0.016960327,280.96732487682436,-0.6691673065771399,1.4152076934228601,31.25,19200,3.534613609313965,0.01712282437195427,0.007611801115561969,420.4150748697583,37.5
167,3.79428768157959,376.93936373742696,615.9500991275975,1520.6672870380162,-262.5917289869302,35.416666666666664,6.799666220088947,0.1,0.015859365463256836,0.48143911361694336,0.049500253,0.016293177,290.5645287628846,-0.6350007503935332,1.8831242496064666,35.416666666666664,19200,3.9398090839385986,0.014380321342427905,0.009002120648408045,430.2555180441895,43.75
168,3.6825475692749023,216.4659972015962,527.4712562360063,1521.6416259448038,-265.33405954590614,20.833333333333332,6.423642943888591,0.1,0.015871524810791016,0.39174365997314453,0.050543174,0.01633346,283.15467560675575,-0.672783651339589,1.080758015327078,20.833333333333332,19200,2.811392307281494,0.02019274400254551,0.013201471996926218,438.5225338000673,43.75
169,3.8010952472686768,180.4848728628531,520.3141617497938,1422.0724421183431,-291.87556620968246,20.833333333333332,5.809435537300972,0.1,0.014531612396240234,0.38945531845092773,0.051809676,0.016498616,272.8876953323655,-0.7155231279582086,0.9015602053751245,20.833333333333332,19200,3.3704233169555664,0.024705569709386713,0.010216551315028523,427.7140304720035,43.75
170,3.680624008178711,327.185905633926,572.746413718733,1440.7312066296017,-274.33728889091844,29.166666666666668,7.339205907898235,0.1,0.01593947410583496,0.6240711212158203,0.050934803,0.013490247,278.3175163625216,-0.6406095370241127,1.634807129642554,29.166666666666668,19200,4.108801364898682,0.02318405738667123,0.007681095247318822,424.0034617194374,37.5
171,3.844615936279297,268.35457156272145,579.6394408469253,1553.487248412102,-258.0949887750788,23.958333333333332,7.1671219413657035,0.1,0.012755393981933594,0.34244704246520996,0.052541137,0.013039623,277.3212218825416,-0.6696590388013745,1.3417992945319588,23.958333333333332,19200,2.6090846061706543,0.019660679590448,0.005641458128742031,429.20476740163963,43.75
172,3.7746615409851074,315.19256384784615,592.1310713384474,1529.0626587860656,-252.4923410546688,29.166666666666668,6.417088769592715,0.1,0.012286663055419922,0.35300183296203613,0.04880633,0.016035678,281.10835607907205,-0.6493694942346641,1.5741721724320026,29.166666666666668,19200,2.783018112182617,0.016498577346760492,0.008386724960307823,435.2310964159189,43.75
173,3.815044641494751,215.7249491695036,574.9968412098276,1518.3424276691076,-235.26443137863902,23.958333333333332,8.927529599903878,0.1,0.015572309494018555,0.39658594131469727,0.051139615,0.011290695,274.5700153881152,-0.6793372157773967,1.07795445088927,23.958333333333332,19200,2.770176410675049,0.010197466385002142,0.005154933473972463,436.16722603567894,43.75
174,3.6913723945617676,315.0715215865188,558.902857421181,1406.885051288718,-267.67181466627267,27.083333333333332,5.938263434000432,0.1,0.014892339706420898,0.6315627098083496,0.046422515,0.015535545,278.6201660079556,-0.6264354240501646,1.573772909283169,27.083333333333332,19200,3.293928623199463,0.020500592641810072,0.010529528329064479,438.64071518719607,43.75
175,3.944699764251709,324.02846373308347,551.5089762839904,1459.2607292325172,-288.1880073417056,33.333333333333336,6.2174629638606085,0.1,0.01744675636291504,0.45516204833984375,0.05215499,0.016048387,283.1609957804684,-0.6604043546065896,1.6183456453934102,33.333333333333336,19200,2.699204206466675,0.022045233651669473,0.007328890171680258,447.3952905313651,43.75
176,3.7554948329925537,304.4102770327184,529.5176277597161,1495.321959390762,-286.2663705528986,27.083333333333332,4.884736266863112,0.1,0.012494325637817383,0.369187593460083,0.046902552,0.02005888,285.2859239056934,-0.654920778077578,1.521120888589089,27.083333333333332,19200,2.794799327850342,0.022872139114265735,0.010721119882836597,445.74219448299255,43.75
177,3.794667959213257,335.51648422843544,546.8709020516368,1432.355825649521,-287.9376030879246,30.208333333333332,7.911798015371808,0.1,0.012085914611816406,0.3149986267089844,0.045844637,0.013677761,290.3089799379676,-0.6420654557385729,1.6762678775947604,30.208333333333332,19200,2.6980502605438232,0.023313966891063836,0.009649229657369592,444.694152942452,43.75
178,3.857063055038452,347.0905893020392,560.5211192410216,1513.2188478544495,-268.99519412798446,29.166666666666668,7.514879352419453,0.1,0.023007631301879883,0.4764986038208008,0.046976045,0.013849112,295.98714087437475,-0.6288220069043898,1.73430299309561,29.166666666666668,19200,2.906956672668457,0.015961787158119887,0.008901160984923332,425.7564926471864,37.5
179,3.83384370803833,258.6654959072942,544.4644409958129,1480.3625791600527,-281.9824374412661,22.916666666666668,6.4788734206481635,0.1,0.016506195068359375,0.41760873794555664,0.051196318,0.01688949,292.2549763776667,-0.6711295162510652,1.2915788170822677,22.916666666666668,19200,3.587867498397827,0.02318248477821561,0.008659951897402556,420.13328591526226,37.5
180,3.8132879734039307,291.5682829864178,592.0171649252575,1440.9476480290907,-274.4353467819415,29.166666666666668,7.018203331954078,0.1,0.015122413635253906,0.4140357971191406,0.048819054,0.013774438,292.1863070385418,-0.684429417383203,1.4572372492834635,29.166666666666668,19200,2.9843945503234863,0.015282548021231085,0.007352122027317927,421.8270478191253,37.5
181,4.152661561965942,329.5050745241401,575.4863259997888,1485.7114796935962,-245.5118258942642,30.208333333333332,9.565178439996318,0.1,0.016960620880126953,0.5048067569732666,0.050224908,0.009492592,295.91818378710167,-0.6421822285972315,1.6461511047361015,30.208333333333332,19200,2.8309755325317383,0.019224506782220912,0.01169375323480109,432.77687389368884,43.75
182,3.7303524017333984,336.29374998389596,569.7310111333818,1497.300747046989,-280.6234968431021,31.25,7.130367650723369,0.1,0.01461935043334961,0.36544370651245117,0.04833151,0.01396867,299.9557404067811,-0.6475099866702697,1.6806150133297304,31.25,19200,2.8965060710906982,0.01301223049535499,0.00878428040581638,437.7145376652725,43.75
183,3.8090450763702393,318.6242114004971,556.2594233879367,1359.5480427712218,-294.47043613123503,31.25,6.4464040895405414,0.1,0.016015291213989258,0.4297041893005371,0.0487888,0.014545886,301.82258750615273,-0.6536480377669417,1.591560295566392,31.25,19200,3.7057535648345947,0.0147733632041718,0.008087230964805844,439.49165202263316,43.75
184,3.676063060760498,288.5598956445333,522.1724376894323,1456.9626553426785,-296.3101002632156,28.125,8.3940391020869,0.1,0.014020204544067383,0.4001884460449219,0.05465957,0.014332738,300.4963183199908,-0.6534749455113371,1.4419417211553294,28.125,19200,2.778235912322998,0.026064343415052205,0.011701024880153097,455.13501726378456,43.75
185,3.8460893630981445,214.7130602713954,514.8900420493862,1504.2548856106741,-252.6057313358115,18.75,6.282815500613381,0.1,0.0179288387298584,0.44545841217041016,0.050640892,0.015148805,291.91799251513123,-0.6688314823964546,1.0720018509368787,18.75,19200,3.4052164554595947,0.020717705784230496,0.009953541722566704,455.174474401922,43.75
186,3.5209574699401855,338.84241454254453,568.2916339905936,1391.2323005261067,-284.19545705949605,30.208333333333332,5.850394210191885,0.1,0.012835502624511719,0.39217686653137207,0.05015681,0.017137043,296.6104347178726,-0.6544220103266273,1.6928696563400394,30.208333333333332,19200,2.825986862182617,0.013921334830428535,0.005419968590589477,458.91392919618613,43.75
187,3.881032943725586,277.9903334963656,564.0489133285348,1479.9738056240126,-275.6288230836255,27.083333333333332,6.413244122825907,0.1,0.017369985580444336,0.49582815170288086,0.05069517,0.015692238,294.7484245957219,-0.6771749769528954,1.3888666897137714,27.083333333333332,19200,4.282688140869141,0.015751588288644657,0.009074085260821992,460.13226772712903,43.75
188,3.8270084857940674,221.73315246686732,514.6838867447443,1438.4036591229892,-266.75848068332306,23.958333333333332,6.5976544728308975,0.1,0.01280355453491211,0.3403458595275879,0.03846986,0.0114738615,287.4468973828364,-0.6762312434325125,1.1073104232341542,23.958333333333332,19200,2.6326332092285156,0.023593628173037073,0.008305603033328486,461.3293717350577,43.75
189,3.869744300842285,267.58390649068724,561.43470606382,1533.0112738959954,-250.85981668711477,28.125,6.767467919598441,0.1,0.01631760597229004,0.474759578704834,0.056115735,0.015923621,285.4605982936215,-0.677702694936503,1.3370889717301637,28.125,19200,3.0298478603363037,0.013462298942354864,0.006931605057457664,472.32791991868254,43.75
190,3.5427637100219727,338.626911344231,569.2781117309671,1521.084043953282,-278.8014322743861,31.25,6.039880607409847,0.1,0.015418052673339844,0.42584753036499023,0.053632595,0.016685162,290.7772295986824,-0.640964934395504,1.6911183989378296,31.25,19200,2.805673360824585,0.014569998617977004,0.009926958136897507,478.7481335888948,43.75
191,3.796340227127075,315.0048595346745,596.0796903367295,1552.538092811524,-284.6916833888086,30.208333333333332,6.090834158613854,0.1,0.01511383056640625,0.4444112777709961,0.048228707,0.015304145,293.1999925922816,-0.6411311816791607,1.5732438183208393,30.208333333333332,19200,2.5861544609069824,0.0163195969446679,0.00779339534864967,485.4953625465847,43.75
192,3.4292094707489014,301.83481116724823,586.8209749556939,1558.135856884777,-267.4518959714429,28.125,6.809857105513746,0.1,0.015205860137939453,0.3848896026611328,0.050276056,0.015624779,294.06347444977825,-0.6550357521747694,1.5085059144918975,28.125,19200,2.4154741764068604,0.01590351007486993,0.010015394661344757,477.4555809599678,43.75
193,3.5432801246643066,214.46036434892184,533.1947401762995,1443.9930428110981,-265.65594270143146,23.958333333333332,5.870461440453279,0.1,0.01488947868347168,0.38339757919311523,0.04699817,0.014288973,286.1031634396926,-0.6865519028060643,1.0709480971939358,23.958333333333332,19200,2.655752658843994,0.0132311743937221,0.00662236782134318,477.8554617853283,43.75
194,3.7970986366271973,208.51606289656013,550.1184837080611,1502.059546491147,-288.72037779321636,25.0,5.779377922567706,0.1,0.013408422470092773,0.3864903450012207,0.04273058,0.018228212,278.3444533853793,-0.6975707239442744,1.0403459427223922,25.0,19200,2.9033637046813965,0.013537631333220659,0.0073517931885241005,474.55530584023836,43.75
195,3.681382417678833,383.3472423766664,592.2131416848192,1520.2048265552717,-277.33381164331615,36.458333333333336,6.331221548548762,0.1,0.017389535903930664,0.504631519317627,0.04718721,0.014577108,288.84473228450804,-0.6246501995446142,1.9153498004553857,36.458333333333336,19200,2.764587640762329,0.01737517809555693,0.008962650531572964,478.72182012690894,43.75
196,3.838222026824951,239.7433597838005,562.4239876200147,1437.5235636780833,-285.5278623189912,27.083333333333332,6.178708755833468,0.1,0.01436305046081543,0.3822448253631592,0.04906202,0.01684743,283.9345950344373,-0.674729575010622,1.1971454249893778,27.083333333333332,19200,2.679966449737549,0.009169526699858356,0.0037434559144350855,478.6421805343299,43.75
197,3.8559181690216064,326.100494334957,583.7431039290574,1552.1613911051102,-269.99397964817734,33.333333333333336,6.180343834319284,0.1,0.014586210250854492,0.3950822353363037,0.050624896,0.016391667,288.15118496448923,-0.6587510597700473,1.62979060689662,33.333333333333336,19200,2.761092185974121,0.013713147129057135,0.006123566515700891,479.1492534301442,43.75
198,3.969466209411621,244.35709104358537,585.2778500589087,1521.67864956504,-259.54305280625294,28.125,5.7819181018049575,0.1,0.026391267776489258,0.47896361351013184,0.04638105,0.017538518,283.77177557239884,-0.7146652964319354,1.221168036901398,28.125,19200,2.8520610332489014,0.010257220087937117,0.004491379676816089,476.1786601928444,43.75
199,3.5073182582855225,372.37874802233017,603.71745988891,1553.6902946628813,-261.76770342037514,35.416666666666664,6.963014291269549,0.1,0.01877117156982422,0.5007498264312744,0.051189054,0.015101172,292.63247281739194,-0.6198407179365023,1.860992615396831,35.416666666666664,19200,3.376572608947754,0.009024951206765372,0.004227617663378873,475.62710558874437,43.75
200,3.8272831439971924,384.4081591215661,570.1340833854264,1524.2068441264155,-260.79499520293297,35.416666666666664,8.007063195218011,0.1,0.014815807342529297,0.3945939540863037,0.050057475,0.011578235,301.81004144780934,-0.6118210772500161,1.9200539227499835,35.416666666666664,19200,2.7536723613739014,0.01732812980709341,0.008011992443612543,474.9099273319388,43.75
201,3.815661668777466,326.8165872147185,564.4656542483002,1558.5218293998523,-242.52965407324234,30.208333333333332,6.379995309458817,0.1,0.013031482696533203,0.47971558570861816,0.050698202,0.016416976,304.3106960245003,-0.6339562090060004,1.6325021243273332,30.208333333333332,19200,3.288119316101074,0.018226761912743136,0.007107115638528566,474.22166211161516,43.75
202,3.7045562267303467,228.45690654776362,543.1095308055635,1500.4200918094475,-291.05730233238756,26.041666666666668,7.397199705354496,0.1,0.017606258392333984,0.4177384376525879,0.03478053,0.010808146,296.7253170768267,-0.7021216604160542,1.1410033395839458,26.041666666666668,19200,2.7801201343536377,0.016457012047872907,0.012012443851961173,472.81647260154637,43.75
203,3.574235439300537,248.46305605643002,568.7200388937704,1551.3701818489749,-254.34974150236388,27.083333333333332,6.377619471292046,0.1,0.01401066780090332,0.5548431873321533,0.048840065,0.015296124,291.89909097478704,-0.6774924752498442,1.2416741914168223,27.083333333333332,19200,3.3401856422424316,0.010778860565461837,0.0050172695192571,471.9510895324863,43.75
204,3.7904105186462402,245.0322818582341,534.346594637838,1439.1177751877442,-256.9224907192496,22.916666666666668,5.959848816749946,0.1,0.015021562576293945,0.4310915470123291,0.05104394,0.018810816,287.21241006313176,-0.6588223694031313,1.2245109639302019,22.916666666666668,19200,2.9034554958343506,0.010671368042938455,0.005177108204281147,466.8541952514102,43.75
205,3.7999107837677,204.46946504689015,529.8903703448339,1414.5103366701303,-279.3660421367386,22.916666666666668,6.552446870817176,0.1,0.01589512825012207,0.47289323806762695,0.04566328,0.016968207,278.93811556150763,-0.6895990864772408,1.0212342468560922,22.916666666666668,19200,2.693420648574829,0.013152434929664817,0.005696317270523538,464.0120375813786,43.75
206,3.77020263671875,278.16600406270487,556.736321740005,1422.4364288881695,-249.8135030878942,28.125,6.839346722666717,0.1,0.01242518424987793,0.33748960494995117,0.050482895,0.013092658,278.86090441162736,-0.6544531689266138,1.389921831073386,28.125,19200,2.657589912414551,0.014880739722321542,0.004984334119376387,466.558337741605,43.75
207,3.866875171661377,218.7136499688054,552.0832114191517,1496.73746342102,-268.2628417808182,25.0,5.78459953393189,0.1,0.015097379684448242,0.4027211666107178,0.04597068,0.015592172,272.84617896734517,-0.6987944955014265,1.09224717116524,25.0,19200,2.7867629528045654,0.02445370045690651,0.006394494003538714,462.2693422626402,43.75
208,3.8391525745391846,261.507741084941,524.9710055476319,1535.071894805239,-268.9168364468743,23.958333333333332,8.06780962690151,0.1,0.01226949691772461,0.32682085037231445,0.049316745,0.01304557,271.71233517910474,-0.6444624973278322,1.3061625026721677,23.958333333333332,19200,2.6444811820983887,0.02861620260847561,0.01273656223293653,463.78008757119494,43.75
209,4.146466255187988,312.91219647253246,597.6339591369316,1555.901014259331,-278.58043484402157,30.208333333333332,8.05304593196188,0.1,0.012600183486938477,0.34486865997314453,0.04798141,0.012036582,275.8323213084475,-0.665467376972633,1.5636992896940338,30.208333333333332,19200,2.496373414993286,0.011981326300992181,0.007001839479058376,457.9622750319322,43.75
210,3.960620164871216,306.91938806579225,556.8153958415911,1401.9738933373203,-303.3785986809588,30.208333333333332,7.379454945244928,0.1,0.024759531021118164,0.4692039489746094,0.046295397,0.013132608,278.94102798418197,-0.6490148081393119,1.5332768585273548,30.208333333333332,19200,2.555764675140381,0.012447723566443417,0.006670255458678664,461.8846820603753,43.75
211,3.823244571685791,303.98356234626505,592.8775709928607,1531.7077982879646,-294.86617600569946,29.166666666666668,7.078292232426517,0.1,0.014850616455078125,0.5071742534637451,0.050132852,0.014563922,281.4452814203903,-0.666419466788953,1.5189971998777139,29.166666666666668,19200,3.552002191543579,0.012168342350201963,0.0054524124555986,471.9839613694189,43.75
212,2.9179646968841553,285.02991195865064,560.2763982796276,1379.4939079971978,-270.66661168087387,28.125,6.814270881157465,0.1,0.0157930850982666,0.4229435920715332,0.047209628,0.015344702,281.80374447421633,-0.6699782411224634,1.4233550922108698,28.125,19200,2.931321859359741,0.02098625859790138,0.007809052217464561,473.71504735760533,43.75
213,3.8407559394836426,310.4205511601553,577.7064587299898,1514.3787750690406,-248.0424010596371,29.166666666666668,7.753752120106882,0.1,0.014172792434692383,0.43726253509521484,0.05144463,0.012651128,284.66542514281025,-0.6496314720032461,1.5518268613300872,29.166666666666668,19200,3.4816038608551025,0.02121858359009997,0.009530209065955534,476.99791962688414,43.75
214,3.7742486000061035,419.37168595098046,575.0246861993652,1494.8436977526542,-241.0143672877978,39.583333333333336,6.312613928225901,0.1,0.014928579330444336,0.40390849113464355,0.048397575,0.01637163,298.1360512236273,-0.6034881861449629,2.0952618138550374,39.583333333333336,19200,2.657822847366333,0.012580246717529336,0.008094917121541305,466.68222926036236,43.75
215,3.9227192401885986,281.23387587619567,530.1623730339198,1452.6699693004336,-262.0842789114416,31.25,5.5224126638204405,0.1,0.01642012596130371,0.43656229972839355,0.054128114,0.016528368,296.44583368888414,-0.6533748770330731,1.4039167896335936,31.25,19200,3.3271706104278564,0.01691496855900515,0.0074588316935534655,468.6538294178552,43.75
216,3.8363709449768066,336.4416768952556,587.3972046918179,1446.2953483180797,-295.8081493971875,35.416666666666664,6.874243522637323,0.1,0.017249584197998047,0.42642998695373535,0.046452295,0.015386232,300.4454180095213,-0.6649514079518591,1.6808819253814742,35.416666666666664,19200,2.709512948989868,0.013547333006342482,0.0057467619986201176,466.04065180453824,43.75
217,3.837104320526123,363.4044958214003,572.6385238661104,1405.1708937370208,-253.20132767825265,34.375,5.210063089876608,0.1,0.012662172317504883,0.35068631172180176,0.04977185,0.018751843,306.7413257907092,-0.6382966281003637,1.8158700385663031,34.375,19200,2.7643046379089355,0.010948974195605065,0.005443827776064771,467.42703187036955,43.75
218,3.793198347091675,327.73310137589203,561.0534314132806,1487.3809855920947,-242.58423086809364,29.166666666666668,6.326495927065225,0.1,0.03726625442504883,0.589247465133667,0.05079441,0.013548982,308.8405033492275,-0.6300063173958483,1.6372853492708181,29.166666666666668,19200,3.3965797424316406,0.00895384004990339,0.005869557686388693,464.21419374791077,43.75
219,3.716745376586914,326.7779876771226,603.4049891692971,1517.443879926316,-251.57941858865573,30.208333333333332,6.269149889439958,0.1,0.021001815795898438,0.4305746555328369,0.053525735,0.014813497,310.63425178201703,-0.6413544785890003,1.633645521411,30.208333333333332,19200,2.7885053157806396,0.012954909530224977,0.00479634548661356,451.73989101038205,43.75
220,3.8395769596099854,475.6857036118936,595.7967447418573,1478.4612638460908,-254.7171242121672,40.625,7.1319752940790515,0.1,0.017544269561767578,0.47955822944641113,0.048329167,0.014640443,327.1393969650047,-0.58049198211298,2.376591351220353,40.625,19200,2.887835741043091,0.009131436626916798,0.0038732341365928106,447.79750216077434,43.75
221,4.028592109680176,382.9482548725962,562.3073044019777,1416.6541900872965,-257.60460435987915,36.458333333333336,5.838127589007124,0.1,0.015336036682128906,0.39338111877441406,0.053218663,0.017092694,332.7202827557639,-0.6061942463329374,1.9135974203337291,36.458333333333336,19200,2.7592973709106445,0.01186896718786473,0.005817634524092523,465.2363188846395,43.75
222,3.792053461074829,307.3462876546107,549.8379366278623,1342.2624352041062,-275.8352344296464,27.083333333333332,5.515204215727491,0.1,0.018308162689208984,0.5485053062438965,0.0440802,0.015845913,330.1828832456486,-0.6423304608308156,1.5351695391691844,27.083333333333332,19200,3.194859266281128,0.019356766581207777,0.008155171438830587,477.1900972938211,43.75
223,3.8308265209198,183.40524330951084,493.05992998490086,1423.8568740648022,-245.13298339177751,20.833333333333332,6.2718315329206415,0.1,0.014580965042114258,0.4393484592437744,0.05081513,0.016652893,315.50511925203483,-0.6862124953588649,0.915662504641135,20.833333333333332,19200,3.1241345405578613,0.017387059558177254,0.005753313292738442,477.5863829618732,43.75
224,3.8436291217803955,295.60448075440144,575.6370765930872,1429.1739897317445,-266.9914323638142,31.25,6.324616355484534,0.1,0.0248110294342041,0.44821715354919434,0.047953743,0.016009819,313.5150554022715,-0.6783259083559251,1.4766740916440753,31.25,19200,3.000581741333008,0.01595213500287302,0.00615272106099336,472.3276154248716,43.75
225,3.636263132095337,365.1137025654664,597.462235371149,1494.5998509518138,-259.454252341513,37.5,6.731376298297355,0.1,0.016665935516357422,0.3941020965576172,0.042755105,0.012825731,318.674920118591,-0.6345658804349322,1.823767452898401,37.5,19200,2.887866497039795,0.016545821815697595,0.005227819828460261,473.74610931957557,43.75
226,3.863189458847046,85.37534077851217,468.5655154260538,1400.5130167385887,-229.13076234206665,13.541666666666666,5.377482549409836,0.1,0.01597285270690918,0.4282522201538086,0.055019043,0.021056091,295.3449621845831,-0.7315469486685995,0.4257447179980671,13.541666666666666,19200,3.4699013233184814,0.018897592752073155,0.006303180116256166,475.2049649878211,43.75
227,3.385063409805298,282.70491519916413,533.8046326470358,1445.0074997854879,-252.21307357839967,27.083333333333332,7.941424350293065,0.1,0.013750076293945312,0.38387227058410645,0.04756938,0.013402399,294.0809574860412,-0.64331062860697,1.4114810380596967,27.083333333333332,19200,2.848571538925171,0.016737614081595454,0.00823183586025872,486.147727639546,43.75
228,3.809471845626831,275.55241621540785,560.1435465883633,1464.0602940777364,-282.9518241623953,29.166666666666668,7.001088510326846,0.1,0.015774965286254883,0.4148073196411133,0.054967068,0.012558161,292.2281033589779,-0.6836650791610005,1.3775849208389994,29.166666666666668,19200,2.9015660285949707,0.011404657838861272,0.005541759644854658,482.8466352262133,43.75
229,3.8040146827697754,290.68677053101766,567.9675070772488,1407.4514032938519,-261.9055980220786,28.125,5.734647303036951,0.1,0.015094518661499023,0.387911319732666,0.04382411,0.016275737,292.0739700761818,-0.6528815850168003,1.4527434149831997,28.125,19200,2.7782278060913086,0.0075638656391842285,0.003922600170991122,492.12966529767397,43.75
230,3.2722485065460205,301.83581653693017,570.835644005602,1514.980624638214,-244.22113011374515,28.125,7.111700437352723,0.1,0.014990091323852539,0.4019625186920166,0.049335744,0.0141115,293.05015472225665,-0.6456844480594878,1.5084822186071791,28.125,19200,2.809307098388672,0.010891520720094748,0.00542040262393118,491.45108959816054,43.75
231,3.778958797454834,228.82324299214687,529.6405292059,1474.4584409863671,-275.7373949587292,23.958333333333332,7.425153899162325,0.1,0.014458656311035156,0.4211397171020508,0.04734166,0.012831587,286.6274635492457,-0.6817603965183183,1.1436562701483484,23.958333333333332,19200,2.7577478885650635,0.010182680778303596,0.00465579355825334,498.0223083526457,43.75
232,3.6221208572387695,286.0021133305743,566.339687682494,1489.6372611361273,-234.4857597217994,27.083333333333332,7.336278185117141,0.1,0.012847423553466797,0.3454740047454834,0.049797878,0.013680294,286.5649285273786,-0.6471109230806832,1.429139076919317,27.083333333333332,19200,2.7160556316375732,0.015980261135949636,0.006371554207203996,501.47611606090237,43.75
233,4.012799024581909,207.82177394182932,502.7732801571525,1401.5367075135064,-249.6996894310036,21.875,6.041803771233739,0.1,0.012703418731689453,0.3438687324523926,0.05115623,0.01811276,278.69061306882367,-0.6548965792121427,1.0382284207878572,21.875,19200,2.6717419624328613,0.014029747189772438,0.004801760434838002,511.1960372797964,43.75
234,3.8453619480133057,382.99442436841946,615.4646765123528,1557.7659726076583,-271.20635629512094,38.541666666666664,5.353204572587853,0.1,0.025928497314453125,0.5635242462158203,0.049840834,0.018160356,289.12099419878325,-0.6429381983264805,1.912270135006853,38.541666666666664,19200,3.378993034362793,0.011383297031802388,0.0042753126896759525,509.8234025772673,43.75
235,2.9086196422576904,431.5720591285053,579.3922616457995,1413.6434795604262,-287.1285111329288,39.583333333333336,4.562239421504955,0.1,0.014089345932006836,0.34204792976379395,0.050876167,0.022730235,303.3661006917555,-0.6185498010218304,2.155408532311503,39.583333333333336,19200,2.790234327316284,0.009994488469364867,0.0060219460170606535,505.6265329198809,43.75
236,3.8242173194885254,281.43710995065686,574.1669122040556,1549.3699044096236,-258.3057544288477,28.125,6.665199254468711,0.1,0.015244245529174805,0.40424466133117676,0.044684444,0.01413478,301.17320161764565,-0.657623265889195,1.4067517341108051,28.125,19200,2.8469831943511963,0.009548180744963388,0.0045363543270304915,507.2290506750826,43.75
237,3.80680513381958,233.79499548151398,536.2268381162828,1342.3821584270672,-269.6248239565784,25.0,6.415593610402906,0.1,0.03535866737365723,0.6373746395111084,0.050451506,0.017592754,294.4353810040325,-0.6973273859967394,1.1682976140032608,25.0,19200,3.519808769226074,0.01524293981830587,0.008501368917557884,504.3542921073277,43.75
238,3.8344650268554688,335.3826795350412,584.4280290363225,1547.150602276845,-255.8871511449387,29.166666666666668,7.1866436517938235,0.1,0.01575016975402832,0.4991333484649658,0.051094897,0.01357321,298.5301108571333,-0.6377613215041985,1.6759886784958014,29.166666666666668,19200,4.427715301513672,0.010519325549681569,0.004575119723761588,495.29553085307384,43.75
239,4.067617893218994,193.37656066335867,512.0256257278124,1529.9827754673727,-273.6181159268598,19.791666666666668,6.839505386783134,0.1,0.015061616897583008,0.40219974517822266,0.04764804,0.012813315,288.01475583775584,-0.6902764854504463,0.9657651812162203,19.791666666666668,19200,2.7779510021209717,0.021089615732203502,0.00789234433158692,503.47720715403256,43.75
240,3.839268445968628,259.7357508319133,553.2926105156307,1360.7845543296498,-254.77595351375177,26.041666666666668,7.4118263740213965,0.1,0.013931035995483398,0.3917386531829834,0.04640259,0.015145095,285.1868553371716,-0.6942850602524389,1.2980066064142275,26.041666666666668,19200,2.6277456283569336,0.015453478883144583,0.007606082281429427,497.43811761300753,43.75
241,3.8140711784362793,414.3112209570798,615.8898271489879,1479.7780649425142,-253.82127011690045,39.583333333333336,5.94632682873816,0.1,0.014289140701293945,0.3968021869659424,0.049664184,0.017056383,298.09929189916244,-0.6102204338457311,2.0704045661542687,39.583333333333336,19200,2.671234607696533,0.011941816856649518,0.0056171742710414835,495.07070802115766,43.75
242,3.809511423110962,267.8352779817119,568.173384453473,1547.4122938441747,-265.6725717561024,30.208333333333332,5.604936794423515,0.1,0.013779640197753906,0.4149606227874756,0.049361687,0.017367454,295.07289050741736,-0.6828191641230589,1.3380141692102745,30.208333333333332,19200,2.858448028564453,0.011173882158955303,0.004482198389968376,492.454819668563,43.75
243,3.822443962097168,301.33467688046056,569.9390406207665,1493.3181181514356,-268.9108673053728,27.083333333333332,6.67925695978511,0.1,0.015508413314819336,0.43635106086730957,0.04814186,0.014758518,295.69906914472165,-0.6657008635984792,1.5053408030681872,27.083333333333332,19200,2.7124826908111572,0.0177085992339863,0.006639324279979958,498.1218764629424,43.75
244,3.6795754432678223,367.6424694722743,618.3657489694327,1442.679950863217,-261.00698560894193,36.458333333333336,6.229103973073072,0.1,0.014520883560180664,0.4086039066314697,0.048731938,0.015794663,302.89340917747694,-0.642865942835038,1.8379673904982956,36.458333333333336,19200,2.5341784954071045,0.009681420587475233,0.00502123887504496,499.2509704961697,43.75
245,3.9688355922698975,306.3651589998539,586.775300124496,1515.8485949517071,-266.12351675755326,32.291666666666664,5.900337760073865,0.1,0.017278194427490234,0.4541008472442627,0.051924117,0.014922301,303.2405841597147,-0.6770344113161068,1.52963225535056,32.291666666666664,19200,2.96702241897583,0.013744882932225436,0.006178314744550886,503.30785995161887,43.75
246,3.0265119075775146,261.0036275223094,544.4686694093416,1529.0573665446743,-247.75885205210488,27.083333333333332,6.1819554582834355,0.1,0.017690181732177734,0.44134068489074707,0.048578333,0.016140465,299.0168884959741,-0.6736433644660133,1.3032316355339866,27.083333333333332,19200,2.920988082885742,0.016010259750456092,0.008063260971522903,501.37281669485105,43.75
247,2.921168088912964,273.0806135196851,558.3801937844186,1525.3614528192988,-267.4974708198878,23.958333333333332,6.202311328087867,0.1,0.016082763671875,0.42336583137512207,0.048315346,0.017654296,296.4232609983452,-0.6726025420409768,1.3642724579590233,23.958333333333332,19200,2.9025139808654785,0.01739680976541623,0.006790316059971837,504.55425887072045,43.75
248,2.9251503944396973,239.26178198705875,535.7335443072557,1510.320371851883,-275.56012287846164,23.958333333333332,5.534870016877268,0.1,0.018119335174560547,0.4507136344909668,0.045790378,0.018836934,290.70711309721656,-0.6924889835224971,1.1954276831441695,23.958333333333332,19200,2.8955705165863037,0.013753409334769063,0.006429854699789556,503.446889472056,43.75
249,2.9095265865325928,309.0017642238993,602.5322494006889,1558.5184620381326,-266.8051787967918,30.208333333333332,5.581759380141672,0.1,0.016063690185546875,0.4533703327178955,0.049790587,0.018483303,292.5365782098848,-0.6794388740875967,1.543894459245737,30.208333333333332,19200,2.7868258953094482,0.01547388337974209,0.00724149130029326,504.4547654413228,43.75
250,3.6808435916900635,249.81129538010546,541.0993089770104,1401.3842658017402,-268.7649021048346,28.125,6.094667538499327,0.1,0.015431404113769531,0.3943507671356201,0.054310042,0.015274408,288.26404992690686,-0.6768458919790565,1.2475291080209434,28.125,19200,2.710721969604492,0.01255161367598935,0.004056457360140563,508.87206518642205,43.75
251,3.598581314086914,415.18149016694844,588.8058603583091,1398.8157892929542,-233.7621157356018,37.5,7.481436967846241,0.1,0.014356613159179688,0.37843823432922363,0.044001684,0.012055787,300.955793950911,-0.5987922297494097,2.074749436917257,37.5,19200,2.73563551902771,0.009598994268896367,0.005006068034647442,505.1217126003536,43.75
252,3.5393073558807373,358.7621502162692,576.7938709342775,1479.6824147817126,-232.93764955931542,33.333333333333336,6.782597832794221,0.1,0.025762557983398438,0.49706506729125977,0.05181585,0.013980255,306.73642957744687,-0.6416852076914198,1.792481458975247,33.333333333333336,19200,3.390206813812256,0.015184129452865784,0.007532213532948984,507.03512092577625,43.75
253,2.9152884483337402,226.31318934304537,533.5767569237881,1353.8301777391598,-243.15372468184765,26.041666666666668,4.7943609772713485,0.1,0.01342630386352539,0.435774564743042,0.049908586,0.022881847,298.69410555400674,-0.6993929410060362,1.1299820589939638,26.041666666666668,19200,2.923969268798828,0.010634871087139713,0.003915642305404522,511.5144540009712,43.75
254,2.913532018661499,335.03232262354527,567.2007355979221,1506.4468178857087,-271.35929876155126,29.166666666666668,6.422469771969364,0.1,0.015486955642700195,0.41843533515930176,0.053288296,0.015406397,302.32792726096056,-0.6453811647144098,1.6735771686189238,29.166666666666668,19200,2.9571151733398438,0.021240185468541634,0.006906497712124989,514.4736717298161,43.75
255,2.926572322845459,304.7488481523645,602.8939544708675,1559.2319923291213,-254.69241188735853,31.25,8.490155958596707,0.1,0.016509294509887695,0.4357271194458008,0.051878285,0.010858367,302.570019350101,-0.6479659591350737,1.5230757075315928,31.25,19200,2.924562454223633,0.012289342190383915,0.005410909341226112,510.1688621537696,43.75
256,3.49996018409729,386.06385035675004,611.5324888826226,1458.5967090154136,-266.32889788259473,34.375,7.881041575570864,0.1,0.014336347579956055,0.406463623046875,0.05190362,0.012950992,310.9194024507659,-0.6235663523249521,1.9291419810083814,34.375,19200,2.9201107025146484,0.015322539110172504,0.006549362199027792,508.64141182778235,43.75
257,2.903540849685669,320.05752160562946,587.746080200854,1515.5341991985972,-268.0301579896406,31.25,4.9553824616881865,0.1,0.01321554183959961,0.33411240577697754,0.050650563,0.021389958,311.8332143662523,-0.6410253923661036,1.5993912743005632,31.25,19200,1.8136096000671387,0.011881238595290732,0.005298236985472155,506.2662731454711,43.75
258,2.9592487812042236,203.0163211016262,523.7250551285304,1515.4088591511274,-267.5110003517164,21.875,6.322050893300276,0.1,0.014557600021362305,0.3980710506439209,0.048069607,0.015040057,300.9515250397897,-0.6777198238947456,1.0139468427719207,21.875,19200,2.76159930229187,0.013929826020551426,0.004888453057610994,505.10625759332197,43.75
259,2.967806339263916,287.4570266520373,580.5948820777363,1405.7337074138452,-253.1160159106741,27.083333333333332,5.732420623401481,0.1,0.019598722457885742,0.469529390335083,0.04655839,0.01770792,299.6020752010145,-0.657395299661453,1.4363547003385468,27.083333333333332,19200,3.3783905506134033,0.016792170330000283,0.007101517433683928,504.62351858314474,43.75
260,3.8584396839141846,337.0075734139097,594.1301386789097,1557.8604505203498,-272.17609255029714,31.25,5.707546591088574,0.1,0.015362024307250977,0.4189777374267578,0.05054638,0.017096685,303.342625022304,-0.6367980858821585,1.6829935807845082,31.25,19200,2.7742702960968018,0.012396359866842753,0.006469131429502951,503.4920714154382,43.75
261,4.004282712936401,249.38170260202796,558.9565630784128,1549.9065472710881,-255.9918322208078,26.041666666666668,7.010818782680725,0.1,0.015377998352050781,0.4602634906768799,0.049524713,0.014496665,297.9465327802764,-0.6866637970507915,1.2460445362825419,26.041666666666668,19200,3.432201862335205,0.019008244485855686,0.0059853045253660826,500.26844386817356,43.75
262,3.7071566581726074,337.85335437365114,571.0011035045299,1462.727529371967,-277.36890538647,34.375,5.464973496947506,0.1,0.015374422073364258,0.4189927577972412,0.04880883,0.018889943,301.9372149396139,-0.6437626186553166,1.68790404801135,34.375,19200,2.862112522125244,0.012934119712398906,0.0050521570217106045,499.59579792545605,43.75
263,3.8577919006347656,221.0521853537639,507.5246588148924,1403.3563913643245,-258.1431842831479,23.958333333333332,6.888204033647683,0.1,0.024999618530273438,0.4936866760253906,0.0531794,0.013981706,293.8487119810289,-0.6671238302427206,1.1039178364239461,23.958333333333332,19200,3.472770929336548,0.01770209960052661,0.01095678357322888,496.3703622395706,43.75
264,3.7033674716949463,303.02316440485777,558.3345781934328,1447.817799260123,-254.05967487301234,30.208333333333332,5.986064844750271,0.1,0.02718639373779297,0.411344051361084,0.052227736,0.015804183,294.76615722341177,-0.6483322092027338,1.513542790797266,30.208333333333332,19200,2.680112361907959,0.01756308145976692,0.008475531057997327,499.1080239182158,43.75
265,3.842883825302124,228.85020200076588,522.5910050318575,1520.0435407798996,-257.28710307732314,25.0,7.0606777657444,0.1,0.013846397399902344,0.36936116218566895,0.047459,0.012898176,288.1745617011472,-0.6858365236244214,1.1427051430422457,25.0,19200,2.722034454345703,0.012146213985927495,0.0039839700194187555,497.7525863320059,43.75
266,2.9086296558380127,229.08660781925903,533.5243300672388,1494.6700098338126,-256.9849630961565,23.958333333333332,6.491016092114008,0.1,0.014812707901000977,0.5539863109588623,0.04671899,0.014718552,282.26576631295836,-0.6815696229478085,1.1436387103855248,23.958333333333332,19200,3.142550230026245,0.015933357438653505,0.008266175799668651,501.68639247694654,43.75
267,4.008591175079346,387.1099811891626,559.3294860083149,1512.915438315718,-264.3423010908519,38.541666666666664,6.663361694546951,0.1,0.016120433807373047,0.4301609992980957,0.039395023,0.014036009,292.7501878005788,-0.6124584412249678,1.9344165587750322,38.541666666666664,19200,3.4194324016571045,0.019989922153324957,0.007670973959903097,503.2989597167186,43.75
268,3.8400440216064453,253.0990780975977,543.6291297804456,1501.0241087976767,-280.75065738693206,30.208333333333332,8.464114224165021,0.1,0.027715682983398438,0.5214948654174805,0.04508491,0.011782617,288.7850768302807,-0.6899558800763771,1.2648357865902897,30.208333333333332,19200,3.9760537147521973,0.018508259815151005,0.006232886433805437,508.6636504886096,43.75
269,3.7951152324676514,320.07311574198707,562.023980326796,1433.8868366414144,-254.0552652972232,33.333333333333336,6.217260397602537,0.1,0.016292572021484375,0.4373483657836914,0.048676055,0.01654271,291.91388072145133,-0.6500752106493071,1.5999247893506927,33.333333333333336,19200,2.838223934173584,0.008479367653897032,0.0030095004484260186,512.9610874234186,43.75
270,3.802567720413208,334.1024067325798,566.6601376284084,1413.0777408078861,-266.0021353842675,35.416666666666664,7.258163539476866,0.1,0.014705419540405273,0.4135019779205322,0.055121295,0.0138337705,296.1327333225642,-0.6466579630009327,1.6693837036657342,35.416666666666664,19200,3.1075236797332764,0.00976599322968144,0.003753275617931129,502.4132709274452,43.75
271,3.7199978828430176,339.42408130195855,608.4736500091743,1483.5961498143884,-252.84594624606865,33.333333333333336,6.431454745784692,0.1,0.023091793060302734,0.5446276664733887,0.053112607,0.013633498,300.46186812050365,-0.6604418180514356,1.6958081819485644,33.333333333333336,19200,2.714143991470337,0.0070909031196692675,0.0022737182729096017,502.98534705919724,43.75
272,3.675790548324585,290.09902693105505,586.6234114056193,1519.4025400045,-246.314276236407,28.125,6.6704636388094345,0.1,0.015288591384887695,0.4001741409301758,0.05183828,0.0137066785,299.42558400155883,-0.6587625682642008,1.4489457650691326,28.125,19200,3.453185796737671,0.010333785048373149,0.005223007639575077,505.33150784769856,43.75
273,4.078824520111084,278.31153417689956,551.5974480096182,1519.418820150732,-273.8396759151109,29.166666666666668,6.754188576487352,0.1,0.014607667922973633,0.38637661933898926,0.051274493,0.01566828,297.31417901909293,-0.6603620589811747,1.3908879410188248,29.166666666666668,19200,2.8843724727630615,0.013700115124042633,0.006116407016839998,502.75669255484456,43.75
274,3.824903726577759,326.4064371231669,594.2819410238966,1520.673971767,-268.2167446280868,30.208333333333332,6.14953647455154,0.1,0.017197370529174805,0.4342660903930664,0.0487985,0.015880669,300.2234048295003,-0.6409642607638976,1.6307024059027693,30.208333333333332,19200,2.828461170196533,0.0065986236833144914,0.002621760607020399,507.71842194623696,43.75
275,3.8690576553344727,225.080890137006,555.7636606030384,1446.8514736025506,-263.7630485100267,25.0,7.1434027537659555,0.1,0.015838146209716797,0.5721502304077148,0.048925992,0.013295262,292.70915336025087,-0.6967935250140284,1.123623141652638,25.0,19200,4.298569202423096,0.013060299502770146,0.006271739715141996,507.81891891144284,43.75
276,3.827833414077759,277.4315078793825,561.1286517348583,1453.0862549360204,-261.12994564740984,23.958333333333332,5.886101688935446,0.1,0.014700889587402344,0.38953280448913574,0.048219413,0.017759766,291.181388812164,-0.6769031833379878,1.3860134833286788,23.958333333333332,19200,5.032312870025635,0.015381391627189682,0.008180062001961294,507.1967532108614,43.75
277,3.625534772872925,317.96415358175875,557.4168696945964,1523.678243113272,-271.98697643185557,28.125,7.106501790830177,0.1,0.014335155487060547,0.4287848472595215,0.04224967,0.0130739445,293.8596652891235,-0.6638312958015463,1.5884603708651202,28.125,19200,2.9985787868499756,0.009838505767905677,0.004955412022316521,510.49752727308703,43.75
278,3.7602546215057373,292.9786333525653,583.8458326885319,1476.9718938277856,-251.16287074261902,29.166666666666668,6.233407571144838,0.1,0.014626264572143555,0.39024877548217773,0.0482373,0.017205426,293.7715620954677,-0.6583840615028077,1.4628659384971925,29.166666666666668,19200,2.9029479026794434,0.010134420705560174,0.0031482000031299467,509.45580694561164,43.75
279,4.13099479675293,353.4817605636656,598.7773522764533,1552.2072264923215,-263.71400343106893,34.375,7.109877165870218,0.1,0.022960901260375977,0.427781343460083,0.051105697,0.011566879,299.74258194228753,-0.6404210612320579,1.7654122721012755,34.375,19200,2.818645715713501,0.014974592523271725,0.004494608487278576,509.8294597618362,43.75
280,3.6448373794555664,356.96341874653734,583.2046888150816,1390.700917299018,-249.9513450970628,33.333333333333336,6.967326453482716,0.1,0.014581918716430664,0.3953096866607666,0.048529997,0.013243483,305.4646656227125,-0.6383119051187828,1.7818964282145504,33.333333333333336,19200,2.846233367919922,0.011742422274654113,0.004459119122979021,510.71159218491596,43.75
281,3.6785736083984375,294.07315157023794,561.1514808182367,1440.8355083139415,-262.5502741889738,28.125,7.322048601972652,0.1,0.015356779098510742,0.4489786624908447,0.045950856,0.013179378,304.32551421746507,-0.6730482647529087,1.469868401913758,28.125,19200,3.59570050239563,0.010902867847485898,0.0062232583602131585,512.5209824396304,43.75
282,3.8416407108306885,255.0081812733064,569.6240067882945,1467.2730710074768,-283.9437633713247,22.916666666666668,7.085266947780637,0.1,0.014775514602661133,0.5481386184692383,0.04792224,0.011966632,299.39378092304923,-0.6635532456028371,1.2741550877304963,22.916666666666668,19200,4.040383815765381,0.00823331507114594,0.003740868179867134,514.3863795212636,43.75
283,3.6654345989227295,294.6227959109583,571.2616065487648,1476.5672383355898,-284.5949173960011,26.041666666666668,5.965172201475437,0.1,0.016544580459594727,0.4391193389892578,0.049258787,0.014212581,298.9166824218401,-0.6714265137056789,1.4714901529609878,26.041666666666668,19200,2.8613247871398926,0.014924632961229081,0.004120224233660493,514.3646073247095,43.75
284,3.6525866985321045,285.57035342536534,565.7805623106784,1448.3539828099647,-259.5000741996818,29.166666666666668,6.331146212106834,0.1,0.026407718658447266,0.5407531261444092,0.051854186,0.016307978,297.5820495221927,-0.6503414551003707,1.426325211566296,29.166666666666668,19200,3.784475088119507,0.008072263948393785,0.0037634839216618447,512.780064875476,43.75
285,4.121474266052246,447.8873267906092,617.6240096227043,1467.4681809886335,-271.6103760452885,43.75,5.013527619059993,0.1,0.01868271827697754,0.4573633670806885,0.04851127,0.020693537,312.6125772490343,-0.5990804846609704,2.2388361820056963,43.75,19200,2.8590006828308105,0.00837759262327777,0.0035192149314656972,510.85506748377736,43.75
286,3.864992380142212,327.6508628213935,579.3141631814611,1561.976714770579,-262.36769744610814,33.333333333333336,6.191023744847852,0.1,0.022765636444091797,0.4626576900482178,0.045343067,0.013483146,314.1164058062702,-0.6418647535388629,1.636260246461137,33.333333333333336,19200,2.7457480430603027,0.01334058721127632,0.005149968725996198,511.4997711763891,43.75
287,3.847883701324463,219.65973060642344,544.4420582763596,1511.279785329522,-243.7322986534336,19.791666666666668,6.227163948871357,0.1,0.02196335792541504,0.5904459953308105,0.04648268,0.016471233,304.67073828628554,-0.6586678276377558,1.0971655056955776,19.791666666666668,19200,5.853502988815308,0.010620141586456307,0.0029608362306975788,515.4378760097976,43.75
288,3.740966796875,229.63688256848354,520.9757580867098,1532.4295141564044,-217.3499597831172,22.916666666666668,6.66937239636233,0.1,0.01682758331298828,0.5128302574157715,0.047694933,0.014675731,297.16735271450534,-0.629766720634707,1.147733279365293,22.916666666666668,19200,3.2924516201019287,0.012881293105906334,0.004670648350793968,515.5910381519359,43.75
289,3.8461873531341553,420.67551951774107,606.558460885868,1535.359473362222,-260.2151408512471,41.666666666666664,7.485841909734763,0.1,0.014106988906860352,0.47414159774780273,0.0408114,0.011638504,309.5181693948289,-0.5948611887776378,2.1022221445556952,41.666666666666664,19200,2.8896989822387695,0.009192945445117274,0.0037033707639302273,518.0590333390529,43.75
290,3.8101394176483154,183.25973474126818,543.1867100468055,1553.222256210846,-252.78996023083684,22.916666666666668,5.578477482568921,0.1,0.027545928955078125,0.45273566246032715,0.047931943,0.01738842,296.89232592947286,-0.7137269415921411,0.9156480584078589,22.916666666666668,19200,4.7206737995147705,0.009594737932962042,0.003731939416492687,519.4590750128326,43.75
291,3.859321355819702,256.16665000597544,534.4934762555802,1529.0137879976874,-280.32200876370496,28.125,5.407068217281429,0.1,0.01676797866821289,0.43108701705932617,0.049176265,0.019665109,292.8197583371231,-0.6748861170010678,1.2790722163322652,28.125,19200,2.775089979171753,0.012857036943472698,0.006856966858100367,516.4430165966492,43.75
292,3.600996494293213,305.94871191130875,565.3787426125531,1393.1935836332661,-256.14364946502695,30.208333333333332,7.185776359659347,0.1,0.014345169067382812,0.44500112533569336,0.050844885,0.014114653,294.1326536945417,-0.6556131727853347,1.5281368272146654,30.208333333333332,19200,2.9114198684692383,0.013548977576004286,0.0045162672305388545,520.2301015128943,43.75
293,3.8026087284088135,321.8333405678376,581.9162837637671,1458.7114386258486,-280.198254828395,31.25,6.754541204830618,0.1,0.01626300811767578,0.4608488082885742,0.04933161,0.013341231,296.9027223818713,-0.6513702607755132,1.6077964058911534,31.25,19200,2.891810417175293,0.010463012848338853,0.004844211624669538,516.5484327046524,43.75
294,3.7820239067077637,323.2632995094584,604.05783643082,1507.526464106014,-264.2438698890039,28.125,5.813668273118828,0.1,0.01613593101501465,0.5898244380950928,0.040139973,0.014101118,299.53878009463,-0.6449507204976875,1.6152576128356457,28.125,19200,3.257643461227417,0.009221908379380684,0.004267693406923187,514.3381876345068,43.75
295,3.834287405014038,391.5255507526684,597.1931221481343,1515.6127520288414,-262.5704808258957,32.291666666666664,6.971631252778184,0.1,0.01580190658569336,0.387164831161499,0.04919028,0.015199235,308.73745716043385,-0.6368795665848076,1.955412100081859,32.291666666666664,19200,3.474226474761963,0.012660768138059008,0.006781180633109992,517.0972378283175,43.75
296,4.002327919006348,287.4631367272727,565.1886967793955,1498.6758732419873,-276.53542001482043,28.125,6.238877728382146,0.1,0.018622159957885742,0.489901065826416,0.054280803,0.014759679,306.61002511711774,-0.6713002487513035,1.4364080845820297,28.125,19200,2.7319557666778564,0.01572253410101421,0.007559690355819415,520.6412617269523,43.75
297,3.3618550300598145,286.24580644082204,579.1057800881947,1504.7431711320287,-270.3647146027132,23.958333333333332,6.772482369383665,0.1,0.014623641967773438,0.3865635395050049,0.051499944,0.01461052,304.57360324948814,-0.6657385969676213,1.4300947363657122,23.958333333333332,19200,2.7704944610595703,0.014939572720781117,0.005863448297966606,521.842004296386,43.75
298,3.6797335147857666,268.1221327289422,545.8664149382928,1391.690344657537,-259.2631339756168,25.0,7.266626955705289,0.1,0.027279138565063477,0.5922212600708008,0.051854838,0.013136544,300.92845619743355,-0.6617264751944746,1.339940191472192,25.0,19200,2.7030625343322754,0.015600530984910979,0.007739439231849756,519.9564270608446,43.75
299,3.864802122116089,332.84676650061533,624.4976039769301,1476.3330924945126,-287.3484921551141,32.291666666666664,6.823845823436496,0.1,0.013562440872192383,0.38796544075012207,0.049034998,0.015262247,304.12028722775176,-0.6502658932945157,1.6643174400388177,32.291666666666664,19200,3.5362613201141357,0.00692154914051938,0.0025633329517200996,524.9104613074041,43.75
300,3.80509352684021,372.6005695834095,605.0340892833539,1515.2126825882663,-263.4635827838923,35.416666666666664,7.134518163367295,0.1,0.013765096664428711,0.3970003128051758,0.049003746,0.013861153,310.96831546331754,-0.6184964398907727,1.8623368934425606,35.416666666666664,19200,3.392451047897339,0.007916197222160266,0.0034301718691487574,522.9938631413036,43.75
301,3.9141485691070557,404.0065644590814,556.5593835815341,1534.3053460625163,-259.81477813303377,33.333333333333336,6.608261963689115,0.1,0.017078876495361328,0.4418771266937256,0.048503336,0.015034603,320.2721403628939,-0.6029126486758346,2.019170684657499,33.333333333333336,19200,3.0152294635772705,0.008365457602885802,0.003508305984494741,524.2820391203622,43.75
302,3.8109073638916016,286.01448398750915,594.8328676413255,1479.8743293167856,-248.55252427964314,31.25,6.135405009311089,0.1,0.01290583610534668,0.3410658836364746,0.050839745,0.015938306,316.8463747253554,-0.6761963115354277,1.4294286884645724,31.25,19200,2.939814329147339,0.005771498522694365,0.0020818176609275897,519.051599602836,43.75
303,3.566934823989868,251.46019328129694,565.0311728886096,1557.8424604330175,-256.84292204611216,29.166666666666668,4.91485882848514,0.1,0.017093181610107422,0.4179658889770508,0.050545216,0.022012172,310.30775658094956,-0.6843630802277283,1.2566785864389383,29.166666666666668,19200,2.885061502456665,0.010575123823404814,0.003990855426644682,516.0413692106155,43.75
304,3.6361920833587646,239.86023058818876,524.5751148255297,1463.6426697028148,-272.4812522165135,22.916666666666668,5.874362938533994,0.1,0.014875173568725586,0.3865330219268799,0.04959444,0.017396258,303.2630039816735,-0.6836646144815037,1.1980020521851629,22.916666666666668,19200,2.8486170768737793,0.01793297125520418,0.009226394205174952,519.804673581743,43.75
305,3.876898765563965,312.5232650571158,565.7855939428258,1374.7542817438054,-265.8603269073457,28.125,4.586594069292943,0.1,0.01632547378540039,0.48861074447631836,0.04746847,0.020865664,304.1890300892177,-0.6476046046659787,1.5619787286673545,28.125,19200,4.974989414215088,0.012793377467728243,0.004043698241870164,515.5238713395881,43.75
306,3.5857856273651123,192.49993517462846,512.794269079501,1389.12234063889,-277.0985522092599,23.958333333333332,5.727515207948888,0.1,0.016789674758911133,0.4584007263183594,0.053668354,0.016786475,293.02012059775876,-0.7098897843798869,0.9613602156201129,23.958333333333332,19200,3.463261842727661,0.01686315022017974,0.006728115431092131,512.5175248265441,43.75
307,2.894353151321411,285.7205602289466,579.9703272182113,1525.5307881439849,-281.50513086888424,25.0,7.855567928229238,0.1,0.013763904571533203,0.3771939277648926,0.04833591,0.010605172,292.2901645608776,-0.6613150270144693,1.427018306318864,25.0,19200,2.921900749206543,0.01667784663499366,0.0058181688262534444,513.8012895188484,43.75
308,3.765294313430786,322.09148554949667,601.258460722676,1505.2071530969004,-258.7931434374844,29.166666666666668,5.975778930200504,0.1,0.014077901840209961,0.37247347831726074,0.04811496,0.016984852,295.2702966597395,-0.6177772494331224,1.6093060839002107,29.166666666666668,19200,3.0358164310455322,0.012855737129369115,0.004671046866260933,507.37814363262635,43.75
309,3.8217966556549072,294.9388378658065,592.7482118194199,1552.0081185394063,-286.0681450208347,31.25,6.417469337898288,0.1,0.02640986442565918,0.621628999710083,0.045218613,0.01439769,295.23715078034616,-0.6708337707680901,1.4731245625652434,31.25,19200,2.8258438110351562,0.009273055078368274,0.0031489727224908943,511.28822838461394,43.75
310,3.813544750213623,164.91519806670593,496.8123218353827,1542.2148745452398,-275.421092117059,21.875,6.960091363120149,0.1,0.02191448211669922,0.4070873260498047,0.048199404,0.013502264,282.2049555089821,-0.7219659023443378,0.8232424309889957,21.875,19200,2.665574312210083,0.02751117821179704,0.006873147998396532,510.0888540727461,43.75
311,3.835923194885254,278.2837608534459,561.2186722346669,1543.2401588652071,-241.0578762200893,28.125,5.818417902410954,0.1,0.016700029373168945,0.3674616813659668,0.047349617,0.01902273,281.8128360434285,-0.651187755471773,1.3900622445282267,28.125,19200,2.7421464920043945,0.021658082759649616,0.007757483435401003,512.8988065308945,43.75
312,3.7864785194396973,232.24330128877796,550.1863564736927,1434.6396822756824,-266.9176786879535,23.958333333333332,5.878757266963504,0.1,0.018265485763549805,0.3971679210662842,0.04385611,0.014461896,276.8558825679635,-0.6930689404746784,1.1598477261919882,23.958333333333332,19200,2.916898488998413,0.013307009040448575,0.005437952583260661,511.48891692372774,43.75
313,3.8190436363220215,175.92343631543426,525.1449948454431,1366.7716553919756,-290.5432738874642,20.833333333333332,6.269679745682028,0.1,0.022747039794921875,0.6218974590301514,0.03919175,0.012706467,266.76263794271057,-0.7199976148704046,0.879169051796262,20.833333333333332,19200,2.857947587966919,0.00995353206216676,0.0036626914795597912,508.3817360143599,43.75
314,3.7342724800109863,316.190252888687,578.946191461368,1555.0957273674428,-250.03631041987626,28.125,7.307099707354791,0.1,0.01505589485168457,0.3767662048339844,0.049834784,0.013546338,271.7053994373082,-0.6372611956024831,1.5794054710641836,28.125,19200,2.8452651500701904,0.01281662982435477,0.006165398782333712,501.04651819241207,43.75
315,3.9513673782348633,310.5474332706355,567.1238331047841,1487.2669845909713,-259.0525599827627,31.25,5.2304643071644525,0.1,0.017322301864624023,0.494248628616333,0.049436297,0.019090164,275.58960282064095,-0.6552259958455843,1.5522740041544159,31.25,19200,3.095280408859253,0.009641753545280954,0.004255942361469335,501.7655871931926,43.75
316,3.815901517868042,363.50829041415415,581.303300366264,1501.4441556723714,-286.2150219731563,32.291666666666664,6.5924040340541055,0.1,0.02526688575744629,0.5382249355316162,0.05240301,0.0149909165,284.3814715799923,-0.6327776042980734,1.8157640623685936,32.291666666666664,19200,2.8082940578460693,0.010974826820682794,0.004634062034455673,496.07867151279135,37.5
317,3.757488250732422,243.50351494653083,516.3683974506703,1526.9228473519295,-269.7313521202105,22.916666666666668,6.174258429641406,0.1,0.014579534530639648,0.438596248626709,0.04169884,0.013120901,280.2936759166462,-0.6759000514800949,1.2161832818532383,22.916666666666668,19200,3.410419225692749,0.017007930284422608,0.006510738802199656,494.14638571272724,37.5
318,3.483368158340454,187.37692267402176,520.730111563063,1500.5334784327886,-270.18187142554535,17.708333333333332,7.1169348492311855,0.1,0.01919865608215332,0.5488696098327637,0.044012923,0.01193793,271.00200059238375,-0.7110961834375141,0.9361954832291527,17.708333333333332,19200,3.3683278560638428,0.014676196264726446,0.006759014434923029,497.0606158183526,37.5
319,3.939621686935425,292.8702971753682,554.4237174253283,1482.8985598961453,-271.74033389755976,27.083333333333332,5.972952380196392,0.1,0.01959705352783203,0.44141507148742676,0.04695896,0.016855722,273.1888302506822,-0.6507393133792592,1.4632190199540744,27.083333333333332,19200,2.8614978790283203,0.016000279924344586,0.007576274184745984,497.6900732704196,37.5
320,3.841032028198242,295.67585561596394,578.5838280323093,1462.9566237070085,-245.43853300991043,30.208333333333332,6.427706967260747,0.1,0.024617671966552734,0.5912277698516846,0.049729183,0.015710054,275.4375327872104,-0.6567229247701887,1.4770270752298114,30.208333333333332,19200,2.6574535369873047,0.011687794341005643,0.003784331189070734,506.9650650036022,43.75
321,3.720651388168335,267.18455733637853,548.0284752911231,1536.858593479994,-274.48494153039286,22.916666666666668,5.574417369534583,0.1,0.022348880767822266,0.4057459831237793,0.040782165,0.01437078,274.6122352421272,-0.6739339580863772,1.3352327085802893,22.916666666666668,19200,2.6485090255737305,0.015530124951379634,0.007149776933118102,498.1856875271001,37.5
322,3.8350260257720947,281.0982575626014,582.4496985587723,1555.6843364940369,-255.23016536363303,29.166666666666668,6.050851116418288,0.1,0.015228033065795898,0.5480427742004395,0.048485637,0.020740213,275.26083747417465,-0.6747096506086135,1.4046653493913865,29.166666666666668,19200,2.7839670181274414,0.013180107751511547,0.004527669428124119,497.4160923037251,37.5
323,3.7873997688293457,301.78576763397683,568.3045694972944,1532.4571095039928,-233.26358361450852,23.958333333333332,6.886500510330687,0.1,0.01575946807861328,0.4082677364349365,0.04928211,0.014034275,277.91333049015486,-0.6315999670549862,1.5075666996116805,23.958333333333332,19200,2.690931797027588,0.01289241429111849,0.005422752802908238,496.5422911786583,37.5
324,3.8205769062042236,313.46711224945415,580.912890986546,1566.4705517779278,-263.11921655058984,29.166666666666668,7.776422959829062,0.1,0.016443252563476562,0.5423421859741211,0.047444377,0.013166649,281.4687086660848,-0.6444298212095528,1.5664035121237803,29.166666666666668,19200,3.7532598972320557,0.01710422265974385,0.00461148329788532,494.6166732202913,37.5
325,4.0349366664886475,340.19510061714647,618.2183561982456,1564.6663549220905,-277.48737714650764,29.166666666666668,5.321023598315324,0.1,0.015946626663208008,0.47377800941467285,0.04296509,0.0140595315,287.34134786119097,-0.6428431691887423,1.699865164144591,29.166666666666668,19200,3.306633710861206,0.013779905028389598,0.004812689131933587,495.05896673384143,37.5
326,2.988464593887329,264.34966143521916,561.1055526971986,1551.6153690212295,-256.23945609977284,21.875,5.524960506342182,0.1,0.023581266403198242,0.5569310188293457,0.051742733,0.017168105,285.0421792185938,-0.6882930158500647,1.3212903174832684,21.875,19200,3.350559711456299,0.013284363757588114,0.006032820913458151,496.4432002357872,37.5
327,3.807263135910034,363.1214810577767,587.3279299564757,1477.156518027176,-264.00156540076443,32.291666666666664,5.731461239185388,0.1,0.012387990951538086,0.32436656951904297,0.048589196,0.017693669,292.8501094025121,-0.6508753447314087,1.8147496552685916,32.291666666666664,19200,2.552671194076538,0.012377940994128214,0.00525951226669896,494.55590496095294,37.5
328,3.8472585678100586,374.2369816647794,587.3916504470509,1555.5256100098986,-277.6422233021015,32.291666666666664,6.540546322875222,0.1,0.012012243270874023,0.319610595703125,0.042726655,0.015007747,300.98879662873884,-0.6141141055880208,1.870052561078646,32.291666666666664,19200,2.606659173965454,0.013414164103863566,0.0066868683399050124,496.97595306821313,37.5
329,3.726390838623047,320.3900472843676,586.7808605462951,1445.8982795436352,-261.5781569837778,31.25,5.715340240249818,0.1,0.019100427627563477,0.43954896926879883,0.049046874,0.017357452,302.9289216943017,-0.6529192129889559,1.6008307870110439,31.25,19200,2.8314647674560547,0.010337371506698046,0.0028755765150413515,496.5392647700054,37.5
330,3.7953615188598633,343.2882471043229,553.7921022405545,1561.091368833299,-275.93256173113764,29.166666666666668,6.0372318884592735,0.1,0.016826868057250977,0.40999555587768555,0.048023704,0.016396448,306.96485423530385,-0.6362220413120587,1.714194625354608,29.166666666666668,19200,3.013411521911621,0.020282871334252266,0.010028530812708986,499.29627928705634,37.5
331,3.697601318359375,270.1711652441175,574.0565680441473,1562.795323353078,-260.8499565172061,28.125,5.385600657979585,0.1,0.017991065979003906,0.44753122329711914,0.050084483,0.01728438,303.2854853361852,-0.6708772467237839,1.349747753276216,28.125,19200,4.545327425003052,0.011840923886063795,0.003709397421086067,500.3054027357906,37.5
