Iter | Sampling Pol | Evaluation Pol | Best (Sampled) 
   0 -219.53 -212.67 -100000000.00 
   1 -213.81 -212.54 -219.53 
   2 -213.27 -213.00 -213.81 
   3 -213.77 -213.43 -213.27 
   4 -214.21 -213.47 -213.27 
   5 -214.33 -213.34 -213.27 
   6 -214.01 -212.93 -213.27 
   7 -213.45 -212.57 -213.27 
   8 -212.84 -212.34 -213.27 
   9 -212.46 -212.33 -212.84 
  10 -212.36 -212.30 -212.46 
  11 -212.25 -212.38 -212.36 
  12 -212.20 -212.57 -212.25 
  13 -212.24 -212.60 -212.20 
  14 -212.26 -212.71 -212.20 
  15 -212.20 -212.81 -212.20 
  16 -212.28 -212.95 -212.20 
  17 -212.31 -212.95 -212.20 
  18 -212.25 -212.89 -212.20 
  19 -212.24 -212.76 -212.20 
  20 -212.13 -212.46 -212.20 
  21 -211.95 -212.36 -212.13 
  22 -211.86 -212.22 -211.95 
  23 -211.77 -211.88 -211.86 
  24 -211.54 -211.61 -211.77 
  25 -211.34 -211.09 -211.54 
  26 -210.96 -210.74 -211.34 
  27 -210.67 -210.54 -210.96 
  28 -210.48 -210.28 -210.67 
  29 -210.22 -209.88 -210.48 
  30 -209.87 -209.34 -210.22 
  31 -209.40 -208.99 -209.87 
  32 -209.05 -208.08 -209.40 
  33 -208.20 -207.64 -209.05 
  34 -207.73 -206.81 -208.20 
  35 -206.98 -205.64 -207.73 
  36 -206.03 -205.17 -206.98 
  37 -205.55 -204.10 -206.03 
  38 -204.81 -203.00 -205.55 
  39 -204.06 -202.53 -204.81 
  40 -203.71 -202.30 -204.06 
  41 -203.23 -202.19 -203.71 
  42 -202.93 -202.05 -203.23 
  43 -202.77 -202.02 -202.93 
  44 -202.70 -202.06 -202.77 
  45 -202.65 -202.06 -202.70 
  46 -202.54 -202.27 -202.65 
  47 -202.66 -202.13 -202.54 
  48 -202.48 -202.09 -202.54 
  49 -202.39 -202.11 -202.48 
  50 -202.38 -202.11 -202.39 
  51 -202.43 -201.97 -202.38 
  52 -202.30 -202.10 -202.38 
  53 -202.39 -202.04 -202.30 
  54 -202.30 -202.01 -202.30 
  55 -202.29 -202.03 -202.30 
  56 -202.33 -201.92 -202.29 
  57 -202.21 -201.97 -202.29 
  58 -202.22 -201.98 -202.21 
  59 -202.25 -201.89 -202.21 
  60 -202.15 -201.83 -202.21 
  61 -202.07 -201.83 -202.15 
  62 -202.08 -201.93 -202.07 
  63 -202.19 -202.01 -202.07 
  64 -202.25 -201.91 -202.07 
  65 -202.17 -201.90 -202.07 
  66 -202.13 -201.85 -202.07 
  67 -202.03 -201.98 -202.07 
  68 -202.18 -202.00 -202.03 
  69 -202.21 -202.09 -202.03 
  70 -202.29 -201.99 -202.03 
  71 -202.18 -202.00 -202.03 
  72 -202.18 -202.12 -202.03 
  73 -202.31 -201.98 -202.03 
  74 -202.17 -201.95 -202.03 
  75 -202.13 -201.98 -202.03 
  76 -202.13 -202.12 -202.03 
  77 -202.29 -202.21 -202.03 
  78 -202.37 -202.21 -202.03 
  79 -202.37 -202.33 -202.03 
  80 -202.46 -202.28 -202.03 
  81 -202.42 -202.17 -202.03 
  82 -202.31 -202.23 -202.03 
  83 -202.37 -202.35 -202.03 
  84 -202.50 -202.22 -202.03 
  85 -202.36 -202.37 -202.03 
  86 -202.51 -202.38 -202.03 
  87 -202.52 -202.33 -202.03 
  88 -202.45 -202.34 -202.03 
  89 -202.45 -202.33 -202.03 
  90 -202.45 -202.41 -202.03 
  91 -202.51 -202.53 -202.03 
  92 -202.65 -202.53 -202.03 
  93 -202.66 -202.51 -202.03 
  94 -202.64 -202.41 -202.03 
  95 -202.53 -202.53 -202.03 
  96 -202.65 -202.70 -202.03 
  97 -202.80 -202.91 -202.03 
  98 -202.99 -202.95 -202.03 
  99 -203.02 -202.97 -202.03 
 100 -203.04 -202.90 -202.03 
 101 -202.96 -202.93 -202.03 
 102 -203.00 -202.83 -202.03 
 103 -202.89 -202.78 -202.03 
 104 -202.87 -202.85 -202.03 
 105 -202.93 -202.69 -202.03 
 106 -202.77 -202.71 -202.03 
 107 -202.79 -202.81 -202.03 
 108 -202.92 -202.77 -202.03 
 109 -202.87 -202.73 -202.03 
 110 -202.81 -202.73 -202.03 
 111 -202.81 -202.66 -202.03 
 112 -202.75 -202.54 -202.03 
 113 -202.64 -202.55 -202.03 
 114 -202.64 -202.45 -202.03 
 115 -202.59 -202.40 -202.03 
 116 -202.53 -202.54 -202.03 
 117 -202.63 -202.47 -202.03 
 118 -202.59 -202.40 -202.03 
 119 -202.51 -202.38 -202.03 
 120 -202.51 -202.60 -202.03 
 121 -202.70 -202.49 -202.03 
 122 -202.59 -202.52 -202.03 
 123 -202.62 -202.61 -202.03 
 124 -202.69 -202.42 -202.03 
 125 -202.52 -202.55 -202.03 
 126 -202.64 -202.65 -202.03 
 127 -202.72 -202.69 -202.03 
 128 -202.75 -202.62 -202.03 
 129 -202.69 -202.55 -202.03 
 130 -202.61 -202.37 -202.03 
 131 -202.45 -202.39 -202.03 
 132 -202.49 -202.35 -202.03 
 133 -202.43 -202.29 -202.03 
 134 -202.38 -202.23 -202.03 
 135 -202.31 -202.24 -202.03 
 136 -202.32 -202.26 -202.03 
 137 -202.34 -202.17 -202.03 
 138 -202.26 -202.24 -202.03 
 139 -202.34 -202.34 -202.03 
 140 -202.41 -202.27 -202.03 
 141 -202.35 -202.28 -202.03 
 142 -202.37 -202.36 -202.03 
 143 -202.46 -202.26 -202.03 
 144 -202.35 -202.20 -202.03 
 145 -202.29 -202.16 -202.03 
 146 -202.24 -202.14 -202.03 
 147 -202.23 -202.06 -202.03 
 148 -202.13 -202.10 -202.03 
 149 -202.17 -202.18 -202.03 
 150 -202.27 -202.24 -202.03 
 151 -202.30 -202.19 -202.03 
 152 -202.26 -202.11 -202.03 
 153 -202.18 -201.97 -202.03 
 154 -202.04 -202.13 -202.03 
 155 -202.19 -202.27 -202.03 
 156 -202.33 -202.31 -202.03 
 157 -202.38 -202.22 -202.03 
 158 -202.28 -202.05 -202.03 
 159 -202.10 -202.07 -202.03 
 160 -202.13 -202.13 -202.03 
 161 -202.21 -202.10 -202.03 
 162 -202.18 -202.02 -202.03 
 163 -202.11 -201.98 -202.03 
 164 -202.07 -202.13 -202.03 
 165 -202.19 -202.08 -202.03 
 166 -202.16 -202.18 -202.03 
 167 -202.25 -202.22 -202.03 
 168 -202.28 -202.12 -202.03 
 169 -202.19 -202.23 -202.03 
 170 -202.31 -202.15 -202.03 
 171 -202.23 -202.16 -202.03 
 172 -202.24 -202.04 -202.03 
 173 -202.14 -202.04 -202.03 
 174 -202.13 -202.16 -202.03 
 175 -202.22 -202.08 -202.03 
 176 -202.16 -201.99 -202.03 
 177 -202.08 -202.11 -202.03 
 178 -202.19 -202.08 -202.03 
 179 -202.16 -202.20 -202.03 
 180 -202.29 -202.16 -202.03 
 181 -202.25 -202.21 -202.03 
 182 -202.28 -202.18 -202.03 
 183 -202.25 -202.18 -202.03 
 184 -202.26 -202.11 -202.03 
 185 -202.19 -202.19 -202.03 
 186 -202.28 -202.14 -202.03 
 187 -202.24 -202.05 -202.03 
 188 -202.13 -202.13 -202.03 
 189 -202.19 -202.14 -202.03 
 190 -202.21 -202.11 -202.03 
 191 -202.18 -202.14 -202.03 
 192 -202.24 -202.18 -202.03 
 193 -202.28 -202.19 -202.03 
 194 -202.29 -202.16 -202.03 
 195 -202.27 -202.14 -202.03 
 196 -202.25 -202.12 -202.03 
 197 -202.22 -202.13 -202.03 
 198 -202.24 -202.16 -202.03 
 199 -202.27 -202.16 -202.03 
 200 -202.28 -202.16 -202.03 
 201 -202.27 -202.23 -202.03 
 202 -202.35 -202.17 -202.03 
 203 -202.30 -202.23 -202.03 
 204 -202.36 -202.09 -202.03 
 205 -202.22 -202.11 -202.03 
 206 -202.25 -202.14 -202.03 
 207 -202.27 -202.28 -202.03 
 208 -202.39 -202.26 -202.03 
 209 -202.38 -202.26 -202.03 
 210 -202.38 -202.34 -202.03 
 211 -202.45 -202.37 -202.03 
 212 -202.48 -202.34 -202.03 
 213 -202.45 -202.39 -202.03 
 214 -202.49 -202.42 -202.03 
 215 -202.53 -202.33 -202.03 
 216 -202.44 -202.37 -202.03 
 217 -202.47 -202.28 -202.03 
 218 -202.37 -202.25 -202.03 
 219 -202.36 -202.31 -202.03 
 220 -202.43 -202.31 -202.03 
 221 -202.42 -202.32 -202.03 
 222 -202.44 -202.33 -202.03 
 223 -202.44 -202.35 -202.03 
 224 -202.46 -202.37 -202.03 
 225 -202.48 -202.44 -202.03 
 226 -202.55 -202.47 -202.03 
 227 -202.56 -202.48 -202.03 
 228 -202.56 -202.46 -202.03 
 229 -202.57 -202.50 -202.03 
 230 -202.58 -202.48 -202.03 
 231 -202.57 -202.54 -202.03 
 232 -202.63 -202.52 -202.03 
 233 -202.63 -202.54 -202.03 
 234 -202.63 -202.52 -202.03 
 235 -202.61 -202.52 -202.03 
 236 -202.61 -202.59 -202.03 
 237 -202.68 -202.54 -202.03 
 238 -202.63 -202.47 -202.03 
 239 -202.57 -202.46 -202.03 
 240 -202.57 -202.54 -202.03 
 241 -202.64 -202.57 -202.03 
 242 -202.66 -202.53 -202.03 
 243 -202.61 -202.60 -202.03 
 244 -202.67 -202.60 -202.03 
 245 -202.68 -202.55 -202.03 
 246 -202.63 -202.53 -202.03 
 247 -202.62 -202.54 -202.03 
 248 -202.62 -202.51 -202.03 
 249 -202.60 -202.57 -202.03 
 250 -202.65 -202.54 -202.03 
 251 -202.63 -202.60 -202.03 
 252 -202.67 -202.55 -202.03 
 253 -202.61 -202.59 -202.03 
 254 -202.65 -202.55 -202.03 
 255 -202.62 -202.55 -202.03 
 256 -202.61 -202.55 -202.03 
 257 -202.60 -202.52 -202.03 
 258 -202.59 -202.50 -202.03 
 259 -202.55 -202.48 -202.03 
 260 -202.53 -202.41 -202.03 
 261 -202.47 -202.42 -202.03 
 262 -202.47 -202.42 -202.03 
 263 -202.49 -202.42 -202.03 
 264 -202.50 -202.38 -202.03 
 265 -202.46 -202.41 -202.03 
 266 -202.48 -202.46 -202.03 
 267 -202.53 -202.45 -202.03 
 268 -202.54 -202.51 -202.03 
 269 -202.60 -202.51 -202.03 
 270 -202.59 -202.56 -202.03 
 271 -202.64 -202.59 -202.03 
 272 -202.66 -202.60 -202.03 
 273 -202.65 -202.57 -202.03 
 274 -202.64 -202.56 -202.03 
 275 -202.61 -202.57 -202.03 
 276 -202.63 -202.57 -202.03 
 277 -202.62 -202.59 -202.03 
 278 -202.64 -202.56 -202.03 
 279 -202.60 -202.57 -202.03 
 280 -202.61 -202.53 -202.03 
 281 -202.56 -202.59 -202.03 
 282 -202.64 -202.56 -202.03 
 283 -202.61 -202.58 -202.03 
 284 -202.64 -202.57 -202.03 
 285 -202.62 -202.52 -202.03 
 286 -202.57 -202.55 -202.03 
 287 -202.60 -202.53 -202.03 
 288 -202.58 -202.57 -202.03 
 289 -202.61 -202.55 -202.03 
 290 -202.59 -202.55 -202.03 
 291 -202.58 -202.51 -202.03 
 292 -202.57 -202.52 -202.03 
 293 -202.57 -202.53 -202.03 
 294 -202.59 -202.53 -202.03 
 295 -202.58 -202.56 -202.03 
 296 -202.60 -202.58 -202.03 
 297 -202.62 -202.60 -202.03 
 298 -202.64 -202.62 -202.03 
 299 -202.64 -202.61 -202.03 
 300 -202.64 -202.65 -202.03 
 301 -202.68 -202.68 -202.03 
 302 -202.71 -202.70 -202.03 
 303 -202.72 -202.66 -202.03 
 304 -202.69 -202.69 -202.03 
 305 -202.74 -202.72 -202.03 
 306 -202.76 -202.67 -202.03 
 307 -202.70 -202.65 -202.03 
 308 -202.69 -202.69 -202.03 
 309 -202.72 -202.70 -202.03 
 310 -202.73 -202.67 -202.03 
 311 -202.70 -202.66 -202.03 
 312 -202.69 -202.64 -202.03 
 313 -202.67 -202.69 -202.03 
 314 -202.72 -202.63 -202.03 
 315 -202.66 -202.61 -202.03 
 316 -202.64 -202.63 -202.03 
 317 -202.66 -202.67 -202.03 
 318 -202.69 -202.71 -202.03 
 319 -202.72 -202.71 -202.03 
 320 -202.73 -202.71 -202.03 
 321 -202.73 -202.72 -202.03 
 322 -202.74 -202.69 -202.03 
 323 -202.71 -202.66 -202.03 
 324 -202.68 -202.65 -202.03 
 325 -202.66 -202.64 -202.03 
 326 -202.66 -202.67 -202.03 
 327 -202.67 -202.66 -202.03 
 328 -202.67 -202.64 -202.03 
 329 -202.65 -202.68 -202.03 
 330 -202.69 -202.70 -202.03 
 331 -202.72 -202.70 -202.03 
 332 -202.71 -202.77 -202.03 
 333 -202.78 -202.76 -202.03 
 334 -202.76 -202.81 -202.03 
 335 -202.82 -202.82 -202.03 
 336 -202.85 -202.80 -202.03 
 337 -202.82 -202.80 -202.03 
 338 -202.83 -202.84 -202.03 
 339 -202.85 -202.87 -202.03 
 340 -202.88 -202.83 -202.03 
 341 -202.84 -202.78 -202.03 
 342 -202.78 -202.79 -202.03 
 343 -202.81 -202.73 -202.03 
 344 -202.74 -202.78 -202.03 
 345 -202.80 -202.75 -202.03 
 346 -202.77 -202.79 -202.03 
 347 -202.80 -202.76 -202.03 
 348 -202.79 -202.78 -202.03 
 349 -202.80 -202.82 -202.03 
 350 -202.85 -202.85 -202.03 
 351 -202.87 -202.86 -202.03 
 352 -202.89 -202.87 -202.03 
 353 -202.89 -202.91 -202.03 
 354 -202.93 -202.90 -202.03 
 355 -202.93 -202.83 -202.03 
 356 -202.86 -202.81 -202.03 
 357 -202.84 -202.83 -202.03 
 358 -202.85 -202.86 -202.03 
 359 -202.88 -202.89 -202.03 
 360 -202.91 -202.92 -202.03 
 361 -202.94 -202.93 -202.03 
 362 -202.95 -202.97 -202.03 
 363 -202.98 -202.99 -202.03 
 364 -203.01 -202.96 -202.03 
 365 -202.98 -202.91 -202.03 
 366 -202.94 -202.91 -202.03 
 367 -202.93 -202.94 -202.03 
 368 -202.95 -202.96 -202.03 
 369 -202.98 -202.98 -202.03 
 370 -202.99 -202.97 -202.03 
 371 -202.97 -203.00 -202.03 
 372 -203.01 -202.96 -202.03 
 373 -202.98 -202.94 -202.03 
 374 -202.94 -202.93 -202.03 
 375 -202.93 -202.94 -202.03 
 376 -202.96 -202.99 -202.03 
 377 -203.00 -203.00 -202.03 
 378 -203.00 -203.00 -202.03 
 379 -203.01 -202.98 -202.03 
 380 -202.99 -203.02 -202.03 
 381 -203.02 -203.05 -202.03 
 382 -203.05 -203.04 -202.03 
 383 -203.05 -203.07 -202.03 
 384 -203.07 -203.08 -202.03 
 385 -203.10 -203.14 -202.03 
 386 -203.15 -203.12 -202.03 
 387 -203.13 -203.14 -202.03 
 388 -203.14 -203.11 -202.03 
 389 -203.12 -203.03 -202.03 
 390 -203.03 -203.04 -202.03 
 391 -203.05 -203.06 -202.03 
 392 -203.06 -203.11 -202.03 
 393 -203.12 -203.10 -202.03 
 394 -203.12 -203.13 -202.03 
 395 -203.13 -203.11 -202.03 
 396 -203.12 -203.08 -202.03 
 397 -203.10 -203.04 -202.03 
 398 -203.05 -203.09 -202.03 
 399 -203.09 -203.05 -202.03 
 400 -203.06 -203.09 -202.03 
 401 -203.11 -203.11 -202.03 
 402 -203.12 -203.14 -202.03 
 403 -203.15 -203.15 -202.03 
 404 -203.16 -203.15 -202.03 
 405 -203.18 -203.22 -202.03 
 406 -203.23 -203.24 -202.03 
 407 -203.24 -203.20 -202.03 
 408 -203.21 -203.19 -202.03 
 409 -203.20 -203.18 -202.03 
 410 -203.20 -203.17 -202.03 
 411 -203.19 -203.13 -202.03 
 412 -203.16 -203.09 -202.03 
 413 -203.10 -203.07 -202.03 
 414 -203.09 -203.05 -202.03 
 415 -203.06 -203.03 -202.03 
 416 -203.04 -203.06 -202.03 
 417 -203.08 -203.12 -202.03 
 418 -203.14 -203.13 -202.03 
 419 -203.14 -203.15 -202.03 
 420 -203.16 -203.16 -202.03 
 421 -203.18 -203.17 -202.03 
 422 -203.18 -203.19 -202.03 
 423 -203.22 -203.22 -202.03 
 424 -203.23 -203.23 -202.03 
 425 -203.24 -203.25 -202.03 
 426 -203.25 -203.26 -202.03 
 427 -203.27 -203.26 -202.03 
 428 -203.29 -203.28 -202.03 
 429 -203.30 -203.29 -202.03 
 430 -203.30 -203.26 -202.03 
 431 -203.27 -203.25 -202.03 
 432 -203.26 -203.30 -202.03 
 433 -203.31 -203.29 -202.03 
 434 -203.29 -203.27 -202.03 
 435 -203.29 -203.22 -202.03 
 436 -203.23 -203.18 -202.03 
 437 -203.19 -203.17 -202.03 
 438 -203.17 -203.11 -202.03 
 439 -203.12 -203.08 -202.03 
 440 -203.08 -203.11 -202.03 
 441 -203.10 -203.09 -202.03 
 442 -203.08 -203.06 -202.03 
 443 -203.06 -203.09 -202.03 
 444 -203.08 -203.06 -202.03 
 445 -203.07 -203.12 -202.03 
 446 -203.12 -203.14 -202.03 
 447 -203.15 -203.16 -202.03 
 448 -203.18 -203.19 -202.03 
 449 -203.20 -203.23 -202.03 
 450 -203.25 -203.26 -202.03 
 451 -203.29 -203.24 -202.03 
 452 -203.27 -203.19 -202.03 
 453 -203.20 -203.22 -202.03 
 454 -203.24 -203.18 -202.03 
 455 -203.21 -203.19 -202.03 
 456 -203.20 -203.21 -202.03 
 457 -203.23 -203.22 -202.03 
 458 -203.25 -203.25 -202.03 
 459 -203.26 -203.21 -202.03 
 460 -203.21 -203.18 -202.03 
 461 -203.18 -203.18 -202.03 
 462 -203.20 -203.18 -202.03 
 463 -203.21 -203.14 -202.03 
 464 -203.15 -203.10 -202.03 
 465 -203.13 -203.08 -202.03 
 466 -203.08 -203.07 -202.03 
 467 -203.09 -203.04 -202.03 
 468 -203.05 -203.04 -202.03 
 469 -203.05 -203.06 -202.03 
 470 -203.06 -203.05 -202.03 
 471 -203.06 -203.06 -202.03 
 472 -203.07 -203.09 -202.03 
 473 -203.10 -203.12 -202.03 
 474 -203.13 -203.10 -202.03 
 475 -203.10 -203.08 -202.03 
 476 -203.09 -203.06 -202.03 
 477 -203.07 -203.08 -202.03 
 478 -203.08 -203.04 -202.03 
 479 -203.04 -203.03 -202.03 
 480 -203.02 -203.06 -202.03 
 481 -203.05 -203.02 -202.03 
 482 -203.02 -203.02 -202.03 
 483 -203.03 -202.99 -202.03 
 484 -202.99 -203.00 -202.03 
 485 -203.00 -202.97 -202.03 
 486 -202.98 -203.00 -202.03 
 487 -203.00 -202.98 -202.03 
 488 -202.97 -202.96 -202.03 
 489 -202.96 -202.97 -202.03 
 490 -202.96 -202.95 -202.03 
 491 -202.95 -202.94 -202.03 
 492 -202.94 -202.94 -202.03 
 493 -202.95 -202.96 -202.03 
 494 -202.96 -202.92 -202.03 
 495 -202.93 -202.89 -202.03 
 496 -202.90 -202.93 -202.03 
 497 -202.94 -202.93 -202.03 
 498 -202.94 -202.93 -202.03 
 499 -202.93 -202.91 -202.03 
 500 -202.93 -202.90 -202.03 
 501 -202.91 -202.95 -202.03 
 502 -202.95 -202.98 -202.03 
 503 -202.98 -202.98 -202.03 
 504 -203.00 -203.03 -202.03 
 505 -203.03 -203.06 -202.03 
 506 -203.06 -203.09 -202.03 
 507 -203.09 -203.09 -202.03 
 508 -203.09 -203.04 -202.03 
 509 -203.04 -203.05 -202.03 
 510 -203.05 -203.01 -202.03 
 511 -203.01 -202.99 -202.03 
 512 -202.99 -203.01 -202.03 
 513 -203.01 -203.01 -202.03 
 514 -203.00 -202.96 -202.03 
 515 -202.96 -202.93 -202.03 
 516 -202.93 -202.99 -202.03 
 517 -202.97 -202.96 -202.03 
 518 -202.95 -202.88 -202.03 
 519 -202.87 -202.87 -202.03 
 520 -202.85 -202.85 -202.03 
 521 -202.82 -202.83 -202.03 
 522 -202.81 -202.83 -202.03 
 523 -202.80 -202.82 -202.03 
 524 -202.79 -202.74 -202.03 
 525 -202.73 -202.73 -202.03 
 526 -202.73 -202.74 -202.03 
 527 -202.72 -202.77 -202.03 
 528 -202.76 -202.79 -202.03 
 529 -202.78 -202.79 -202.03 
 530 -202.78 -202.68 -202.03 
 531 -202.67 -202.69 -202.03 
 532 -202.69 -202.69 -202.03 
 533 -202.68 -202.72 -202.03 
 534 -202.71 -202.77 -202.03 
 535 -202.77 -202.77 -202.03 
 536 -202.76 -202.83 -202.03 
 537 -202.82 -202.82 -202.03 
 538 -202.81 -202.84 -202.03 
 539 -202.82 -202.86 -202.03 
 540 -202.85 -202.88 -202.03 
 541 -202.87 -202.89 -202.03 
 542 -202.89 -202.93 -202.03 
 543 -202.92 -202.91 -202.03 
 544 -202.90 -202.91 -202.03 
 545 -202.92 -203.00 -202.03 
 546 -202.98 -202.97 -202.03 
 547 -202.97 -202.99 -202.03 
 548 -202.99 -203.03 -202.03 
 549 -203.03 -203.01 -202.03 
 550 -203.01 -202.99 -202.03 
 551 -203.00 -203.03 -202.03 
 552 -203.03 -202.98 -202.03 
 553 -202.99 -203.01 -202.03 
 554 -203.01 -203.01 -202.03 
 555 -203.01 -202.95 -202.03 
 556 -202.95 -202.90 -202.03 
 557 -202.90 -202.87 -202.03 
 558 -202.88 -202.90 -202.03 
 559 -202.91 -202.94 -202.03 
 560 -202.95 -202.91 -202.03 
 561 -202.91 -202.88 -202.03 
 562 -202.88 -202.94 -202.03 
 563 -202.95 -202.97 -202.03 
 564 -202.96 -202.98 -202.03 
 565 -202.97 -203.03 -202.03 
 566 -203.03 -203.04 -202.03 
 567 -203.04 -203.02 -202.03 
 568 -203.03 -203.05 -202.03 
 569 -203.04 -203.07 -202.03 
 570 -203.08 -203.07 -202.03 
 571 -203.07 -203.06 -202.03 
 572 -203.07 -203.10 -202.03 
 573 -203.11 -203.11 -202.03 
 574 -203.12 -203.12 -202.03 
 575 -203.13 -203.12 -202.03 
 576 -203.13 -203.15 -202.03 
 577 -203.15 -203.14 -202.03 
 578 -203.14 -203.13 -202.03 
 579 -203.13 -203.18 -202.03 
 580 -203.19 -203.20 -202.03 
 581 -203.22 -203.20 -202.03 
 582 -203.21 -203.23 -202.03 
 583 -203.25 -203.25 -202.03 
 584 -203.26 -203.23 -202.03 
 585 -203.24 -203.25 -202.03 
 586 -203.25 -203.22 -202.03 
 587 -203.23 -203.22 -202.03 
 588 -203.23 -203.24 -202.03 
 589 -203.25 -203.26 -202.03 
 590 -203.27 -203.27 -202.03 
 591 -203.27 -203.25 -202.03 
 592 -203.26 -203.29 -202.03 
 593 -203.29 -203.27 -202.03 
 594 -203.25 -203.27 -202.03 
 595 -203.27 -203.25 -202.03 
 596 -203.24 -203.26 -202.03 
 597 -203.26 -203.28 -202.03 
 598 -203.27 -203.28 -202.03 
 599 -203.27 -203.27 -202.03 
 600 -203.26 -203.30 -202.03 
 601 -203.29 -203.32 -202.03 
 602 -203.32 -203.32 -202.03 
 603 -203.32 -203.33 -202.03 
 604 -203.33 -203.31 -202.03 
 605 -203.30 -203.30 -202.03 
 606 -203.30 -203.29 -202.03 
 607 -203.28 -203.32 -202.03 
 608 -203.32 -203.35 -202.03 
 609 -203.35 -203.34 -202.03 
 610 -203.32 -203.30 -202.03 
 611 -203.29 -203.28 -202.03 
 612 -203.29 -203.29 -202.03 
 613 -203.29 -203.30 -202.03 
 614 -203.30 -203.34 -202.03 
 615 -203.33 -203.34 -202.03 
 616 -203.33 -203.34 -202.03 
 617 -203.32 -203.32 -202.03 
 618 -203.33 -203.31 -202.03 
 619 -203.31 -203.34 -202.03 
 620 -203.32 -203.32 -202.03 
 621 -203.32 -203.32 -202.03 
 622 -203.33 -203.33 -202.03 
 623 -203.33 -203.34 -202.03 
 624 -203.35 -203.35 -202.03 
 625 -203.35 -203.35 -202.03 
 626 -203.35 -203.35 -202.03 
 627 -203.34 -203.31 -202.03 
 628 -203.31 -203.32 -202.03 
 629 -203.33 -203.37 -202.03 
 630 -203.38 -203.39 -202.03 
 631 -203.41 -203.39 -202.03 
 632 -203.40 -203.37 -202.03 
 633 -203.37 -203.42 -202.03 
 634 -203.43 -203.44 -202.03 
 635 -203.45 -203.46 -202.03 
 636 -203.46 -203.42 -202.03 
 637 -203.44 -203.42 -202.03 
 638 -203.42 -203.40 -202.03 
 639 -203.41 -203.43 -202.03 
 640 -203.43 -203.41 -202.03 
 641 -203.41 -203.42 -202.03 
 642 -203.41 -203.38 -202.03 
 643 -203.39 -203.35 -202.03 
 644 -203.34 -203.34 -202.03 
 645 -203.35 -203.32 -202.03 
 646 -203.34 -203.36 -202.03 
 647 -203.38 -203.35 -202.03 
 648 -203.37 -203.37 -202.03 
 649 -203.37 -203.36 -202.03 
 650 -203.36 -203.37 -202.03 
 651 -203.38 -203.39 -202.03 
 652 -203.40 -203.39 -202.03 
 653 -203.39 -203.40 -202.03 
 654 -203.41 -203.40 -202.03 
 655 -203.41 -203.41 -202.03 
 656 -203.41 -203.38 -202.03 
 657 -203.38 -203.41 -202.03 
 658 -203.41 -203.44 -202.03 
 659 -203.45 -203.47 -202.03 
 660 -203.47 -203.49 -202.03 
 661 -203.50 -203.49 -202.03 
 662 -203.51 -203.52 -202.03 
 663 -203.53 -203.53 -202.03 
 664 -203.53 -203.53 -202.03 
 665 -203.53 -203.55 -202.03 
 666 -203.55 -203.56 -202.03 
 667 -203.57 -203.55 -202.03 
 668 -203.56 -203.55 -202.03 
 669 -203.55 -203.52 -202.03 
 670 -203.53 -203.52 -202.03 
 671 -203.52 -203.53 -202.03 
 672 -203.53 -203.52 -202.03 
 673 -203.52 -203.49 -202.03 
 674 -203.50 -203.50 -202.03 
 675 -203.50 -203.53 -202.03 
 676 -203.54 -203.54 -202.03 
 677 -203.55 -203.55 -202.03 
 678 -203.55 -203.52 -202.03 
 679 -203.52 -203.47 -202.03 
 680 -203.47 -203.43 -202.03 
 681 -203.44 -203.44 -202.03 
 682 -203.45 -203.47 -202.03 
 683 -203.48 -203.46 -202.03 
 684 -203.47 -203.45 -202.03 
 685 -203.44 -203.44 -202.03 
 686 -203.44 -203.45 -202.03 
 687 -203.45 -203.42 -202.03 
 688 -203.41 -203.43 -202.03 
 689 -203.43 -203.46 -202.03 
 690 -203.46 -203.45 -202.03 
 691 -203.43 -203.42 -202.03 
 692 -203.42 -203.40 -202.03 
 693 -203.38 -203.39 -202.03 
 694 -203.38 -203.40 -202.03 
 695 -203.39 -203.37 -202.03 
 696 -203.36 -203.37 -202.03 
 697 -203.37 -203.41 -202.03 
 698 -203.40 -203.43 -202.03 
 699 -203.42 -203.44 -202.03 
 700 -203.43 -203.44 -202.03 
 701 -203.44 -203.45 -202.03 
 702 -203.45 -203.46 -202.03 
 703 -203.45 -203.45 -202.03 
 704 -203.43 -203.45 -202.03 
 705 -203.45 -203.48 -202.03 
 706 -203.47 -203.45 -202.03 
 707 -203.43 -203.47 -202.03 
 708 -203.47 -203.47 -202.03 
 709 -203.46 -203.47 -202.03 
 710 -203.47 -203.45 -202.03 
 711 -203.44 -203.43 -202.03 
 712 -203.43 -203.47 -202.03 
 713 -203.45 -203.46 -202.03 
 714 -203.45 -203.44 -202.03 
 715 -203.43 -203.45 -202.03 
 716 -203.44 -203.44 -202.03 
 717 -203.44 -203.43 -202.03 
 718 -203.42 -203.44 -202.03 
 719 -203.43 -203.45 -202.03 
 720 -203.45 -203.47 -202.03 
 721 -203.47 -203.47 -202.03 
 722 -203.46 -203.49 -202.03 
 723 -203.49 -203.47 -202.03 
 724 -203.46 -203.49 -202.03 
 725 -203.49 -203.47 -202.03 
 726 -203.47 -203.46 -202.03 
 727 -203.45 -203.49 -202.03 
 728 -203.48 -203.49 -202.03 
 729 -203.49 -203.53 -202.03 
 730 -203.51 -203.50 -202.03 
 731 -203.48 -203.49 -202.03 
 732 -203.46 -203.50 -202.03 
 733 -203.49 -203.50 -202.03 
 734 -203.48 -203.53 -202.03 
 735 -203.51 -203.53 -202.03 
 736 -203.52 -203.59 -202.03 
 737 -203.57 -203.55 -202.03 
 738 -203.54 -203.56 -202.03 
 739 -203.55 -203.55 -202.03 
 740 -203.54 -203.58 -202.03 
 741 -203.56 -203.61 -202.03 
 742 -203.61 -203.62 -202.03 
 743 -203.61 -203.60 -202.03 
 744 -203.59 -203.59 -202.03 
 745 -203.58 -203.59 -202.03 
 746 -203.58 -203.58 -202.03 
 747 -203.58 -203.56 -202.03 
 748 -203.56 -203.54 -202.03 
 749 -203.55 -203.55 -202.03 
 750 -203.55 -203.51 -202.03 
 751 -203.52 -203.52 -202.03 
 752 -203.52 -203.53 -202.03 
 753 -203.52 -203.56 -202.03 
 754 -203.56 -203.58 -202.03 
 755 -203.58 -203.58 -202.03 
 756 -203.58 -203.56 -202.03 
 757 -203.56 -203.56 -202.03 
 758 -203.57 -203.55 -202.03 
 759 -203.55 -203.54 -202.03 
 760 -203.54 -203.54 -202.03 
 761 -203.53 -203.56 -202.03 
 762 -203.54 -203.54 -202.03 
 763 -203.54 -203.55 -202.03 
 764 -203.54 -203.56 -202.03 
 765 -203.55 -203.51 -202.03 
 766 -203.52 -203.53 -202.03 
 767 -203.53 -203.51 -202.03 
 768 -203.50 -203.50 -202.03 
 769 -203.50 -203.54 -202.03 
 770 -203.54 -203.55 -202.03 
 771 -203.55 -203.54 -202.03 
 772 -203.54 -203.49 -202.03 
 773 -203.49 -203.50 -202.03 
 774 -203.50 -203.52 -202.03 
 775 -203.51 -203.51 -202.03 
 776 -203.50 -203.50 -202.03 
 777 -203.50 -203.50 -202.03 
 778 -203.50 -203.50 -202.03 
 779 -203.49 -203.53 -202.03 
 780 -203.52 -203.52 -202.03 
 781 -203.52 -203.50 -202.03 
 782 -203.50 -203.52 -202.03 
 783 -203.51 -203.50 -202.03 
 784 -203.49 -203.49 -202.03 
 785 -203.48 -203.48 -202.03 
 786 -203.47 -203.50 -202.03 
 787 -203.49 -203.52 -202.03 
 788 -203.50 -203.48 -202.03 
 789 -203.47 -203.52 -202.03 
 790 -203.51 -203.51 -202.03 
 791 -203.49 -203.48 -202.03 
 792 -203.46 -203.49 -202.03 
 793 -203.48 -203.54 -202.03 
 794 -203.52 -203.53 -202.03 
 795 -203.51 -203.52 -202.03 
 796 -203.51 -203.54 -202.03 
 797 -203.54 -203.59 -202.03 
 798 -203.58 -203.60 -202.03 
 799 -203.59 -203.61 -202.03 
 800 -203.58 -203.60 -202.03 
 801 -203.58 -203.58 -202.03 
 802 -203.57 -203.57 -202.03 
 803 -203.56 -203.55 -202.03 
 804 -203.54 -203.58 -202.03 
 805 -203.57 -203.57 -202.03 
 806 -203.55 -203.56 -202.03 
 807 -203.52 -203.52 -202.03 
 808 -203.50 -203.50 -202.03 
 809 -203.48 -203.47 -202.03 
 810 -203.44 -203.49 -202.03 
 811 -203.47 -203.53 -202.03 
 812 -203.52 -203.53 -202.03 
 813 -203.51 -203.53 -202.03 
 814 -203.51 -203.56 -202.03 
 815 -203.52 -203.57 -202.03 
 816 -203.56 -203.55 -202.03 
 817 -203.53 -203.52 -202.03 
 818 -203.51 -203.51 -202.03 
 819 -203.49 -203.53 -202.03 
 820 -203.51 -203.51 -202.03 
 821 -203.51 -203.54 -202.03 
 822 -203.53 -203.50 -202.03 
 823 -203.49 -203.55 -202.03 
 824 -203.55 -203.57 -202.03 
 825 -203.55 -203.55 -202.03 
 826 -203.55 -203.56 -202.03 
 827 -203.55 -203.58 -202.03 
 828 -203.57 -203.57 -202.03 
 829 -203.55 -203.57 -202.03 
 830 -203.56 -203.58 -202.03 
 831 -203.55 -203.59 -202.03 
 832 -203.57 -203.58 -202.03 
 833 -203.55 -203.57 -202.03 
 834 -203.55 -203.58 -202.03 
 835 -203.55 -203.58 -202.03 
 836 -203.57 -203.57 -202.03 
 837 -203.54 -203.60 -202.03 
 838 -203.58 -203.62 -202.03 
 839 -203.59 -203.60 -202.03 
 840 -203.59 -203.61 -202.03 
 841 -203.60 -203.63 -202.03 
 842 -203.60 -203.62 -202.03 
 843 -203.61 -203.64 -202.03 
 844 -203.61 -203.60 -202.03 
 845 -203.56 -203.59 -202.03 
 846 -203.54 -203.56 -202.03 
 847 -203.52 -203.55 -202.03 
 848 -203.52 -203.54 -202.03 
 849 -203.52 -203.53 -202.03 
 850 -203.52 -203.54 -202.03 
 851 -203.53 -203.52 -202.03 
 852 -203.51 -203.47 -202.03 
 853 -203.45 -203.49 -202.03 
 854 -203.47 -203.51 -202.03 
 855 -203.51 -203.50 -202.03 
 856 -203.49 -203.48 -202.03 
 857 -203.48 -203.47 -202.03 
 858 -203.45 -203.49 -202.03 
 859 -203.48 -203.49 -202.03 
 860 -203.47 -203.51 -202.03 
 861 -203.50 -203.51 -202.03 
 862 -203.50 -203.48 -202.03 
 863 -203.46 -203.45 -202.03 
 864 -203.44 -203.46 -202.03 
 865 -203.43 -203.43 -202.03 
 866 -203.41 -203.37 -202.03 
 867 -203.36 -203.37 -202.03 
 868 -203.35 -203.38 -202.03 
 869 -203.36 -203.39 -202.03 
 870 -203.38 -203.42 -202.03 
 871 -203.41 -203.47 -202.03 
 872 -203.45 -203.41 -202.03 
 873 -203.39 -203.39 -202.03 
 874 -203.37 -203.36 -202.03 
 875 -203.34 -203.35 -202.03 
 876 -203.32 -203.34 -202.03 
 877 -203.34 -203.37 -202.03 
 878 -203.36 -203.35 -202.03 
 879 -203.33 -203.36 -202.03 
 880 -203.35 -203.37 -202.03 
 881 -203.38 -203.37 -202.03 
 882 -203.36 -203.31 -202.03 
 883 -203.29 -203.30 -202.03 
 884 -203.28 -203.23 -202.03 
 885 -203.22 -203.19 -202.03 
 886 -203.19 -203.16 -202.03 
 887 -203.17 -203.18 -202.03 
 888 -203.18 -203.19 -202.03 
 889 -203.18 -203.15 -202.03 
 890 -203.16 -203.13 -202.03 
 891 -203.12 -203.12 -202.03 
 892 -203.12 -203.14 -202.03 
 893 -203.14 -203.07 -202.03 
 894 -203.06 -203.05 -202.03 
 895 -203.05 -203.04 -202.03 
 896 -203.04 -203.04 -202.03 
 897 -203.04 -203.05 -202.03 
 898 -203.04 -203.03 -202.03 
 899 -203.02 -203.03 -202.03 
 900 -203.02 -202.98 -202.03 
 901 -202.99 -202.99 -202.03 
 902 -202.99 -202.96 -202.03 
 903 -202.96 -203.00 -202.03 
 904 -203.00 -202.98 -202.03 
 905 -202.99 -202.98 -202.03 
 906 -202.98 -202.95 -202.03 
 907 -202.95 -202.95 -202.03 
 908 -202.95 -202.97 -202.03 
 909 -202.97 -202.95 -202.03 
 910 -202.95 -202.99 -202.03 
 911 -202.99 -203.01 -202.03 
 912 -203.00 -202.97 -202.03 
 913 -202.97 -202.98 -202.03 
 914 -202.98 -203.04 -202.03 
 915 -203.04 -203.02 -202.03 
 916 -203.02 -203.01 -202.03 
 917 -203.01 -203.00 -202.03 
 918 -203.00 -202.99 -202.03 
 919 -202.99 -202.99 -202.03 
 920 -203.00 -203.00 -202.03 
 921 -203.00 -203.01 -202.03 
 922 -203.01 -203.00 -202.03 
 923 -202.99 -203.01 -202.03 
 924 -203.01 -203.00 -202.03 
 925 -203.00 -202.98 -202.03 
 926 -202.98 -203.01 -202.03 
 927 -203.02 -203.00 -202.03 
 928 -203.00 -203.00 -202.03 
 929 -203.00 -202.98 -202.03 
 930 -202.99 -203.02 -202.03 
 931 -203.02 -203.00 -202.03 
 932 -203.01 -203.00 -202.03 
 933 -203.00 -203.01 -202.03 
 934 -203.00 -202.99 -202.03 
 935 -202.99 -202.95 -202.03 
 936 -202.95 -202.97 -202.03 
 937 -202.98 -202.98 -202.03 
 938 -202.98 -202.96 -202.03 
 939 -202.96 -202.96 -202.03 
 940 -202.97 -202.99 -202.03 
 941 -203.00 -202.98 -202.03 
 942 -202.98 -202.99 -202.03 
 943 -203.00 -203.01 -202.03 
 944 -203.02 -203.03 -202.03 
 945 -203.04 -203.03 -202.03 
 946 -203.04 -203.05 -202.03 
 947 -203.04 -203.02 -202.03 
 948 -203.02 -203.01 -202.03 
 949 -203.01 -203.03 -202.03 
 950 -203.04 -203.04 -202.03 
 951 -203.04 -203.04 -202.03 
 952 -203.05 -203.02 -202.03 
 953 -203.03 -203.02 -202.03 
 954 -203.03 -203.00 -202.03 
 955 -203.01 -202.98 -202.03 
 956 -202.99 -203.00 -202.03 
 957 -203.01 -203.02 -202.03 
 958 -203.03 -203.03 -202.03 
 959 -203.03 -203.05 -202.03 
 960 -203.05 -203.04 -202.03 
 961 -203.06 -203.07 -202.03 
 962 -203.08 -203.07 -202.03 
 963 -203.07 -203.09 -202.03 
 964 -203.09 -203.14 -202.03 
 965 -203.14 -203.12 -202.03 
 966 -203.12 -203.09 -202.03 
 967 -203.10 -203.09 -202.03 
 968 -203.10 -203.12 -202.03 
 969 -203.13 -203.10 -202.03 
 970 -203.11 -203.10 -202.03 
 971 -203.10 -203.06 -202.03 
 972 -203.06 -203.08 -202.03 
 973 -203.08 -203.13 -202.03 
 974 -203.14 -203.16 -202.03 
 975 -203.16 -203.12 -202.03 
 976 -203.13 -203.15 -202.03 
 977 -203.16 -203.15 -202.03 
 978 -203.15 -203.18 -202.03 
 979 -203.19 -203.19 -202.03 
 980 -203.19 -203.16 -202.03 
 981 -203.17 -203.19 -202.03 
 982 -203.19 -203.20 -202.03 
 983 -203.21 -203.23 -202.03 
 984 -203.23 -203.26 -202.03 
 985 -203.27 -203.25 -202.03 
 986 -203.26 -203.26 -202.03 
 987 -203.26 -203.27 -202.03 
 988 -203.27 -203.26 -202.03 
 989 -203.27 -203.22 -202.03 
 990 -203.23 -203.22 -202.03 
 991 -203.22 -203.20 -202.03 
 992 -203.20 -203.23 -202.03 
 993 -203.23 -203.26 -202.03 
 994 -203.26 -203.32 -202.03 
 995 -203.32 -203.31 -202.03 
 996 -203.31 -203.32 -202.03 
 997 -203.32 -203.35 -202.03 
 998 -203.35 -203.32 -202.03 
 999 -203.33 -203.30 -202.03 
1000 -203.29 -203.35 -202.03 
1001 -203.35 -203.31 -202.03 
1002 -203.32 -203.27 -202.03 
1003 -203.28 -203.26 -202.03 
1004 -203.26 -203.24 -202.03 
1005 -203.23 -203.27 -202.03 
1006 -203.27 -203.24 -202.03 
1007 -203.24 -203.23 -202.03 
1008 -203.24 -203.18 -202.03 
1009 -203.18 -203.17 -202.03 
1010 -203.18 -203.18 -202.03 
1011 -203.18 -203.20 -202.03 
1012 -203.20 -203.20 -202.03 
1013 -203.21 -203.23 -202.03 
1014 -203.24 -203.24 -202.03 
1015 -203.24 -203.24 -202.03 
1016 -203.24 -203.25 -202.03 
1017 -203.25 -203.21 -202.03 
1018 -203.21 -203.20 -202.03 
1019 -203.21 -203.17 -202.03 
1020 -203.18 -203.21 -202.03 
1021 -203.22 -203.21 -202.03 
1022 -203.22 -203.21 -202.03 
1023 -203.22 -203.24 -202.03 
1024 -203.25 -203.28 -202.03 
1025 -203.28 -203.24 -202.03 
1026 -203.25 -203.30 -202.03 
1027 -203.31 -203.31 -202.03 
1028 -203.31 -203.31 -202.03 
1029 -203.32 -203.34 -202.03 
1030 -203.36 -203.40 -202.03 
1031 -203.41 -203.41 -202.03 
1032 -203.42 -203.44 -202.03 
1033 -203.46 -203.40 -202.03 
1034 -203.42 -203.41 -202.03 
1035 -203.42 -203.39 -202.03 
1036 -203.42 -203.40 -202.03 
1037 -203.41 -203.44 -202.03 
1038 -203.44 -203.46 -202.03 
1039 -203.47 -203.46 -202.03 
1040 -203.47 -203.49 -202.03 
1041 -203.51 -203.48 -202.03 
1042 -203.51 -203.54 -202.03 
1043 -203.55 -203.54 -202.03 
1044 -203.54 -203.48 -202.03 
1045 -203.50 -203.48 -202.03 
1046 -203.49 -203.49 -202.03 
1047 -203.50 -203.47 -202.03 
1048 -203.48 -203.43 -202.03 
1049 -203.44 -203.43 -202.03 
1050 -203.44 -203.47 -202.03 
1051 -203.47 -203.46 -202.03 
1052 -203.47 -203.48 -202.03 
1053 -203.48 -203.52 -202.03 
1054 -203.53 -203.51 -202.03 
1055 -203.52 -203.52 -202.03 
1056 -203.52 -203.56 -202.03 
1057 -203.56 -203.55 -202.03 
1058 -203.57 -203.56 -202.03 
1059 -203.57 -203.56 -202.03 
1060 -203.57 -203.56 -202.03 
1061 -203.58 -203.60 -202.03 
1062 -203.61 -203.58 -202.03 
1063 -203.59 -203.62 -202.03 
1064 -203.64 -203.64 -202.03 
1065 -203.64 -203.62 -202.03 
1066 -203.63 -203.60 -202.03 
1067 -203.62 -203.62 -202.03 
1068 -203.63 -203.59 -202.03 
1069 -203.59 -203.56 -202.03 
1070 -203.57 -203.57 -202.03 
1071 -203.57 -203.55 -202.03 
1072 -203.57 -203.53 -202.03 
1073 -203.54 -203.52 -202.03 
1074 -203.53 -203.51 -202.03 
1075 -203.53 -203.50 -202.03 
1076 -203.52 -203.48 -202.03 
1077 -203.49 -203.51 -202.03 
1078 -203.51 -203.48 -202.03 
1079 -203.50 -203.52 -202.03 
1080 -203.52 -203.49 -202.03 
1081 -203.49 -203.48 -202.03 
1082 -203.49 -203.47 -202.03 
1083 -203.48 -203.46 -202.03 
1084 -203.48 -203.49 -202.03 
1085 -203.50 -203.49 -202.03 
1086 -203.50 -203.49 -202.03 
1087 -203.50 -203.50 -202.03 
1088 -203.51 -203.52 -202.03 
1089 -203.54 -203.52 -202.03 
1090 -203.53 -203.56 -202.03 
1091 -203.58 -203.58 -202.03 
1092 -203.59 -203.56 -202.03 
1093 -203.57 -203.58 -202.03 
1094 -203.58 -203.60 -202.03 
1095 -203.59 -203.62 -202.03 
1096 -203.63 -203.65 -202.03 
1097 -203.65 -203.69 -202.03 
1098 -203.68 -203.68 -202.03 
1099 -203.67 -203.68 -202.03 
1100 -203.68 -203.65 -202.03 
1101 -203.65 -203.64 -202.03 
1102 -203.64 -203.61 -202.03 
1103 -203.60 -203.60 -202.03 
1104 -203.61 -203.58 -202.03 
1105 -203.58 -203.59 -202.03 
1106 -203.59 -203.60 -202.03 
1107 -203.60 -203.62 -202.03 
1108 -203.63 -203.61 -202.03 
1109 -203.61 -203.60 -202.03 
1110 -203.60 -203.60 -202.03 
1111 -203.60 -203.61 -202.03 
1112 -203.62 -203.61 -202.03 
1113 -203.61 -203.64 -202.03 
1114 -203.65 -203.64 -202.03 
1115 -203.64 -203.66 -202.03 
1116 -203.66 -203.70 -202.03 
1117 -203.71 -203.70 -202.03 
1118 -203.70 -203.70 -202.03 
1119 -203.70 -203.66 -202.03 
1120 -203.67 -203.65 -202.03 
1121 -203.65 -203.64 -202.03 
1122 -203.63 -203.64 -202.03 
1123 -203.64 -203.67 -202.03 
1124 -203.68 -203.65 -202.03 
1125 -203.65 -203.66 -202.03 
1126 -203.67 -203.66 -202.03 
1127 -203.65 -203.64 -202.03 
1128 -203.64 -203.61 -202.03 
1129 -203.62 -203.61 -202.03 
1130 -203.62 -203.64 -202.03 
1131 -203.65 -203.67 -202.03 
1132 -203.67 -203.68 -202.03 
1133 -203.67 -203.64 -202.03 
1134 -203.65 -203.67 -202.03 
1135 -203.67 -203.68 -202.03 
1136 -203.68 -203.65 -202.03 
1137 -203.65 -203.66 -202.03 
1138 -203.65 -203.65 -202.03 
1139 -203.65 -203.65 -202.03 
1140 -203.65 -203.63 -202.03 
1141 -203.64 -203.63 -202.03 
1142 -203.64 -203.58 -202.03 
1143 -203.59 -203.57 -202.03 
1144 -203.59 -203.58 -202.03 
1145 -203.58 -203.60 -202.03 
1146 -203.61 -203.59 -202.03 
1147 -203.59 -203.59 -202.03 
1148 -203.59 -203.62 -202.03 
1149 -203.61 -203.57 -202.03 
1150 -203.58 -203.56 -202.03 
1151 -203.57 -203.55 -202.03 
1152 -203.56 -203.56 -202.03 
1153 -203.57 -203.53 -202.03 
1154 -203.53 -203.56 -202.03 
1155 -203.56 -203.55 -202.03 
1156 -203.56 -203.51 -202.03 
1157 -203.53 -203.51 -202.03 
1158 -203.52 -203.52 -202.03 
1159 -203.52 -203.50 -202.03 
1160 -203.49 -203.51 -202.03 
1161 -203.49 -203.53 -202.03 
1162 -203.54 -203.54 -202.03 
1163 -203.54 -203.55 -202.03 
1164 -203.55 -203.55 -202.03 
1165 -203.56 -203.57 -202.03 
1166 -203.57 -203.56 -202.03 
1167 -203.59 -203.55 -202.03 
1168 -203.58 -203.52 -202.03 
1169 -203.54 -203.54 -202.03 
1170 -203.56 -203.52 -202.03 
1171 -203.52 -203.58 -202.03 
1172 -203.59 -203.62 -202.03 
1173 -203.62 -203.60 -202.03 
1174 -203.60 -203.61 -202.03 
1175 -203.62 -203.60 -202.03 
1176 -203.61 -203.62 -202.03 
1177 -203.62 -203.61 -202.03 
1178 -203.62 -203.62 -202.03 
1179 -203.62 -203.61 -202.03 
1180 -203.62 -203.62 -202.03 
1181 -203.64 -203.62 -202.03 
1182 -203.63 -203.57 -202.03 
1183 -203.59 -203.58 -202.03 
1184 -203.59 -203.63 -202.03 
1185 -203.65 -203.66 -202.03 
1186 -203.67 -203.70 -202.03 
1187 -203.70 -203.65 -202.03 
1188 -203.66 -203.64 -202.03 
1189 -203.65 -203.69 -202.03 
1190 -203.69 -203.69 -202.03 
1191 -203.69 -203.72 -202.03 
1192 -203.73 -203.69 -202.03 
1193 -203.68 -203.70 -202.03 
1194 -203.70 -203.73 -202.03 
1195 -203.74 -203.71 -202.03 
1196 -203.71 -203.68 -202.03 
1197 -203.68 -203.69 -202.03 
1198 -203.70 -203.62 -202.03 
1199 -203.63 -203.58 -202.03 
1200 -203.58 -203.55 -202.03 
1201 -203.56 -203.57 -202.03 
1202 -203.58 -203.52 -202.03 
1203 -203.53 -203.58 -202.03 
1204 -203.59 -203.59 -202.03 
1205 -203.59 -203.58 -202.03 
1206 -203.59 -203.61 -202.03 
1207 -203.61 -203.61 -202.03 
1208 -203.61 -203.59 -202.03 
1209 -203.59 -203.59 -202.03 
1210 -203.58 -203.61 -202.03 
1211 -203.62 -203.62 -202.03 
1212 -203.62 -203.65 -202.03 
1213 -203.65 -203.65 -202.03 
1214 -203.65 -203.66 -202.03 
1215 -203.66 -203.66 -202.03 
1216 -203.65 -203.64 -202.03 
1217 -203.65 -203.62 -202.03 
1218 -203.63 -203.59 -202.03 
1219 -203.58 -203.59 -202.03 
1220 -203.59 -203.55 -202.03 
1221 -203.55 -203.57 -202.03 
1222 -203.57 -203.57 -202.03 
1223 -203.58 -203.59 -202.03 
1224 -203.58 -203.57 -202.03 
1225 -203.57 -203.57 -202.03 
1226 -203.56 -203.55 -202.03 
1227 -203.55 -203.53 -202.03 
1228 -203.53 -203.53 -202.03 
1229 -203.54 -203.52 -202.03 
1230 -203.52 -203.53 -202.03 
1231 -203.54 -203.53 -202.03 
1232 -203.52 -203.49 -202.03 
1233 -203.50 -203.46 -202.03 
1234 -203.47 -203.39 -202.03 
1235 -203.40 -203.42 -202.03 
1236 -203.42 -203.43 -202.03 
1237 -203.43 -203.46 -202.03 
1238 -203.45 -203.40 -202.03 
1239 -203.40 -203.40 -202.03 
1240 -203.41 -203.41 -202.03 
1241 -203.42 -203.41 -202.03 
1242 -203.41 -203.46 -202.03 
1243 -203.45 -203.50 -202.03 
1244 -203.48 -203.54 -202.03 
1245 -203.53 -203.50 -202.03 
1246 -203.47 -203.52 -202.03 
1247 -203.50 -203.52 -202.03 
1248 -203.51 -203.50 -202.03 
1249 -203.48 -203.49 -202.03 
1250 -203.47 -203.51 -202.03 
1251 -203.49 -203.49 -202.03 
1252 -203.48 -203.47 -202.03 
1253 -203.47 -203.48 -202.03 
1254 -203.45 -203.43 -202.03 
1255 -203.43 -203.40 -202.03 
1256 -203.40 -203.40 -202.03 
1257 -203.40 -203.42 -202.03 
1258 -203.41 -203.43 -202.03 
1259 -203.43 -203.39 -202.03 
1260 -203.38 -203.37 -202.03 
1261 -203.36 -203.33 -202.03 
1262 -203.32 -203.32 -202.03 
1263 -203.31 -203.32 -202.03 
1264 -203.31 -203.34 -202.03 
1265 -203.33 -203.39 -202.03 
1266 -203.37 -203.34 -202.03 
1267 -203.32 -203.32 -202.03 
1268 -203.31 -203.33 -202.03 
1269 -203.32 -203.30 -202.03 
1270 -203.28 -203.27 -202.03 
1271 -203.27 -203.29 -202.03 
1272 -203.28 -203.27 -202.03 
1273 -203.25 -203.22 -202.03 
1274 -203.21 -203.19 -202.03 
1275 -203.17 -203.18 -202.03 
1276 -203.18 -203.20 -202.03 
1277 -203.21 -203.20 -202.03 
1278 -203.20 -203.16 -202.03 
1279 -203.16 -203.18 -202.03 
1280 -203.17 -203.12 -202.03 
1281 -203.12 -203.16 -202.03 
1282 -203.15 -203.13 -202.03 
1283 -203.14 -203.14 -202.03 
1284 -203.13 -203.12 -202.03 
1285 -203.12 -203.15 -202.03 
1286 -203.15 -203.11 -202.03 
1287 -203.11 -203.06 -202.03 
1288 -203.06 -203.03 -202.03 
1289 -203.02 -203.04 -202.03 
1290 -203.04 -203.04 -202.03 
1291 -203.04 -203.02 -202.03 
1292 -203.02 -203.01 -202.03 
1293 -203.02 -203.03 -202.03 
1294 -203.04 -203.04 -202.03 
1295 -203.05 -203.06 -202.03 
1296 -203.06 -203.03 -202.03 
1297 -203.02 -203.02 -202.03 
1298 -203.01 -203.02 -202.03 
1299 -203.01 -203.03 -202.03 
1300 -203.02 -202.97 -202.03 
1301 -202.96 -202.98 -202.03 
1302 -202.97 -202.94 -202.03 
1303 -202.93 -202.96 -202.03 
1304 -202.94 -202.95 -202.03 
1305 -202.95 -202.93 -202.03 
1306 -202.92 -202.94 -202.03 
1307 -202.93 -202.96 -202.03 
1308 -202.95 -202.97 -202.03 
1309 -202.97 -202.96 -202.03 
1310 -202.95 -202.96 -202.03 
1311 -202.95 -202.95 -202.03 
1312 -202.94 -202.98 -202.03 
1313 -202.98 -202.99 -202.03 
1314 -202.98 -202.97 -202.03 
1315 -202.96 -202.97 -202.03 
1316 -202.98 -202.97 -202.03 
1317 -202.97 -202.96 -202.03 
1318 -202.96 -202.96 -202.03 
1319 -202.97 -202.96 -202.03 
1320 -202.96 -202.95 -202.03 
1321 -202.95 -202.95 -202.03 
1322 -202.94 -202.91 -202.03 
1323 -202.92 -202.91 -202.03 
1324 -202.90 -202.90 -202.03 
1325 -202.89 -202.88 -202.03 
1326 -202.87 -202.86 -202.03 
1327 -202.85 -202.86 -202.03 
1328 -202.84 -202.89 -202.03 
1329 -202.89 -202.89 -202.03 
1330 -202.88 -202.89 -202.03 
1331 -202.89 -202.89 -202.03 
1332 -202.89 -202.88 -202.03 
1333 -202.88 -202.90 -202.03 
1334 -202.89 -202.90 -202.03 
1335 -202.89 -202.88 -202.03 
1336 -202.88 -202.88 -202.03 
1337 -202.86 -202.86 -202.03 
1338 -202.86 -202.90 -202.03 
1339 -202.90 -202.89 -202.03 
1340 -202.88 -202.88 -202.03 
1341 -202.87 -202.88 -202.03 
1342 -202.88 -202.88 -202.03 
1343 -202.86 -202.86 -202.03 
1344 -202.86 -202.87 -202.03 
1345 -202.86 -202.87 -202.03 
1346 -202.86 -202.88 -202.03 
1347 -202.87 -202.87 -202.03 
1348 -202.86 -202.86 -202.03 
1349 -202.85 -202.85 -202.03 
1350 -202.84 -202.87 -202.03 
1351 -202.87 -202.88 -202.03 
1352 -202.87 -202.87 -202.03 
1353 -202.87 -202.88 -202.03 
1354 -202.88 -202.88 -202.03 
1355 -202.88 -202.87 -202.03 
1356 -202.87 -202.88 -202.03 
1357 -202.87 -202.88 -202.03 
1358 -202.87 -202.88 -202.03 
1359 -202.88 -202.87 -202.03 
1360 -202.86 -202.85 -202.03 
1361 -202.85 -202.86 -202.03 
1362 -202.85 -202.84 -202.03 
1363 -202.84 -202.85 -202.03 
1364 -202.84 -202.84 -202.03 
1365 -202.84 -202.83 -202.03 
1366 -202.83 -202.84 -202.03 
1367 -202.83 -202.83 -202.03 
1368 -202.84 -202.81 -202.03 
1369 -202.81 -202.80 -202.03 
1370 -202.80 -202.78 -202.03 
1371 -202.77 -202.78 -202.03 
1372 -202.78 -202.81 -202.03 
1373 -202.80 -202.80 -202.03 
1374 -202.80 -202.80 -202.03 
1375 -202.79 -202.78 -202.03 
1376 -202.78 -202.76 -202.03 
1377 -202.76 -202.77 -202.03 
1378 -202.76 -202.75 -202.03 
1379 -202.76 -202.77 -202.03 
1380 -202.77 -202.75 -202.03 
1381 -202.75 -202.77 -202.03 
1382 -202.76 -202.76 -202.03 
1383 -202.76 -202.74 -202.03 
1384 -202.73 -202.74 -202.03 
1385 -202.75 -202.75 -202.03 
1386 -202.73 -202.74 -202.03 
1387 -202.74 -202.75 -202.03 
1388 -202.74 -202.73 -202.03 
1389 -202.72 -202.73 -202.03 
1390 -202.72 -202.71 -202.03 
1391 -202.71 -202.72 -202.03 
1392 -202.72 -202.71 -202.03 
1393 -202.70 -202.73 -202.03 
1394 -202.72 -202.72 -202.03 
1395 -202.71 -202.74 -202.03 
1396 -202.73 -202.76 -202.03 
1397 -202.75 -202.76 -202.03 
1398 -202.74 -202.76 -202.03 
1399 -202.74 -202.75 -202.03 
1400 -202.75 -202.76 -202.03 
1401 -202.76 -202.79 -202.03 
1402 -202.78 -202.80 -202.03 
1403 -202.79 -202.79 -202.03 
1404 -202.78 -202.77 -202.03 
1405 -202.77 -202.76 -202.03 
1406 -202.75 -202.79 -202.03 
1407 -202.79 -202.81 -202.03 
1408 -202.81 -202.81 -202.03 
1409 -202.81 -202.80 -202.03 
1410 -202.79 -202.78 -202.03 
1411 -202.77 -202.78 -202.03 
1412 -202.78 -202.79 -202.03 
1413 -202.78 -202.82 -202.03 
1414 -202.83 -202.85 -202.03 
1415 -202.85 -202.84 -202.03 
1416 -202.83 -202.85 -202.03 
1417 -202.84 -202.87 -202.03 
1418 -202.86 -202.86 -202.03 
1419 -202.87 -202.89 -202.03 
1420 -202.89 -202.89 -202.03 
1421 -202.90 -202.90 -202.03 
1422 -202.90 -202.90 -202.03 
1423 -202.90 -202.89 -202.03 
1424 -202.88 -202.88 -202.03 
1425 -202.87 -202.87 -202.03 
1426 -202.87 -202.87 -202.03 
1427 -202.86 -202.88 -202.03 
1428 -202.88 -202.87 -202.03 
1429 -202.87 -202.86 -202.03 
1430 -202.85 -202.89 -202.03 
1431 -202.88 -202.89 -202.03 
1432 -202.88 -202.92 -202.03 
1433 -202.92 -202.93 -202.03 
1434 -202.92 -202.92 -202.03 
1435 -202.91 -202.93 -202.03 
1436 -202.92 -202.96 -202.03 
1437 -202.95 -202.97 -202.03 
1438 -202.96 -202.96 -202.03 
1439 -202.96 -202.98 -202.03 
1440 -202.97 -202.97 -202.03 
1441 -202.97 -202.98 -202.03 
1442 -202.97 -203.00 -202.03 
1443 -202.99 -203.01 -202.03 
1444 -203.00 -203.06 -202.03 
1445 -203.04 -203.05 -202.03 
1446 -203.04 -203.06 -202.03 
1447 -203.04 -203.10 -202.03 
1448 -203.08 -203.11 -202.03 
1449 -203.09 -203.10 -202.03 
1450 -203.08 -203.14 -202.03 
1451 -203.11 -203.15 -202.03 
1452 -203.12 -203.18 -202.03 
1453 -203.15 -203.19 -202.03 
1454 -203.17 -203.20 -202.03 
1455 -203.18 -203.23 -202.03 
1456 -203.20 -203.21 -202.03 
1457 -203.19 -203.23 -202.03 
1458 -203.21 -203.24 -202.03 
1459 -203.22 -203.25 -202.03 
1460 -203.21 -203.21 -202.03 
1461 -203.19 -203.19 -202.03 
1462 -203.17 -203.22 -202.03 
1463 -203.19 -203.22 -202.03 
1464 -203.20 -203.20 -202.03 
1465 -203.17 -203.20 -202.03 
1466 -203.16 -203.20 -202.03 
1467 -203.18 -203.22 -202.03 
1468 -203.20 -203.23 -202.03 
1469 -203.21 -203.23 -202.03 
1470 -203.21 -203.23 -202.03 
1471 -203.20 -203.24 -202.03 
1472 -203.20 -203.22 -202.03 
1473 -203.20 -203.24 -202.03 
1474 -203.21 -203.24 -202.03 
1475 -203.22 -203.27 -202.03 
1476 -203.24 -203.26 -202.03 
1477 -203.23 -203.25 -202.03 
1478 -203.22 -203.25 -202.03 
1479 -203.22 -203.23 -202.03 
1480 -203.20 -203.23 -202.03 
1481 -203.20 -203.22 -202.03 
1482 -203.20 -203.19 -202.03 
1483 -203.17 -203.18 -202.03 
1484 -203.16 -203.22 -202.03 
1485 -203.21 -203.25 -202.03 
1486 -203.23 -203.28 -202.03 
1487 -203.25 -203.29 -202.03 
1488 -203.26 -203.26 -202.03 
1489 -203.22 -203.23 -202.03 
1490 -203.20 -203.18 -202.03 
1491 -203.14 -203.10 -202.03 
1492 -203.07 -203.13 -202.03 
1493 -203.10 -203.13 -202.03 
1494 -203.11 -203.13 -202.03 
1495 -203.10 -203.13 -202.03 
1496 -203.08 -203.14 -202.03 
1497 -203.11 -203.14 -202.03 
1498 -203.10 -203.12 -202.03 
1499 -203.09 -203.11 -202.03 
1500 -203.08 -203.08 -202.03 
1501 -203.05 -203.09 -202.03 
1502 -203.06 -203.07 -202.03 
1503 -203.03 -203.04 -202.03 
1504 -203.00 -203.05 -202.03 
1505 -203.02 -203.07 -202.03 
1506 -203.03 -203.09 -202.03 
1507 -203.04 -203.05 -202.03 
1508 -203.00 -203.04 -202.03 
1509 -202.99 -203.04 -202.03 
1510 -202.99 -203.01 -202.03 
1511 -202.93 -203.02 -202.03 
1512 -202.95 -203.00 -202.03 
1513 -202.96 -202.95 -202.03 
1514 -202.90 -202.96 -202.03 
1515 -202.90 -202.94 -202.03 
1516 -202.89 -202.91 -202.03 
1517 -202.87 -202.92 -202.03 
1518 -202.89 -202.92 -202.03 
1519 -202.88 -202.92 -202.03 
1520 -202.88 -202.90 -202.03 
1521 -202.85 -202.94 -202.03 
1522 -202.88 -202.92 -202.03 
1523 -202.88 -202.91 -202.03 
1524 -202.84 -202.89 -202.03 
1525 -202.83 -202.87 -202.03 
1526 -202.84 -202.87 -202.03 
1527 -202.84 -202.89 -202.03 
1528 -202.85 -202.86 -202.03 
1529 -202.82 -202.85 -202.03 
1530 -202.81 -202.82 -202.03 
1531 -202.78 -202.82 -202.03 
1532 -202.78 -202.82 -202.03 
1533 -202.80 -202.81 -202.03 
1534 -202.78 -202.82 -202.03 
1535 -202.80 -202.83 -202.03 
1536 -202.80 -202.86 -202.03 
1537 -202.83 -202.88 -202.03 
1538 -202.84 -202.88 -202.03 
1539 -202.85 -202.88 -202.03 
1540 -202.85 -202.88 -202.03 
1541 -202.86 -202.86 -202.03 
1542 -202.84 -202.85 -202.03 
1543 -202.83 -202.86 -202.03 
1544 -202.85 -202.86 -202.03 
1545 -202.84 -202.85 -202.03 
1546 -202.85 -202.85 -202.03 
1547 -202.85 -202.88 -202.03 
1548 -202.86 -202.86 -202.03 
1549 -202.86 -202.86 -202.03 
1550 -202.85 -202.89 -202.03 
1551 -202.89 -202.89 -202.03 
1552 -202.88 -202.90 -202.03 
1553 -202.90 -202.93 -202.03 
1554 -202.93 -202.94 -202.03 
1555 -202.94 -202.95 -202.03 
1556 -202.94 -202.91 -202.03 
1557 -202.91 -202.93 -202.03 
1558 -202.92 -202.92 -202.03 
1559 -202.91 -202.91 -202.03 
1560 -202.90 -202.91 -202.03 
1561 -202.91 -202.93 -202.03 
1562 -202.93 -202.92 -202.03 
1563 -202.91 -202.92 -202.03 
1564 -202.91 -202.93 -202.03 
1565 -202.93 -202.96 -202.03 
1566 -202.95 -202.95 -202.03 
1567 -202.94 -202.94 -202.03 
1568 -202.93 -202.93 -202.03 
1569 -202.93 -202.96 -202.03 
1570 -202.95 -202.96 -202.03 
1571 -202.97 -202.98 -202.03 
1572 -202.97 -202.99 -202.03 
1573 -202.99 -203.00 -202.03 
1574 -202.98 -202.99 -202.03 
1575 -202.98 -203.02 -202.03 
1576 -203.01 -202.98 -202.03 
1577 -202.98 -202.99 -202.03 
1578 -202.98 -203.01 -202.03 
1579 -203.00 -203.03 -202.03 
1580 -203.01 -203.03 -202.03 
1581 -203.02 -203.04 -202.03 
1582 -203.03 -203.05 -202.03 
1583 -203.04 -203.07 -202.03 
1584 -203.05 -203.07 -202.03 
1585 -203.05 -203.05 -202.03 
1586 -203.04 -203.07 -202.03 
1587 -203.05 -203.10 -202.03 
1588 -203.08 -203.07 -202.03 
1589 -203.05 -203.04 -202.03 
1590 -203.02 -203.01 -202.03 
1591 -203.00 -203.02 -202.03 
1592 -203.02 -203.08 -202.03 
1593 -203.07 -203.09 -202.03 
1594 -203.08 -203.13 -202.03 
1595 -203.12 -203.13 -202.03 
1596 -203.11 -203.18 -202.03 
1597 -203.17 -203.16 -202.03 
1598 -203.15 -203.15 -202.03 
1599 -203.13 -203.14 -202.03 
1600 -203.13 -203.14 -202.03 
1601 -203.12 -203.16 -202.03 
1602 -203.14 -203.16 -202.03 
1603 -203.15 -203.13 -202.03 
1604 -203.11 -203.11 -202.03 
1605 -203.10 -203.11 -202.03 
1606 -203.10 -203.10 -202.03 
1607 -203.09 -203.11 -202.03 
1608 -203.10 -203.10 -202.03 
1609 -203.08 -203.07 -202.03 
1610 -203.06 -203.07 -202.03 
1611 -203.05 -203.05 -202.03 
1612 -203.04 -203.05 -202.03 
1613 -203.04 -203.06 -202.03 
1614 -203.04 -203.05 -202.03 
1615 -203.05 -203.07 -202.03 
1616 -203.06 -203.06 -202.03 
1617 -203.05 -203.10 -202.03 
1618 -203.09 -203.12 -202.03 
1619 -203.11 -203.16 -202.03 
1620 -203.15 -203.15 -202.03 
1621 -203.14 -203.15 -202.03 
1622 -203.14 -203.13 -202.03 
1623 -203.12 -203.11 -202.03 
1624 -203.10 -203.10 -202.03 
1625 -203.10 -203.11 -202.03 
1626 -203.11 -203.13 -202.03 
1627 -203.13 -203.10 -202.03 
1628 -203.10 -203.12 -202.03 
1629 -203.11 -203.13 -202.03 
1630 -203.13 -203.17 -202.03 
1631 -203.16 -203.16 -202.03 
1632 -203.16 -203.20 -202.03 
1633 -203.20 -203.18 -202.03 
1634 -203.18 -203.19 -202.03 
1635 -203.19 -203.22 -202.03 
1636 -203.22 -203.24 -202.03 
1637 -203.23 -203.21 -202.03 
1638 -203.21 -203.23 -202.03 
1639 -203.24 -203.27 -202.03 
1640 -203.27 -203.28 -202.03 
1641 -203.29 -203.28 -202.03 
1642 -203.28 -203.27 -202.03 
1643 -203.27 -203.28 -202.03 
1644 -203.29 -203.29 -202.03 
1645 -203.29 -203.32 -202.03 
1646 -203.32 -203.33 -202.03 
1647 -203.33 -203.33 -202.03 
1648 -203.32 -203.34 -202.03 
1649 -203.33 -203.34 -202.03 
1650 -203.34 -203.33 -202.03 
1651 -203.33 -203.34 -202.03 
1652 -203.34 -203.33 -202.03 
1653 -203.33 -203.34 -202.03 
1654 -203.34 -203.34 -202.03 
1655 -203.34 -203.35 -202.03 
1656 -203.34 -203.35 -202.03 
1657 -203.34 -203.35 -202.03 
1658 -203.35 -203.33 -202.03 
1659 -203.33 -203.33 -202.03 
1660 -203.33 -203.34 -202.03 
1661 -203.33 -203.35 -202.03 
1662 -203.35 -203.38 -202.03 
1663 -203.38 -203.39 -202.03 
1664 -203.39 -203.39 -202.03 
1665 -203.39 -203.38 -202.03 
1666 -203.38 -203.36 -202.03 
1667 -203.37 -203.34 -202.03 
1668 -203.34 -203.37 -202.03 
1669 -203.38 -203.38 -202.03 
1670 -203.38 -203.39 -202.03 
1671 -203.39 -203.41 -202.03 
1672 -203.41 -203.43 -202.03 
1673 -203.43 -203.39 -202.03 
1674 -203.39 -203.41 -202.03 
1675 -203.41 -203.42 -202.03 
1676 -203.41 -203.43 -202.03 
1677 -203.43 -203.44 -202.03 
1678 -203.42 -203.41 -202.03 
1679 -203.40 -203.44 -202.03 
1680 -203.43 -203.43 -202.03 
1681 -203.43 -203.45 -202.03 
1682 -203.44 -203.45 -202.03 
1683 -203.44 -203.44 -202.03 
1684 -203.44 -203.45 -202.03 
1685 -203.43 -203.44 -202.03 
1686 -203.42 -203.47 -202.03 
1687 -203.46 -203.48 -202.03 
1688 -203.47 -203.49 -202.03 
1689 -203.48 -203.49 -202.03 
1690 -203.48 -203.51 -202.03 
1691 -203.51 -203.54 -202.03 
1692 -203.52 -203.52 -202.03 
1693 -203.51 -203.51 -202.03 
1694 -203.50 -203.51 -202.03 
1695 -203.50 -203.50 -202.03 
1696 -203.48 -203.49 -202.03 
1697 -203.48 -203.48 -202.03 
1698 -203.47 -203.46 -202.03 
1699 -203.44 -203.43 -202.03 
1700 -203.42 -203.40 -202.03 
1701 -203.40 -203.43 -202.03 
1702 -203.42 -203.43 -202.03 
1703 -203.42 -203.42 -202.03 
1704 -203.41 -203.41 -202.03 
1705 -203.41 -203.43 -202.03 
1706 -203.43 -203.42 -202.03 
1707 -203.42 -203.43 -202.03 
1708 -203.43 -203.42 -202.03 
1709 -203.42 -203.44 -202.03 
1710 -203.44 -203.43 -202.03 
1711 -203.43 -203.42 -202.03 
1712 -203.41 -203.43 -202.03 
1713 -203.42 -203.42 -202.03 
1714 -203.42 -203.42 -202.03 
1715 -203.42 -203.44 -202.03 
1716 -203.43 -203.43 -202.03 
1717 -203.42 -203.42 -202.03 
1718 -203.42 -203.40 -202.03 
1719 -203.40 -203.37 -202.03 
1720 -203.37 -203.37 -202.03 
1721 -203.37 -203.37 -202.03 
1722 -203.36 -203.38 -202.03 
1723 -203.38 -203.40 -202.03 
1724 -203.41 -203.44 -202.03 
1725 -203.43 -203.43 -202.03 
1726 -203.42 -203.41 -202.03 
1727 -203.40 -203.42 -202.03 
1728 -203.41 -203.43 -202.03 
1729 -203.42 -203.44 -202.03 
1730 -203.43 -203.44 -202.03 
1731 -203.44 -203.44 -202.03 
1732 -203.44 -203.47 -202.03 
1733 -203.47 -203.49 -202.03 
1734 -203.48 -203.47 -202.03 
1735 -203.47 -203.47 -202.03 
1736 -203.47 -203.48 -202.03 
1737 -203.47 -203.48 -202.03 
1738 -203.48 -203.48 -202.03 
1739 -203.48 -203.46 -202.03 
1740 -203.46 -203.47 -202.03 
1741 -203.47 -203.46 -202.03 
1742 -203.45 -203.45 -202.03 
1743 -203.44 -203.44 -202.03 
1744 -203.43 -203.44 -202.03 
1745 -203.45 -203.46 -202.03 
1746 -203.46 -203.46 -202.03 
1747 -203.47 -203.47 -202.03 
1748 -203.47 -203.47 -202.03 
1749 -203.46 -203.46 -202.03 
1750 -203.46 -203.47 -202.03 
1751 -203.46 -203.49 -202.03 
1752 -203.49 -203.47 -202.03 
1753 -203.48 -203.47 -202.03 
1754 -203.47 -203.48 -202.03 
1755 -203.47 -203.49 -202.03 
1756 -203.49 -203.50 -202.03 
1757 -203.51 -203.52 -202.03 
1758 -203.52 -203.50 -202.03 
1759 -203.50 -203.47 -202.03 
1760 -203.47 -203.45 -202.03 
1761 -203.47 -203.44 -202.03 
1762 -203.44 -203.44 -202.03 
1763 -203.44 -203.45 -202.03 
1764 -203.44 -203.42 -202.03 
1765 -203.42 -203.43 -202.03 
1766 -203.43 -203.46 -202.03 
1767 -203.46 -203.46 -202.03 
1768 -203.46 -203.44 -202.03 
1769 -203.44 -203.42 -202.03 
1770 -203.42 -203.44 -202.03 
1771 -203.44 -203.43 -202.03 
1772 -203.43 -203.44 -202.03 
1773 -203.44 -203.43 -202.03 
1774 -203.43 -203.40 -202.03 
1775 -203.40 -203.41 -202.03 
1776 -203.40 -203.38 -202.03 
1777 -203.38 -203.38 -202.03 
1778 -203.38 -203.43 -202.03 
1779 -203.42 -203.42 -202.03 
1780 -203.42 -203.43 -202.03 
1781 -203.42 -203.40 -202.03 
1782 -203.39 -203.41 -202.03 
1783 -203.41 -203.41 -202.03 
1784 -203.42 -203.42 -202.03 
1785 -203.41 -203.40 -202.03 
1786 -203.40 -203.40 -202.03 
1787 -203.39 -203.39 -202.03 
1788 -203.39 -203.40 -202.03 
1789 -203.39 -203.39 -202.03 
1790 -203.39 -203.40 -202.03 
1791 -203.39 -203.43 -202.03 
1792 -203.43 -203.43 -202.03 
1793 -203.43 -203.44 -202.03 
1794 -203.44 -203.44 -202.03 
1795 -203.44 -203.45 -202.03 
1796 -203.44 -203.46 -202.03 
1797 -203.47 -203.47 -202.03 
1798 -203.48 -203.49 -202.03 
1799 -203.49 -203.47 -202.03 
1800 -203.47 -203.45 -202.03 
1801 -203.45 -203.45 -202.03 
1802 -203.45 -203.46 -202.03 
1803 -203.47 -203.47 -202.03 
1804 -203.47 -203.49 -202.03 
1805 -203.49 -203.49 -202.03 
1806 -203.49 -203.50 -202.03 
1807 -203.49 -203.50 -202.03 
1808 -203.50 -203.50 -202.03 
1809 -203.51 -203.52 -202.03 
1810 -203.51 -203.52 -202.03 
1811 -203.52 -203.52 -202.03 
1812 -203.52 -203.52 -202.03 
1813 -203.52 -203.54 -202.03 
1814 -203.54 -203.56 -202.03 
1815 -203.55 -203.56 -202.03 
1816 -203.55 -203.54 -202.03 
1817 -203.54 -203.53 -202.03 
1818 -203.53 -203.54 -202.03 
1819 -203.54 -203.55 -202.03 
1820 -203.56 -203.58 -202.03 
1821 -203.57 -203.57 -202.03 
1822 -203.56 -203.55 -202.03 
1823 -203.55 -203.57 -202.03 
1824 -203.57 -203.57 -202.03 
1825 -203.56 -203.56 -202.03 
1826 -203.56 -203.55 -202.03 
1827 -203.56 -203.54 -202.03 
1828 -203.54 -203.53 -202.03 
1829 -203.53 -203.53 -202.03 
1830 -203.53 -203.54 -202.03 
1831 -203.55 -203.54 -202.03 
1832 -203.54 -203.54 -202.03 
1833 -203.54 -203.54 -202.03 
1834 -203.54 -203.56 -202.03 
1835 -203.55 -203.55 -202.03 
1836 -203.56 -203.56 -202.03 
1837 -203.56 -203.56 -202.03 
1838 -203.55 -203.55 -202.03 
1839 -203.55 -203.58 -202.03 
1840 -203.58 -203.57 -202.03 
1841 -203.56 -203.54 -202.03 
1842 -203.54 -203.54 -202.03 
1843 -203.53 -203.54 -202.03 
1844 -203.53 -203.57 -202.03 
1845 -203.56 -203.58 -202.03 
1846 -203.57 -203.57 -202.03 
1847 -203.57 -203.56 -202.03 
1848 -203.56 -203.55 -202.03 
1849 -203.55 -203.58 -202.03 
1850 -203.57 -203.60 -202.03 
1851 -203.59 -203.57 -202.03 
1852 -203.56 -203.57 -202.03 
1853 -203.56 -203.58 -202.03 
1854 -203.57 -203.55 -202.03 
1855 -203.54 -203.54 -202.03 
1856 -203.55 -203.57 -202.03 
1857 -203.57 -203.56 -202.03 
1858 -203.57 -203.55 -202.03 
1859 -203.56 -203.58 -202.03 
1860 -203.59 -203.58 -202.03 
1861 -203.57 -203.59 -202.03 
1862 -203.59 -203.59 -202.03 
1863 -203.59 -203.59 -202.03 
1864 -203.60 -203.59 -202.03 
1865 -203.59 -203.58 -202.03 
1866 -203.58 -203.60 -202.03 
1867 -203.60 -203.60 -202.03 
1868 -203.60 -203.60 -202.03 
1869 -203.61 -203.61 -202.03 
1870 -203.60 -203.61 -202.03 
1871 -203.61 -203.60 -202.03 
1872 -203.59 -203.63 -202.03 
1873 -203.62 -203.63 -202.03 
1874 -203.63 -203.61 -202.03 
1875 -203.60 -203.60 -202.03 
1876 -203.60 -203.60 -202.03 
1877 -203.60 -203.61 -202.03 
1878 -203.61 -203.58 -202.03 
1879 -203.58 -203.57 -202.03 
1880 -203.56 -203.56 -202.03 
1881 -203.55 -203.57 -202.03 
1882 -203.56 -203.54 -202.03 
1883 -203.55 -203.54 -202.03 
1884 -203.54 -203.54 -202.03 
1885 -203.55 -203.56 -202.03 
1886 -203.56 -203.59 -202.03 
1887 -203.59 -203.57 -202.03 
1888 -203.57 -203.59 -202.03 
1889 -203.59 -203.62 -202.03 
1890 -203.62 -203.63 -202.03 
1891 -203.64 -203.63 -202.03 
1892 -203.64 -203.63 -202.03 
1893 -203.63 -203.61 -202.03 
1894 -203.62 -203.62 -202.03 
1895 -203.63 -203.62 -202.03 
1896 -203.63 -203.62 -202.03 
1897 -203.62 -203.63 -202.03 
1898 -203.63 -203.63 -202.03 
1899 -203.63 -203.64 -202.03 
1900 -203.64 -203.63 -202.03 
1901 -203.64 -203.61 -202.03 
1902 -203.61 -203.61 -202.03 
1903 -203.62 -203.62 -202.03 
1904 -203.61 -203.60 -202.03 
1905 -203.61 -203.64 -202.03 
1906 -203.64 -203.65 -202.03 
1907 -203.64 -203.66 -202.03 
1908 -203.66 -203.64 -202.03 
1909 -203.63 -203.62 -202.03 
1910 -203.62 -203.63 -202.03 
1911 -203.62 -203.62 -202.03 
1912 -203.62 -203.60 -202.03 
1913 -203.61 -203.61 -202.03 
1914 -203.61 -203.60 -202.03 
1915 -203.59 -203.58 -202.03 
1916 -203.58 -203.59 -202.03 
1917 -203.59 -203.59 -202.03 
1918 -203.60 -203.59 -202.03 
1919 -203.59 -203.59 -202.03 
1920 -203.58 -203.60 -202.03 
1921 -203.59 -203.61 -202.03 
1922 -203.61 -203.63 -202.03 
1923 -203.64 -203.63 -202.03 
1924 -203.63 -203.62 -202.03 
1925 -203.62 -203.66 -202.03 
1926 -203.65 -203.65 -202.03 
1927 -203.65 -203.66 -202.03 
1928 -203.65 -203.67 -202.03 
1929 -203.66 -203.65 -202.03 
1930 -203.65 -203.64 -202.03 
1931 -203.63 -203.63 -202.03 
1932 -203.63 -203.64 -202.03 
1933 -203.64 -203.64 -202.03 
1934 -203.63 -203.65 -202.03 
1935 -203.65 -203.62 -202.03 
1936 -203.61 -203.62 -202.03 
1937 -203.62 -203.64 -202.03 
1938 -203.65 -203.64 -202.03 
1939 -203.64 -203.63 -202.03 
1940 -203.63 -203.67 -202.03 
1941 -203.66 -203.68 -202.03 
1942 -203.68 -203.70 -202.03 
1943 -203.69 -203.71 -202.03 
1944 -203.71 -203.73 -202.03 
1945 -203.72 -203.70 -202.03 
1946 -203.70 -203.69 -202.03 
1947 -203.70 -203.67 -202.03 
1948 -203.67 -203.68 -202.03 
1949 -203.68 -203.67 -202.03 
1950 -203.67 -203.62 -202.03 
1951 -203.63 -203.60 -202.03 
1952 -203.60 -203.57 -202.03 
1953 -203.58 -203.57 -202.03 
1954 -203.57 -203.55 -202.03 
1955 -203.55 -203.53 -202.03 
1956 -203.53 -203.52 -202.03 
1957 -203.51 -203.49 -202.03 
1958 -203.49 -203.51 -202.03 
1959 -203.51 -203.50 -202.03 
1960 -203.50 -203.52 -202.03 
1961 -203.52 -203.51 -202.03 
1962 -203.50 -203.49 -202.03 
1963 -203.49 -203.52 -202.03 
1964 -203.52 -203.54 -202.03 
1965 -203.55 -203.57 -202.03 
1966 -203.58 -203.56 -202.03 
1967 -203.56 -203.56 -202.03 
1968 -203.56 -203.56 -202.03 
1969 -203.55 -203.58 -202.03 
1970 -203.58 -203.61 -202.03 
1971 -203.61 -203.60 -202.03 
1972 -203.59 -203.61 -202.03 
1973 -203.60 -203.61 -202.03 
1974 -203.61 -203.61 -202.03 
1975 -203.62 -203.65 -202.03 
1976 -203.65 -203.66 -202.03 
1977 -203.65 -203.67 -202.03 
1978 -203.66 -203.69 -202.03 
1979 -203.68 -203.71 -202.03 
1980 -203.71 -203.72 -202.03 
1981 -203.71 -203.71 -202.03 
1982 -203.70 -203.70 -202.03 
1983 -203.70 -203.71 -202.03 
1984 -203.71 -203.72 -202.03 
1985 -203.71 -203.70 -202.03 
1986 -203.70 -203.72 -202.03 
1987 -203.72 -203.69 -202.03 
1988 -203.69 -203.70 -202.03 
1989 -203.70 -203.70 -202.03 
1990 -203.70 -203.70 -202.03 
1991 -203.70 -203.73 -202.03 
1992 -203.73 -203.73 -202.03 
1993 -203.73 -203.72 -202.03 
1994 -203.72 -203.70 -202.03 
1995 -203.69 -203.71 -202.03 
1996 -203.71 -203.70 -202.03 
1997 -203.69 -203.70 -202.03 
1998 -203.69 -203.68 -202.03 
1999 -203.67 -203.70 -202.03 
2000 -203.69 -203.71 -202.03 
2001 -203.70 -203.71 -202.03 
2002 -203.70 -203.67 -202.03 
2003 -203.66 -203.67 -202.03 
2004 -203.67 -203.70 -202.03 
2005 -203.69 -203.67 -202.03 
2006 -203.67 -203.67 -202.03 
2007 -203.66 -203.64 -202.03 
2008 -203.64 -203.65 -202.03 
2009 -203.64 -203.66 -202.03 
2010 -203.66 -203.68 -202.03 
2011 -203.68 -203.67 -202.03 
2012 -203.67 -203.64 -202.03 
2013 -203.63 -203.59 -202.03 
2014 -203.59 -203.60 -202.03 
2015 -203.59 -203.60 -202.03 
2016 -203.59 -203.59 -202.03 
2017 -203.59 -203.62 -202.03 
2018 -203.61 -203.60 -202.03 
2019 -203.59 -203.60 -202.03 
2020 -203.59 -203.60 -202.03 
2021 -203.59 -203.57 -202.03 
2022 -203.56 -203.54 -202.03 
2023 -203.53 -203.54 -202.03 
2024 -203.53 -203.52 -202.03 
2025 -203.52 -203.48 -202.03 
2026 -203.48 -203.47 -202.03 
2027 -203.47 -203.50 -202.03 
2028 -203.50 -203.50 -202.03 
2029 -203.50 -203.52 -202.03 
2030 -203.52 -203.52 -202.03 
2031 -203.51 -203.51 -202.03 
2032 -203.50 -203.49 -202.03 
2033 -203.48 -203.49 -202.03 
2034 -203.49 -203.51 -202.03 
2035 -203.49 -203.49 -202.03 
2036 -203.47 -203.51 -202.03 
2037 -203.50 -203.48 -202.03 
2038 -203.46 -203.46 -202.03 
2039 -203.44 -203.48 -202.03 
2040 -203.46 -203.43 -202.03 
2041 -203.43 -203.42 -202.03 
2042 -203.41 -203.40 -202.03 
2043 -203.39 -203.41 -202.03 
2044 -203.40 -203.39 -202.03 
2045 -203.40 -203.39 -202.03 
2046 -203.39 -203.39 -202.03 
2047 -203.39 -203.39 -202.03 
2048 -203.38 -203.40 -202.03 
2049 -203.41 -203.39 -202.03 
2050 -203.39 -203.39 -202.03 
2051 -203.39 -203.38 -202.03 
2052 -203.38 -203.36 -202.03 
2053 -203.36 -203.37 -202.03 
2054 -203.37 -203.34 -202.03 
2055 -203.33 -203.30 -202.03 
2056 -203.31 -203.31 -202.03 
2057 -203.32 -203.35 -202.03 
2058 -203.34 -203.31 -202.03 
2059 -203.31 -203.30 -202.03 
2060 -203.30 -203.33 -202.03 
2061 -203.33 -203.33 -202.03 
2062 -203.33 -203.32 -202.03 
2063 -203.33 -203.31 -202.03 
2064 -203.31 -203.33 -202.03 
2065 -203.32 -203.31 -202.03 
2066 -203.31 -203.33 -202.03 
2067 -203.32 -203.34 -202.03 
2068 -203.32 -203.29 -202.03 
2069 -203.29 -203.28 -202.03 
2070 -203.27 -203.25 -202.03 
2071 -203.25 -203.25 -202.03 
2072 -203.26 -203.28 -202.03 
2073 -203.29 -203.31 -202.03 
2074 -203.31 -203.31 -202.03 
2075 -203.31 -203.29 -202.03 
2076 -203.30 -203.33 -202.03 
2077 -203.33 -203.29 -202.03 
2078 -203.29 -203.29 -202.03 
2079 -203.29 -203.27 -202.03 
2080 -203.27 -203.27 -202.03 
2081 -203.28 -203.27 -202.03 
2082 -203.28 -203.28 -202.03 
2083 -203.28 -203.29 -202.03 
2084 -203.30 -203.29 -202.03 
2085 -203.29 -203.28 -202.03 
2086 -203.28 -203.28 -202.03 
2087 -203.29 -203.27 -202.03 
2088 -203.27 -203.26 -202.03 
2089 -203.27 -203.26 -202.03 
2090 -203.27 -203.25 -202.03 
2091 -203.26 -203.26 -202.03 
2092 -203.27 -203.25 -202.03 
2093 -203.27 -203.28 -202.03 
2094 -203.29 -203.25 -202.03 
2095 -203.26 -203.22 -202.03 
2096 -203.23 -203.24 -202.03 
2097 -203.26 -203.23 -202.03 
2098 -203.25 -203.24 -202.03 
2099 -203.25 -203.24 -202.03 
2100 -203.26 -203.23 -202.03 
2101 -203.23 -203.24 -202.03 
2102 -203.25 -203.24 -202.03 
2103 -203.25 -203.23 -202.03 
2104 -203.24 -203.26 -202.03 
2105 -203.27 -203.26 -202.03 
2106 -203.26 -203.24 -202.03 
2107 -203.25 -203.25 -202.03 
2108 -203.25 -203.24 -202.03 
2109 -203.25 -203.24 -202.03 
2110 -203.25 -203.23 -202.03 
2111 -203.24 -203.22 -202.03 
2112 -203.24 -203.23 -202.03 
2113 -203.25 -203.25 -202.03 
2114 -203.25 -203.26 -202.03 
2115 -203.27 -203.26 -202.03 
2116 -203.27 -203.24 -202.03 
2117 -203.25 -203.24 -202.03 
2118 -203.25 -203.24 -202.03 
2119 -203.25 -203.26 -202.03 
2120 -203.27 -203.29 -202.03 
2121 -203.30 -203.29 -202.03 
2122 -203.29 -203.29 -202.03 
2123 -203.30 -203.31 -202.03 
2124 -203.33 -203.33 -202.03 
2125 -203.32 -203.32 -202.03 
2126 -203.33 -203.37 -202.03 
2127 -203.38 -203.38 -202.03 
2128 -203.39 -203.40 -202.03 
2129 -203.39 -203.42 -202.03 
2130 -203.42 -203.43 -202.03 
2131 -203.43 -203.43 -202.03 
2132 -203.42 -203.41 -202.03 
2133 -203.41 -203.40 -202.03 
2134 -203.41 -203.40 -202.03 
2135 -203.40 -203.39 -202.03 
2136 -203.40 -203.38 -202.03 
2137 -203.39 -203.35 -202.03 
2138 -203.36 -203.36 -202.03 
2139 -203.38 -203.40 -202.03 
2140 -203.40 -203.39 -202.03 
2141 -203.38 -203.40 -202.03 
2142 -203.42 -203.44 -202.03 
2143 -203.45 -203.45 -202.03 
2144 -203.45 -203.49 -202.03 
2145 -203.49 -203.50 -202.03 
2146 -203.51 -203.49 -202.03 
2147 -203.50 -203.48 -202.03 
2148 -203.48 -203.43 -202.03 
2149 -203.44 -203.42 -202.03 
2150 -203.42 -203.43 -202.03 
2151 -203.44 -203.40 -202.03 
2152 -203.41 -203.42 -202.03 
2153 -203.42 -203.43 -202.03 
2154 -203.45 -203.40 -202.03 
2155 -203.42 -203.38 -202.03 
2156 -203.39 -203.39 -202.03 
2157 -203.40 -203.40 -202.03 
2158 -203.40 -203.42 -202.03 
2159 -203.42 -203.42 -202.03 
2160 -203.43 -203.46 -202.03 
2161 -203.46 -203.49 -202.03 
2162 -203.50 -203.51 -202.03 
2163 -203.52 -203.53 -202.03 
2164 -203.54 -203.52 -202.03 
2165 -203.54 -203.51 -202.03 
2166 -203.53 -203.51 -202.03 
2167 -203.53 -203.51 -202.03 
2168 -203.52 -203.47 -202.03 
2169 -203.48 -203.50 -202.03 
2170 -203.52 -203.52 -202.03 
2171 -203.53 -203.51 -202.03 
2172 -203.52 -203.49 -202.03 
2173 -203.51 -203.49 -202.03 
2174 -203.50 -203.46 -202.03 
2175 -203.48 -203.42 -202.03 
2176 -203.43 -203.41 -202.03 
2177 -203.42 -203.39 -202.03 
2178 -203.40 -203.38 -202.03 
2179 -203.41 -203.39 -202.03 
2180 -203.39 -203.39 -202.03 
2181 -203.40 -203.40 -202.03 
2182 -203.40 -203.38 -202.03 
2183 -203.39 -203.40 -202.03 
2184 -203.42 -203.43 -202.03 
2185 -203.44 -203.41 -202.03 
2186 -203.43 -203.46 -202.03 
2187 -203.46 -203.46 -202.03 
2188 -203.46 -203.52 -202.03 
2189 -203.52 -203.55 -202.03 
2190 -203.54 -203.53 -202.03 
2191 -203.54 -203.56 -202.03 
2192 -203.56 -203.55 -202.03 
2193 -203.57 -203.56 -202.03 
2194 -203.56 -203.58 -202.03 
2195 -203.57 -203.57 -202.03 
2196 -203.57 -203.54 -202.03 
2197 -203.54 -203.56 -202.03 
2198 -203.57 -203.57 -202.03 
2199 -203.58 -203.57 -202.03 
2200 -203.57 -203.57 -202.03 
2201 -203.57 -203.54 -202.03 
2202 -203.54 -203.54 -202.03 
2203 -203.54 -203.51 -202.03 
2204 -203.51 -203.53 -202.03 
2205 -203.51 -203.50 -202.03 
2206 -203.50 -203.52 -202.03 
2207 -203.52 -203.56 -202.03 
2208 -203.56 -203.56 -202.03 
2209 -203.55 -203.57 -202.03 
2210 -203.57 -203.61 -202.03 
2211 -203.59 -203.62 -202.03 
2212 -203.60 -203.63 -202.03 
2213 -203.62 -203.65 -202.03 
2214 -203.63 -203.69 -202.03 
2215 -203.68 -203.67 -202.03 
2216 -203.65 -203.69 -202.03 
2217 -203.68 -203.73 -202.03 
2218 -203.71 -203.75 -202.03 
2219 -203.72 -203.72 -202.03 
2220 -203.70 -203.73 -202.03 
2221 -203.70 -203.74 -202.03 
2222 -203.73 -203.72 -202.03 
2223 -203.70 -203.67 -202.03 
2224 -203.64 -203.70 -202.03 
2225 -203.68 -203.69 -202.03 
2226 -203.67 -203.67 -202.03 
2227 -203.66 -203.66 -202.03 
2228 -203.66 -203.65 -202.03 
2229 -203.64 -203.60 -202.03 
2230 -203.59 -203.62 -202.03 
2231 -203.61 -203.64 -202.03 
2232 -203.62 -203.66 -202.03 
2233 -203.64 -203.64 -202.03 
2234 -203.63 -203.61 -202.03 
2235 -203.60 -203.63 -202.03 
2236 -203.61 -203.60 -202.03 
2237 -203.57 -203.61 -202.03 
2238 -203.57 -203.60 -202.03 
2239 -203.57 -203.62 -202.03 
2240 -203.59 -203.60 -202.03 
2241 -203.57 -203.60 -202.03 
2242 -203.57 -203.59 -202.03 
2243 -203.56 -203.56 -202.03 
2244 -203.53 -203.57 -202.03 
2245 -203.54 -203.55 -202.03 
2246 -203.53 -203.55 -202.03 
2247 -203.53 -203.55 -202.03 
2248 -203.54 -203.56 -202.03 
2249 -203.53 -203.57 -202.03 
2250 -203.54 -203.54 -202.03 
2251 -203.52 -203.54 -202.03 
2252 -203.52 -203.54 -202.03 
2253 -203.52 -203.54 -202.03 
2254 -203.53 -203.52 -202.03 
2255 -203.51 -203.52 -202.03 
2256 -203.51 -203.49 -202.03 
2257 -203.48 -203.47 -202.03 
2258 -203.47 -203.45 -202.03 
2259 -203.45 -203.46 -202.03 
2260 -203.45 -203.47 -202.03 
2261 -203.47 -203.48 -202.03 
2262 -203.48 -203.50 -202.03 
2263 -203.49 -203.52 -202.03 
2264 -203.51 -203.53 -202.03 
2265 -203.52 -203.53 -202.03 
2266 -203.52 -203.57 -202.03 
2267 -203.56 -203.58 -202.03 
2268 -203.57 -203.58 -202.03 
2269 -203.57 -203.57 -202.03 
2270 -203.56 -203.59 -202.03 
2271 -203.59 -203.59 -202.03 
2272 -203.59 -203.61 -202.03 
2273 -203.59 -203.61 -202.03 
2274 -203.60 -203.60 -202.03 
2275 -203.59 -203.62 -202.03 
2276 -203.61 -203.64 -202.03 
2277 -203.63 -203.63 -202.03 
2278 -203.62 -203.67 -202.03 
2279 -203.66 -203.66 -202.03 
2280 -203.65 -203.66 -202.03 
2281 -203.65 -203.65 -202.03 
2282 -203.63 -203.69 -202.03 
2283 -203.67 -203.68 -202.03 
2284 -203.67 -203.68 -202.03 
2285 -203.67 -203.67 -202.03 
2286 -203.66 -203.65 -202.03 
2287 -203.64 -203.66 -202.03 
2288 -203.65 -203.68 -202.03 
2289 -203.67 -203.66 -202.03 
2290 -203.65 -203.69 -202.03 
2291 -203.68 -203.70 -202.03 
2292 -203.69 -203.69 -202.03 
2293 -203.68 -203.71 -202.03 
2294 -203.70 -203.70 -202.03 
2295 -203.71 -203.72 -202.03 
2296 -203.71 -203.74 -202.03 
2297 -203.73 -203.74 -202.03 
2298 -203.74 -203.78 -202.03 
2299 -203.77 -203.77 -202.03 
2300 -203.77 -203.76 -202.03 
2301 -203.75 -203.78 -202.03 
2302 -203.77 -203.78 -202.03 
2303 -203.77 -203.78 -202.03 
2304 -203.77 -203.78 -202.03 
2305 -203.75 -203.79 -202.03 
2306 -203.78 -203.80 -202.03 
2307 -203.79 -203.78 -202.03 
2308 -203.77 -203.80 -202.03 
2309 -203.78 -203.78 -202.03 
2310 -203.76 -203.76 -202.03 
2311 -203.75 -203.78 -202.03 
2312 -203.77 -203.77 -202.03 
2313 -203.76 -203.77 -202.03 
2314 -203.75 -203.77 -202.03 
2315 -203.75 -203.76 -202.03 
2316 -203.73 -203.73 -202.03 
2317 -203.68 -203.73 -202.03 
2318 -203.67 -203.74 -202.03 
2319 -203.64 -203.79 -202.03 
2320 -203.63 -203.78 -202.03 
2321 -203.59 -203.78 -202.03 
2322 -203.53 -203.76 -202.03 
2323 -203.36 -203.74 -202.03 
2324 -203.14 -203.68 -202.03 
2325 -202.77 -203.47 -202.03 
2326 -202.46 -203.10 -202.03 
2327 -202.09 -201.94 -202.03 
2328 -201.01 -200.33 -202.03 
2329 -199.58 -197.54 -201.01 
2330 -197.19 -193.55 -199.58 
2331 -193.88 -188.20 -197.19 
2332 -189.48 -187.01 -193.88 
2333 -187.60 -186.94 -189.48 
2334 -187.11 -187.12 -187.60 
2335 -187.06 -187.41 -187.11 
2336 -187.15 -187.70 -187.06 
2337 -187.32 -187.95 -187.06 
2338 -187.50 -188.10 -187.06 
2339 -187.63 -188.32 -187.06 
2340 -187.78 -188.29 -187.06 
2341 -187.77 -188.35 -187.06 
2342 -187.83 -188.28 -187.06 
2343 -187.77 -188.28 -187.06 
2344 -187.76 -188.34 -187.06 
2345 -187.81 -188.25 -187.06 
2346 -187.75 -188.13 -187.06 
2347 -187.65 -188.15 -187.06 
2348 -187.69 -188.07 -187.06 
2349 -187.64 -188.10 -187.06 
2350 -187.65 -188.16 -187.06 
2351 -187.71 -188.26 -187.06 
2352 -187.75 -188.18 -187.06 
2353 -187.72 -188.34 -187.06 
2354 -187.77 -188.26 -187.06 
2355 -187.75 -188.22 -187.06 
2356 -187.72 -188.11 -187.06 
2357 -187.65 -187.87 -187.06 
2358 -187.52 -187.76 -187.06 
2359 -187.46 -187.69 -187.06 
2360 -187.39 -187.55 -187.06 
2361 -187.29 -187.60 -187.06 
2362 -187.32 -187.62 -187.06 
2363 -187.33 -187.60 -187.06 
2364 -187.30 -187.59 -187.06 
2365 -187.30 -187.70 -187.06 
2366 -187.34 -187.79 -187.06 
2367 -187.40 -187.75 -187.06 
2368 -187.36 -187.60 -187.06 
2369 -187.27 -187.60 -187.06 
2370 -187.24 -187.53 -187.06 
2371 -187.21 -187.60 -187.06 
2372 -187.26 -187.39 -187.06 
2373 -187.15 -187.40 -187.06 
2374 -187.16 -187.40 -187.06 
2375 -187.22 -187.47 -187.06 
2376 -187.27 -187.52 -187.06 
2377 -187.29 -187.62 -187.06 
2378 -187.37 -187.52 -187.06 
2379 -187.28 -187.42 -187.06 
2380 -187.22 -187.38 -187.06 
2381 -187.18 -187.37 -187.06 
2382 -187.18 -187.28 -187.06 
2383 -187.19 -187.37 -187.06 
2384 -187.18 -187.33 -187.06 
2385 -187.15 -187.42 -187.06 
2386 -187.19 -187.39 -187.06 
2387 -187.23 -187.39 -187.06 
2388 -187.22 -187.49 -187.06 
2389 -187.32 -187.40 -187.06 
2390 -187.25 -187.45 -187.06 
2391 -187.28 -187.42 -187.06 
2392 -187.25 -187.39 -187.06 
2393 -187.24 -187.40 -187.06 
2394 -187.23 -187.42 -187.06 
2395 -187.27 -187.36 -187.06 
2396 -187.26 -187.46 -187.06 
2397 -187.32 -187.52 -187.06 
2398 -187.37 -187.42 -187.06 
2399 -187.21 -187.60 -187.06 
2400 -187.35 -187.72 -187.06 
2401 -187.45 -187.73 -187.06 
2402 -187.46 -187.77 -187.06 
2403 -187.49 -187.79 -187.06 
2404 -187.50 -187.79 -187.06 
2405 -187.48 -187.69 -187.06 
2406 -187.39 -187.58 -187.06 
2407 -187.35 -187.58 -187.06 
2408 -187.36 -187.55 -187.06 
2409 -187.31 -187.51 -187.06 
2410 -187.31 -187.47 -187.06 
2411 -187.29 -187.65 -187.06 
2412 -187.41 -187.78 -187.06 
2413 -187.48 -187.78 -187.06 
2414 -187.54 -187.77 -187.06 
2415 -187.55 -187.62 -187.06 
2416 -187.52 -187.55 -187.06 
2417 -187.49 -187.71 -187.06 
2418 -187.49 -187.70 -187.06 
2419 -187.49 -187.70 -187.06 
2420 -187.47 -187.80 -187.06 
2421 -187.51 -187.69 -187.06 
2422 -187.44 -187.77 -187.06 
2423 -187.46 -187.76 -187.06 
2424 -187.50 -187.62 -187.06 
2425 -187.40 -187.66 -187.06 
2426 -187.41 -187.72 -187.06 
2427 -187.45 -187.79 -187.06 
2428 -187.49 -187.73 -187.06 
2429 -187.46 -187.80 -187.06 
2430 -187.47 -187.83 -187.06 
2431 -187.49 -187.85 -187.06 
2432 -187.52 -187.93 -187.06 
2433 -187.56 -187.77 -187.06 
2434 -187.45 -187.75 -187.06 
2435 -187.43 -187.79 -187.06 
2436 -187.46 -187.81 -187.06 
2437 -187.47 -187.71 -187.06 
2438 -187.44 -187.61 -187.06 
2439 -187.35 -187.65 -187.06 
2440 -187.39 -187.69 -187.06 
2441 -187.42 -187.68 -187.06 
2442 -187.43 -187.63 -187.06 
2443 -187.39 -187.63 -187.06 
2444 -187.40 -187.69 -187.06 
2445 -187.42 -187.78 -187.06 
2446 -187.48 -187.77 -187.06 
2447 -187.48 -187.77 -187.06 
2448 -187.48 -187.79 -187.06 
2449 -187.52 -187.82 -187.06 
2450 -187.51 -187.85 -187.06 
2451 -187.52 -187.86 -187.06 
2452 -187.56 -187.86 -187.06 
2453 -187.57 -187.88 -187.06 
2454 -187.58 -187.89 -187.06 
2455 -187.56 -187.90 -187.06 
2456 -187.59 -187.95 -187.06 
2457 -187.63 -188.07 -187.06 
2458 -187.70 -188.25 -187.06 
2459 -187.85 -188.23 -187.06 
2460 -187.85 -188.24 -187.06 
2461 -187.86 -188.17 -187.06 
2462 -187.81 -188.16 -187.06 
2463 -187.83 -188.11 -187.06 
2464 -187.81 -188.10 -187.06 
2465 -187.77 -187.96 -187.06 
2466 -187.68 -187.91 -187.06 
2467 -187.65 -188.00 -187.06 
2468 -187.71 -187.98 -187.06 
2469 -187.70 -187.90 -187.06 
2470 -187.64 -187.87 -187.06 
2471 -187.61 -187.89 -187.06 
2472 -187.58 -187.85 -187.06 
2473 -187.59 -187.81 -187.06 
2474 -187.53 -187.78 -187.06 
2475 -187.51 -187.77 -187.06 
2476 -187.49 -187.77 -187.06 
2477 -187.52 -187.68 -187.06 
2478 -187.49 -187.62 -187.06 
2479 -187.46 -187.71 -187.06 
2480 -187.52 -187.71 -187.06 
2481 -187.49 -187.63 -187.06 
2482 -187.38 -187.69 -187.06 
2483 -187.45 -187.63 -187.06 
2484 -187.43 -187.76 -187.06 
2485 -187.57 -187.64 -187.06 
2486 -187.50 -187.65 -187.06 
2487 -187.53 -187.72 -187.06 
2488 -187.58 -187.72 -187.06 
2489 -187.58 -187.68 -187.06 
2490 -187.55 -187.75 -187.06 
2491 -187.61 -187.74 -187.06 
2492 -187.60 -187.74 -187.06 
2493 -187.60 -187.69 -187.06 
2494 -187.60 -187.78 -187.06 
2495 -187.66 -187.79 -187.06 
2496 -187.68 -187.82 -187.06 
2497 -187.68 -187.80 -187.06 
2498 -187.71 -187.75 -187.06 
2499 -187.67 -187.78 -187.06 
2500 -187.72 -187.72 -187.06 
2501 -187.62 -187.69 -187.06 
2502 -187.60 -187.71 -187.06 
2503 -187.57 -187.69 -187.06 
2504 -187.59 -187.66 -187.06 
2505 -187.51 -187.56 -187.06 
2506 -187.45 -187.55 -187.06 
2507 -187.45 -187.51 -187.06 
2508 -187.43 -187.38 -187.06 
2509 -187.34 -187.41 -187.06 
2510 -187.33 -187.32 -187.06 
2511 -187.23 -187.36 -187.06 
2512 -187.28 -187.44 -187.06 
2513 -187.35 -187.50 -187.06 
2514 -187.37 -187.54 -187.06 
2515 -187.46 -187.45 -187.06 
2516 -187.33 -187.36 -187.06 
2517 -187.25 -187.37 -187.06 
2518 -187.29 -187.44 -187.06 
2519 -187.29 -187.50 -187.06 
2520 -187.37 -187.46 -187.06 
2521 -187.27 -187.49 -187.06 
2522 -187.34 -187.48 -187.06 
2523 -187.28 -187.26 -187.06 
2524 -187.09 -187.17 -187.06 
2525 -187.01 -187.17 -187.06 
2526 -187.00 -186.95 -187.01 
2527 -186.82 -186.90 -187.00 
2528 -186.83 -186.96 -186.82 
2529 -186.84 -186.97 -186.82 
2530 -186.84 -186.92 -186.82 
2531 -186.79 -186.93 -186.82 
2532 -186.72 -186.83 -186.79 
2533 -186.64 -186.81 -186.72 
2534 -186.67 -186.88 -186.64 
2535 -186.72 -186.83 -186.64 
2536 -186.71 -186.94 -186.64 
2537 -186.79 -186.93 -186.64 
2538 -186.78 -186.89 -186.64 
2539 -186.77 -186.71 -186.64 
2540 -186.64 -186.68 -186.64 
2541 -186.59 -186.69 -186.64 
2542 -186.53 -186.58 -186.59 
2543 -186.50 -186.59 -186.53 
2544 -186.50 -186.50 -186.50 
2545 -186.41 -186.46 -186.50 
2546 -186.38 -186.41 -186.41 
2547 -186.34 -186.50 -186.38 
2548 -186.42 -186.59 -186.34 
2549 -186.40 -186.72 -186.34 
2550 -186.52 -186.67 -186.34 
2551 -186.49 -186.50 -186.34 
2552 -186.39 -186.45 -186.34 
2553 -186.38 -186.50 -186.34 
2554 -186.33 -186.59 -186.34 
2555 -186.45 -186.57 -186.33 
2556 -186.39 -186.49 -186.33 
2557 -186.32 -186.44 -186.33 
2558 -186.24 -186.45 -186.32 
2559 -186.22 -186.44 -186.24 
2560 -186.24 -186.32 -186.22 
2561 -186.15 -186.26 -186.22 
2562 -186.11 -186.16 -186.15 
2563 -186.06 -186.17 -186.11 
2564 -186.08 -186.09 -186.06 
2565 -186.03 -186.11 -186.06 
2566 -186.01 -186.15 -186.03 
2567 -186.06 -186.29 -186.01 
2568 -186.13 -186.37 -186.01 
2569 -186.21 -186.30 -186.01 
2570 -186.16 -186.33 -186.01 
2571 -186.19 -186.33 -186.01 
2572 -186.19 -186.32 -186.01 
2573 -186.14 -186.18 -186.01 
2574 -186.09 -186.15 -186.01 
2575 -186.07 -186.21 -186.01 
2576 -186.10 -186.28 -186.01 
2577 -186.13 -186.17 -186.01 
2578 -186.07 -186.07 -186.01 
2579 -185.99 -186.15 -186.01 
2580 -186.03 -186.18 -185.99 
2581 -186.05 -186.12 -185.99 
2582 -186.02 -186.23 -185.99 
2583 -186.09 -186.25 -185.99 
2584 -186.11 -186.31 -185.99 
2585 -186.14 -186.41 -185.99 
2586 -186.23 -186.39 -185.99 
2587 -186.19 -186.46 -185.99 
2588 -186.22 -186.38 -185.99 
2589 -186.14 -186.34 -185.99 
2590 -186.14 -186.24 -185.99 
2591 -186.04 -186.11 -185.99 
2592 -185.97 -186.17 -185.99 
2593 -186.01 -186.07 -185.97 
2594 -185.95 -186.15 -185.97 
2595 -185.98 -186.12 -185.95 
2596 -185.91 -186.20 -185.95 
2597 -185.95 -186.28 -185.91 
2598 -186.02 -186.20 -185.91 
2599 -185.97 -186.28 -185.91 
2600 -186.03 -186.32 -185.91 
2601 -186.06 -186.41 -185.91 
2602 -186.14 -186.42 -185.91 
2603 -186.16 -186.41 -185.91 
2604 -186.16 -186.38 -185.91 
2605 -186.17 -186.43 -185.91 
2606 -186.23 -186.38 -185.91 
2607 -186.20 -186.28 -185.91 
2608 -186.18 -186.33 -185.91 
2609 -186.21 -186.43 -185.91 
2610 -186.27 -186.52 -185.91 
2611 -186.39 -186.45 -185.91 
2612 -186.34 -186.49 -185.91 
2613 -186.36 -186.60 -185.91 
2614 -186.44 -186.69 -185.91 
2615 -186.58 -186.64 -185.91 
2616 -186.51 -186.74 -185.91 
2617 -186.55 -186.74 -185.91 
2618 -186.53 -186.67 -185.91 
2619 -186.49 -186.65 -185.91 
2620 -186.52 -186.71 -185.91 
2621 -186.55 -186.67 -185.91 
2622 -186.50 -186.68 -185.91 
2623 -186.46 -186.60 -185.91 
2624 -186.46 -186.51 -185.91 
2625 -186.39 -186.54 -185.91 
2626 -186.42 -186.51 -185.91 
2627 -186.36 -186.51 -185.91 
2628 -186.35 -186.59 -185.91 
2629 -186.39 -186.62 -185.91 
2630 -186.45 -186.65 -185.91 
2631 -186.42 -186.72 -185.91 
2632 -186.50 -186.62 -185.91 
2633 -186.42 -186.62 -185.91 
2634 -186.40 -186.61 -185.91 
2635 -186.40 -186.65 -185.91 
2636 -186.41 -186.57 -185.91 
2637 -186.33 -186.58 -185.91 
2638 -186.33 -186.64 -185.91 
2639 -186.34 -186.59 -185.91 
2640 -186.32 -186.58 -185.91 
2641 -186.35 -186.68 -185.91 
2642 -186.42 -186.55 -185.91 
2643 -186.32 -186.53 -185.91 
2644 -186.29 -186.53 -185.91 
2645 -186.28 -186.49 -185.91 
2646 -186.24 -186.42 -185.91 
2647 -186.20 -186.40 -185.91 
2648 -186.19 -186.48 -185.91 
2649 -186.29 -186.51 -185.91 
2650 -186.31 -186.47 -185.91 
2651 -186.30 -186.43 -185.91 
2652 -186.27 -186.40 -185.91 
2653 -186.22 -186.31 -185.91 
2654 -186.14 -186.25 -185.91 
2655 -186.09 -186.29 -185.91 
2656 -186.11 -186.20 -185.91 
2657 -186.05 -186.16 -185.91 
2658 -186.02 -186.21 -185.91 
2659 -186.06 -186.24 -185.91 
2660 -186.08 -186.22 -185.91 
2661 -186.03 -186.22 -185.91 
2662 -186.04 -186.04 -185.91 
2663 -185.94 -186.14 -185.91 
2664 -185.98 -186.13 -185.91 
2665 -185.97 -186.02 -185.91 
2666 -185.98 -186.11 -185.91 
2667 -185.97 -186.18 -185.91 
2668 -186.03 -186.28 -185.91 
2669 -186.13 -186.29 -185.91 
2670 -186.14 -186.34 -185.91 
2671 -186.20 -186.38 -185.91 
2672 -186.24 -186.29 -185.91 
2673 -186.17 -186.31 -185.91 
2674 -186.19 -186.31 -185.91 
2675 -186.18 -186.26 -185.91 
2676 -186.17 -186.21 -185.91 
2677 -186.13 -186.27 -185.91 
2678 -186.15 -186.23 -185.91 
2679 -186.12 -186.26 -185.91 
2680 -186.13 -186.19 -185.91 
2681 -186.07 -186.19 -185.91 
2682 -186.08 -186.20 -185.91 
2683 -186.06 -186.22 -185.91 
2684 -186.09 -186.26 -185.91 
2685 -186.13 -186.23 -185.91 
2686 -186.11 -186.25 -185.91 
2687 -186.12 -186.27 -185.91 
2688 -186.13 -186.31 -185.91 
2689 -186.18 -186.29 -185.91 
2690 -186.18 -186.31 -185.91 
2691 -186.19 -186.27 -185.91 
2692 -186.20 -186.24 -185.91 
2693 -186.18 -186.25 -185.91 
2694 -186.20 -186.31 -185.91 
2695 -186.21 -186.33 -185.91 
2696 -186.24 -186.37 -185.91 
2697 -186.23 -186.39 -185.91 
2698 -186.23 -186.47 -185.91 
2699 -186.29 -186.47 -185.91 
2700 -186.28 -186.50 -185.91 
2701 -186.32 -186.55 -185.91 
2702 -186.33 -186.52 -185.91 
2703 -186.32 -186.58 -185.91 
2704 -186.39 -186.54 -185.91 
2705 -186.39 -186.63 -185.91 
2706 -186.45 -186.61 -185.91 
2707 -186.43 -186.62 -185.91 
2708 -186.46 -186.69 -185.91 
2709 -186.55 -186.68 -185.91 
2710 -186.55 -186.71 -185.91 
2711 -186.58 -186.77 -185.91 
2712 -186.62 -186.77 -185.91 
2713 -186.65 -186.68 -185.91 
2714 -186.62 -186.68 -185.91 
2715 -186.60 -186.74 -185.91 
2716 -186.65 -186.79 -185.91 
2717 -186.68 -186.76 -185.91 
2718 -186.69 -186.80 -185.91 
2719 -186.74 -186.79 -185.91 
2720 -186.75 -186.81 -185.91 
2721 -186.75 -186.78 -185.91 
2722 -186.75 -186.86 -185.91 
2723 -186.76 -186.90 -185.91 
2724 -186.77 -186.91 -185.91 
2725 -186.79 -186.89 -185.91 
2726 -186.80 -186.89 -185.91 
2727 -186.79 -186.89 -185.91 
2728 -186.80 -186.89 -185.91 
2729 -186.80 -186.79 -185.91 
2730 -186.71 -186.78 -185.91 
2731 -186.71 -186.84 -185.91 
2732 -186.74 -186.87 -185.91 
2733 -186.78 -186.81 -185.91 
2734 -186.73 -186.89 -185.91 
2735 -186.78 -186.96 -185.91 
2736 -186.86 -186.92 -185.91 
2737 -186.82 -186.99 -185.91 
2738 -186.89 -187.02 -185.91 
2739 -186.91 -187.04 -185.91 
2740 -186.92 -187.08 -185.91 
2741 -186.95 -187.09 -185.91 
2742 -186.98 -187.12 -185.91 
2743 -187.00 -187.06 -185.91 
2744 -186.96 -187.11 -185.91 
2745 -187.00 -187.10 -185.91 
2746 -187.01 -187.13 -185.91 
2747 -187.08 -187.21 -185.91 
2748 -187.13 -187.16 -185.91 
2749 -187.09 -187.08 -185.91 
2750 -187.00 -187.12 -185.91 
2751 -187.05 -187.14 -185.91 
2752 -187.05 -187.03 -185.91 
2753 -186.97 -187.11 -185.91 
2754 -187.02 -187.05 -185.91 
2755 -186.98 -187.06 -185.91 
2756 -187.01 -187.11 -185.91 
2757 -187.06 -187.11 -185.91 
2758 -187.08 -187.05 -185.91 
2759 -187.07 -187.00 -185.91 
2760 -186.99 -187.00 -185.91 
2761 -186.98 -187.07 -185.91 
2762 -187.04 -187.13 -185.91 
2763 -187.08 -187.18 -185.91 
2764 -187.11 -187.32 -185.91 
2765 -187.21 -187.33 -185.91 
2766 -187.20 -187.36 -185.91 
2767 -187.21 -187.40 -185.91 
2768 -187.25 -187.44 -185.91 
2769 -187.26 -187.57 -185.91 
2770 -187.37 -187.67 -185.91 
2771 -187.47 -187.77 -185.91 
2772 -187.54 -187.75 -185.91 
2773 -187.52 -187.72 -185.91 
2774 -187.47 -187.67 -185.91 
2775 -187.45 -187.62 -185.91 
2776 -187.40 -187.52 -185.91 
2777 -187.36 -187.51 -185.91 
2778 -187.35 -187.60 -185.91 
2779 -187.42 -187.67 -185.91 
2780 -187.46 -187.63 -185.91 
2781 -187.40 -187.61 -185.91 
2782 -187.36 -187.59 -185.91 
2783 -187.34 -187.60 -185.91 
2784 -187.36 -187.70 -185.91 
2785 -187.44 -187.70 -185.91 
2786 -187.46 -187.65 -185.91 
2787 -187.39 -187.63 -185.91 
2788 -187.38 -187.58 -185.91 
2789 -187.34 -187.60 -185.91 
2790 -187.38 -187.52 -185.91 
2791 -187.33 -187.54 -185.91 
2792 -187.34 -187.43 -185.91 
2793 -187.30 -187.43 -185.91 
2794 -187.33 -187.45 -185.91 
2795 -187.38 -187.46 -185.91 
2796 -187.36 -187.31 -185.91 
2797 -187.27 -187.33 -185.91 
2798 -187.27 -187.28 -185.91 
2799 -187.22 -187.29 -185.91 
2800 -187.21 -187.21 -185.91 
2801 -187.18 -187.17 -185.91 
2802 -187.20 -187.10 -185.91 
2803 -187.20 -187.09 -185.91 
2804 -187.17 -187.14 -185.91 
2805 -187.14 -187.06 -185.91 
2806 -187.10 -187.02 -185.91 
2807 -187.04 -187.02 -185.91 
2808 -187.02 -186.93 -185.91 
2809 -186.93 -186.92 -185.91 
2810 -186.97 -186.96 -185.91 
2811 -186.95 -186.98 -185.91 
2812 -186.96 -186.95 -185.91 
2813 -186.95 -186.88 -185.91 
2814 -186.96 -186.86 -185.91 
2815 -186.92 -186.74 -185.91 
2816 -186.87 -186.81 -185.91 
2817 -186.95 -186.85 -185.91 
2818 -186.96 -186.83 -185.91 
2819 -186.95 -186.90 -185.91 
2820 -187.04 -186.88 -185.91 
2821 -187.05 -186.85 -185.91 
2822 -187.00 -186.90 -185.91 
2823 -187.02 -186.91 -185.91 
2824 -187.07 -186.91 -185.91 
2825 -187.10 -186.91 -185.91 
2826 -187.14 -186.95 -185.91 
2827 -187.27 -187.03 -185.91 
2828 -187.32 -186.97 -185.91 
2829 -187.35 -187.06 -185.91 
2830 -187.36 -187.06 -185.91 
2831 -187.31 -187.12 -185.91 
2832 -187.42 -187.12 -185.91 
2833 -187.36 -187.13 -185.91 
2834 -187.37 -187.16 -185.91 
2835 -187.32 -187.07 -185.91 
2836 -187.24 -187.10 -185.91 
2837 -187.25 -187.03 -185.91 
2838 -187.21 -187.06 -185.91 
2839 -187.17 -187.05 -185.91 
2840 -187.18 -187.08 -185.91 
2841 -187.12 -187.08 -185.91 
2842 -187.14 -187.13 -185.91 
2843 -187.13 -187.18 -185.91 
2844 -187.19 -187.20 -185.91 
2845 -187.22 -187.14 -185.91 
2846 -187.21 -187.16 -185.91 
2847 -187.25 -187.15 -185.91 
2848 -187.25 -187.16 -185.91 
2849 -187.21 -187.27 -185.91 
2850 -187.30 -187.23 -185.91 
2851 -187.25 -187.25 -185.91 
2852 -187.25 -187.26 -185.91 
2853 -187.23 -187.15 -185.91 
2854 -187.13 -187.31 -185.91 
2855 -187.24 -187.25 -185.91 
2856 -187.21 -187.21 -185.91 
2857 -187.13 -187.28 -185.91 
2858 -187.15 -187.29 -185.91 
2859 -187.17 -187.35 -185.91 
2860 -187.22 -187.33 -185.91 
2861 -187.20 -187.24 -185.91 
2862 -187.14 -187.18 -185.91 
2863 -187.07 -187.13 -185.91 
2864 -187.07 -187.14 -185.91 
2865 -187.09 -187.19 -185.91 
2866 -187.15 -187.24 -185.91 
2867 -187.21 -187.16 -185.91 
2868 -187.12 -187.12 -185.91 
2869 -187.07 -187.12 -185.91 
2870 -187.07 -187.17 -185.91 
2871 -187.16 -187.23 -185.91 
2872 -187.20 -187.22 -185.91 
2873 -187.20 -187.17 -185.91 
2874 -187.17 -187.16 -185.91 
2875 -187.13 -187.21 -185.91 
2876 -187.17 -187.18 -185.91 
2877 -187.16 -187.10 -185.91 
2878 -187.11 -187.06 -185.91 
2879 -187.06 -186.96 -185.91 
2880 -186.99 -186.92 -185.91 
2881 -186.97 -186.94 -185.91 
2882 -186.96 -186.98 -185.91 
2883 -187.00 -186.98 -185.91 
2884 -186.98 -186.94 -185.91 
2885 -186.93 -186.98 -185.91 
2886 -186.95 -186.98 -185.91 
2887 -186.96 -186.99 -185.91 
2888 -186.97 -186.90 -185.91 
2889 -186.89 -186.92 -185.91 
2890 -186.87 -186.92 -185.91 
2891 -186.88 -186.97 -185.91 
2892 -186.94 -187.04 -185.91 
2893 -186.98 -187.09 -185.91 
2894 -187.05 -187.16 -185.91 
2895 -187.10 -187.13 -185.91 
2896 -187.10 -187.26 -185.91 
2897 -187.21 -187.31 -185.91 
2898 -187.28 -187.31 -185.91 
2899 -187.31 -187.35 -185.91 
2900 -187.36 -187.36 -185.91 
2901 -187.40 -187.40 -185.91 
2902 -187.36 -187.31 -185.91 
2903 -187.32 -187.39 -185.91 
2904 -187.34 -187.34 -185.91 
2905 -187.31 -187.26 -185.91 
2906 -187.24 -187.24 -185.91 
2907 -187.21 -187.26 -185.91 
2908 -187.21 -187.28 -185.91 
2909 -187.20 -187.29 -185.91 
2910 -187.21 -187.34 -185.91 
2911 -187.28 -187.35 -185.91 
2912 -187.30 -187.37 -185.91 
2913 -187.33 -187.43 -185.91 
2914 -187.42 -187.42 -185.91 
2915 -187.40 -187.37 -185.91 
2916 -187.35 -187.34 -185.91 
2917 -187.33 -187.27 -185.91 
2918 -187.26 -187.30 -185.91 
2919 -187.27 -187.27 -185.91 
2920 -187.22 -187.28 -185.91 
2921 -187.27 -187.26 -185.91 
2922 -187.26 -187.18 -185.91 
2923 -187.15 -187.22 -185.91 
2924 -187.20 -187.22 -185.91 
2925 -187.19 -187.22 -185.91 
2926 -187.18 -187.19 -185.91 
2927 -187.15 -187.12 -185.91 
2928 -187.09 -187.16 -185.91 
2929 -187.13 -187.21 -185.91 
2930 -187.23 -187.29 -185.91 
2931 -187.29 -187.30 -185.91 
2932 -187.30 -187.36 -185.91 
2933 -187.35 -187.31 -185.91 
2934 -187.31 -187.26 -185.91 
2935 -187.28 -187.20 -185.91 
2936 -187.18 -187.18 -185.91 
2937 -187.17 -187.27 -185.91 
2938 -187.25 -187.30 -185.91 
2939 -187.28 -187.30 -185.91 
2940 -187.29 -187.26 -185.91 
2941 -187.21 -187.22 -185.91 
2942 -187.20 -187.23 -185.91 
2943 -187.22 -187.27 -185.91 
2944 -187.22 -187.24 -185.91 
2945 -187.24 -187.20 -185.91 
2946 -187.19 -187.21 -185.91 
2947 -187.19 -187.18 -185.91 
2948 -187.15 -187.25 -185.91 
2949 -187.20 -187.32 -185.91 
2950 -187.27 -187.36 -185.91 
2951 -187.30 -187.34 -185.91 
2952 -187.28 -187.34 -185.91 
2953 -187.28 -187.32 -185.91 
2954 -187.26 -187.28 -185.91 
2955 -187.21 -187.24 -185.91 
2956 -187.19 -187.22 -185.91 
2957 -187.20 -187.30 -185.91 
2958 -187.25 -187.18 -185.91 
2959 -187.17 -187.17 -185.91 
2960 -187.16 -187.18 -185.91 
2961 -187.19 -187.29 -185.91 
2962 -187.28 -187.28 -185.91 
2963 -187.25 -187.26 -185.91 
2964 -187.22 -187.27 -185.91 
2965 -187.28 -187.21 -185.91 
2966 -187.18 -187.25 -185.91 
2967 -187.26 -187.26 -185.91 
2968 -187.24 -187.28 -185.91 
2969 -187.25 -187.20 -185.91 
2970 -187.21 -187.30 -185.91 
2971 -187.30 -187.31 -185.91 
2972 -187.28 -187.28 -185.91 
2973 -187.25 -187.25 -185.91 
2974 -187.22 -187.32 -185.91 
2975 -187.27 -187.33 -185.91 
2976 -187.31 -187.39 -185.91 
2977 -187.34 -187.34 -185.91 
2978 -187.31 -187.32 -185.91 
2979 -187.30 -187.37 -185.91 
2980 -187.33 -187.36 -185.91 
2981 -187.31 -187.36 -185.91 
2982 -187.33 -187.43 -185.91 
2983 -187.40 -187.51 -185.91 
2984 -187.46 -187.46 -185.91 
2985 -187.42 -187.49 -185.91 
2986 -187.44 -187.47 -185.91 
2987 -187.41 -187.49 -185.91 
2988 -187.43 -187.51 -185.91 
2989 -187.45 -187.52 -185.91 
2990 -187.47 -187.52 -185.91 
2991 -187.47 -187.54 -185.91 
2992 -187.50 -187.59 -185.91 
2993 -187.53 -187.66 -185.91 
2994 -187.60 -187.70 -185.91 
2995 -187.64 -187.71 -185.91 
2996 -187.64 -187.70 -185.91 
2997 -187.60 -187.67 -185.91 
2998 -187.60 -187.71 -185.91 
2999 -187.64 -187.73 -185.91 
3000 -187.66 -187.72 -185.91 
3001 -187.67 -187.76 -185.91 
3002 -187.71 -187.75 -185.91 
3003 -187.72 -187.72 -185.91 
3004 -187.67 -187.68 -185.91 
3005 -187.61 -187.62 -185.91 
3006 -187.57 -187.56 -185.91 
3007 -187.53 -187.51 -185.91 
3008 -187.47 -187.51 -185.91 
3009 -187.49 -187.49 -185.91 
3010 -187.46 -187.43 -185.91 
3011 -187.42 -187.46 -185.91 
3012 -187.45 -187.48 -185.91 
3013 -187.46 -187.45 -185.91 
3014 -187.43 -187.36 -185.91 
3015 -187.36 -187.31 -185.91 
3016 -187.31 -187.28 -185.91 
3017 -187.29 -187.29 -185.91 
3018 -187.33 -187.22 -185.91 
3019 -187.26 -187.13 -185.91 
3020 -187.12 -187.11 -185.91 
3021 -187.11 -187.12 -185.91 
3022 -187.09 -187.11 -185.91 
3023 -187.08 -187.10 -185.91 
3024 -187.13 -187.09 -185.91 
3025 -187.12 -187.12 -185.91 
3026 -187.12 -187.18 -185.91 
3027 -187.19 -187.21 -185.91 
3028 -187.23 -187.26 -185.91 
3029 -187.23 -187.27 -185.91 
3030 -187.25 -187.25 -185.91 
3031 -187.24 -187.26 -185.91 
3032 -187.22 -187.23 -185.91 
3033 -187.21 -187.19 -185.91 
3034 -187.20 -187.13 -185.91 
3035 -187.10 -187.13 -185.91 
3036 -187.12 -187.10 -185.91 
3037 -187.08 -187.06 -185.91 
3038 -187.07 -187.04 -185.91 
3039 -187.05 -186.97 -185.91 
3040 -186.99 -187.07 -185.91 
3041 -187.07 -187.09 -185.91 
3042 -187.10 -187.06 -185.91 
3043 -187.07 -187.14 -185.91 
3044 -187.16 -187.22 -185.91 
3045 -187.25 -187.21 -185.91 
3046 -187.25 -187.18 -185.91 
3047 -187.18 -187.19 -185.91 
3048 -187.20 -187.16 -185.91 
3049 -187.17 -187.15 -185.91 
3050 -187.17 -187.15 -185.91 
3051 -187.16 -187.13 -185.91 
3052 -187.17 -187.22 -185.91 
3053 -187.22 -187.18 -185.91 
3054 -187.21 -187.20 -185.91 
3055 -187.20 -187.15 -185.91 
3056 -187.17 -187.10 -185.91 
3057 -187.14 -187.14 -185.91 
3058 -187.20 -187.13 -185.91 
3059 -187.20 -187.16 -185.91 
3060 -187.21 -187.14 -185.91 
3061 -187.18 -187.10 -185.91 
3062 -187.17 -187.04 -185.91 
3063 -187.14 -186.97 -185.91 
3064 -187.02 -186.96 -185.91 
3065 -187.02 -186.94 -185.91 
3066 -186.94 -186.93 -185.91 
3067 -186.93 -186.81 -185.91 
3068 -186.78 -186.75 -185.91 
3069 -186.73 -186.78 -185.91 
3070 -186.78 -186.83 -185.91 
3071 -186.78 -186.85 -185.91 
3072 -186.79 -186.83 -185.91 
3073 -186.79 -186.80 -185.91 
3074 -186.76 -186.73 -185.91 
3075 -186.69 -186.73 -185.91 
3076 -186.70 -186.75 -185.91 
3077 -186.68 -186.65 -185.91 
3078 -186.60 -186.65 -185.91 
3079 -186.59 -186.66 -185.91 
3080 -186.59 -186.67 -185.91 
3081 -186.56 -186.64 -185.91 
3082 -186.59 -186.66 -185.91 
3083 -186.59 -186.60 -185.91 
3084 -186.55 -186.55 -185.91 
3085 -186.50 -186.43 -185.91 
3086 -186.38 -186.38 -185.91 
3087 -186.35 -186.34 -185.91 
3088 -186.29 -186.37 -185.91 
3089 -186.32 -186.43 -185.91 
3090 -186.36 -186.43 -185.91 
3091 -186.38 -186.40 -185.91 
3092 -186.35 -186.37 -185.91 
3093 -186.32 -186.38 -185.91 
3094 -186.34 -186.39 -185.91 
3095 -186.35 -186.37 -185.91 
3096 -186.33 -186.43 -185.91 
3097 -186.38 -186.39 -185.91 
3098 -186.33 -186.39 -185.91 
3099 -186.31 -186.33 -185.91 
3100 -186.26 -186.39 -185.91 
3101 -186.34 -186.39 -185.91 
3102 -186.32 -186.45 -185.91 
3103 -186.37 -186.38 -185.91 
3104 -186.34 -186.37 -185.91 
3105 -186.34 -186.40 -185.91 
3106 -186.40 -186.37 -185.91 
3107 -186.36 -186.39 -185.91 
3108 -186.37 -186.45 -185.91 
3109 -186.43 -186.51 -185.91 
3110 -186.50 -186.50 -185.91 
3111 -186.46 -186.46 -185.91 
3112 -186.44 -186.50 -185.91 
3113 -186.45 -186.49 -185.91 
3114 -186.47 -186.50 -185.91 
3115 -186.49 -186.45 -185.91 
3116 -186.46 -186.41 -185.91 
3117 -186.38 -186.43 -185.91 
3118 -186.39 -186.43 -185.91 
3119 -186.39 -186.43 -185.91 
3120 -186.39 -186.43 -185.91 
3121 -186.41 -186.33 -185.91 
3122 -186.33 -186.32 -185.91 
3123 -186.30 -186.36 -185.91 
3124 -186.36 -186.34 -185.91 
3125 -186.34 -186.32 -185.91 
3126 -186.35 -186.37 -185.91 
3127 -186.40 -186.37 -185.91 
3128 -186.42 -186.37 -185.91 
3129 -186.42 -186.39 -185.91 
3130 -186.46 -186.48 -185.91 
3131 -186.56 -186.52 -185.91 
3132 -186.58 -186.53 -185.91 
3133 -186.60 -186.61 -185.91 
3134 -186.70 -186.56 -185.91 
3135 -186.69 -186.57 -185.91 
3136 -186.68 -186.54 -185.91 
3137 -186.65 -186.52 -185.91 
3138 -186.66 -186.63 -185.91 
3139 -186.76 -186.64 -185.91 
3140 -186.80 -186.65 -185.91 
3141 -186.80 -186.74 -185.91 
3142 -186.86 -186.78 -185.91 
3143 -186.90 -186.86 -185.91 
3144 -186.98 -186.91 -185.91 
3145 -187.04 -186.89 -185.91 
3146 -187.02 -186.94 -185.91 
3147 -187.08 -186.97 -185.91 
3148 -187.09 -186.96 -185.91 
3149 -187.08 -187.00 -185.91 
3150 -187.15 -186.96 -185.91 
3151 -187.09 -186.99 -185.91 
3152 -187.16 -187.08 -185.91 
3153 -187.25 -187.09 -185.91 
3154 -187.26 -187.15 -185.91 
3155 -187.33 -187.17 -185.91 
3156 -187.31 -187.12 -185.91 
3157 -187.26 -187.11 -185.91 
3158 -187.30 -187.07 -185.91 
3159 -187.25 -187.07 -185.91 
3160 -187.27 -187.09 -185.91 
3161 -187.27 -187.06 -185.91 
3162 -187.28 -187.01 -185.91 
3163 -187.19 -186.98 -185.91 
3164 -187.21 -186.98 -185.91 
3165 -187.21 -186.89 -185.91 
3166 -187.21 -186.92 -185.91 
3167 -187.12 -187.01 -185.91 
3168 -187.19 -187.07 -185.91 
3169 -187.26 -187.09 -185.91 
3170 -187.28 -187.19 -185.91 
3171 -187.35 -187.25 -185.91 
3172 -187.36 -187.32 -185.91 
3173 -187.50 -187.34 -185.91 
3174 -187.51 -187.33 -185.91 
3175 -187.56 -187.47 -185.91 
3176 -187.66 -187.54 -185.91 
3177 -187.69 -187.50 -185.91 
3178 -187.63 -187.57 -185.91 
3179 -187.69 -187.60 -185.91 
3180 -187.74 -187.55 -185.91 
3181 -187.68 -187.57 -185.91 
3182 -187.68 -187.60 -185.91 
3183 -187.74 -187.61 -185.91 
3184 -187.71 -187.49 -185.91 
3185 -187.62 -187.55 -185.91 
3186 -187.64 -187.47 -185.91 
3187 -187.55 -187.50 -185.91 
3188 -187.60 -187.63 -185.91 
3189 -187.71 -187.63 -185.91 
3190 -187.75 -187.52 -185.91 
3191 -187.65 -187.50 -185.91 
3192 -187.65 -187.55 -185.91 
3193 -187.67 -187.46 -185.91 
3194 -187.53 -187.46 -185.91 
3195 -187.51 -187.41 -185.91 
3196 -187.48 -187.41 -185.91 
3197 -187.47 -187.31 -185.91 
3198 -187.38 -187.29 -185.91 
3199 -187.31 -187.26 -185.91 
3200 -187.34 -187.23 -185.91 
3201 -187.29 -187.28 -185.91 
3202 -187.33 -187.29 -185.91 
3203 -187.38 -187.31 -185.91 
3204 -187.33 -187.22 -185.91 
3205 -187.29 -187.28 -185.91 
3206 -187.33 -187.32 -185.91 
3207 -187.39 -187.35 -185.91 
3208 -187.36 -187.36 -185.91 
3209 -187.37 -187.37 -185.91 
3210 -187.41 -187.35 -185.91 
3211 -187.37 -187.38 -185.91 
3212 -187.41 -187.33 -185.91 
3213 -187.37 -187.31 -185.91 
3214 -187.32 -187.30 -185.91 
3215 -187.29 -187.33 -185.91 
3216 -187.33 -187.27 -185.91 
3217 -187.27 -187.27 -185.91 
3218 -187.30 -187.26 -185.91 
3219 -187.28 -187.24 -185.91 
3220 -187.27 -187.22 -185.91 
3221 -187.22 -187.22 -185.91 
3222 -187.26 -187.19 -185.91 
3223 -187.21 -187.19 -185.91 
3224 -187.21 -187.16 -185.91 
3225 -187.15 -187.08 -185.91 
3226 -187.08 -187.07 -185.91 
3227 -187.06 -187.12 -185.91 
3228 -187.11 -187.12 -185.91 
3229 -187.13 -187.06 -185.91 
3230 -187.09 -187.09 -185.91 
3231 -187.05 -187.08 -185.91 
3232 -187.08 -187.03 -185.91 
3233 -187.04 -187.07 -185.91 
3234 -187.03 -187.02 -185.91 
3235 -186.98 -187.04 -185.91 
3236 -186.99 -187.00 -185.91 
3237 -186.98 -187.04 -185.91 
3238 -187.00 -186.92 -185.91 
3239 -186.95 -187.00 -185.91 
3240 -187.04 -186.82 -185.91 
3241 -186.91 -186.78 -185.91 
3242 -186.83 -186.79 -185.91 
3243 -186.79 -186.77 -185.91 
3244 -186.77 -186.76 -185.91 
3245 -186.74 -186.71 -185.91 
3246 -186.78 -186.75 -185.91 
3247 -186.79 -186.64 -185.91 
3248 -186.75 -186.50 -185.91 
3249 -186.64 -186.35 -185.91 
3250 -186.51 -186.43 -185.91 
3251 -186.54 -186.36 -185.91 
3252 -186.42 -186.28 -185.91 
3253 -186.36 -186.21 -185.91 
3254 -186.26 -186.12 -185.91 
3255 -186.14 -186.04 -185.91 
3256 -186.09 -186.01 -185.91 
3257 -186.06 -185.89 -185.91 
3258 -185.95 -185.80 -185.91 
3259 -185.91 -185.78 -185.91 
3260 -185.83 -185.70 -185.91 
3261 -185.75 -185.58 -185.83 
3262 -185.67 -185.41 -185.75 
3263 -185.60 -185.47 -185.67 
3264 -185.56 -185.53 -185.60 
3265 -185.60 -185.40 -185.56 
3266 -185.54 -185.48 -185.56 
3267 -185.58 -185.33 -185.54 
3268 -185.49 -185.23 -185.54 
3269 -185.43 -185.32 -185.49 
3270 -185.47 -185.32 -185.43 
3271 -185.44 -185.32 -185.43 
3272 -185.46 -185.38 -185.43 
3273 -185.52 -185.31 -185.43 
3274 -185.45 -185.39 -185.43 
3275 -185.47 -185.38 -185.43 
3276 -185.46 -185.32 -185.43 
3277 -185.45 -185.43 -185.43 
3278 -185.53 -185.50 -185.43 
3279 -185.59 -185.55 -185.43 
3280 -185.61 -185.52 -185.43 
3281 -185.60 -185.50 -185.43 
3282 -185.58 -185.57 -185.43 
3283 -185.65 -185.62 -185.43 
3284 -185.69 -185.62 -185.43 
3285 -185.71 -185.63 -185.43 
3286 -185.70 -185.68 -185.43 
3287 -185.72 -185.64 -185.43 
3288 -185.68 -185.65 -185.43 
3289 -185.70 -185.63 -185.43 
3290 -185.68 -185.63 -185.43 
3291 -185.63 -185.62 -185.43 
3292 -185.62 -185.70 -185.43 
3293 -185.73 -185.77 -185.43 
3294 -185.79 -185.85 -185.43 
3295 -185.84 -185.90 -185.43 
3296 -185.92 -185.89 -185.43 
3297 -185.91 -185.86 -185.43 
3298 -185.88 -185.84 -185.43 
3299 -185.86 -185.87 -185.43 
3300 -185.86 -185.85 -185.43 
3301 -185.87 -185.94 -185.43 
3302 -185.95 -185.98 -185.43 
3303 -185.94 -185.98 -185.43 
3304 -185.95 -186.03 -185.43 
3305 -185.98 -186.01 -185.43 
3306 -185.94 -186.05 -185.43 
3307 -185.99 -186.10 -185.43 
3308 -186.04 -186.11 -185.43 
3309 -186.06 -186.08 -185.43 
3310 -186.01 -186.06 -185.43 
3311 -186.03 -186.01 -185.43 
3312 -186.00 -186.03 -185.43 
3313 -186.02 -186.11 -185.43 
3314 -186.06 -186.12 -185.43 
3315 -186.04 -186.12 -185.43 
3316 -186.04 -186.17 -185.43 
3317 -186.06 -186.18 -185.43 
3318 -186.10 -186.12 -185.43 
3319 -186.06 -186.14 -185.43 
3320 -186.08 -186.16 -185.43 
3321 -186.09 -186.20 -185.43 
3322 -186.10 -186.15 -185.43 
3323 -186.07 -186.16 -185.43 
3324 -186.07 -186.10 -185.43 
3325 -186.00 -186.06 -185.43 
3326 -185.96 -186.06 -185.43 
3327 -185.97 -186.06 -185.43 
3328 -186.01 -186.01 -185.43 
3329 -185.99 -185.94 -185.43 
3330 -185.92 -185.86 -185.43 
3331 -185.86 -185.86 -185.43 
3332 -185.87 -185.80 -185.43 
3333 -185.83 -185.77 -185.43 
3334 -185.87 -185.70 -185.43 
3335 -185.83 -185.75 -185.43 
3336 -185.92 -185.83 -185.43 
3337 -185.99 -185.74 -185.43 
3338 -185.86 -185.68 -185.43 
3339 -185.79 -185.67 -185.43 
3340 -185.72 -185.74 -185.43 
3341 -185.79 -185.70 -185.43 
3342 -185.74 -185.69 -185.43 
3343 -185.71 -185.79 -185.43 
3344 -185.79 -185.70 -185.43 
3345 -185.73 -185.75 -185.43 
3346 -185.75 -185.75 -185.43 
3347 -185.74 -185.81 -185.43 
3348 -185.75 -185.86 -185.43 
3349 -185.81 -185.85 -185.43 
3350 -185.79 -185.84 -185.43 
3351 -185.84 -185.88 -185.43 
3352 -185.87 -185.90 -185.43 
3353 -185.90 -185.99 -185.43 
3354 -186.03 -186.03 -185.43 
3355 -186.02 -186.01 -185.43 
3356 -185.99 -186.06 -185.43 
3357 -186.03 -186.06 -185.43 
3358 -186.02 -186.11 -185.43 
3359 -186.03 -186.14 -185.43 
3360 -186.06 -186.13 -185.43 
3361 -186.03 -186.16 -185.43 
3362 -186.07 -186.15 -185.43 
3363 -186.05 -186.16 -185.43 
3364 -186.06 -186.17 -185.43 
3365 -186.10 -186.14 -185.43 
3366 -186.07 -186.18 -185.43 
3367 -186.10 -186.18 -185.43 
3368 -186.09 -186.22 -185.43 
3369 -186.16 -186.26 -185.43 
3370 -186.21 -186.25 -185.43 
3371 -186.18 -186.29 -185.43 
3372 -186.23 -186.36 -185.43 
3373 -186.30 -186.38 -185.43 
3374 -186.31 -186.33 -185.43 
3375 -186.28 -186.27 -185.43 
3376 -186.26 -186.30 -185.43 
3377 -186.26 -186.24 -185.43 
3378 -186.20 -186.25 -185.43 
3379 -186.23 -186.19 -185.43 
3380 -186.14 -186.20 -185.43 
3381 -186.17 -186.12 -185.43 
3382 -186.11 -186.12 -185.43 
3383 -186.07 -186.15 -185.43 
3384 -186.12 -186.16 -185.43 
3385 -186.10 -186.13 -185.43 
3386 -186.11 -186.11 -185.43 
3387 -186.12 -186.15 -185.43 
3388 -186.16 -186.18 -185.43 
3389 -186.22 -186.10 -185.43 
3390 -186.15 -186.10 -185.43 
3391 -186.13 -186.13 -185.43 
3392 -186.14 -186.10 -185.43 
3393 -186.10 -186.12 -185.43 
3394 -186.07 -186.14 -185.43 
3395 -186.10 -186.12 -185.43 
3396 -186.10 -186.12 -185.43 
3397 -186.07 -186.15 -185.43 
3398 -186.13 -186.11 -185.43 
3399 -186.11 -186.07 -185.43 
3400 -186.07 -186.10 -185.43 
3401 -186.11 -186.16 -185.43 
3402 -186.14 -186.21 -185.43 
3403 -186.22 -186.22 -185.43 
3404 -186.27 -186.23 -185.43 
3405 -186.28 -186.23 -185.43 
3406 -186.27 -186.20 -185.43 
3407 -186.34 -186.18 -185.43 
3408 -186.23 -186.16 -185.43 
3409 -186.23 -186.16 -185.43 
3410 -186.27 -186.16 -185.43 
3411 -186.23 -186.20 -185.43 
3412 -186.23 -186.24 -185.43 
3413 -186.25 -186.27 -185.43 
3414 -186.27 -186.26 -185.43 
3415 -186.29 -186.28 -185.43 
3416 -186.35 -186.32 -185.43 
3417 -186.33 -186.27 -185.43 
3418 -186.25 -186.28 -185.43 
3419 -186.23 -186.27 -185.43 
3420 -186.24 -186.27 -185.43 
3421 -186.24 -186.26 -185.43 
3422 -186.24 -186.32 -185.43 
3423 -186.30 -186.30 -185.43 
3424 -186.29 -186.34 -185.43 
3425 -186.34 -186.38 -185.43 
3426 -186.40 -186.35 -185.43 
3427 -186.39 -186.37 -185.43 
3428 -186.41 -186.38 -185.43 
3429 -186.39 -186.45 -185.43 
3430 -186.48 -186.46 -185.43 
3431 -186.50 -186.48 -185.43 
3432 -186.48 -186.47 -185.43 
3433 -186.49 -186.47 -185.43 
3434 -186.51 -186.46 -185.43 
3435 -186.46 -186.47 -185.43 
3436 -186.47 -186.43 -185.43 
3437 -186.46 -186.42 -185.43 
3438 -186.50 -186.43 -185.43 
3439 -186.51 -186.47 -185.43 
3440 -186.49 -186.52 -185.43 
3441 -186.48 -186.49 -185.43 
3442 -186.43 -186.51 -185.43 
3443 -186.43 -186.51 -185.43 
3444 -186.44 -186.48 -185.43 
3445 -186.44 -186.52 -185.43 
3446 -186.45 -186.52 -185.43 
3447 -186.46 -186.62 -185.43 
3448 -186.53 -186.61 -185.43 
3449 -186.58 -186.66 -185.43 
3450 -186.61 -186.63 -185.43 
3451 -186.63 -186.53 -185.43 
3452 -186.58 -186.53 -185.43 
3453 -186.61 -186.54 -185.43 
3454 -186.61 -186.54 -185.43 
3455 -186.55 -186.52 -185.43 
3456 -186.55 -186.58 -185.43 
3457 -186.60 -186.62 -185.43 
3458 -186.55 -186.65 -185.43 
3459 -186.58 -186.71 -185.43 
3460 -186.65 -186.70 -185.43 
3461 -186.63 -186.76 -185.43 
3462 -186.61 -186.69 -185.43 
3463 -186.55 -186.73 -185.43 
3464 -186.57 -186.70 -185.43 
3465 -186.54 -186.72 -185.43 
3466 -186.57 -186.70 -185.43 
3467 -186.56 -186.74 -185.43 
3468 -186.61 -186.79 -185.43 
3469 -186.67 -186.80 -185.43 
3470 -186.66 -186.85 -185.43 
3471 -186.70 -186.82 -185.43 
3472 -186.72 -186.82 -185.43 
3473 -186.70 -186.86 -185.43 
3474 -186.74 -186.86 -185.43 
3475 -186.73 -186.88 -185.43 
3476 -186.73 -186.86 -185.43 
3477 -186.72 -186.81 -185.43 
3478 -186.67 -186.90 -185.43 
3479 -186.73 -186.88 -185.43 
3480 -186.73 -186.83 -185.43 
3481 -186.68 -186.82 -185.43 
3482 -186.68 -186.77 -185.43 
3483 -186.67 -186.80 -185.43 
3484 -186.68 -186.78 -185.43 
3485 -186.66 -186.83 -185.43 
3486 -186.70 -186.78 -185.43 
3487 -186.66 -186.79 -185.43 
3488 -186.65 -186.89 -185.43 
3489 -186.76 -186.95 -185.43 
3490 -186.79 -186.94 -185.43 
3491 -186.79 -186.91 -185.43 
3492 -186.79 -186.93 -185.43 
3493 -186.80 -186.96 -185.43 
3494 -186.83 -186.98 -185.43 
3495 -186.82 -187.02 -185.43 
3496 -186.87 -187.10 -185.43 
3497 -186.94 -187.11 -185.43 
3498 -186.95 -187.10 -185.43 
3499 -186.92 -187.14 -185.43 
3500 -186.97 -187.17 -185.43 
3501 -187.01 -187.13 -185.43 
3502 -186.94 -187.13 -185.43 
3503 -186.97 -187.15 -185.43 
3504 -186.97 -187.14 -185.43 
3505 -186.98 -187.17 -185.43 
3506 -186.99 -187.15 -185.43 
3507 -187.02 -187.18 -185.43 
3508 -187.01 -187.17 -185.43 
3509 -187.01 -187.20 -185.43 
3510 -187.02 -187.23 -185.43 
3511 -187.06 -187.33 -185.43 
3512 -187.14 -187.18 -185.43 
3513 -187.01 -187.23 -185.43 
3514 -187.03 -187.23 -185.43 
3515 -187.03 -187.20 -185.43 
3516 -187.01 -187.13 -185.43 
3517 -186.95 -187.18 -185.43 
3518 -187.00 -187.21 -185.43 
3519 -187.02 -187.30 -185.43 
3520 -187.12 -187.31 -185.43 
3521 -187.08 -187.34 -185.43 
3522 -187.13 -187.25 -185.43 
3523 -187.04 -187.26 -185.43 
3524 -187.06 -187.26 -185.43 
3525 -187.07 -187.25 -185.43 
3526 -187.05 -187.33 -185.43 
3527 -187.12 -187.25 -185.43 
3528 -187.07 -187.23 -185.43 
3529 -187.07 -187.21 -185.43 
3530 -187.03 -187.18 -185.43 
3531 -187.00 -187.16 -185.43 
3532 -186.99 -187.20 -185.43 
3533 -187.02 -187.13 -185.43 
3534 -186.97 -187.13 -185.43 
3535 -186.99 -187.17 -185.43 
3536 -187.01 -187.21 -185.43 
3537 -187.04 -187.15 -185.43 
3538 -187.01 -187.14 -185.43 
3539 -187.00 -187.14 -185.43 
3540 -186.99 -187.19 -185.43 
3541 -187.08 -187.16 -185.43 
3542 -187.04 -187.11 -185.43 
3543 -187.04 -187.19 -185.43 
3544 -187.08 -187.19 -185.43 
3545 -187.07 -187.20 -185.43 
3546 -187.11 -187.20 -185.43 
3547 -187.07 -187.15 -185.43 
3548 -187.03 -187.13 -185.43 
3549 -186.98 -187.10 -185.43 
3550 -186.97 -187.18 -185.43 
3551 -187.03 -187.21 -185.43 
3552 -187.02 -187.21 -185.43 
3553 -187.00 -187.29 -185.43 
3554 -187.04 -187.28 -185.43 
3555 -187.01 -187.27 -185.43 
3556 -187.03 -187.24 -185.43 
3557 -186.97 -187.18 -185.43 
3558 -186.96 -187.09 -185.43 
3559 -186.86 -187.13 -185.43 
3560 -186.89 -187.11 -185.43 
3561 -186.88 -187.10 -185.43 
3562 -186.87 -187.08 -185.43 
3563 -186.85 -187.08 -185.43 
3564 -186.86 -187.04 -185.43 
3565 -186.87 -187.06 -185.43 
3566 -186.93 -186.99 -185.43 
3567 -186.86 -186.94 -185.43 
3568 -186.87 -186.95 -185.43 
3569 -186.86 -186.96 -185.43 
3570 -186.88 -186.94 -185.43 
3571 -186.85 -186.94 -185.43 
3572 -186.82 -186.98 -185.43 
3573 -186.85 -186.94 -185.43 
3574 -186.83 -186.96 -185.43 
3575 -186.87 -186.88 -185.43 
3576 -186.79 -186.86 -185.43 
3577 -186.87 -186.89 -185.43 
3578 -186.79 -186.89 -185.43 
3579 -186.73 -186.82 -185.43 
3580 -186.66 -186.85 -185.43 
3581 -186.68 -186.84 -185.43 
3582 -186.67 -186.77 -185.43 
3583 -186.65 -186.81 -185.43 
3584 -186.66 -186.68 -185.43 
3585 -186.59 -186.70 -185.43 
3586 -186.62 -186.80 -185.43 
3587 -186.62 -186.76 -185.43 
3588 -186.60 -186.83 -185.43 
3589 -186.66 -186.79 -185.43 
3590 -186.63 -186.75 -185.43 
3591 -186.65 -186.77 -185.43 
3592 -186.69 -186.75 -185.43 
3593 -186.67 -186.79 -185.43 
3594 -186.66 -186.79 -185.43 
3595 -186.66 -186.76 -185.43 
3596 -186.62 -186.75 -185.43 
3597 -186.61 -186.74 -185.43 
3598 -186.58 -186.76 -185.43 
3599 -186.60 -186.76 -185.43 
3600 -186.60 -186.74 -185.43 
3601 -186.60 -186.75 -185.43 
3602 -186.65 -186.75 -185.43 
3603 -186.63 -186.86 -185.43 
3604 -186.72 -186.94 -185.43 
3605 -186.77 -187.01 -185.43 
3606 -186.80 -186.99 -185.43 
3607 -186.77 -186.94 -185.43 
3608 -186.78 -186.93 -185.43 
3609 -186.76 -186.85 -185.43 
3610 -186.71 -186.84 -185.43 
3611 -186.74 -186.84 -185.43 
3612 -186.71 -186.81 -185.43 
3613 -186.66 -186.77 -185.43 
3614 -186.64 -186.72 -185.43 
3615 -186.61 -186.56 -185.43 
3616 -186.49 -186.63 -185.43 
3617 -186.51 -186.61 -185.43 
3618 -186.47 -186.63 -185.43 
3619 -186.49 -186.62 -185.43 
3620 -186.51 -186.55 -185.43 
3621 -186.47 -186.56 -185.43 
3622 -186.48 -186.48 -185.43 
3623 -186.46 -186.49 -185.43 
3624 -186.44 -186.48 -185.43 
3625 -186.41 -186.35 -185.43 
3626 -186.38 -186.41 -185.43 
3627 -186.38 -186.33 -185.43 
3628 -186.29 -186.33 -185.43 
3629 -186.24 -186.34 -185.43 
3630 -186.25 -186.30 -185.43 
3631 -186.27 -186.34 -185.43 
3632 -186.29 -186.38 -185.43 
3633 -186.35 -186.42 -185.43 
3634 -186.38 -186.42 -185.43 
3635 -186.39 -186.39 -185.43 
3636 -186.34 -186.42 -185.43 
3637 -186.33 -186.38 -185.43 
3638 -186.28 -186.29 -185.43 
3639 -186.25 -186.36 -185.43 
3640 -186.29 -186.36 -185.43 
3641 -186.28 -186.39 -185.43 
3642 -186.28 -186.38 -185.43 
3643 -186.26 -186.44 -185.43 
3644 -186.33 -186.53 -185.43 
3645 -186.40 -186.46 -185.43 
3646 -186.33 -186.48 -185.43 
3647 -186.32 -186.54 -185.43 
3648 -186.41 -186.54 -185.43 
3649 -186.39 -186.41 -185.43 
3650 -186.24 -186.30 -185.43 
3651 -186.20 -186.36 -185.43 
3652 -186.21 -186.37 -185.43 
3653 -186.23 -186.37 -185.43 
3654 -186.22 -186.36 -185.43 
3655 -186.20 -186.40 -185.43 
3656 -186.25 -186.41 -185.43 
3657 -186.23 -186.37 -185.43 
3658 -186.19 -186.36 -185.43 
3659 -186.17 -186.30 -185.43 
3660 -186.11 -186.20 -185.43 
3661 -186.06 -186.25 -185.43 
3662 -186.09 -186.27 -185.43 
3663 -186.14 -186.17 -185.43 
3664 -186.09 -186.27 -185.43 
3665 -186.15 -186.33 -185.43 
3666 -186.22 -186.36 -185.43 
3667 -186.21 -186.26 -185.43 
3668 -186.15 -186.32 -185.43 
3669 -186.18 -186.36 -185.43 
3670 -186.20 -186.41 -185.43 
3671 -186.25 -186.46 -185.43 
3672 -186.29 -186.37 -185.43 
3673 -186.21 -186.40 -185.43 
3674 -186.24 -186.41 -185.43 
3675 -186.24 -186.43 -185.43 
3676 -186.28 -186.41 -185.43 
3677 -186.27 -186.47 -185.43 
3678 -186.31 -186.44 -185.43 
3679 -186.28 -186.55 -185.43 
3680 -186.38 -186.53 -185.43 
3681 -186.37 -186.56 -185.43 
3682 -186.41 -186.59 -185.43 
3683 -186.44 -186.60 -185.43 
3684 -186.45 -186.59 -185.43 
3685 -186.41 -186.56 -185.43 
3686 -186.41 -186.57 -185.43 
3687 -186.43 -186.55 -185.43 
3688 -186.42 -186.53 -185.43 
3689 -186.42 -186.55 -185.43 
3690 -186.45 -186.63 -185.43 
3691 -186.48 -186.67 -185.43 
3692 -186.53 -186.72 -185.43 
3693 -186.59 -186.74 -185.43 
3694 -186.61 -186.79 -185.43 
3695 -186.67 -186.82 -185.43 
3696 -186.68 -186.88 -185.43 
3697 -186.72 -186.90 -185.43 
3698 -186.74 -186.95 -185.43 
3699 -186.79 -186.90 -185.43 
3700 -186.80 -186.88 -185.43 
3701 -186.80 -186.94 -185.43 
3702 -186.81 -187.08 -185.43 
3703 -186.91 -187.07 -185.43 
3704 -186.90 -187.15 -185.43 
3705 -186.99 -187.12 -185.43 
3706 -186.94 -187.15 -185.43 
3707 -186.98 -187.17 -185.43 
3708 -186.99 -187.14 -185.43 
3709 -187.02 -187.19 -185.43 
3710 -187.04 -187.19 -185.43 
3711 -187.02 -187.18 -185.43 
3712 -186.98 -187.16 -185.43 
3713 -186.94 -187.13 -185.43 
3714 -186.93 -187.24 -185.43 
3715 -187.00 -187.23 -185.43 
3716 -187.02 -187.15 -185.43 
3717 -186.94 -187.20 -185.43 
3718 -187.00 -187.22 -185.43 
3719 -187.07 -187.29 -185.43 
3720 -187.15 -187.42 -185.43 
3721 -187.23 -187.35 -185.43 
3722 -187.15 -187.37 -185.43 
3723 -187.18 -187.40 -185.43 
3724 -187.22 -187.40 -185.43 
3725 -187.21 -187.35 -185.43 
3726 -187.21 -187.39 -185.43 
3727 -187.25 -187.38 -185.43 
3728 -187.21 -187.42 -185.43 
3729 -187.22 -187.37 -185.43 
3730 -187.19 -187.41 -185.43 
3731 -187.23 -187.47 -185.43 
3732 -187.32 -187.50 -185.43 
3733 -187.34 -187.52 -185.43 
3734 -187.38 -187.50 -185.43 
3735 -187.35 -187.49 -185.43 
3736 -187.34 -187.49 -185.43 
3737 -187.34 -187.47 -185.43 
3738 -187.33 -187.47 -185.43 
3739 -187.33 -187.48 -185.43 
3740 -187.34 -187.47 -185.43 
3741 -187.34 -187.50 -185.43 
3742 -187.36 -187.49 -185.43 
3743 -187.34 -187.43 -185.43 
3744 -187.30 -187.45 -185.43 
3745 -187.35 -187.50 -185.43 
3746 -187.41 -187.47 -185.43 
3747 -187.36 -187.47 -185.43 
3748 -187.37 -187.39 -185.43 
3749 -187.30 -187.35 -185.43 
3750 -187.26 -187.26 -185.43 
3751 -187.17 -187.25 -185.43 
3752 -187.15 -187.20 -185.43 
3753 -187.07 -187.13 -185.43 
3754 -187.02 -187.01 -185.43 
3755 -186.97 -186.98 -185.43 
3756 -186.97 -187.01 -185.43 
3757 -186.97 -186.83 -185.43 
3758 -186.82 -186.81 -185.43 
3759 -186.74 -186.73 -185.43 
3760 -186.67 -186.69 -185.43 
3761 -186.69 -186.73 -185.43 
3762 -186.73 -186.70 -185.43 
3763 -186.71 -186.64 -185.43 
3764 -186.65 -186.60 -185.43 
3765 -186.60 -186.54 -185.43 
3766 -186.56 -186.61 -185.43 
3767 -186.61 -186.58 -185.43 
3768 -186.60 -186.54 -185.43 
3769 -186.53 -186.63 -185.43 
3770 -186.59 -186.70 -185.43 
3771 -186.62 -186.64 -185.43 
3772 -186.57 -186.57 -185.43 
3773 -186.48 -186.55 -185.43 
3774 -186.42 -186.40 -185.43 
3775 -186.27 -186.43 -185.43 
3776 -186.31 -186.35 -185.43 
3777 -186.25 -186.36 -185.43 
3778 -186.25 -186.30 -185.43 
3779 -186.19 -186.24 -185.43 
3780 -186.11 -186.24 -185.43 
3781 -186.14 -186.17 -185.43 
3782 -186.05 -186.19 -185.43 
3783 -186.07 -186.19 -185.43 
3784 -186.04 -186.17 -185.43 
3785 -186.10 -186.15 -185.43 
3786 -186.07 -186.13 -185.43 
3787 -186.04 -186.06 -185.43 
3788 -185.99 -186.00 -185.43 
3789 -185.94 -186.11 -185.43 
3790 -186.04 -186.21 -185.43 
3791 -186.13 -186.22 -185.43 
3792 -186.13 -186.12 -185.43 
3793 -186.04 -186.14 -185.43 
3794 -186.06 -186.05 -185.43 
3795 -185.94 -186.04 -185.43 
3796 -185.96 -186.03 -185.43 
3797 -185.94 -185.98 -185.43 
3798 -185.89 -185.97 -185.43 
3799 -185.90 -185.93 -185.43 
3800 -185.87 -185.95 -185.43 
3801 -185.91 -185.87 -185.43 
3802 -185.83 -185.89 -185.43 
3803 -185.83 -185.87 -185.43 
3804 -185.83 -185.92 -185.43 
3805 -185.89 -185.95 -185.43 
3806 -185.88 -185.97 -185.43 
3807 -185.90 -185.97 -185.43 
3808 -185.89 -185.96 -185.43 
3809 -185.86 -185.90 -185.43 
3810 -185.84 -185.89 -185.43 
3811 -185.82 -185.86 -185.43 
3812 -185.81 -185.91 -185.43 
3813 -185.83 -185.89 -185.43 
3814 -185.80 -185.83 -185.43 
3815 -185.78 -185.82 -185.43 
3816 -185.78 -185.78 -185.43 
3817 -185.78 -185.77 -185.43 
3818 -185.76 -185.71 -185.43 
3819 -185.71 -185.71 -185.43 
3820 -185.71 -185.70 -185.43 
3821 -185.73 -185.68 -185.43 
3822 -185.72 -185.70 -185.43 
3823 -185.75 -185.72 -185.43 
3824 -185.77 -185.61 -185.43 
3825 -185.69 -185.67 -185.43 
3826 -185.76 -185.67 -185.43 
3827 -185.76 -185.63 -185.43 
3828 -185.71 -185.69 -185.43 
3829 -185.75 -185.73 -185.43 
3830 -185.78 -185.70 -185.43 
3831 -185.79 -185.65 -185.43 
3832 -185.74 -185.70 -185.43 
3833 -185.77 -185.65 -185.43 
3834 -185.69 -185.69 -185.43 
3835 -185.71 -185.70 -185.43 
3836 -185.74 -185.72 -185.43 
3837 -185.73 -185.76 -185.43 
3838 -185.77 -185.82 -185.43 
3839 -185.79 -185.81 -185.43 
3840 -185.78 -185.86 -185.43 
3841 -185.83 -185.88 -185.43 
3842 -185.82 -185.88 -185.43 
3843 -185.83 -185.86 -185.43 
3844 -185.80 -185.89 -185.43 
3845 -185.84 -185.92 -185.43 
3846 -185.88 -185.94 -185.43 
3847 -185.92 -185.97 -185.43 
3848 -186.00 -185.97 -185.43 
3849 -185.99 -185.96 -185.43 
3850 -185.96 -185.89 -185.43 
3851 -185.89 -185.94 -185.43 
3852 -185.91 -185.95 -185.43 
3853 -185.93 -185.88 -185.43 
3854 -185.90 -185.93 -185.43 
3855 -185.93 -185.94 -185.43 
3856 -185.94 -185.96 -185.43 
3857 -185.96 -185.97 -185.43 
3858 -185.94 -185.96 -185.43 
3859 -185.96 -185.97 -185.43 
3860 -185.98 -185.90 -185.43 
3861 -185.92 -185.88 -185.43 
3862 -185.90 -185.88 -185.43 
3863 -185.92 -185.90 -185.43 
3864 -185.90 -185.96 -185.43 
3865 -185.97 -185.94 -185.43 
3866 -185.94 -185.97 -185.43 
3867 -185.98 -185.90 -185.43 
3868 -185.91 -185.87 -185.43 
3869 -185.90 -185.85 -185.43 
3870 -185.85 -185.89 -185.43 
3871 -185.90 -185.90 -185.43 
3872 -185.92 -185.90 -185.43 
3873 -185.93 -185.83 -185.43 
3874 -185.88 -185.84 -185.43 
3875 -185.89 -185.87 -185.43 
3876 -185.88 -185.83 -185.43 
3877 -185.85 -185.79 -185.43 
3878 -185.82 -185.72 -185.43 
3879 -185.74 -185.79 -185.43 
3880 -185.81 -185.55 -185.43 
3881 -185.61 -185.45 -185.43 
3882 -185.50 -185.33 -185.43 
3883 -185.39 -185.36 -185.43 
3884 -185.47 -185.31 -185.39 
3885 -185.42 -185.23 -185.39 
3886 -185.37 -185.22 -185.39 
3887 -185.30 -185.24 -185.37 
3888 -185.31 -185.25 -185.30 
3889 -185.27 -185.31 -185.30 
3890 -185.32 -185.28 -185.27 
3891 -185.26 -185.39 -185.27 
3892 -185.34 -185.42 -185.26 
3893 -185.34 -185.52 -185.26 
3894 -185.39 -185.41 -185.26 
3895 -185.28 -185.35 -185.26 
3896 -185.23 -185.35 -185.26 
3897 -185.18 -185.43 -185.23 
3898 -185.23 -185.42 -185.18 
3899 -185.29 -185.42 -185.18 
3900 -185.29 -185.36 -185.18 
3901 -185.23 -185.34 -185.18 
3902 -185.20 -185.40 -185.18 
3903 -185.22 -185.45 -185.18 
3904 -185.27 -185.58 -185.18 
3905 -185.37 -185.59 -185.18 
3906 -185.41 -185.56 -185.18 
3907 -185.40 -185.52 -185.18 
3908 -185.35 -185.48 -185.18 
3909 -185.32 -185.50 -185.18 
3910 -185.36 -185.46 -185.18 
3911 -185.31 -185.47 -185.18 
3912 -185.32 -185.45 -185.18 
3913 -185.30 -185.36 -185.18 
3914 -185.22 -185.44 -185.18 
3915 -185.28 -185.50 -185.18 
3916 -185.31 -185.53 -185.18 
3917 -185.39 -185.52 -185.18 
3918 -185.40 -185.50 -185.18 
3919 -185.38 -185.57 -185.18 
3920 -185.44 -185.61 -185.18 
3921 -185.48 -185.60 -185.18 
3922 -185.44 -185.59 -185.18 
3923 -185.46 -185.64 -185.18 
3924 -185.54 -185.67 -185.18 
3925 -185.54 -185.63 -185.18 
3926 -185.52 -185.65 -185.18 
3927 -185.53 -185.67 -185.18 
3928 -185.55 -185.67 -185.18 
3929 -185.57 -185.73 -185.18 
3930 -185.60 -185.65 -185.18 
3931 -185.54 -185.61 -185.18 
3932 -185.52 -185.64 -185.18 
3933 -185.56 -185.64 -185.18 
3934 -185.57 -185.69 -185.18 
3935 -185.63 -185.64 -185.18 
3936 -185.57 -185.63 -185.18 
3937 -185.56 -185.69 -185.18 
3938 -185.57 -185.66 -185.18 
3939 -185.52 -185.68 -185.18 
3940 -185.54 -185.64 -185.18 
3941 -185.55 -185.61 -185.18 
3942 -185.52 -185.61 -185.18 
3943 -185.54 -185.59 -185.18 
3944 -185.56 -185.57 -185.18 
3945 -185.55 -185.57 -185.18 
3946 -185.55 -185.61 -185.18 
3947 -185.60 -185.56 -185.18 
3948 -185.54 -185.53 -185.18 
3949 -185.49 -185.47 -185.18 
3950 -185.46 -185.42 -185.18 
3951 -185.43 -185.44 -185.18 
3952 -185.41 -185.44 -185.18 
3953 -185.39 -185.49 -185.18 
3954 -185.43 -185.52 -185.18 
3955 -185.48 -185.47 -185.18 
3956 -185.44 -185.44 -185.18 
3957 -185.48 -185.42 -185.18 
3958 -185.43 -185.40 -185.18 
3959 -185.40 -185.51 -185.18 
3960 -185.43 -185.51 -185.18 
3961 -185.42 -185.43 -185.18 
3962 -185.37 -185.39 -185.18 
3963 -185.35 -185.36 -185.18 
3964 -185.32 -185.30 -185.18 
3965 -185.30 -185.28 -185.18 
3966 -185.29 -185.32 -185.18 
3967 -185.26 -185.32 -185.18 
3968 -185.28 -185.34 -185.18 
3969 -185.30 -185.38 -185.18 
3970 -185.32 -185.39 -185.18 
3971 -185.36 -185.37 -185.18 
3972 -185.32 -185.42 -185.18 
3973 -185.39 -185.36 -185.18 
3974 -185.35 -185.35 -185.18 
3975 -185.32 -185.40 -185.18 
3976 -185.36 -185.38 -185.18 
3977 -185.38 -185.43 -185.18 
3978 -185.43 -185.39 -185.18 
3979 -185.44 -185.43 -185.18 
3980 -185.48 -185.45 -185.18 
3981 -185.49 -185.47 -185.18 
3982 -185.51 -185.42 -185.18 
3983 -185.48 -185.51 -185.18 
3984 -185.52 -185.54 -185.18 
3985 -185.53 -185.61 -185.18 
3986 -185.63 -185.61 -185.18 
3987 -185.61 -185.67 -185.18 
3988 -185.64 -185.71 -185.18 
3989 -185.65 -185.72 -185.18 
3990 -185.67 -185.76 -185.18 
3991 -185.71 -185.78 -185.18 
3992 -185.72 -185.77 -185.18 
3993 -185.74 -185.83 -185.18 
3994 -185.83 -185.86 -185.18 
3995 -185.88 -185.92 -185.18 
3996 -186.00 -185.97 -185.18 
