Iter | Sampling Pol | Evaluation Pol | Best (Sampled) 
   0 -112.77 -88.28 -100000000.00 
   1 -93.61 -82.39 -112.77 
   2 -92.88 -71.96 -93.61 
   3 -81.08 -20.97 -92.88 
   4 -69.33 72.72 -81.08 
   5 -62.13 127.10 -69.33 
   6 -53.04 113.35 -62.13 
   7 -17.20 56.69 -53.04 
   8  2.15 62.02 -17.20 
   9 -12.11 164.16  2.15 
  10 -1.94 169.78  2.15 
  11 30.24 119.08  2.15 
  12 12.07 124.37 30.24 
  13 -2.06 168.19 30.24 
  14 19.14 173.85 30.24 
  15 21.70 181.15 30.24 
  16 46.44 169.59 30.24 
  17 61.00 166.19 46.44 
  18 105.10 187.54 61.00 
  19 19.54 121.32 105.10 
  20 53.79 173.92 105.10 
  21 32.72 113.73 105.10 
  22 33.49 171.38 105.10 
  23 47.49 199.07 105.10 
  24 73.25 132.39 105.10 
  25 29.87 152.72 105.10 
  26 97.70 172.59 105.10 
  27 127.35 230.13 105.10 
  28 83.75 232.11 127.35 
  29 133.44 231.18 127.35 
  30 183.96 214.57 133.44 
  31 156.00 268.25 183.96 
  32 155.25 343.41 183.96 
  33 186.32 401.06 183.96 
  34 201.59 396.06 186.32 
  35 202.65 411.36 201.59 
  36 180.00 397.56 202.65 
  37 278.65 390.90 202.65 
  38 244.34 395.54 278.65 
  39 255.64 423.04 278.65 
  40 288.76 413.03 278.65 
  41 295.73 450.46 288.76 
  42 330.45 438.30 295.73 
  43 307.25 418.52 330.45 
  44 297.39 420.76 330.45 
  45 315.45 427.91 330.45 
  46 293.40 406.76 330.45 
  47 289.07 444.52 330.45 
  48 278.91 427.39 330.45 
  49 303.01 433.96 330.45 
  50 302.41 410.97 330.45 
  51 341.16 426.45 330.45 
  52 332.18 426.86 341.16 
  53 381.71 404.63 341.16 
  54 383.75 390.39 381.71 
  55 366.20 405.38 383.75 
  56 365.07 388.22 383.75 
  57 429.59 390.52 383.75 
  58 385.03 384.93 429.59 
  59 414.46 392.78 429.59 
  60 430.60 363.72 429.59 
  61 351.90 397.65 430.60 
  62 417.59 419.18 430.60 
  63 426.27 442.64 430.60 
  64 385.11 435.78 430.60 
  65 397.19 451.06 430.60 
  66 461.86 455.14 430.60 
  67 476.72 459.83 461.86 
  68 421.79 459.59 476.72 
  69 432.63 468.98 476.72 
  70 423.70 472.88 476.72 
  71 449.12 457.34 476.72 
  72 471.41 462.17 476.72 
  73 436.25 485.46 476.72 
  74 393.04 503.22 476.72 
  75 386.24 483.88 476.72 
  76 439.62 520.78 476.72 
  77 432.70 546.51 476.72 
  78 434.92 534.43 476.72 
  79 463.40 530.80 476.72 
  80 455.69 532.26 476.72 
  81 471.97 525.01 476.72 
  82 477.40 528.70 476.72 
  83 463.19 537.83 477.40 
  84 480.47 525.68 477.40 
  85 438.00 545.89 480.47 
  86 474.86 558.65 480.47 
  87 455.34 572.29 480.47 
  88 473.28 565.36 480.47 
  89 498.70 573.68 480.47 
  90 454.19 581.50 498.70 
  91 480.80 566.21 498.70 
  92 496.04 567.07 498.70 
  93 499.97 536.78 498.70 
  94 511.90 555.25 499.97 
  95 494.99 552.01 511.90 
  96 536.88 571.01 511.90 
  97 465.58 588.35 536.88 
  98 513.42 599.83 536.88 
  99 531.97 610.48 536.88 
 100 487.77 596.89 536.88 
 101 520.40 615.44 536.88 
 102 482.41 612.52 536.88 
 103 492.01 588.28 536.88 
 104 481.69 594.52 536.88 
 105 497.41 583.37 536.88 
 106 514.67 580.12 536.88 
 107 481.92 615.53 536.88 
 108 532.65 625.48 536.88 
 109 500.98 641.53 536.88 
 110 532.30 629.36 536.88 
 111 509.49 633.07 536.88 
 112 511.26 631.04 536.88 
 113 503.27 623.21 536.88 
 114 496.11 588.80 536.88 
 115 480.16 588.30 536.88 
 116 544.28 602.64 536.88 
 117 538.20 616.85 544.28 
 118 516.24 616.12 544.28 
 119 515.46 611.02 544.28 
 120 528.32 620.55 544.28 
 121 546.32 589.51 544.28 
 122 492.30 588.85 546.32 
 123 560.43 575.79 546.32 
 124 518.70 535.06 560.43 
 125 536.35 549.85 560.43 
 126 522.93 539.37 560.43 
 127 537.42 514.44 560.43 
 128 546.41 547.85 560.43 
 129 522.73 585.24 560.43 
 130 548.24 540.74 560.43 
 131 554.39 573.72 560.43 
 132 566.89 548.83 560.43 
 133 533.11 548.52 566.89 
 134 571.03 595.41 566.89 
 135 559.17 595.47 571.03 
 136 561.99 601.87 571.03 
 137 571.45 602.18 571.03 
 138 551.53 631.67 571.45 
 139 556.04 617.42 571.45 
 140 585.47 644.18 571.45 
 141 554.23 638.38 585.47 
 142 559.95 635.76 585.47 
 143 560.68 625.09 585.47 
 144 576.81 617.20 585.47 
 145 606.58 626.14 585.47 
 146 578.89 610.95 606.58 
 147 558.98 596.83 606.58 
 148 566.81 610.18 606.58 
 149 593.54 614.09 606.58 
 150 587.52 622.72 606.58 
 151 558.59 595.57 606.58 
 152 567.06 591.15 606.58 
 153 573.57 586.30 606.58 
 154 594.46 580.03 606.58 
 155 618.60 587.31 606.58 
 156 602.35 597.21 618.60 
 157 575.01 584.19 618.60 
 158 578.30 567.86 618.60 
 159 581.57 560.96 618.60 
 160 611.33 640.76 618.60 
 161 614.17 641.28 618.60 
 162 567.99 626.99 618.60 
 163 574.42 632.36 618.60 
 164 605.12 621.54 618.60 
 165 572.62 639.66 618.60 
 166 594.89 665.57 618.60 
 167 587.75 669.04 618.60 
 168 588.19 629.53 618.60 
 169 594.27 649.10 618.60 
 170 610.38 633.35 618.60 
 171 590.76 626.93 618.60 
 172 614.39 653.74 618.60 
 173 590.84 641.13 618.60 
 174 578.93 668.15 618.60 
 175 605.81 664.33 618.60 
 176 590.59 666.08 618.60 
 177 597.30 662.84 618.60 
 178 593.22 683.08 618.60 
 179 614.92 678.19 618.60 
 180 610.29 637.36 618.60 
 181 578.97 668.07 618.60 
 182 600.70 666.91 618.60 
 183 574.68 672.45 618.60 
 184 594.09 661.26 618.60 
 185 593.75 672.77 618.60 
 186 601.50 676.46 618.60 
 187 572.54 673.60 618.60 
 188 587.89 673.79 618.60 
 189 602.44 678.15 618.60 
 190 627.88 687.19 618.60 
 191 605.41 649.53 627.88 
 192 580.85 647.34 627.88 
 193 586.20 641.42 627.88 
 194 607.29 656.52 627.88 
 195 599.70 677.22 627.88 
 196 630.54 672.19 627.88 
 197 613.04 677.04 630.54 
 198 584.38 642.57 630.54 
 199 614.53 635.93 630.54 
 200 582.77 635.15 630.54 
 201 608.03 627.90 630.54 
 202 606.86 637.57 630.54 
 203 586.88 630.62 630.54 
 204 607.20 631.57 630.54 
 205 593.57 645.56 630.54 
 206 605.12 630.02 630.54 
 207 612.28 642.44 630.54 
 208 606.01 674.83 630.54 
 209 592.80 665.22 630.54 
 210 597.69 673.35 630.54 
 211 613.22 656.34 630.54 
 212 603.99 634.80 630.54 
 213 605.92 636.35 630.54 
 214 630.83 679.72 630.54 
 215 593.94 685.93 630.83 
 216 628.62 671.73 630.83 
 217 621.01 653.11 630.83 
 218 625.10 670.06 630.83 
 219 578.56 664.70 630.83 
 220 640.12 666.31 630.83 
 221 629.78 678.08 640.12 
 222 580.76 669.79 640.12 
 223 624.71 642.65 640.12 
 224 611.07 632.28 640.12 
 225 621.51 655.04 640.12 
 226 592.10 639.65 640.12 
 227 608.94 669.42 640.12 
 228 626.12 664.43 640.12 
 229 616.09 663.88 640.12 
 230 608.10 636.14 640.12 
 231 649.80 654.07 640.12 
 232 622.79 649.24 649.80 
 233 603.55 664.71 649.80 
 234 624.70 687.94 649.80 
 235 629.95 688.00 649.80 
 236 633.68 692.68 649.80 
 237 635.49 694.25 649.80 
 238 629.17 697.65 649.80 
 239 627.89 690.03 649.80 
 240 647.72 680.47 649.80 
 241 642.02 674.96 649.80 
 242 633.08 664.10 649.80 
 243 654.98 685.86 649.80 
 244 643.88 677.31 654.98 
 245 632.94 692.16 654.98 
 246 630.80 687.02 654.98 
 247 639.06 688.59 654.98 
 248 625.24 678.37 654.98 
 249 647.78 690.65 654.98 
 250 630.88 692.74 654.98 
 251 643.18 681.34 654.98 
 252 657.82 690.81 654.98 
 253 583.89 693.32 657.82 
 254 631.09 678.41 657.82 
 255 618.67 676.30 657.82 
 256 646.36 680.66 657.82 
 257 646.29 661.79 657.82 
 258 607.55 671.87 657.82 
 259 638.86 669.46 657.82 
 260 626.39 648.74 657.82 
 261 629.33 655.42 657.82 
 262 648.29 688.05 657.82 
 263 620.57 686.52 657.82 
 264 632.11 670.40 657.82 
 265 614.44 656.20 657.82 
 266 616.81 655.02 657.82 
 267 650.99 656.57 657.82 
 268 627.57 654.43 657.82 
 269 626.79 671.71 657.82 
 270 655.26 667.65 657.82 
 271 626.04 661.59 657.82 
 272 636.14 658.11 657.82 
 273 619.84 676.26 657.82 
 274 634.61 676.82 657.82 
 275 618.98 682.59 657.82 
 276 617.63 677.89 657.82 
 277 611.50 669.33 657.82 
 278 626.56 636.79 657.82 
 279 626.40 639.99 657.82 
 280 649.56 622.98 657.82 
 281 622.50 584.01 657.82 
 282 629.92 584.26 657.82 
 283 632.11 582.47 657.82 
 284 635.09 628.88 657.82 
 285 616.08 601.34 657.82 
 286 641.04 597.27 657.82 
 287 630.66 597.74 657.82 
 288 625.67 621.04 657.82 
 289 661.88 610.53 657.82 
 290 632.14 636.05 661.88 
 291 660.40 631.62 661.88 
 292 626.83 623.58 661.88 
 293 645.16 608.29 661.88 
 294 650.42 647.57 661.88 
 295 642.60 602.86 661.88 
 296 626.56 616.46 661.88 
 297 634.05 628.52 661.88 
 298 620.69 628.12 661.88 
 299 657.27 629.54 661.88 
 300 632.92 611.72 661.88 
 301 650.22 615.63 661.88 
 302 643.44 621.93 661.88 
 303 619.73 610.80 661.88 
 304 644.73 594.74 661.88 
 305 644.47 599.43 661.88 
 306 631.41 607.84 661.88 
 307 647.32 608.95 661.88 
 308 645.27 622.66 661.88 
 309 623.87 614.46 661.88 
 310 659.52 605.76 661.88 
 311 642.57 615.37 661.88 
 312 667.20 627.58 661.88 
 313 667.73 629.80 667.20 
 314 650.46 613.13 667.73 
 315 652.55 610.85 667.73 
 316 659.70 605.37 667.73 
 317 639.65 602.35 667.73 
 318 637.34 620.15 667.73 
 319 655.19 615.53 667.73 
 320 639.93 624.87 667.73 
 321 662.45 601.34 667.73 
 322 656.83 609.52 667.73 
 323 653.25 604.11 667.73 
 324 656.43 592.69 667.73 
 325 650.42 538.27 667.73 
 326 633.41 557.14 667.73 
 327 634.53 587.75 667.73 
 328 639.89 574.17 667.73 
 329 654.80 589.34 667.73 
 330 653.49 552.25 667.73 
 331 664.23 575.89 667.73 
 332 622.25 580.63 667.73 
 333 646.13 567.57 667.73 
 334 631.18 567.51 667.73 
 335 659.40 584.65 667.73 
 336 647.14 585.33 667.73 
 337 661.43 566.05 667.73 
 338 642.86 570.12 667.73 
 339 669.97 599.62 667.73 
 340 670.45 614.13 669.97 
 341 643.49 593.46 670.45 
 342 652.44 598.47 670.45 
 343 664.85 602.89 670.45 
 344 642.21 603.68 670.45 
 345 658.42 577.56 670.45 
 346 668.67 591.73 670.45 
 347 668.46 593.78 670.45 
 348 666.84 622.95 670.45 
 349 660.01 613.76 670.45 
 350 644.68 605.44 670.45 
 351 666.96 624.57 670.45 
 352 654.44 619.18 670.45 
 353 656.73 613.48 670.45 
 354 665.37 627.66 670.45 
 355 658.53 612.21 670.45 
 356 668.27 618.39 670.45 
 357 675.57 623.97 670.45 
 358 661.33 632.51 675.57 
 359 659.99 610.36 675.57 
 360 647.45 616.02 675.57 
 361 652.48 600.93 675.57 
 362 657.46 598.57 675.57 
 363 663.70 599.46 675.57 
 364 659.98 603.44 675.57 
 365 648.17 602.57 675.57 
 366 654.88 603.37 675.57 
 367 651.82 607.05 675.57 
 368 659.62 539.69 675.57 
 369 656.12 565.38 675.57 
 370 652.87 583.18 675.57 
 371 665.96 622.04 675.57 
 372 668.28 631.64 675.57 
 373 664.10 638.36 675.57 
 374 667.39 620.34 675.57 
 375 666.04 627.15 675.57 
 376 656.92 623.98 675.57 
 377 671.53 621.10 675.57 
 378 653.09 611.39 675.57 
 379 678.43 613.61 675.57 
 380 668.40 645.52 678.43 
 381 674.77 654.26 678.43 
 382 678.34 641.82 678.43 
 383 656.26 639.85 678.43 
 384 663.37 622.76 678.43 
 385 660.59 619.54 678.43 
 386 674.09 634.45 678.43 
 387 639.78 641.63 678.43 
 388 641.91 597.93 678.43 
 389 657.04 617.51 678.43 
 390 666.90 611.79 678.43 
 391 639.42 624.83 678.43 
 392 652.47 614.60 678.43 
 393 665.39 606.36 678.43 
 394 666.07 615.57 678.43 
 395 665.31 625.01 678.43 
 396 670.83 645.86 678.43 
 397 659.74 623.37 678.43 
 398 659.85 630.48 678.43 
 399 671.89 620.70 678.43 
 400 663.65 620.21 678.43 
 401 654.16 615.37 678.43 
 402 668.48 618.10 678.43 
 403 662.93 642.43 678.43 
 404 640.23 639.65 678.43 
 405 647.70 646.02 678.43 
 406 669.27 605.38 678.43 
 407 651.95 637.51 678.43 
 408 658.68 633.40 678.43 
 409 670.17 617.25 678.43 
 410 666.35 611.13 678.43 
 411 666.13 648.83 678.43 
 412 677.05 636.18 678.43 
 413 669.27 637.25 678.43 
 414 657.26 653.65 678.43 
 415 665.03 658.67 678.43 
 416 672.24 663.50 678.43 
 417 672.24 670.61 678.43 
 418 646.53 669.33 678.43 
 419 657.48 664.39 678.43 
 420 638.85 656.71 678.43 
 421 654.13 648.97 678.43 
 422 665.85 662.00 678.43 
 423 684.77 670.32 678.43 
 424 668.17 665.28 684.77 
 425 659.31 634.20 684.77 
 426 675.12 644.58 684.77 
 427 649.61 616.73 684.77 
 428 662.57 619.96 684.77 
 429 680.13 644.99 684.77 
 430 653.46 657.64 684.77 
 431 661.48 680.00 684.77 
 432 657.93 680.08 684.77 
 433 684.98 670.28 684.77 
 434 662.15 655.89 684.98 
 435 667.90 673.60 684.98 
 436 669.69 667.21 684.98 
 437 649.13 672.20 684.98 
 438 640.65 676.47 684.98 
 439 655.50 681.17 684.98 
 440 657.40 682.88 684.98 
 441 642.52 676.27 684.98 
 442 641.99 660.10 684.98 
 443 653.93 648.27 684.98 
 444 654.57 634.77 684.98 
 445 635.80 659.30 684.98 
 446 647.43 630.78 684.98 
 447 656.08 661.46 684.98 
 448 670.86 628.09 684.98 
 449 671.06 641.53 684.98 
 450 645.54 643.49 684.98 
 451 660.88 635.73 684.98 
 452 656.51 636.09 684.98 
 453 665.40 620.38 684.98 
 454 655.83 640.26 684.98 
 455 665.03 638.17 684.98 
 456 666.81 616.47 684.98 
 457 658.73 626.01 684.98 
 458 655.34 601.94 684.98 
 459 677.09 618.56 684.98 
 460 672.60 614.09 684.98 
 461 668.96 602.02 684.98 
 462 667.34 603.47 684.98 
 463 646.93 598.81 684.98 
 464 648.77 588.18 684.98 
 465 635.31 595.96 684.98 
 466 664.32 591.61 684.98 
 467 653.21 602.63 684.98 
 468 660.60 613.09 684.98 
 469 659.10 614.14 684.98 
 470 645.73 604.67 684.98 
 471 667.69 609.08 684.98 
 472 639.89 600.53 684.98 
 473 660.26 613.65 684.98 
 474 652.54 593.93 684.98 
 475 669.02 595.03 684.98 
 476 653.61 613.17 684.98 
 477 644.28 629.69 684.98 
 478 651.33 640.45 684.98 
 479 666.97 635.13 684.98 
 480 645.75 607.56 684.98 
 481 666.52 625.98 684.98 
 482 642.42 627.54 684.98 
 483 645.52 638.43 684.98 
 484 677.90 632.29 684.98 
 485 660.92 646.47 684.98 
 486 658.48 626.73 684.98 
 487 658.55 621.44 684.98 
 488 663.09 635.96 684.98 
 489 647.31 653.50 684.98 
 490 655.46 646.24 684.98 
 491 659.29 620.67 684.98 
 492 664.14 620.93 684.98 
 493 678.18 607.09 684.98 
 494 668.13 583.93 684.98 
 495 653.99 584.84 684.98 
 496 661.40 587.87 684.98 
 497 682.24 591.00 684.98 
 498 663.78 603.95 684.98 
 499 649.31 578.96 684.98 
 500 677.22 553.64 684.98 
 501 675.42 546.37 684.98 
 502 667.43 534.16 684.98 
 503 667.79 555.00 684.98 
 504 651.45 555.02 684.98 
 505 653.09 592.31 684.98 
 506 691.70 590.67 684.98 
 507 655.74 580.19 691.70 
 508 678.73 582.48 691.70 
 509 662.91 580.24 691.70 
 510 673.86 598.49 691.70 
 511 672.82 606.80 691.70 
 512 669.31 614.28 691.70 
 513 648.26 593.87 691.70 
 514 642.48 569.48 691.70 
 515 672.86 577.00 691.70 
 516 677.28 542.11 691.70 
 517 679.35 571.43 691.70 
 518 662.50 569.18 691.70 
 519 684.98 566.47 691.70 
 520 665.27 585.21 691.70 
 521 655.52 551.21 691.70 
 522 669.10 550.92 691.70 
 523 673.76 541.63 691.70 
 524 672.86 553.33 691.70 
 525 666.74 545.52 691.70 
 526 665.61 538.73 691.70 
 527 661.88 568.25 691.70 
 528 675.94 571.62 691.70 
 529 667.55 570.41 691.70 
 530 671.89 518.52 691.70 
 531 659.22 567.67 691.70 
 532 666.88 591.22 691.70 
 533 657.73 575.53 691.70 
 534 674.94 611.25 691.70 
 535 673.01 562.80 691.70 
 536 687.96 572.37 691.70 
 537 667.34 570.94 691.70 
 538 665.81 586.10 691.70 
 539 663.99 588.63 691.70 
 540 682.84 574.59 691.70 
 541 649.55 525.51 691.70 
 542 670.61 552.66 691.70 
 543 673.92 537.01 691.70 
 544 653.06 497.91 691.70 
 545 657.28 502.39 691.70 
 546 675.43 522.61 691.70 
 547 669.35 538.34 691.70 
 548 671.19 567.49 691.70 
 549 681.18 585.43 691.70 
 550 678.85 610.82 691.70 
 551 657.94 599.92 691.70 
 552 658.25 587.39 691.70 
 553 676.83 593.74 691.70 
 554 665.99 596.25 691.70 
 555 662.56 599.49 691.70 
 556 666.24 602.55 691.70 
 557 672.70 579.92 691.70 
 558 680.20 599.71 691.70 
 559 675.28 581.90 691.70 
 560 677.34 582.35 691.70 
 561 667.62 581.36 691.70 
 562 650.42 586.12 691.70 
 563 683.58 579.95 691.70 
 564 665.75 581.95 691.70 
 565 680.59 610.21 691.70 
 566 666.80 589.52 691.70 
 567 685.72 584.45 691.70 
 568 673.48 567.97 691.70 
 569 650.37 541.07 691.70 
 570 660.20 538.02 691.70 
 571 666.88 530.41 691.70 
 572 650.52 536.83 691.70 
 573 669.19 546.78 691.70 
 574 682.96 578.70 691.70 
 575 682.70 566.71 691.70 
 576 690.84 533.08 691.70 
 577 667.66 591.77 691.70 
 578 676.36 568.74 691.70 
 579 690.38 556.66 691.70 
 580 655.72 573.05 691.70 
 581 679.70 604.95 691.70 
 582 693.40 598.91 691.70 
 583 668.79 610.58 693.40 
 584 675.03 611.55 693.40 
 585 664.91 618.60 693.40 
 586 675.61 638.77 693.40 
 587 676.41 626.64 693.40 
 588 688.55 629.16 693.40 
 589 674.17 635.46 693.40 
 590 682.28 618.48 693.40 
 591 660.13 628.70 693.40 
 592 684.44 611.59 693.40 
 593 681.98 597.90 693.40 
 594 682.95 594.32 693.40 
 595 690.64 640.89 693.40 
 596 688.99 664.91 693.40 
 597 663.98 661.29 693.40 
 598 686.07 646.07 693.40 
 599 675.31 660.71 693.40 
 600 649.03 651.89 693.40 
 601 666.42 663.24 693.40 
 602 674.53 611.24 693.40 
 603 681.96 627.41 693.40 
 604 658.53 622.29 693.40 
 605 679.34 643.63 693.40 
 606 676.30 635.59 693.40 
 607 689.38 659.64 693.40 
 608 698.88 615.70 693.40 
 609 677.75 627.06 698.88 
 610 676.51 624.76 698.88 
 611 676.70 600.72 698.88 
 612 655.72 639.12 698.88 
 613 673.40 620.86 698.88 
 614 676.58 618.06 698.88 
 615 685.56 586.27 698.88 
 616 680.33 589.10 698.88 
 617 679.66 576.12 698.88 
 618 679.45 580.61 698.88 
 619 690.03 606.74 698.88 
 620 675.48 573.49 698.88 
 621 695.21 558.58 698.88 
 622 671.26 547.63 698.88 
 623 682.53 559.09 698.88 
 624 680.28 593.87 698.88 
 625 671.38 580.02 698.88 
 626 667.94 580.75 698.88 
 627 696.58 573.08 698.88 
 628 666.18 556.96 698.88 
 629 677.48 546.68 698.88 
 630 667.44 549.81 698.88 
 631 666.92 555.87 698.88 
 632 665.66 594.52 698.88 
 633 663.76 586.79 698.88 
 634 675.35 581.80 698.88 
 635 685.89 590.85 698.88 
 636 675.19 589.67 698.88 
 637 686.34 588.15 698.88 
 638 681.51 593.76 698.88 
 639 685.87 587.47 698.88 
 640 691.63 591.74 698.88 
 641 684.66 592.30 698.88 
 642 684.24 596.27 698.88 
 643 691.98 613.10 698.88 
 644 678.72 572.11 698.88 
 645 670.63 577.46 698.88 
 646 690.79 569.38 698.88 
 647 682.49 580.26 698.88 
 648 692.87 624.51 698.88 
 649 680.54 610.49 698.88 
 650 681.22 603.40 698.88 
 651 687.46 582.57 698.88 
 652 700.69 573.66 698.88 
 653 687.40 578.57 700.69 
 654 665.90 567.91 700.69 
 655 663.04 585.41 700.69 
 656 673.51 561.67 700.69 
 657 687.83 540.71 700.69 
 658 681.07 533.73 700.69 
 659 690.06 522.23 700.69 
 660 678.57 526.60 700.69 
 661 702.57 538.06 700.69 
 662 689.53 558.05 702.57 
 663 685.46 537.39 702.57 
 664 681.50 556.20 702.57 
 665 676.96 551.53 702.57 
 666 678.17 578.47 702.57 
 667 668.41 566.09 702.57 
 668 693.33 570.64 702.57 
 669 683.07 593.40 702.57 
 670 669.97 597.13 702.57 
 671 688.36 580.57 702.57 
 672 664.82 576.08 702.57 
 673 677.53 580.60 702.57 
 674 679.98 542.01 702.57 
 675 675.68 558.06 702.57 
 676 673.48 574.91 702.57 
 677 672.44 551.63 702.57 
 678 685.57 573.61 702.57 
 679 674.82 565.96 702.57 
 680 689.96 628.44 702.57 
 681 677.26 618.37 702.57 
 682 653.88 609.54 702.57 
 683 671.03 609.00 702.57 
 684 686.34 573.81 702.57 
 685 689.92 588.98 702.57 
 686 667.51 552.92 702.57 
 687 686.10 555.83 702.57 
 688 690.72 551.53 702.57 
 689 694.40 533.19 702.57 
 690 688.28 560.89 702.57 
 691 688.31 552.84 702.57 
 692 689.57 582.92 702.57 
 693 688.45 586.91 702.57 
 694 687.81 578.07 702.57 
 695 678.21 550.89 702.57 
 696 694.24 576.74 702.57 
 697 683.29 559.32 702.57 
 698 698.66 564.86 702.57 
 699 689.53 566.38 702.57 
 700 705.68 536.05 702.57 
 701 689.23 552.89 705.68 
 702 694.80 545.97 705.68 
 703 670.88 547.97 705.68 
 704 691.47 547.28 705.68 
 705 685.54 537.65 705.68 
 706 690.85 529.21 705.68 
 707 659.52 523.52 705.68 
 708 683.01 514.80 705.68 
 709 690.45 524.13 705.68 
 710 697.86 527.02 705.68 
 711 682.98 550.63 705.68 
 712 675.70 525.50 705.68 
 713 684.41 517.27 705.68 
 714 691.49 500.60 705.68 
 715 688.97 505.37 705.68 
 716 693.84 501.45 705.68 
 717 693.86 544.15 705.68 
 718 692.17 528.89 705.68 
 719 680.60 546.73 705.68 
 720 686.43 526.68 705.68 
 721 694.84 562.58 705.68 
 722 686.53 547.81 705.68 
 723 677.73 558.93 705.68 
 724 680.72 508.47 705.68 
 725 676.56 528.36 705.68 
 726 648.18 486.82 705.68 
 727 665.30 531.15 705.68 
 728 680.60 527.97 705.68 
 729 677.59 538.37 705.68 
 730 691.83 532.58 705.68 
 731 685.52 545.68 705.68 
 732 679.98 551.76 705.68 
 733 686.17 550.38 705.68 
 734 679.60 534.16 705.68 
 735 684.86 528.97 705.68 
 736 692.10 544.93 705.68 
 737 696.50 574.51 705.68 
 738 687.48 559.68 705.68 
 739 674.34 558.62 705.68 
 740 688.56 555.12 705.68 
 741 691.24 559.74 705.68 
 742 674.28 577.20 705.68 
 743 662.62 585.27 705.68 
 744 691.15 571.70 705.68 
 745 663.91 555.89 705.68 
 746 674.04 590.96 705.68 
 747 680.36 585.27 705.68 
 748 680.24 588.55 705.68 
 749 671.32 557.21 705.68 
 750 698.03 565.58 705.68 
 751 671.18 541.96 705.68 
 752 662.73 522.02 705.68 
 753 672.69 543.96 705.68 
 754 678.04 530.23 705.68 
 755 697.16 531.70 705.68 
 756 696.30 558.20 705.68 
 757 667.50 563.53 705.68 
 758 678.64 556.59 705.68 
 759 691.24 549.19 705.68 
 760 696.94 568.98 705.68 
 761 690.99 565.66 705.68 
 762 689.12 551.48 705.68 
 763 696.09 553.75 705.68 
 764 681.57 556.47 705.68 
 765 689.52 584.49 705.68 
 766 697.47 567.60 705.68 
 767 702.44 601.30 705.68 
 768 656.59 602.42 705.68 
 769 680.96 605.69 705.68 
 770 695.42 615.25 705.68 
 771 670.45 587.88 705.68 
 772 670.36 586.45 705.68 
 773 693.48 593.84 705.68 
 774 685.31 564.81 705.68 
 775 676.12 564.49 705.68 
 776 689.80 613.20 705.68 
 777 683.18 589.43 705.68 
 778 697.88 592.74 705.68 
 779 674.09 565.91 705.68 
 780 677.22 587.61 705.68 
 781 699.42 573.06 705.68 
 782 698.53 576.96 705.68 
 783 691.44 568.43 705.68 
 784 688.42 548.19 705.68 
 785 669.37 546.42 705.68 
 786 701.65 559.10 705.68 
 787 693.92 566.71 705.68 
 788 665.03 569.20 705.68 
 789 676.54 565.81 705.68 
 790 690.93 561.44 705.68 
 791 687.68 568.85 705.68 
 792 697.18 560.00 705.68 
 793 685.84 587.10 705.68 
 794 706.95 589.46 705.68 
 795 689.61 589.65 706.95 
 796 698.23 606.79 706.95 
 797 697.57 592.98 706.95 
 798 680.91 619.55 706.95 
 799 671.22 624.85 706.95 
 800 694.52 635.64 706.95 
 801 675.33 578.03 706.95 
 802 679.81 589.39 706.95 
 803 693.89 579.20 706.95 
 804 686.53 564.18 706.95 
 805 683.46 534.98 706.95 
 806 698.87 562.13 706.95 
 807 683.14 564.18 706.95 
 808 683.49 550.78 706.95 
 809 698.57 541.98 706.95 
 810 685.48 566.46 706.95 
 811 691.92 568.38 706.95 
 812 687.92 556.82 706.95 
 813 698.16 547.79 706.95 
 814 699.24 555.46 706.95 
 815 703.24 566.56 706.95 
 816 676.42 559.16 706.95 
 817 672.79 542.26 706.95 
 818 701.40 544.48 706.95 
 819 678.99 563.90 706.95 
 820 691.35 584.07 706.95 
 821 696.17 559.28 706.95 
 822 690.17 549.70 706.95 
 823 687.99 560.68 706.95 
 824 696.17 581.84 706.95 
 825 701.11 584.20 706.95 
 826 690.55 558.06 706.95 
 827 678.53 594.63 706.95 
 828 680.55 599.86 706.95 
 829 674.40 580.06 706.95 
 830 681.21 568.05 706.95 
 831 687.80 595.24 706.95 
 832 698.65 587.70 706.95 
 833 690.08 570.59 706.95 
 834 694.13 568.83 706.95 
 835 684.41 577.81 706.95 
 836 695.69 581.53 706.95 
 837 695.54 585.57 706.95 
 838 677.46 598.31 706.95 
 839 686.48 588.64 706.95 
 840 699.30 608.12 706.95 
 841 682.28 599.66 706.95 
 842 687.01 574.92 706.95 
 843 690.28 591.97 706.95 
 844 700.42 577.74 706.95 
 845 692.33 558.97 706.95 
 846 697.90 550.25 706.95 
 847 702.12 568.72 706.95 
 848 699.59 555.71 706.95 
 849 701.90 579.45 706.95 
 850 686.06 586.32 706.95 
 851 686.71 593.35 706.95 
 852 690.60 579.05 706.95 
 853 675.47 579.56 706.95 
 854 666.57 564.20 706.95 
 855 694.88 576.34 706.95 
 856 679.02 544.35 706.95 
 857 670.74 535.55 706.95 
 858 679.95 559.16 706.95 
 859 674.37 538.75 706.95 
 860 681.52 536.60 706.95 
 861 676.23 551.61 706.95 
 862 688.15 574.77 706.95 
 863 686.52 594.08 706.95 
 864 687.08 572.95 706.95 
 865 664.51 558.57 706.95 
 866 680.25 500.17 706.95 
 867 673.73 532.78 706.95 
 868 664.23 519.03 706.95 
 869 671.90 528.77 706.95 
 870 677.08 570.28 706.95 
 871 662.90 573.94 706.95 
 872 679.24 533.31 706.95 
 873 679.69 502.13 706.95 
 874 684.45 496.27 706.95 
 875 685.06 510.39 706.95 
 876 698.33 480.19 706.95 
 877 681.39 495.17 706.95 
 878 683.35 512.54 706.95 
 879 683.07 512.77 706.95 
 880 668.34 498.14 706.95 
 881 679.48 495.33 706.95 
 882 693.29 536.28 706.95 
 883 688.97 538.79 706.95 
 884 684.02 522.71 706.95 
 885 685.31 534.57 706.95 
 886 667.51 527.39 706.95 
 887 689.64 531.09 706.95 
 888 685.20 547.67 706.95 
 889 677.33 539.62 706.95 
 890 697.09 544.57 706.95 
 891 684.89 554.33 706.95 
 892 685.92 567.54 706.95 
 893 691.59 553.61 706.95 
 894 697.93 558.93 706.95 
 895 676.80 571.38 706.95 
 896 707.01 576.16 706.95 
 897 665.87 590.06 707.01 
 898 660.23 572.42 707.01 
 899 686.15 581.58 707.01 
 900 687.83 555.17 707.01 
 901 676.95 558.73 707.01 
 902 690.42 581.95 707.01 
 903 684.66 577.48 707.01 
 904 694.44 571.79 707.01 
 905 683.40 571.99 707.01 
 906 700.06 565.98 707.01 
 907 700.45 561.06 707.01 
 908 681.13 570.06 707.01 
 909 690.12 564.24 707.01 
 910 689.52 557.29 707.01 
 911 655.82 523.54 707.01 
 912 696.32 532.00 707.01 
 913 695.11 544.89 707.01 
 914 686.59 545.33 707.01 
 915 712.23 564.02 707.01 
 916 684.74 565.60 712.23 
 917 688.88 594.69 712.23 
 918 693.97 620.46 712.23 
 919 694.43 590.53 712.23 
 920 707.73 611.50 712.23 
 921 685.06 597.73 712.23 
 922 707.67 597.28 712.23 
 923 682.89 586.75 712.23 
 924 689.92 597.48 712.23 
 925 696.13 575.02 712.23 
 926 696.60 566.62 712.23 
 927 685.10 563.24 712.23 
 928 678.52 538.66 712.23 
 929 693.58 566.51 712.23 
 930 680.29 579.52 712.23 
 931 678.27 607.16 712.23 
 932 693.84 590.42 712.23 
 933 680.58 603.08 712.23 
 934 671.61 575.86 712.23 
 935 684.47 599.77 712.23 
 936 698.20 579.35 712.23 
 937 693.77 576.72 712.23 
 938 690.58 597.19 712.23 
 939 684.60 599.88 712.23 
 940 677.41 589.56 712.23 
 941 693.08 627.05 712.23 
 942 702.27 624.00 712.23 
 943 665.17 625.94 712.23 
 944 678.18 606.68 712.23 
 945 661.17 571.10 712.23 
 946 684.35 591.47 712.23 
 947 676.93 587.30 712.23 
 948 672.31 566.20 712.23 
 949 669.28 545.66 712.23 
 950 689.47 584.14 712.23 
 951 700.65 565.55 712.23 
 952 693.83 584.54 712.23 
 953 673.11 550.73 712.23 
 954 677.54 566.95 712.23 
 955 701.71 553.10 712.23 
 956 689.68 543.14 712.23 
 957 680.26 574.50 712.23 
 958 684.16 556.45 712.23 
 959 696.52 571.94 712.23 
 960 689.14 574.95 712.23 
 961 660.53 585.16 712.23 
 962 683.51 575.51 712.23 
 963 686.44 599.50 712.23 
 964 687.61 600.01 712.23 
 965 681.02 606.85 712.23 
 966 677.08 568.99 712.23 
 967 672.29 585.93 712.23 
 968 692.93 597.73 712.23 
 969 681.33 634.17 712.23 
 970 683.74 624.30 712.23 
 971 686.43 564.22 712.23 
 972 672.47 559.71 712.23 
 973 682.40 578.20 712.23 
 974 685.65 547.04 712.23 
 975 680.81 594.71 712.23 
 976 695.96 595.87 712.23 
 977 698.34 581.09 712.23 
 978 701.34 582.53 712.23 
 979 687.09 573.27 712.23 
 980 677.54 595.22 712.23 
 981 688.59 599.36 712.23 
 982 686.42 603.89 712.23 
 983 676.88 578.18 712.23 
 984 696.58 569.06 712.23 
 985 685.25 571.22 712.23 
 986 676.43 584.21 712.23 
 987 688.13 584.69 712.23 
 988 686.25 572.12 712.23 
 989 679.16 536.37 712.23 
 990 685.22 546.80 712.23 
 991 693.59 565.71 712.23 
 992 686.14 580.82 712.23 
 993 684.21 574.29 712.23 
 994 695.00 544.74 712.23 
 995 682.78 573.04 712.23 
 996 677.06 609.02 712.23 
 997 690.71 623.73 712.23 
 998 689.67 626.83 712.23 
 999 681.87 623.71 712.23 
1000 688.46 649.05 712.23 
1001 688.10 597.86 712.23 
1002 696.75 590.94 712.23 
1003 696.04 606.82 712.23 
1004 707.83 613.69 712.23 
1005 686.12 630.76 712.23 
1006 668.91 592.49 712.23 
1007 686.34 544.69 712.23 
1008 672.41 553.21 712.23 
1009 693.29 603.10 712.23 
1010 693.63 594.88 712.23 
1011 663.24 578.12 712.23 
1012 682.23 561.71 712.23 
1013 682.53 577.23 712.23 
1014 675.39 580.99 712.23 
1015 703.91 588.21 712.23 
1016 671.29 583.10 712.23 
1017 688.82 561.38 712.23 
1018 687.04 584.90 712.23 
1019 674.82 571.37 712.23 
1020 706.73 605.20 712.23 
1021 669.92 577.77 712.23 
1022 695.85 588.37 712.23 
1023 674.80 557.41 712.23 
1024 688.86 559.29 712.23 
1025 693.25 573.57 712.23 
1026 694.48 552.63 712.23 
1027 679.95 543.49 712.23 
1028 681.21 564.99 712.23 
1029 682.02 579.29 712.23 
1030 704.31 551.26 712.23 
1031 676.14 567.61 712.23 
1032 703.84 575.03 712.23 
1033 689.42 617.69 712.23 
1034 686.76 616.02 712.23 
1035 690.33 587.25 712.23 
1036 679.01 581.39 712.23 
1037 707.37 552.76 712.23 
1038 681.41 511.24 712.23 
1039 697.74 546.25 712.23 
1040 689.98 520.06 712.23 
1041 687.05 541.53 712.23 
1042 700.41 554.99 712.23 
1043 685.50 554.43 712.23 
1044 687.00 543.54 712.23 
1045 684.85 549.10 712.23 
1046 698.83 532.73 712.23 
1047 686.00 540.62 712.23 
1048 701.67 540.82 712.23 
1049 695.17 539.65 712.23 
1050 701.00 550.95 712.23 
1051 692.05 556.42 712.23 
1052 703.52 549.73 712.23 
1053 688.00 525.30 712.23 
1054 698.25 555.08 712.23 
1055 693.53 583.71 712.23 
1056 674.58 582.54 712.23 
1057 686.70 562.76 712.23 
1058 692.04 561.03 712.23 
1059 685.58 597.83 712.23 
1060 689.70 607.67 712.23 
1061 695.57 596.65 712.23 
1062 708.85 575.96 712.23 
1063 679.11 564.15 712.23 
1064 677.84 552.52 712.23 
1065 684.24 527.36 712.23 
1066 683.73 537.52 712.23 
1067 679.98 504.92 712.23 
1068 691.80 539.52 712.23 
1069 678.80 531.93 712.23 
1070 688.10 535.64 712.23 
1071 687.34 540.41 712.23 
1072 694.53 512.73 712.23 
1073 701.98 559.18 712.23 
1074 683.44 549.82 712.23 
1075 697.50 557.56 712.23 
1076 681.48 534.57 712.23 
1077 696.71 605.08 712.23 
1078 694.09 588.11 712.23 
1079 692.99 620.56 712.23 
1080 692.54 620.79 712.23 
1081 693.51 578.20 712.23 
1082 685.45 595.99 712.23 
1083 687.61 626.08 712.23 
1084 690.09 609.60 712.23 
1085 686.27 612.87 712.23 
1086 701.16 603.73 712.23 
1087 685.34 605.16 712.23 
1088 677.47 621.48 712.23 
1089 683.78 641.71 712.23 
1090 702.32 628.47 712.23 
1091 682.15 632.31 712.23 
1092 662.44 614.72 712.23 
1093 690.90 622.42 712.23 
1094 687.49 630.84 712.23 
1095 684.81 645.63 712.23 
1096 692.66 630.33 712.23 
1097 689.22 635.18 712.23 
1098 703.35 621.96 712.23 
1099 695.68 603.22 712.23 
1100 681.78 589.76 712.23 
1101 701.93 604.31 712.23 
1102 692.12 596.88 712.23 
1103 698.69 591.76 712.23 
1104 714.49 600.44 712.23 
1105 692.43 636.41 714.49 
1106 691.36 598.04 714.49 
1107 680.69 567.70 714.49 
1108 685.06 592.27 714.49 
1109 690.12 590.69 714.49 
1110 690.12 616.13 714.49 
1111 667.40 570.61 714.49 
1112 695.88 593.21 714.49 
1113 698.40 585.86 714.49 
1114 708.47 579.99 714.49 
1115 707.71 631.84 714.49 
1116 669.42 614.53 714.49 
1117 690.05 631.16 714.49 
1118 703.68 631.40 714.49 
1119 694.90 639.05 714.49 
1120 701.12 616.67 714.49 
1121 700.41 584.40 714.49 
1122 695.29 596.91 714.49 
1123 694.07 592.62 714.49 
1124 699.54 601.85 714.49 
1125 699.83 605.25 714.49 
1126 692.50 623.95 714.49 
1127 688.58 636.01 714.49 
1128 687.42 625.10 714.49 
1129 692.87 633.54 714.49 
1130 684.31 617.55 714.49 
1131 703.26 600.80 714.49 
1132 674.16 623.28 714.49 
1133 690.98 592.49 714.49 
1134 678.84 591.15 714.49 
1135 695.21 535.14 714.49 
1136 695.54 538.70 714.49 
1137 697.75 586.24 714.49 
1138 673.75 590.67 714.49 
1139 682.73 532.34 714.49 
1140 698.25 546.85 714.49 
1141 676.64 539.12 714.49 
1142 696.94 554.65 714.49 
1143 701.74 539.51 714.49 
1144 697.37 571.49 714.49 
1145 699.04 556.09 714.49 
1146 704.25 570.74 714.49 
1147 700.03 613.14 714.49 
1148 702.08 565.47 714.49 
1149 702.04 600.36 714.49 
1150 701.01 612.39 714.49 
1151 693.84 618.14 714.49 
1152 700.35 636.68 714.49 
1153 699.04 628.54 714.49 
1154 684.16 586.33 714.49 
1155 699.38 557.66 714.49 
1156 690.66 566.74 714.49 
1157 699.75 622.08 714.49 
1158 693.40 636.41 714.49 
1159 688.59 617.80 714.49 
1160 688.70 627.69 714.49 
1161 693.11 628.94 714.49 
1162 713.86 610.09 714.49 
1163 691.87 599.14 714.49 
1164 682.53 577.99 714.49 
1165 690.73 582.41 714.49 
1166 698.65 617.96 714.49 
1167 682.02 619.58 714.49 
1168 706.53 589.58 714.49 
1169 699.64 607.53 714.49 
1170 704.05 618.48 714.49 
1171 688.55 591.56 714.49 
1172 698.48 609.98 714.49 
1173 709.63 614.64 714.49 
1174 691.15 604.85 714.49 
1175 698.07 668.29 714.49 
1176 689.32 633.05 714.49 
1177 677.49 610.40 714.49 
1178 697.82 604.86 714.49 
1179 679.05 580.61 714.49 
1180 696.82 583.77 714.49 
1181 686.83 607.97 714.49 
1182 686.42 609.57 714.49 
1183 684.73 640.70 714.49 
1184 683.22 618.24 714.49 
1185 677.98 593.84 714.49 
1186 674.83 600.73 714.49 
1187 690.77 601.16 714.49 
1188 692.60 623.82 714.49 
1189 696.56 634.27 714.49 
1190 693.73 590.75 714.49 
1191 697.52 599.67 714.49 
1192 691.35 599.73 714.49 
1193 697.24 609.74 714.49 
1194 696.38 642.65 714.49 
1195 689.23 622.44 714.49 
1196 684.91 658.02 714.49 
1197 675.84 646.30 714.49 
1198 683.87 636.16 714.49 
1199 695.07 596.57 714.49 
1200 676.59 616.08 714.49 
1201 693.63 620.20 714.49 
1202 692.52 635.95 714.49 
1203 670.01 599.23 714.49 
1204 695.66 583.72 714.49 
1205 697.93 574.46 714.49 
1206 691.55 585.92 714.49 
1207 680.25 599.15 714.49 
1208 692.17 586.75 714.49 
1209 694.85 610.72 714.49 
1210 688.87 627.68 714.49 
1211 697.09 619.91 714.49 
1212 695.32 600.53 714.49 
1213 707.13 635.70 714.49 
1214 688.06 607.32 714.49 
1215 693.70 607.94 714.49 
1216 702.27 607.48 714.49 
1217 708.22 656.72 714.49 
1218 702.17 662.61 714.49 
1219 702.60 665.30 714.49 
1220 690.18 670.82 714.49 
1221 686.53 646.94 714.49 
1222 702.44 657.27 714.49 
1223 684.32 648.82 714.49 
1224 686.69 609.63 714.49 
1225 704.53 596.73 714.49 
1226 691.12 601.25 714.49 
1227 705.66 608.39 714.49 
1228 708.35 608.06 714.49 
1229 699.60 636.01 714.49 
1230 696.09 635.05 714.49 
1231 690.43 611.18 714.49 
1232 702.38 627.93 714.49 
1233 691.86 629.80 714.49 
1234 691.94 649.59 714.49 
1235 680.30 614.12 714.49 
1236 672.42 630.76 714.49 
1237 699.09 635.80 714.49 
1238 696.30 641.84 714.49 
1239 706.14 630.80 714.49 
1240 690.58 625.41 714.49 
1241 688.55 659.14 714.49 
1242 695.47 653.71 714.49 
1243 679.84 652.24 714.49 
1244 684.32 645.00 714.49 
1245 688.42 642.09 714.49 
1246 693.30 641.46 714.49 
1247 689.32 631.25 714.49 
1248 698.25 597.56 714.49 
1249 693.17 640.88 714.49 
1250 691.73 653.07 714.49 
1251 699.89 647.59 714.49 
1252 671.98 640.35 714.49 
1253 676.04 623.18 714.49 
1254 688.94 601.96 714.49 
1255 692.42 622.84 714.49 
1256 694.88 614.87 714.49 
1257 698.07 603.17 714.49 
1258 693.27 593.88 714.49 
1259 676.39 634.53 714.49 
1260 682.89 610.61 714.49 
1261 694.39 629.46 714.49 
1262 700.99 643.48 714.49 
1263 690.08 642.39 714.49 
1264 692.04 616.35 714.49 
1265 700.94 612.13 714.49 
1266 685.59 614.61 714.49 
1267 689.54 550.40 714.49 
1268 689.54 578.91 714.49 
1269 699.02 588.84 714.49 
1270 675.05 586.04 714.49 
1271 694.55 569.47 714.49 
1272 693.11 593.14 714.49 
1273 688.57 610.51 714.49 
1274 673.61 638.03 714.49 
1275 704.79 566.89 714.49 
1276 682.28 593.63 714.49 
1277 681.05 607.41 714.49 
1278 691.05 612.49 714.49 
1279 698.73 570.43 714.49 
1280 695.33 559.16 714.49 
1281 674.51 564.60 714.49 
1282 671.45 588.43 714.49 
1283 693.66 567.43 714.49 
1284 696.14 556.83 714.49 
1285 684.42 564.19 714.49 
1286 681.33 587.12 714.49 
1287 693.78 549.29 714.49 
1288 685.43 555.53 714.49 
1289 698.64 559.46 714.49 
1290 701.26 577.85 714.49 
1291 692.51 571.23 714.49 
1292 692.19 586.88 714.49 
1293 693.25 609.68 714.49 
1294 680.51 571.65 714.49 
1295 698.64 588.43 714.49 
1296 699.44 610.03 714.49 
1297 686.63 610.42 714.49 
1298 673.04 616.66 714.49 
1299 675.53 628.53 714.49 
1300 677.86 614.59 714.49 
1301 695.48 589.30 714.49 
1302 679.70 602.20 714.49 
1303 683.39 592.97 714.49 
1304 712.52 601.72 714.49 
1305 699.58 584.06 714.49 
1306 689.35 557.74 714.49 
1307 705.13 601.06 714.49 
1308 687.03 572.90 714.49 
1309 692.97 559.74 714.49 
1310 698.82 567.92 714.49 
1311 685.58 533.29 714.49 
1312 662.12 550.14 714.49 
1313 689.22 560.66 714.49 
1314 686.34 545.75 714.49 
1315 686.45 576.65 714.49 
1316 701.90 574.72 714.49 
1317 700.19 582.51 714.49 
1318 702.68 604.95 714.49 
1319 698.50 609.14 714.49 
1320 694.70 590.02 714.49 
1321 700.08 620.67 714.49 
1322 691.64 600.07 714.49 
1323 705.50 633.89 714.49 
1324 687.53 584.34 714.49 
1325 683.64 599.64 714.49 
1326 678.10 577.33 714.49 
1327 696.11 579.95 714.49 
1328 687.77 589.73 714.49 
1329 693.48 604.66 714.49 
1330 682.07 578.24 714.49 
1331 690.70 579.13 714.49 
1332 686.08 589.43 714.49 
1333 684.34 511.04 714.49 
1334 695.39 559.07 714.49 
1335 681.47 574.90 714.49 
1336 706.07 556.01 714.49 
1337 694.60 599.96 714.49 
1338 672.05 585.85 714.49 
1339 688.77 554.29 714.49 
1340 685.82 560.76 714.49 
1341 678.06 505.48 714.49 
1342 688.35 571.25 714.49 
1343 685.38 550.83 714.49 
1344 681.76 526.25 714.49 
1345 683.23 525.42 714.49 
1346 692.19 543.14 714.49 
1347 680.46 548.68 714.49 
1348 684.76 594.28 714.49 
1349 683.93 558.05 714.49 
1350 701.15 539.34 714.49 
1351 701.12 569.96 714.49 
1352 680.44 557.11 714.49 
1353 680.79 572.90 714.49 
1354 680.32 583.53 714.49 
1355 678.45 582.28 714.49 
1356 688.03 554.34 714.49 
1357 697.65 552.02 714.49 
1358 681.80 584.77 714.49 
1359 696.77 613.30 714.49 
1360 679.77 565.27 714.49 
1361 694.83 553.03 714.49 
1362 696.78 521.59 714.49 
1363 697.61 575.91 714.49 
1364 675.48 543.28 714.49 
1365 683.81 541.07 714.49 
1366 689.45 581.51 714.49 
1367 651.38 588.60 714.49 
1368 678.32 546.72 714.49 
1369 689.68 548.91 714.49 
1370 689.00 538.85 714.49 
1371 673.40 535.40 714.49 
1372 679.48 529.77 714.49 
1373 691.10 525.13 714.49 
1374 695.40 535.97 714.49 
1375 702.64 559.53 714.49 
1376 695.50 544.33 714.49 
1377 708.44 554.37 714.49 
1378 691.95 552.20 714.49 
1379 696.12 580.97 714.49 
1380 688.60 585.41 714.49 
1381 707.67 565.74 714.49 
1382 676.21 547.37 714.49 
1383 685.17 570.30 714.49 
1384 702.38 579.52 714.49 
1385 707.11 596.98 714.49 
1386 703.27 625.66 714.49 
1387 708.87 607.51 714.49 
1388 678.91 613.74 714.49 
1389 689.29 623.09 714.49 
1390 671.98 625.99 714.49 
1391 696.88 609.75 714.49 
1392 690.33 613.24 714.49 
1393 687.34 565.05 714.49 
1394 657.92 610.01 714.49 
1395 643.11 609.76 714.49 
1396 687.05 642.13 714.49 
1397 672.69 587.71 714.49 
1398 686.24 614.26 714.49 
1399 679.13 603.89 714.49 
1400 675.24 580.54 714.49 
1401 703.21 548.44 714.49 
1402 690.55 552.72 714.49 
1403 689.97 549.55 714.49 
1404 693.51 540.98 714.49 
1405 677.76 557.55 714.49 
1406 690.95 525.11 714.49 
1407 706.09 535.29 714.49 
1408 688.14 503.68 714.49 
1409 680.67 577.33 714.49 
1410 694.24 584.42 714.49 
1411 675.97 581.04 714.49 
1412 702.05 585.39 714.49 
1413 684.10 575.30 714.49 
1414 663.57 516.70 714.49 
1415 700.00 508.15 714.49 
1416 674.68 529.56 714.49 
1417 670.43 534.11 714.49 
1418 682.62 516.07 714.49 
1419 683.80 525.30 714.49 
1420 683.60 549.74 714.49 
1421 662.43 575.26 714.49 
1422 689.49 562.92 714.49 
1423 696.03 589.94 714.49 
1424 682.47 550.38 714.49 
1425 674.50 550.71 714.49 
1426 690.65 590.29 714.49 
1427 678.11 573.99 714.49 
1428 688.33 570.32 714.49 
1429 697.27 588.24 714.49 
1430 683.39 560.02 714.49 
1431 682.72 545.86 714.49 
1432 679.25 578.53 714.49 
1433 676.42 590.39 714.49 
1434 684.95 590.19 714.49 
1435 690.93 554.65 714.49 
1436 693.32 551.76 714.49 
1437 694.86 526.56 714.49 
1438 692.06 565.64 714.49 
1439 698.05 563.24 714.49 
1440 703.57 588.68 714.49 
1441 685.88 585.76 714.49 
1442 668.48 548.16 714.49 
1443 682.16 534.27 714.49 
1444 679.68 582.32 714.49 
1445 672.12 536.98 714.49 
1446 676.34 513.21 714.49 
1447 685.85 507.44 714.49 
1448 674.90 490.86 714.49 
1449 677.70 495.40 714.49 
1450 689.26 530.45 714.49 
1451 675.35 543.67 714.49 
1452 675.38 513.86 714.49 
1453 670.99 509.01 714.49 
1454 686.57 496.77 714.49 
1455 666.37 517.74 714.49 
1456 678.76 474.33 714.49 
1457 687.67 451.84 714.49 
1458 683.76 464.97 714.49 
1459 680.46 480.70 714.49 
1460 676.48 481.30 714.49 
1461 700.52 499.14 714.49 
1462 689.49 504.41 714.49 
1463 667.96 499.45 714.49 
1464 677.20 472.38 714.49 
1465 699.00 472.07 714.49 
1466 673.94 518.80 714.49 
1467 682.96 529.58 714.49 
1468 693.85 564.61 714.49 
1469 681.09 517.45 714.49 
1470 670.20 498.95 714.49 
1471 691.34 532.66 714.49 
1472 693.59 502.24 714.49 
1473 679.06 508.47 714.49 
1474 678.86 517.76 714.49 
1475 688.85 503.87 714.49 
1476 691.31 534.98 714.49 
1477 649.74 516.99 714.49 
1478 676.96 476.90 714.49 
1479 688.27 515.42 714.49 
1480 682.97 569.80 714.49 
1481 672.49 590.35 714.49 
1482 659.37 615.43 714.49 
1483 675.22 619.81 714.49 
1484 681.01 584.27 714.49 
1485 677.54 556.61 714.49 
1486 689.52 561.61 714.49 
1487 698.82 558.39 714.49 
1488 695.83 548.02 714.49 
1489 690.55 587.87 714.49 
1490 701.08 583.17 714.49 
1491 676.65 558.18 714.49 
1492 678.41 564.69 714.49 
1493 695.28 561.00 714.49 
1494 674.90 549.10 714.49 
1495 689.83 552.99 714.49 
1496 685.23 574.25 714.49 
1497 696.17 538.25 714.49 
1498 693.35 535.82 714.49 
1499 704.18 533.97 714.49 
1500 678.24 517.03 714.49 
1501 679.16 508.10 714.49 
1502 698.15 537.92 714.49 
1503 688.57 563.63 714.49 
1504 690.30 566.93 714.49 
1505 695.21 548.42 714.49 
1506 708.82 556.04 714.49 
1507 674.46 506.25 714.49 
1508 700.08 531.94 714.49 
1509 681.90 536.28 714.49 
1510 690.44 558.69 714.49 
1511 679.41 581.86 714.49 
1512 700.21 597.97 714.49 
1513 698.39 597.16 714.49 
1514 686.45 554.86 714.49 
1515 695.83 561.21 714.49 
1516 692.45 597.24 714.49 
1517 702.18 586.74 714.49 
1518 699.13 605.83 714.49 
1519 683.28 614.71 714.49 
1520 687.75 577.99 714.49 
1521 694.61 584.35 714.49 
1522 699.94 602.90 714.49 
1523 688.92 605.73 714.49 
1524 657.10 569.98 714.49 
1525 678.53 552.34 714.49 
1526 696.60 542.32 714.49 
1527 682.07 539.31 714.49 
1528 682.49 534.09 714.49 
1529 684.56 546.00 714.49 
1530 686.09 549.55 714.49 
1531 692.33 528.71 714.49 
1532 669.71 525.99 714.49 
1533 689.08 536.10 714.49 
1534 692.19 546.80 714.49 
1535 690.93 552.06 714.49 
1536 706.77 550.25 714.49 
1537 694.75 530.42 714.49 
1538 696.62 527.62 714.49 
1539 693.26 510.08 714.49 
1540 700.35 509.65 714.49 
1541 691.71 543.15 714.49 
1542 683.10 584.23 714.49 
1543 672.44 548.17 714.49 
1544 692.15 570.44 714.49 
1545 690.80 589.18 714.49 
1546 693.89 567.20 714.49 
1547 688.19 567.73 714.49 
1548 690.04 556.58 714.49 
1549 684.48 603.08 714.49 
1550 686.80 587.26 714.49 
1551 687.23 588.32 714.49 
1552 692.96 571.65 714.49 
1553 692.34 578.13 714.49 
1554 694.26 599.31 714.49 
1555 703.26 609.76 714.49 
1556 698.45 587.39 714.49 
1557 694.89 598.94 714.49 
1558 689.65 600.52 714.49 
1559 675.38 598.35 714.49 
1560 698.79 597.56 714.49 
1561 678.79 560.14 714.49 
1562 698.45 546.52 714.49 
1563 693.04 545.60 714.49 
1564 696.24 560.63 714.49 
1565 696.40 552.91 714.49 
1566 707.37 556.42 714.49 
1567 692.88 525.78 714.49 
1568 689.04 551.24 714.49 
1569 683.95 543.91 714.49 
1570 673.88 546.11 714.49 
1571 675.14 532.21 714.49 
1572 694.96 537.58 714.49 
1573 691.56 499.39 714.49 
1574 697.41 507.94 714.49 
1575 694.29 546.82 714.49 
1576 701.86 576.64 714.49 
1577 695.97 594.97 714.49 
1578 700.48 550.82 714.49 
1579 706.21 556.63 714.49 
1580 705.32 557.49 714.49 
1581 696.82 570.68 714.49 
1582 695.46 580.03 714.49 
1583 695.21 622.04 714.49 
1584 699.37 580.11 714.49 
1585 679.78 599.30 714.49 
1586 711.24 601.55 714.49 
1587 691.64 628.68 714.49 
1588 678.47 616.03 714.49 
1589 684.35 613.11 714.49 
1590 660.31 590.16 714.49 
1591 697.71 588.31 714.49 
1592 695.75 624.89 714.49 
1593 695.59 605.67 714.49 
1594 683.34 544.37 714.49 
1595 690.25 547.17 714.49 
1596 704.85 544.43 714.49 
1597 709.03 533.61 714.49 
1598 684.85 589.32 714.49 
1599 700.04 545.00 714.49 
1600 681.61 577.20 714.49 
1601 699.23 587.23 714.49 
1602 706.17 569.21 714.49 
1603 704.10 626.11 714.49 
1604 697.15 605.35 714.49 
1605 692.88 601.28 714.49 
1606 691.00 594.58 714.49 
1607 702.21 571.09 714.49 
1608 699.41 599.74 714.49 
1609 696.69 637.31 714.49 
1610 697.30 672.65 714.49 
1611 687.04 629.18 714.49 
1612 679.79 607.06 714.49 
1613 706.01 585.69 714.49 
1614 694.35 597.58 714.49 
1615 684.96 618.04 714.49 
1616 695.77 593.37 714.49 
1617 695.06 600.44 714.49 
1618 697.48 577.39 714.49 
1619 691.82 570.87 714.49 
1620 678.69 566.14 714.49 
1621 701.19 565.40 714.49 
1622 689.04 557.95 714.49 
1623 691.91 542.80 714.49 
1624 684.47 579.45 714.49 
1625 701.49 556.01 714.49 
1626 679.97 536.67 714.49 
1627 703.39 551.48 714.49 
1628 689.06 558.31 714.49 
1629 685.21 557.62 714.49 
1630 706.74 560.81 714.49 
1631 690.91 523.97 714.49 
1632 684.18 533.34 714.49 
1633 701.75 529.47 714.49 
1634 706.16 553.54 714.49 
1635 703.74 557.93 714.49 
1636 689.44 540.93 714.49 
1637 691.09 552.78 714.49 
1638 700.40 571.52 714.49 
1639 680.76 526.39 714.49 
1640 697.60 546.67 714.49 
1641 693.94 559.83 714.49 
1642 683.01 549.78 714.49 
1643 699.60 567.68 714.49 
1644 687.20 594.59 714.49 
1645 700.03 584.59 714.49 
1646 700.46 578.51 714.49 
1647 680.12 575.65 714.49 
1648 700.87 551.71 714.49 
1649 687.45 535.20 714.49 
1650 684.77 556.85 714.49 
1651 694.21 548.45 714.49 
1652 694.54 541.06 714.49 
1653 687.31 562.33 714.49 
1654 701.89 575.25 714.49 
1655 677.36 571.23 714.49 
1656 682.04 602.78 714.49 
1657 685.59 597.77 714.49 
1658 686.77 610.89 714.49 
1659 684.17 590.43 714.49 
1660 704.13 625.38 714.49 
1661 673.03 631.07 714.49 
1662 671.07 613.96 714.49 
1663 685.73 617.73 714.49 
1664 670.86 586.82 714.49 
1665 674.93 598.14 714.49 
1666 689.61 608.70 714.49 
1667 684.97 600.37 714.49 
1668 699.08 618.29 714.49 
1669 693.87 606.31 714.49 
1670 691.06 619.00 714.49 
1671 665.80 625.86 714.49 
1672 674.99 608.44 714.49 
1673 680.21 575.02 714.49 
1674 689.78 573.85 714.49 
1675 691.82 583.65 714.49 
1676 688.36 593.51 714.49 
1677 681.87 608.26 714.49 
1678 697.50 593.74 714.49 
1679 685.36 595.38 714.49 
1680 703.10 580.39 714.49 
1681 699.10 574.35 714.49 
1682 681.65 588.78 714.49 
1683 698.16 618.17 714.49 
1684 678.40 600.90 714.49 
1685 682.36 581.12 714.49 
1686 705.01 586.45 714.49 
1687 683.84 619.17 714.49 
1688 691.51 593.62 714.49 
1689 704.12 644.14 714.49 
1690 685.40 635.16 714.49 
1691 689.64 625.97 714.49 
1692 693.94 598.39 714.49 
1693 684.15 597.53 714.49 
1694 686.73 600.82 714.49 
1695 687.09 599.62 714.49 
1696 658.89 581.18 714.49 
1697 680.81 586.91 714.49 
1698 693.40 572.58 714.49 
1699 701.71 603.34 714.49 
1700 698.15 612.82 714.49 
1701 674.40 604.43 714.49 
1702 679.28 590.18 714.49 
1703 667.29 553.54 714.49 
1704 686.64 597.69 714.49 
1705 689.78 598.29 714.49 
1706 685.94 580.68 714.49 
1707 692.95 592.86 714.49 
1708 693.45 601.42 714.49 
1709 693.20 588.95 714.49 
1710 692.39 610.59 714.49 
1711 683.24 607.67 714.49 
1712 679.61 619.25 714.49 
1713 682.68 621.91 714.49 
1714 689.38 642.99 714.49 
1715 699.06 648.28 714.49 
1716 684.95 639.05 714.49 
1717 691.95 624.56 714.49 
1718 693.81 616.16 714.49 
1719 690.67 637.76 714.49 
1720 704.85 609.59 714.49 
1721 665.31 593.25 714.49 
1722 675.92 621.95 714.49 
1723 669.44 607.23 714.49 
1724 674.77 554.82 714.49 
1725 692.29 590.17 714.49 
1726 676.41 619.76 714.49 
1727 672.29 582.73 714.49 
1728 681.90 600.57 714.49 
1729 699.88 610.52 714.49 
1730 694.55 602.73 714.49 
1731 677.18 591.66 714.49 
1732 696.98 594.16 714.49 
1733 706.67 604.39 714.49 
1734 684.06 601.42 714.49 
1735 696.89 605.82 714.49 
1736 690.80 568.32 714.49 
1737 693.80 535.86 714.49 
1738 704.61 561.68 714.49 
1739 684.81 537.80 714.49 
1740 691.50 550.39 714.49 
1741 689.89 575.98 714.49 
1742 701.35 557.10 714.49 
1743 683.99 526.59 714.49 
1744 694.58 582.59 714.49 
1745 697.15 582.70 714.49 
1746 696.96 599.45 714.49 
1747 685.02 599.81 714.49 
1748 681.77 581.80 714.49 
1749 684.87 565.95 714.49 
1750 680.45 522.37 714.49 
1751 676.40 528.20 714.49 
1752 702.16 529.50 714.49 
1753 667.88 537.58 714.49 
1754 683.39 559.46 714.49 
1755 675.67 562.74 714.49 
1756 685.44 597.18 714.49 
1757 695.67 587.80 714.49 
1758 675.71 591.81 714.49 
1759 691.46 589.46 714.49 
1760 677.95 586.48 714.49 
1761 674.92 546.52 714.49 
1762 684.01 579.32 714.49 
1763 687.91 533.48 714.49 
1764 699.30 563.84 714.49 
1765 691.38 541.94 714.49 
1766 698.70 527.77 714.49 
1767 682.54 535.06 714.49 
1768 689.63 529.09 714.49 
1769 687.68 549.87 714.49 
1770 695.47 531.30 714.49 
1771 704.18 535.22 714.49 
1772 697.97 552.45 714.49 
1773 690.41 541.78 714.49 
1774 692.39 557.49 714.49 
1775 677.49 577.67 714.49 
1776 699.81 562.95 714.49 
1777 692.30 565.93 714.49 
1778 704.59 612.07 714.49 
1779 699.21 609.36 714.49 
1780 710.45 619.99 714.49 
1781 695.78 635.55 714.49 
1782 706.18 618.99 714.49 
1783 684.65 583.59 714.49 
1784 701.85 640.93 714.49 
1785 680.90 610.85 714.49 
1786 684.37 606.91 714.49 
1787 695.81 597.34 714.49 
1788 705.82 602.23 714.49 
1789 695.18 607.43 714.49 
1790 696.73 610.13 714.49 
1791 694.31 576.98 714.49 
1792 683.97 583.65 714.49 
1793 686.32 581.10 714.49 
1794 698.90 606.43 714.49 
1795 689.42 597.28 714.49 
1796 707.45 603.58 714.49 
1797 675.23 581.73 714.49 
1798 690.72 579.30 714.49 
1799 678.96 574.81 714.49 
1800 682.64 577.81 714.49 
1801 702.95 612.27 714.49 
1802 696.19 587.35 714.49 
1803 689.58 577.32 714.49 
1804 692.55 587.88 714.49 
1805 672.93 586.67 714.49 
1806 702.84 594.37 714.49 
1807 693.19 584.91 714.49 
1808 691.28 565.05 714.49 
1809 695.61 567.48 714.49 
1810 690.42 601.87 714.49 
1811 701.29 597.49 714.49 
1812 684.89 590.94 714.49 
1813 699.31 583.68 714.49 
1814 703.50 629.03 714.49 
1815 715.32 599.28 714.49 
1816 707.40 591.71 715.32 
1817 706.80 596.95 715.32 
1818 688.28 567.32 715.32 
1819 707.99 582.93 715.32 
1820 704.94 580.88 715.32 
1821 694.35 588.74 715.32 
1822 699.27 561.21 715.32 
1823 697.29 577.33 715.32 
1824 705.55 599.07 715.32 
1825 698.65 574.11 715.32 
1826 702.27 597.83 715.32 
1827 688.54 616.17 715.32 
1828 689.79 599.08 715.32 
1829 690.43 600.14 715.32 
1830 688.96 578.20 715.32 
1831 698.49 588.72 715.32 
1832 693.12 607.79 715.32 
1833 705.34 598.57 715.32 
1834 700.23 596.67 715.32 
1835 704.30 619.51 715.32 
1836 702.80 595.07 715.32 
1837 696.30 607.77 715.32 
1838 703.21 615.44 715.32 
1839 698.34 623.34 715.32 
1840 703.90 615.04 715.32 
1841 696.02 631.03 715.32 
1842 697.05 623.47 715.32 
1843 705.11 611.85 715.32 
1844 705.44 589.97 715.32 
1845 693.50 567.21 715.32 
1846 691.69 586.43 715.32 
1847 703.59 600.26 715.32 
1848 694.97 575.64 715.32 
1849 702.83 590.35 715.32 
1850 690.92 593.60 715.32 
1851 693.00 623.19 715.32 
1852 683.35 619.56 715.32 
1853 694.60 624.40 715.32 
1854 697.10 621.59 715.32 
1855 698.07 606.13 715.32 
1856 688.37 630.97 715.32 
1857 701.92 628.46 715.32 
1858 682.32 632.56 715.32 
1859 699.89 641.65 715.32 
1860 678.18 629.74 715.32 
1861 676.83 623.03 715.32 
1862 682.47 623.56 715.32 
1863 686.53 610.62 715.32 
1864 685.70 615.55 715.32 
1865 690.79 615.41 715.32 
1866 684.60 601.55 715.32 
1867 686.00 604.82 715.32 
1868 697.53 594.39 715.32 
1869 672.58 589.42 715.32 
1870 698.91 576.27 715.32 
1871 699.03 571.99 715.32 
1872 687.99 571.04 715.32 
1873 703.24 566.48 715.32 
1874 699.78 542.41 715.32 
1875 692.45 544.24 715.32 
1876 695.38 572.88 715.32 
1877 696.41 590.79 715.32 
1878 699.86 582.66 715.32 
1879 702.93 573.55 715.32 
1880 703.46 576.77 715.32 
1881 692.90 583.76 715.32 
1882 693.71 557.62 715.32 
1883 702.46 563.29 715.32 
1884 692.05 553.38 715.32 
1885 713.33 563.44 715.32 
1886 705.77 581.72 715.32 
1887 704.75 588.80 715.32 
1888 712.53 567.77 715.32 
1889 681.96 542.04 715.32 
1890 692.59 531.70 715.32 
1891 679.68 564.89 715.32 
1892 698.56 531.68 715.32 
1893 696.15 533.57 715.32 
1894 698.15 537.25 715.32 
1895 703.07 529.80 715.32 
1896 704.90 544.45 715.32 
1897 692.27 522.58 715.32 
1898 710.76 549.81 715.32 
1899 683.10 568.39 715.32 
1900 695.34 562.13 715.32 
1901 704.49 577.39 715.32 
1902 699.56 579.21 715.32 
1903 690.95 612.89 715.32 
1904 701.72 582.12 715.32 
1905 701.47 600.58 715.32 
1906 688.23 592.67 715.32 
1907 696.66 612.35 715.32 
1908 704.86 632.65 715.32 
1909 688.87 612.50 715.32 
1910 684.83 631.43 715.32 
1911 697.44 606.39 715.32 
1912 691.13 595.19 715.32 
1913 701.45 596.63 715.32 
1914 701.93 630.83 715.32 
1915 700.93 581.80 715.32 
1916 692.94 540.29 715.32 
1917 697.91 566.10 715.32 
1918 686.49 611.53 715.32 
1919 708.74 573.48 715.32 
1920 696.61 575.55 715.32 
1921 685.26 575.00 715.32 
1922 696.93 571.68 715.32 
1923 700.48 562.76 715.32 
1924 703.61 562.83 715.32 
1925 708.70 606.55 715.32 
1926 682.69 614.07 715.32 
1927 697.57 628.07 715.32 
1928 697.39 615.01 715.32 
1929 690.31 583.46 715.32 
1930 702.41 585.73 715.32 
1931 682.52 577.02 715.32 
1932 701.58 618.23 715.32 
1933 688.15 618.24 715.32 
1934 703.59 610.47 715.32 
1935 681.30 581.54 715.32 
1936 689.91 584.25 715.32 
1937 691.58 561.73 715.32 
1938 694.76 557.24 715.32 
1939 696.17 567.99 715.32 
1940 698.50 564.40 715.32 
1941 700.16 604.50 715.32 
1942 703.02 603.14 715.32 
1943 690.24 581.71 715.32 
1944 701.52 589.38 715.32 
1945 692.88 550.09 715.32 
1946 710.91 582.49 715.32 
1947 687.54 580.64 715.32 
1948 710.89 585.13 715.32 
1949 700.04 560.84 715.32 
1950 704.92 542.29 715.32 
1951 694.25 536.95 715.32 
1952 685.23 533.05 715.32 
1953 695.94 545.58 715.32 
1954 700.79 554.79 715.32 
1955 678.10 520.76 715.32 
1956 691.98 559.21 715.32 
1957 690.39 592.13 715.32 
1958 693.82 579.67 715.32 
1959 687.55 612.91 715.32 
1960 686.34 605.32 715.32 
1961 692.03 619.65 715.32 
1962 687.88 639.52 715.32 
1963 693.28 605.18 715.32 
1964 700.60 609.07 715.32 
1965 703.78 625.24 715.32 
1966 686.41 609.99 715.32 
1967 681.52 617.22 715.32 
1968 692.82 597.90 715.32 
1969 704.35 590.34 715.32 
1970 690.55 565.41 715.32 
1971 685.23 544.15 715.32 
1972 675.40 565.52 715.32 
1973 698.30 536.89 715.32 
1974 685.48 562.84 715.32 
1975 689.79 520.38 715.32 
1976 683.71 531.94 715.32 
1977 686.84 564.82 715.32 
1978 695.64 581.43 715.32 
1979 685.15 621.04 715.32 
1980 703.07 602.37 715.32 
1981 690.65 605.38 715.32 
1982 693.33 613.75 715.32 
1983 662.17 592.33 715.32 
1984 685.54 603.82 715.32 
1985 688.42 590.31 715.32 
1986 697.01 587.34 715.32 
1987 701.60 605.29 715.32 
1988 700.87 598.79 715.32 
1989 688.52 608.87 715.32 
1990 683.19 580.47 715.32 
1991 695.98 592.49 715.32 
1992 689.90 597.10 715.32 
1993 699.14 615.54 715.32 
1994 705.30 600.01 715.32 
1995 676.48 574.33 715.32 
1996 692.20 555.23 715.32 
1997 690.07 574.56 715.32 
1998 703.43 592.18 715.32 
1999 701.76 608.76 715.32 
2000 689.71 594.70 715.32 
2001 701.69 595.86 715.32 
2002 697.36 596.21 715.32 
2003 688.43 576.74 715.32 
2004 698.46 597.39 715.32 
2005 698.65 603.11 715.32 
2006 704.77 611.53 715.32 
2007 691.44 615.11 715.32 
2008 691.43 609.67 715.32 
2009 690.04 604.39 715.32 
2010 710.76 620.61 715.32 
2011 692.09 620.29 715.32 
2012 672.51 620.41 715.32 
2013 681.66 613.22 715.32 
2014 704.89 595.88 715.32 
2015 692.09 622.60 715.32 
2016 692.48 600.29 715.32 
2017 701.96 611.74 715.32 
2018 701.35 602.37 715.32 
2019 687.03 562.32 715.32 
2020 694.04 572.07 715.32 
2021 693.70 567.19 715.32 
2022 705.41 581.30 715.32 
2023 695.55 587.67 715.32 
2024 691.62 591.05 715.32 
2025 700.19 593.74 715.32 
2026 697.78 606.98 715.32 
2027 698.62 576.27 715.32 
2028 707.85 569.12 715.32 
2029 711.23 579.46 715.32 
2030 699.92 577.50 715.32 
2031 681.22 555.51 715.32 
2032 690.53 600.91 715.32 
2033 705.48 591.95 715.32 
2034 701.04 561.20 715.32 
2035 697.24 575.50 715.32 
2036 698.10 573.88 715.32 
2037 693.47 573.46 715.32 
2038 695.31 592.72 715.32 
2039 683.15 597.73 715.32 
2040 688.56 623.90 715.32 
2041 705.69 636.94 715.32 
2042 694.61 611.45 715.32 
2043 699.30 672.76 715.32 
2044 702.23 660.83 715.32 
2045 696.33 655.27 715.32 
2046 681.30 681.60 715.32 
2047 704.65 656.05 715.32 
2048 684.21 661.85 715.32 
2049 676.34 676.99 715.32 
2050 679.95 640.94 715.32 
2051 686.09 626.98 715.32 
2052 688.87 641.32 715.32 
2053 690.92 597.86 715.32 
2054 699.98 623.79 715.32 
2055 699.90 647.79 715.32 
2056 697.86 666.47 715.32 
2057 693.60 682.72 715.32 
2058 690.87 666.99 715.32 
2059 702.48 671.25 715.32 
2060 703.07 674.17 715.32 
2061 682.48 618.74 715.32 
2062 703.18 637.06 715.32 
2063 697.92 631.07 715.32 
2064 700.89 604.18 715.32 
2065 696.12 591.97 715.32 
2066 699.84 624.40 715.32 
2067 698.86 616.51 715.32 
2068 695.29 584.86 715.32 
2069 700.26 587.06 715.32 
2070 696.87 540.93 715.32 
2071 694.36 557.11 715.32 
2072 701.34 571.03 715.32 
2073 695.38 583.81 715.32 
2074 684.68 595.46 715.32 
2075 692.26 572.23 715.32 
2076 692.52 607.62 715.32 
2077 692.76 605.56 715.32 
2078 703.88 622.51 715.32 
2079 695.45 634.27 715.32 
2080 691.78 590.01 715.32 
2081 687.46 584.20 715.32 
2082 701.99 588.50 715.32 
2083 698.57 601.61 715.32 
2084 687.80 592.37 715.32 
2085 704.93 650.52 715.32 
2086 706.55 645.74 715.32 
2087 688.07 638.77 715.32 
2088 692.59 642.01 715.32 
2089 681.60 644.62 715.32 
2090 699.06 660.63 715.32 
2091 684.90 641.30 715.32 
2092 696.62 632.49 715.32 
2093 688.74 658.22 715.32 
2094 706.95 657.49 715.32 
2095 699.63 622.18 715.32 
2096 698.69 636.31 715.32 
2097 671.11 669.11 715.32 
2098 692.06 659.64 715.32 
2099 667.27 607.76 715.32 
2100 702.75 598.41 715.32 
2101 669.87 605.76 715.32 
2102 686.54 649.01 715.32 
2103 669.93 624.67 715.32 
2104 702.78 614.99 715.32 
2105 706.70 627.67 715.32 
2106 686.32 615.54 715.32 
2107 703.01 608.26 715.32 
2108 694.08 612.20 715.32 
2109 698.54 618.66 715.32 
2110 686.15 628.26 715.32 
2111 684.24 657.83 715.32 
2112 689.14 665.18 715.32 
2113 695.63 662.50 715.32 
2114 697.35 673.53 715.32 
2115 686.38 659.87 715.32 
2116 688.62 619.08 715.32 
2117 690.94 639.48 715.32 
2118 695.02 606.99 715.32 
2119 701.06 674.68 715.32 
2120 681.82 650.73 715.32 
2121 699.95 667.47 715.32 
2122 686.51 671.79 715.32 
2123 700.27 629.21 715.32 
2124 678.50 652.08 715.32 
2125 669.48 658.32 715.32 
2126 647.48 609.64 715.32 
2127 678.00 605.05 715.32 
2128 686.13 623.57 715.32 
2129 684.89 563.66 715.32 
2130 681.91 617.32 715.32 
2131 663.78 633.13 715.32 
2132 676.74 616.78 715.32 
2133 677.90 614.58 715.32 
2134 691.52 623.57 715.32 
2135 686.51 612.19 715.32 
2136 687.89 613.56 715.32 
2137 689.66 606.41 715.32 
2138 688.42 599.39 715.32 
2139 677.98 592.81 715.32 
2140 706.82 610.50 715.32 
2141 704.76 646.53 715.32 
2142 698.37 631.79 715.32 
2143 682.85 609.19 715.32 
2144 679.04 624.30 715.32 
2145 686.23 615.75 715.32 
2146 680.89 618.07 715.32 
2147 695.22 571.16 715.32 
2148 681.52 633.15 715.32 
2149 681.90 595.91 715.32 
2150 699.70 617.73 715.32 
2151 701.31 631.28 715.32 
2152 693.16 627.27 715.32 
2153 679.56 624.74 715.32 
2154 689.04 609.60 715.32 
2155 690.77 595.17 715.32 
2156 688.39 596.23 715.32 
2157 690.42 622.82 715.32 
2158 682.59 583.08 715.32 
2159 672.99 542.41 715.32 
2160 674.65 596.92 715.32 
2161 694.44 631.21 715.32 
2162 684.42 638.09 715.32 
2163 706.52 620.84 715.32 
2164 694.74 608.16 715.32 
2165 690.77 624.94 715.32 
2166 688.58 639.35 715.32 
2167 688.20 622.55 715.32 
2168 684.35 623.24 715.32 
2169 694.62 603.15 715.32 
2170 703.25 627.12 715.32 
2171 687.97 643.48 715.32 
2172 688.94 629.14 715.32 
2173 696.78 643.14 715.32 
2174 692.44 633.80 715.32 
2175 699.49 645.06 715.32 
2176 705.09 661.98 715.32 
2177 698.18 642.42 715.32 
2178 695.63 638.20 715.32 
2179 709.05 625.04 715.32 
2180 704.26 623.80 715.32 
2181 699.68 629.62 715.32 
2182 689.18 606.04 715.32 
2183 698.39 669.46 715.32 
2184 703.03 662.09 715.32 
2185 700.22 648.17 715.32 
2186 690.24 652.72 715.32 
2187 695.38 656.28 715.32 
2188 694.41 628.43 715.32 
2189 693.74 620.82 715.32 
2190 705.54 614.83 715.32 
2191 705.95 627.71 715.32 
2192 679.99 587.49 715.32 
2193 680.68 577.83 715.32 
2194 686.87 616.93 715.32 
2195 690.61 600.17 715.32 
2196 691.64 643.17 715.32 
2197 682.96 603.01 715.32 
2198 701.09 643.68 715.32 
2199 675.41 645.85 715.32 
2200 684.84 652.36 715.32 
2201 683.84 621.24 715.32 
2202 669.64 597.03 715.32 
2203 700.98 633.85 715.32 
2204 695.93 605.72 715.32 
2205 685.11 576.61 715.32 
2206 694.33 580.23 715.32 
2207 680.74 592.62 715.32 
2208 691.47 597.94 715.32 
2209 685.99 569.20 715.32 
2210 696.21 589.05 715.32 
2211 682.33 622.57 715.32 
2212 698.88 627.24 715.32 
2213 697.78 623.27 715.32 
2214 695.66 613.60 715.32 
2215 683.22 578.94 715.32 
2216 703.73 592.18 715.32 
2217 684.45 601.63 715.32 
2218 699.49 588.54 715.32 
2219 699.82 575.76 715.32 
2220 681.79 583.12 715.32 
2221 694.04 568.55 715.32 
2222 704.69 568.47 715.32 
2223 698.49 572.16 715.32 
2224 696.09 564.44 715.32 
2225 706.52 544.55 715.32 
2226 704.58 564.38 715.32 
2227 705.74 564.98 715.32 
2228 694.30 583.37 715.32 
2229 703.72 571.53 715.32 
2230 702.37 598.21 715.32 
2231 697.73 584.06 715.32 
2232 696.49 604.96 715.32 
2233 686.40 597.05 715.32 
2234 677.31 571.30 715.32 
2235 683.49 548.88 715.32 
2236 695.13 602.36 715.32 
2237 705.51 587.36 715.32 
2238 678.88 597.73 715.32 
2239 700.02 600.29 715.32 
2240 686.21 597.20 715.32 
2241 698.30 568.31 715.32 
2242 697.83 550.89 715.32 
2243 708.22 590.70 715.32 
2244 692.83 601.78 715.32 
2245 692.44 551.94 715.32 
2246 680.05 579.37 715.32 
2247 668.08 578.17 715.32 
2248 694.54 550.82 715.32 
2249 693.04 548.14 715.32 
2250 688.36 567.00 715.32 
2251 692.06 547.97 715.32 
2252 687.30 569.60 715.32 
2253 710.00 567.33 715.32 
2254 703.56 555.69 715.32 
2255 699.63 573.19 715.32 
2256 690.54 525.14 715.32 
2257 690.81 551.65 715.32 
2258 690.20 592.46 715.32 
2259 686.72 592.25 715.32 
2260 681.75 608.41 715.32 
2261 691.73 571.81 715.32 
2262 704.78 625.49 715.32 
2263 702.89 647.88 715.32 
2264 696.29 621.97 715.32 
2265 684.08 588.23 715.32 
2266 696.28 557.74 715.32 
2267 696.52 548.62 715.32 
2268 700.75 563.65 715.32 
2269 702.99 560.66 715.32 
2270 687.19 567.01 715.32 
2271 694.10 571.20 715.32 
2272 702.96 601.33 715.32 
2273 679.67 603.85 715.32 
2274 703.32 594.28 715.32 
2275 704.43 642.08 715.32 
2276 692.70 612.29 715.32 
2277 694.79 596.70 715.32 
2278 693.58 588.53 715.32 
2279 691.38 598.40 715.32 
2280 700.58 639.66 715.32 
2281 699.27 632.25 715.32 
2282 692.60 635.47 715.32 
2283 688.45 645.47 715.32 
2284 694.00 620.73 715.32 
2285 701.44 619.25 715.32 
2286 699.38 613.92 715.32 
2287 699.15 623.71 715.32 
2288 687.92 628.65 715.32 
2289 704.87 612.70 715.32 
2290 687.22 623.41 715.32 
2291 703.05 622.60 715.32 
2292 695.13 613.42 715.32 
2293 693.65 614.12 715.32 
2294 684.42 603.14 715.32 
2295 687.16 603.57 715.32 
2296 696.28 586.55 715.32 
2297 695.56 576.46 715.32 
2298 684.65 581.35 715.32 
2299 699.74 606.97 715.32 
2300 693.77 581.52 715.32 
2301 685.27 577.86 715.32 
2302 682.58 566.11 715.32 
2303 689.20 555.21 715.32 
2304 698.43 542.17 715.32 
2305 692.58 537.87 715.32 
2306 693.14 535.16 715.32 
2307 697.30 529.38 715.32 
2308 702.58 501.23 715.32 
2309 696.48 533.22 715.32 
2310 699.10 548.24 715.32 
2311 694.90 535.01 715.32 
2312 695.69 533.07 715.32 
2313 700.65 527.67 715.32 
2314 700.77 536.59 715.32 
2315 695.39 550.56 715.32 
2316 682.38 558.30 715.32 
2317 691.48 574.26 715.32 
2318 682.08 566.34 715.32 
2319 696.50 550.77 715.32 
2320 697.67 554.39 715.32 
2321 692.02 571.98 715.32 
2322 681.67 543.82 715.32 
2323 705.88 559.35 715.32 
2324 696.81 565.41 715.32 
2325 693.48 559.08 715.32 
2326 689.29 564.82 715.32 
2327 690.40 561.83 715.32 
2328 677.57 589.03 715.32 
2329 681.43 564.36 715.32 
2330 687.49 539.95 715.32 
2331 692.04 565.73 715.32 
2332 681.60 590.99 715.32 
2333 686.84 573.42 715.32 
2334 691.14 633.15 715.32 
2335 710.20 657.45 715.32 
2336 695.62 655.04 715.32 
2337 689.80 641.17 715.32 
2338 687.63 605.66 715.32 
2339 675.72 610.51 715.32 
2340 688.14 608.01 715.32 
2341 690.63 634.48 715.32 
2342 685.98 596.20 715.32 
2343 691.62 629.68 715.32 
2344 679.16 639.34 715.32 
2345 682.63 592.16 715.32 
2346 702.84 605.65 715.32 
2347 684.56 574.52 715.32 
2348 698.37 605.72 715.32 
2349 696.15 583.59 715.32 
2350 700.44 611.11 715.32 
2351 702.20 617.65 715.32 
2352 698.75 644.53 715.32 
2353 696.67 617.21 715.32 
2354 670.39 620.92 715.32 
2355 692.70 615.47 715.32 
2356 695.84 628.67 715.32 
2357 693.99 604.19 715.32 
2358 702.28 598.01 715.32 
2359 693.59 596.50 715.32 
2360 699.44 624.70 715.32 
2361 688.37 627.33 715.32 
2362 695.13 622.48 715.32 
2363 706.93 623.87 715.32 
2364 696.68 607.17 715.32 
2365 699.18 633.78 715.32 
2366 699.90 641.91 715.32 
2367 694.57 615.51 715.32 
2368 699.87 626.77 715.32 
2369 698.90 671.52 715.32 
2370 700.41 627.96 715.32 
2371 687.52 619.70 715.32 
2372 695.21 612.29 715.32 
2373 689.41 585.33 715.32 
2374 688.94 615.80 715.32 
2375 703.69 591.65 715.32 
2376 707.52 607.32 715.32 
2377 708.58 617.66 715.32 
2378 701.78 613.43 715.32 
2379 693.96 614.42 715.32 
2380 695.31 621.71 715.32 
2381 696.39 607.55 715.32 
2382 689.55 604.18 715.32 
2383 699.44 584.73 715.32 
2384 710.87 569.62 715.32 
2385 699.27 553.80 715.32 
2386 693.43 574.12 715.32 
2387 698.52 568.70 715.32 
2388 691.47 569.32 715.32 
2389 705.77 604.29 715.32 
2390 696.06 622.31 715.32 
2391 698.53 597.33 715.32 
2392 703.13 603.21 715.32 
2393 706.57 599.36 715.32 
2394 705.90 578.86 715.32 
2395 693.31 547.56 715.32 
2396 703.48 559.09 715.32 
2397 688.35 563.99 715.32 
2398 693.09 565.45 715.32 
2399 697.70 565.05 715.32 
2400 699.62 564.52 715.32 
2401 704.85 597.91 715.32 
2402 680.64 569.27 715.32 
2403 691.81 566.79 715.32 
2404 695.31 553.60 715.32 
2405 712.51 539.90 715.32 
2406 698.94 571.30 715.32 
2407 706.60 559.71 715.32 
2408 703.37 593.31 715.32 
2409 702.13 557.78 715.32 
2410 704.94 632.75 715.32 
2411 703.11 620.67 715.32 
2412 695.29 619.37 715.32 
2413 698.09 587.41 715.32 
2414 706.02 614.06 715.32 
2415 693.63 592.43 715.32 
2416 685.93 578.67 715.32 
2417 699.04 619.23 715.32 
2418 712.46 612.74 715.32 
2419 698.57 619.36 715.32 
2420 694.80 624.43 715.32 
2421 705.31 615.26 715.32 
2422 708.39 608.46 715.32 
2423 690.29 599.13 715.32 
2424 690.99 610.33 715.32 
2425 700.84 607.10 715.32 
2426 686.08 625.15 715.32 
2427 685.01 615.39 715.32 
2428 702.53 598.52 715.32 
2429 698.75 586.79 715.32 
2430 699.16 604.72 715.32 
2431 692.21 595.67 715.32 
2432 703.42 611.82 715.32 
2433 700.22 592.36 715.32 
2434 699.60 611.64 715.32 
2435 696.09 593.46 715.32 
2436 689.61 610.19 715.32 
2437 689.88 566.38 715.32 
2438 685.44 601.72 715.32 
2439 695.90 581.99 715.32 
2440 705.64 577.50 715.32 
2441 678.71 602.01 715.32 
2442 708.62 591.44 715.32 
2443 695.05 559.20 715.32 
2444 705.69 591.53 715.32 
2445 695.05 592.32 715.32 
2446 703.81 617.74 715.32 
2447 696.82 600.67 715.32 
2448 696.88 609.70 715.32 
2449 695.04 592.68 715.32 
2450 695.81 579.50 715.32 
2451 694.65 554.51 715.32 
2452 718.79 580.23 715.32 
2453 684.24 570.61 718.79 
2454 695.71 591.34 718.79 
2455 710.68 561.89 718.79 
2456 695.95 601.18 718.79 
2457 688.35 594.07 718.79 
2458 693.69 600.22 718.79 
2459 691.31 587.66 718.79 
2460 687.73 586.78 718.79 
2461 694.03 598.59 718.79 
2462 700.32 598.00 718.79 
2463 687.14 607.85 718.79 
2464 690.73 606.99 718.79 
2465 694.69 620.05 718.79 
2466 686.86 625.85 718.79 
2467 671.77 603.09 718.79 
2468 682.75 593.21 718.79 
2469 691.51 575.96 718.79 
2470 690.87 535.64 718.79 
2471 688.89 580.93 718.79 
2472 686.65 574.87 718.79 
2473 682.11 593.79 718.79 
2474 710.29 602.85 718.79 
2475 679.52 568.33 718.79 
2476 700.25 580.24 718.79 
2477 674.75 549.63 718.79 
2478 686.37 592.14 718.79 
2479 686.49 570.96 718.79 
2480 692.79 568.85 718.79 
2481 686.20 553.42 718.79 
2482 691.49 555.41 718.79 
2483 697.40 556.15 718.79 
2484 695.51 568.35 718.79 
2485 692.82 554.22 718.79 
2486 685.79 556.07 718.79 
2487 674.98 550.46 718.79 
2488 685.33 587.79 718.79 
2489 660.02 574.85 718.79 
2490 686.25 512.39 718.79 
2491 688.75 534.03 718.79 
2492 677.27 560.18 718.79 
2493 702.07 575.86 718.79 
2494 699.28 592.60 718.79 
2495 688.10 616.02 718.79 
2496 694.99 623.34 718.79 
2497 701.15 625.88 718.79 
2498 688.69 642.08 718.79 
2499 684.79 618.42 718.79 
2500 684.66 595.39 718.79 
2501 703.72 575.41 718.79 
2502 677.62 556.04 718.79 
2503 682.56 564.79 718.79 
2504 692.82 559.84 718.79 
2505 693.11 572.67 718.79 
2506 699.13 589.07 718.79 
2507 679.22 562.24 718.79 
2508 691.58 591.30 718.79 
2509 692.35 594.20 718.79 
2510 701.50 592.36 718.79 
2511 688.61 613.11 718.79 
2512 682.94 554.83 718.79 
2513 689.17 600.91 718.79 
2514 706.82 596.29 718.79 
2515 692.81 595.49 718.79 
2516 697.07 597.38 718.79 
2517 706.77 593.42 718.79 
2518 692.11 623.44 718.79 
2519 699.78 605.63 718.79 
2520 694.66 598.44 718.79 
2521 693.94 608.14 718.79 
2522 708.19 625.95 718.79 
2523 696.83 634.59 718.79 
2524 712.67 606.76 718.79 
2525 696.02 597.46 718.79 
2526 691.26 610.92 718.79 
2527 687.73 603.43 718.79 
2528 705.92 597.40 718.79 
2529 712.90 617.90 718.79 
2530 698.41 601.51 718.79 
2531 694.72 628.94 718.79 
2532 699.50 611.15 718.79 
2533 704.65 639.76 718.79 
2534 686.55 617.62 718.79 
2535 701.18 617.74 718.79 
2536 680.74 592.88 718.79 
2537 704.36 595.42 718.79 
2538 701.68 575.62 718.79 
2539 714.53 577.54 718.79 
2540 706.24 577.56 718.79 
2541 698.79 581.27 718.79 
2542 698.80 565.10 718.79 
2543 697.61 593.11 718.79 
2544 708.14 590.43 718.79 
2545 695.17 617.27 718.79 
2546 698.81 618.81 718.79 
2547 679.79 599.53 718.79 
2548 697.26 583.16 718.79 
2549 696.77 567.58 718.79 
2550 699.72 582.74 718.79 
2551 702.12 584.72 718.79 
2552 690.23 589.92 718.79 
2553 682.97 576.94 718.79 
2554 700.57 568.49 718.79 
2555 702.66 576.92 718.79 
2556 697.54 578.06 718.79 
2557 679.85 576.85 718.79 
2558 698.98 594.43 718.79 
2559 694.56 569.55 718.79 
2560 693.02 533.04 718.79 
2561 696.57 545.11 718.79 
2562 696.58 584.36 718.79 
2563 681.22 571.61 718.79 
2564 706.43 585.57 718.79 
2565 685.83 595.84 718.79 
2566 689.34 595.92 718.79 
2567 684.33 579.25 718.79 
2568 714.60 583.38 718.79 
2569 694.30 581.77 718.79 
2570 692.74 571.44 718.79 
2571 680.89 586.67 718.79 
2572 700.59 582.17 718.79 
2573 695.76 541.26 718.79 
2574 695.17 553.87 718.79 
2575 702.89 575.20 718.79 
2576 691.90 565.93 718.79 
2577 708.58 534.80 718.79 
2578 709.84 587.90 718.79 
2579 676.53 593.58 718.79 
2580 702.60 594.16 718.79 
2581 690.84 571.68 718.79 
2582 693.85 583.65 718.79 
2583 674.15 562.00 718.79 
2584 703.62 589.48 718.79 
2585 691.23 551.19 718.79 
2586 706.39 570.59 718.79 
2587 696.49 558.58 718.79 
2588 697.59 540.77 718.79 
2589 685.46 552.55 718.79 
2590 706.44 570.17 718.79 
2591 687.89 585.69 718.79 
2592 690.88 547.13 718.79 
2593 695.75 542.73 718.79 
2594 703.30 535.50 718.79 
2595 688.08 533.54 718.79 
2596 689.01 533.47 718.79 
2597 690.22 523.27 718.79 
2598 704.64 542.61 718.79 
2599 700.40 572.06 718.79 
2600 710.33 585.85 718.79 
2601 684.43 578.92 718.79 
2602 698.39 578.57 718.79 
2603 690.32 566.34 718.79 
2604 696.70 556.05 718.79 
2605 694.30 555.35 718.79 
2606 676.09 564.42 718.79 
2607 700.07 592.92 718.79 
2608 681.04 577.27 718.79 
2609 697.88 589.73 718.79 
2610 680.23 591.94 718.79 
2611 695.08 555.82 718.79 
2612 692.24 558.15 718.79 
2613 689.80 546.18 718.79 
2614 697.32 560.78 718.79 
2615 688.21 552.40 718.79 
2616 699.89 542.40 718.79 
2617 688.85 572.68 718.79 
2618 682.11 585.22 718.79 
2619 708.05 572.53 718.79 
2620 697.64 573.37 718.79 
2621 701.50 608.52 718.79 
2622 690.05 561.11 718.79 
2623 698.64 523.44 718.79 
2624 695.64 588.18 718.79 
2625 681.59 560.51 718.79 
2626 698.40 524.23 718.79 
2627 686.83 556.64 718.79 
2628 691.79 582.75 718.79 
2629 692.39 577.04 718.79 
2630 668.22 544.33 718.79 
2631 700.43 608.89 718.79 
2632 690.52 607.04 718.79 
2633 700.17 618.99 718.79 
2634 669.15 616.99 718.79 
2635 702.61 633.72 718.79 
2636 682.72 603.79 718.79 
2637 684.15 553.70 718.79 
2638 694.75 580.09 718.79 
2639 702.41 592.32 718.79 
2640 712.82 602.81 718.79 
2641 699.67 626.70 718.79 
2642 696.24 617.68 718.79 
2643 705.62 614.70 718.79 
2644 700.50 628.08 718.79 
2645 689.07 636.66 718.79 
2646 705.93 639.61 718.79 
2647 684.96 629.14 718.79 
2648 700.58 644.68 718.79 
2649 700.23 652.68 718.79 
2650 696.97 645.04 718.79 
2651 678.24 629.64 718.79 
2652 677.51 628.67 718.79 
2653 667.65 611.92 718.79 
2654 681.86 630.69 718.79 
2655 692.44 645.90 718.79 
2656 702.24 653.07 718.79 
2657 690.04 653.78 718.79 
2658 687.67 623.33 718.79 
2659 679.26 633.13 718.79 
2660 686.37 642.99 718.79 
2661 686.63 644.85 718.79 
2662 679.51 649.73 718.79 
2663 687.94 617.44 718.79 
2664 702.37 605.88 718.79 
2665 693.87 611.03 718.79 
2666 683.26 634.15 718.79 
2667 699.13 617.93 718.79 
2668 691.56 617.51 718.79 
2669 692.20 636.37 718.79 
2670 696.46 635.79 718.79 
2671 687.31 643.18 718.79 
2672 684.35 637.41 718.79 
2673 691.99 626.86 718.79 
2674 690.66 625.63 718.79 
2675 691.06 620.47 718.79 
2676 681.77 608.90 718.79 
2677 688.67 632.09 718.79 
2678 673.52 610.10 718.79 
2679 689.55 563.96 718.79 
2680 684.16 582.22 718.79 
2681 701.36 558.53 718.79 
2682 690.83 572.95 718.79 
2683 704.80 603.46 718.79 
2684 684.11 589.74 718.79 
2685 685.91 569.37 718.79 
2686 684.53 580.43 718.79 
2687 701.06 579.96 718.79 
2688 699.38 592.63 718.79 
2689 711.34 586.63 718.79 
2690 692.59 568.34 718.79 
2691 684.83 580.99 718.79 
2692 699.77 590.18 718.79 
2693 688.12 609.34 718.79 
2694 696.92 614.67 718.79 
2695 686.95 585.49 718.79 
2696 680.72 572.71 718.79 
2697 676.84 584.96 718.79 
2698 702.76 597.57 718.79 
2699 697.03 580.49 718.79 
2700 696.88 560.07 718.79 
2701 696.11 590.25 718.79 
2702 686.59 596.38 718.79 
2703 691.64 595.18 718.79 
2704 682.98 580.21 718.79 
2705 697.35 619.72 718.79 
2706 684.83 618.42 718.79 
2707 703.60 624.09 718.79 
2708 695.22 601.34 718.79 
2709 683.05 601.41 718.79 
2710 698.19 591.26 718.79 
2711 669.49 580.06 718.79 
2712 688.05 570.26 718.79 
2713 694.84 591.33 718.79 
2714 692.50 586.37 718.79 
2715 685.93 567.10 718.79 
2716 679.48 558.32 718.79 
2717 692.92 532.08 718.79 
2718 691.75 523.14 718.79 
2719 679.46 559.50 718.79 
2720 685.62 569.60 718.79 
2721 683.55 575.54 718.79 
2722 694.52 565.02 718.79 
2723 700.67 564.28 718.79 
2724 699.70 563.29 718.79 
2725 681.54 564.16 718.79 
2726 684.82 588.87 718.79 
2727 690.43 596.52 718.79 
2728 693.83 606.58 718.79 
2729 666.58 564.20 718.79 
2730 684.21 560.81 718.79 
2731 691.86 608.25 718.79 
2732 681.57 583.24 718.79 
2733 683.03 585.29 718.79 
2734 679.41 584.47 718.79 
2735 693.12 607.71 718.79 
2736 690.46 601.95 718.79 
2737 663.78 611.99 718.79 
2738 690.00 580.70 718.79 
2739 694.22 570.67 718.79 
2740 686.20 594.72 718.79 
2741 694.82 603.87 718.79 
2742 701.91 588.62 718.79 
2743 706.51 585.01 718.79 
2744 697.37 582.15 718.79 
2745 701.21 586.01 718.79 
2746 694.90 605.17 718.79 
2747 701.61 606.39 718.79 
2748 703.84 592.93 718.79 
2749 690.84 603.16 718.79 
2750 682.21 577.11 718.79 
2751 683.27 589.10 718.79 
2752 685.82 588.37 718.79 
2753 697.57 613.68 718.79 
2754 690.99 591.62 718.79 
2755 695.33 587.84 718.79 
2756 685.89 555.79 718.79 
2757 706.77 575.86 718.79 
2758 699.49 571.04 718.79 
2759 705.37 589.21 718.79 
2760 694.93 597.49 718.79 
2761 692.83 612.82 718.79 
2762 702.39 620.25 718.79 
2763 701.87 629.44 718.79 
2764 687.26 618.72 718.79 
2765 693.39 598.14 718.79 
2766 685.86 599.43 718.79 
2767 693.56 617.31 718.79 
2768 692.53 629.09 718.79 
2769 690.95 608.05 718.79 
2770 702.31 633.05 718.79 
2771 707.08 636.06 718.79 
2772 688.80 659.14 718.79 
2773 693.39 659.74 718.79 
2774 677.48 635.01 718.79 
2775 703.18 610.29 718.79 
2776 692.27 602.43 718.79 
2777 680.94 586.53 718.79 
2778 696.85 600.71 718.79 
2779 700.56 595.00 718.79 
2780 701.59 622.44 718.79 
2781 689.24 595.90 718.79 
2782 688.04 585.19 718.79 
2783 712.64 590.88 718.79 
2784 698.96 604.57 718.79 
2785 701.02 604.85 718.79 
2786 691.11 577.55 718.79 
2787 693.19 591.09 718.79 
2788 701.48 619.94 718.79 
2789 698.33 605.03 718.79 
2790 701.78 633.50 718.79 
2791 690.77 632.36 718.79 
2792 703.56 653.95 718.79 
2793 669.72 614.71 718.79 
2794 697.14 615.87 718.79 
2795 698.10 623.60 718.79 
2796 692.64 630.12 718.79 
2797 691.21 647.75 718.79 
2798 691.85 640.80 718.79 
2799 693.40 647.75 718.79 
2800 694.91 634.38 718.79 
2801 689.34 645.46 718.79 
2802 693.41 634.73 718.79 
2803 686.27 616.71 718.79 
2804 700.51 605.46 718.79 
2805 698.72 590.13 718.79 
2806 700.02 599.88 718.79 
2807 677.85 580.86 718.79 
2808 699.19 595.25 718.79 
2809 706.11 580.46 718.79 
2810 700.79 584.66 718.79 
2811 695.29 582.05 718.79 
2812 699.43 574.75 718.79 
2813 712.76 570.55 718.79 
2814 702.45 581.00 718.79 
2815 690.75 622.92 718.79 
2816 692.17 579.97 718.79 
2817 691.99 606.73 718.79 
2818 695.80 588.08 718.79 
2819 696.73 587.38 718.79 
2820 674.20 575.60 718.79 
2821 714.20 570.82 718.79 
2822 712.67 574.61 718.79 
2823 702.81 591.80 718.79 
2824 706.65 588.30 718.79 
2825 704.24 594.46 718.79 
2826 704.30 603.07 718.79 
2827 689.36 594.92 718.79 
2828 705.08 633.00 718.79 
2829 702.15 637.29 718.79 
2830 705.76 621.62 718.79 
2831 686.77 616.20 718.79 
2832 705.04 627.80 718.79 
2833 682.44 637.63 718.79 
2834 671.98 628.25 718.79 
2835 686.08 642.03 718.79 
2836 681.41 623.37 718.79 
2837 690.34 589.45 718.79 
2838 685.60 616.09 718.79 
2839 701.46 624.39 718.79 
2840 687.46 627.85 718.79 
2841 704.96 613.41 718.79 
2842 697.62 619.56 718.79 
2843 692.72 616.92 718.79 
2844 696.11 624.70 718.79 
2845 710.15 613.51 718.79 
2846 687.55 622.39 718.79 
2847 697.42 634.12 718.79 
2848 689.35 622.63 718.79 
2849 700.68 611.81 718.79 
2850 690.76 607.64 718.79 
2851 707.06 623.20 718.79 
2852 700.86 635.85 718.79 
2853 707.20 640.88 718.79 
2854 685.47 635.05 718.79 
2855 701.62 633.61 718.79 
2856 694.56 608.14 718.79 
2857 708.68 631.15 718.79 
2858 701.42 643.22 718.79 
2859 684.72 644.24 718.79 
2860 685.16 604.08 718.79 
2861 701.03 605.39 718.79 
2862 711.76 625.94 718.79 
2863 696.78 633.53 718.79 
2864 685.63 628.10 718.79 
2865 694.03 632.07 718.79 
2866 702.37 626.04 718.79 
2867 687.64 624.17 718.79 
2868 691.07 612.88 718.79 
2869 697.47 608.09 718.79 
2870 693.65 609.40 718.79 
2871 702.33 588.28 718.79 
2872 696.81 599.77 718.79 
2873 695.32 597.99 718.79 
2874 694.88 585.39 718.79 
2875 695.05 613.35 718.79 
2876 688.79 623.51 718.79 
2877 669.13 602.82 718.79 
2878 694.20 606.31 718.79 
2879 699.86 578.88 718.79 
2880 696.92 592.38 718.79 
2881 699.97 602.84 718.79 
2882 679.55 604.64 718.79 
2883 697.64 633.30 718.79 
2884 693.28 632.34 718.79 
2885 698.05 649.10 718.79 
2886 692.42 646.22 718.79 
2887 698.68 656.44 718.79 
2888 697.68 653.76 718.79 
2889 698.59 604.83 718.79 
2890 703.88 610.95 718.79 
2891 694.87 609.98 718.79 
2892 689.66 632.44 718.79 
2893 702.55 621.85 718.79 
2894 704.96 610.59 718.79 
2895 706.28 606.55 718.79 
2896 703.23 617.86 718.79 
2897 694.04 618.96 718.79 
2898 698.84 602.51 718.79 
2899 710.11 649.46 718.79 
2900 701.56 631.96 718.79 
2901 694.28 629.51 718.79 
2902 714.95 647.53 718.79 
2903 692.12 606.84 718.79 
2904 660.17 600.03 718.79 
2905 702.14 603.95 718.79 
2906 699.55 601.19 718.79 
2907 681.88 635.90 718.79 
2908 680.82 629.08 718.79 
2909 698.31 631.31 718.79 
2910 699.54 617.27 718.79 
2911 704.60 622.55 718.79 
2912 676.28 642.11 718.79 
2913 710.91 624.77 718.79 
2914 708.78 655.88 718.79 
2915 681.17 661.10 718.79 
2916 703.67 630.28 718.79 
2917 679.46 628.16 718.79 
2918 686.59 641.95 718.79 
2919 685.94 617.23 718.79 
2920 703.02 628.41 718.79 
2921 700.92 646.15 718.79 
2922 690.71 600.05 718.79 
2923 694.24 599.17 718.79 
2924 698.88 615.29 718.79 
2925 705.72 622.77 718.79 
2926 675.01 587.65 718.79 
2927 692.95 594.28 718.79 
2928 705.37 612.66 718.79 
2929 687.94 650.14 718.79 
2930 695.44 640.48 718.79 
2931 680.96 632.72 718.79 
2932 704.13 598.69 718.79 
2933 703.27 635.78 718.79 
2934 686.25 630.08 718.79 
2935 689.90 616.97 718.79 
2936 690.69 613.11 718.79 
2937 692.15 617.51 718.79 
2938 689.11 611.07 718.79 
2939 708.22 619.40 718.79 
2940 701.22 616.91 718.79 
2941 703.78 606.18 718.79 
2942 699.21 598.21 718.79 
2943 703.50 602.87 718.79 
2944 700.71 612.47 718.79 
2945 702.34 604.47 718.79 
2946 695.17 601.64 718.79 
2947 697.89 610.17 718.79 
2948 709.58 644.19 718.79 
2949 697.40 631.56 718.79 
2950 695.80 580.60 718.79 
2951 705.56 587.26 718.79 
2952 702.36 596.16 718.79 
2953 693.47 603.92 718.79 
2954 690.64 599.29 718.79 
2955 698.34 620.20 718.79 
2956 697.10 600.13 718.79 
2957 712.75 593.66 718.79 
2958 687.33 571.22 718.79 
2959 690.73 546.44 718.79 
2960 693.94 569.06 718.79 
2961 701.89 576.56 718.79 
2962 697.66 576.37 718.79 
2963 689.84 582.81 718.79 
2964 692.61 576.66 718.79 
2965 698.89 569.64 718.79 
2966 692.17 569.21 718.79 
2967 679.45 567.47 718.79 
2968 710.07 582.61 718.79 
2969 692.37 593.27 718.79 
2970 697.37 602.05 718.79 
2971 701.19 595.19 718.79 
2972 701.90 610.16 718.79 
2973 678.55 598.91 718.79 
2974 698.04 644.59 718.79 
2975 690.15 586.15 718.79 
2976 689.67 568.72 718.79 
2977 711.03 591.26 718.79 
2978 713.49 613.35 718.79 
2979 694.57 579.09 718.79 
2980 697.83 607.80 718.79 
2981 690.53 585.88 718.79 
2982 687.30 582.75 718.79 
2983 702.96 598.30 718.79 
2984 697.28 572.81 718.79 
2985 698.11 583.81 718.79 
2986 697.24 594.89 718.79 
2987 690.07 588.44 718.79 
2988 714.31 631.64 718.79 
2989 682.19 614.99 718.79 
2990 682.39 622.43 718.79 
2991 698.65 633.27 718.79 
2992 704.08 593.12 718.79 
2993 699.34 622.16 718.79 
2994 699.16 629.77 718.79 
2995 696.71 604.32 718.79 
2996 702.43 597.09 718.79 
2997 694.99 639.25 718.79 
2998 690.69 627.83 718.79 
2999 699.64 622.49 718.79 
3000 693.42 642.99 718.79 
3001 699.00 596.29 718.79 
3002 698.93 596.39 718.79 
3003 680.12 603.52 718.79 
3004 701.13 617.11 718.79 
3005 696.08 633.33 718.79 
3006 690.25 611.61 718.79 
3007 692.11 596.49 718.79 
3008 709.93 615.80 718.79 
3009 694.79 603.39 718.79 
3010 711.86 574.00 718.79 
3011 694.59 597.78 718.79 
3012 682.31 567.25 718.79 
3013 695.95 588.36 718.79 
3014 701.95 611.68 718.79 
3015 699.24 628.90 718.79 
3016 679.98 621.41 718.79 
3017 688.49 641.06 718.79 
3018 686.86 605.95 718.79 
3019 700.34 608.09 718.79 
3020 696.89 592.01 718.79 
3021 696.80 570.44 718.79 
3022 687.70 549.57 718.79 
3023 703.19 563.16 718.79 
3024 684.23 583.01 718.79 
3025 692.52 565.91 718.79 
3026 678.07 553.76 718.79 
3027 683.13 556.74 718.79 
3028 690.58 540.41 718.79 
3029 707.25 518.82 718.79 
3030 701.03 541.66 718.79 
3031 699.99 528.11 718.79 
3032 691.40 542.75 718.79 
3033 696.16 569.23 718.79 
3034 696.21 574.50 718.79 
3035 699.90 567.94 718.79 
3036 697.84 571.07 718.79 
3037 690.27 546.96 718.79 
3038 693.98 574.31 718.79 
3039 697.53 547.38 718.79 
3040 682.39 526.57 718.79 
3041 699.46 545.30 718.79 
3042 698.55 567.49 718.79 
3043 717.14 570.35 718.79 
3044 686.21 555.74 718.79 
3045 695.66 540.06 718.79 
3046 679.78 552.16 718.79 
3047 700.28 564.18 718.79 
3048 704.97 548.28 718.79 
3049 705.68 548.92 718.79 
3050 702.97 555.71 718.79 
3051 695.52 569.18 718.79 
3052 701.97 584.99 718.79 
3053 685.09 592.97 718.79 
3054 701.61 569.22 718.79 
3055 683.81 569.55 718.79 
3056 703.59 601.43 718.79 
3057 700.33 582.68 718.79 
3058 690.11 578.75 718.79 
3059 710.00 597.05 718.79 
3060 705.93 601.65 718.79 
3061 692.26 611.84 718.79 
3062 708.23 605.13 718.79 
3063 691.21 582.49 718.79 
3064 699.85 594.13 718.79 
3065 692.77 576.91 718.79 
3066 693.19 560.64 718.79 
3067 684.68 558.73 718.79 
3068 711.28 540.12 718.79 
3069 700.88 547.40 718.79 
3070 699.01 556.27 718.79 
3071 686.70 556.13 718.79 
3072 706.89 594.75 718.79 
3073 705.90 600.01 718.79 
3074 706.53 624.40 718.79 
3075 686.97 618.60 718.79 
3076 691.79 619.85 718.79 
3077 699.02 609.43 718.79 
3078 714.29 623.90 718.79 
3079 686.61 621.08 718.79 
3080 700.48 621.08 718.79 
3081 683.90 653.98 718.79 
3082 693.79 638.16 718.79 
3083 692.07 640.41 718.79 
3084 707.65 639.73 718.79 
3085 691.18 637.23 718.79 
3086 688.15 627.10 718.79 
3087 694.61 654.19 718.79 
3088 691.56 635.93 718.79 
3089 701.80 625.40 718.79 
3090 692.00 620.63 718.79 
3091 687.05 642.60 718.79 
3092 702.29 630.20 718.79 
3093 704.71 637.86 718.79 
3094 701.68 639.33 718.79 
3095 702.12 640.22 718.79 
3096 689.12 654.15 718.79 
3097 698.48 636.60 718.79 
3098 705.56 641.15 718.79 
3099 689.33 622.17 718.79 
3100 702.89 626.01 718.79 
3101 699.74 610.44 718.79 
3102 701.19 610.95 718.79 
3103 702.38 606.10 718.79 
3104 694.24 627.33 718.79 
3105 700.05 638.26 718.79 
3106 701.44 623.31 718.79 
3107 704.06 606.37 718.79 
3108 693.93 633.58 718.79 
3109 716.73 627.55 718.79 
3110 701.41 628.30 718.79 
3111 697.12 621.38 718.79 
3112 705.82 600.35 718.79 
3113 713.95 609.07 718.79 
3114 693.28 585.29 718.79 
3115 692.96 577.66 718.79 
3116 689.27 604.37 718.79 
3117 697.16 623.18 718.79 
3118 695.08 621.90 718.79 
3119 703.14 620.06 718.79 
3120 698.92 631.02 718.79 
3121 694.13 635.31 718.79 
3122 694.17 622.02 718.79 
3123 708.82 611.86 718.79 
3124 697.59 621.53 718.79 
3125 705.57 626.00 718.79 
3126 702.58 623.59 718.79 
3127 703.43 631.26 718.79 
3128 689.57 617.73 718.79 
3129 693.92 629.71 718.79 
3130 714.43 648.26 718.79 
3131 678.20 610.51 718.79 
3132 695.44 620.22 718.79 
3133 698.12 614.39 718.79 
3134 694.83 609.66 718.79 
3135 696.34 628.56 718.79 
3136 696.17 618.90 718.79 
3137 700.48 619.41 718.79 
3138 691.49 625.33 718.79 
3139 696.18 622.18 718.79 
3140 688.92 630.06 718.79 
3141 686.22 616.19 718.79 
3142 710.89 653.59 718.79 
3143 708.56 639.80 718.79 
3144 691.88 629.91 718.79 
3145 708.16 649.89 718.79 
3146 698.18 654.96 718.79 
3147 702.82 637.83 718.79 
3148 701.25 656.01 718.79 
3149 676.21 636.47 718.79 
3150 683.66 637.13 718.79 
3151 697.22 643.47 718.79 
3152 688.93 618.56 718.79 
3153 700.99 639.45 718.79 
3154 660.89 637.55 718.79 
3155 704.06 625.67 718.79 
3156 681.50 616.25 718.79 
3157 679.81 650.94 718.79 
3158 700.44 625.06 718.79 
3159 689.78 609.70 718.79 
3160 702.88 615.48 718.79 
3161 713.96 629.02 718.79 
3162 697.30 607.70 718.79 
3163 702.48 604.83 718.79 
3164 699.38 602.71 718.79 
3165 695.08 612.38 718.79 
3166 702.96 636.47 718.79 
3167 702.63 639.89 718.79 
3168 695.38 619.04 718.79 
3169 702.81 653.82 718.79 
3170 680.13 640.20 718.79 
3171 696.59 634.67 718.79 
3172 707.63 632.15 718.79 
3173 687.30 636.11 718.79 
3174 694.46 599.32 718.79 
3175 688.03 587.77 718.79 
3176 687.92 590.46 718.79 
3177 698.11 585.32 718.79 
3178 698.05 568.97 718.79 
3179 694.03 544.75 718.79 
3180 686.30 581.48 718.79 
3181 693.43 598.16 718.79 
3182 684.99 619.16 718.79 
3183 692.97 611.44 718.79 
3184 702.01 594.56 718.79 
3185 699.15 597.41 718.79 
3186 702.55 658.30 718.79 
3187 688.15 632.44 718.79 
3188 705.51 605.22 718.79 
3189 717.97 615.18 718.79 
3190 694.18 584.88 718.79 
3191 704.25 568.34 718.79 
3192 708.71 559.74 718.79 
3193 701.83 589.85 718.79 
3194 710.93 598.40 718.79 
3195 683.78 595.87 718.79 
3196 699.98 607.48 718.79 
3197 712.79 613.60 718.79 
3198 697.40 639.51 718.79 
3199 691.51 615.32 718.79 
3200 692.91 631.30 718.79 
3201 694.71 627.09 718.79 
3202 705.77 622.06 718.79 
3203 713.62 637.48 718.79 
3204 690.78 617.91 718.79 
3205 700.54 602.30 718.79 
3206 694.08 624.66 718.79 
3207 718.15 639.57 718.79 
3208 708.82 680.76 718.79 
3209 704.37 659.06 718.79 
3210 696.42 642.36 718.79 
3211 705.15 627.69 718.79 
3212 694.69 619.02 718.79 
3213 695.47 638.33 718.79 
3214 705.77 629.42 718.79 
3215 705.93 632.43 718.79 
3216 693.48 628.94 718.79 
3217 704.87 623.82 718.79 
3218 707.49 624.73 718.79 
3219 687.03 633.68 718.79 
3220 686.87 622.63 718.79 
3221 691.46 602.88 718.79 
3222 705.02 614.27 718.79 
3223 693.95 597.06 718.79 
3224 705.19 614.79 718.79 
3225 688.26 601.03 718.79 
3226 698.47 616.15 718.79 
3227 702.24 609.85 718.79 
3228 703.84 597.27 718.79 
3229 709.60 584.63 718.79 
3230 711.62 613.08 718.79 
3231 707.37 618.40 718.79 
3232 709.16 633.54 718.79 
3233 711.12 607.37 718.79 
3234 696.52 599.94 718.79 
3235 714.28 588.88 718.79 
3236 694.89 602.38 718.79 
3237 693.26 632.53 718.79 
3238 703.24 624.61 718.79 
3239 712.83 639.37 718.79 
3240 720.35 617.31 718.79 
3241 703.13 626.10 720.35 
3242 691.66 611.40 720.35 
3243 698.66 628.84 720.35 
3244 698.06 646.87 720.35 
3245 704.91 636.33 720.35 
3246 700.88 652.21 720.35 
3247 708.60 645.61 720.35 
3248 699.43 658.48 720.35 
3249 705.67 668.89 720.35 
3250 701.63 651.72 720.35 
3251 688.13 611.55 720.35 
3252 704.30 615.50 720.35 
3253 698.88 639.11 720.35 
3254 698.29 644.00 720.35 
3255 716.49 635.00 720.35 
3256 696.82 652.37 720.35 
3257 706.75 649.11 720.35 
3258 716.43 639.08 720.35 
3259 699.53 632.89 720.35 
3260 695.78 594.75 720.35 
3261 701.02 627.73 720.35 
3262 691.10 610.79 720.35 
3263 687.30 626.11 720.35 
3264 701.82 629.50 720.35 
3265 706.55 615.11 720.35 
3266 707.48 623.49 720.35 
3267 692.18 625.88 720.35 
3268 696.08 627.12 720.35 
3269 698.93 631.77 720.35 
3270 706.21 612.87 720.35 
3271 689.58 626.93 720.35 
3272 690.77 612.94 720.35 
3273 698.83 580.57 720.35 
3274 699.45 564.76 720.35 
3275 683.03 574.94 720.35 
3276 693.61 581.54 720.35 
3277 706.28 632.80 720.35 
3278 702.19 638.61 720.35 
3279 696.57 611.08 720.35 
3280 700.22 634.84 720.35 
3281 711.42 633.09 720.35 
3282 670.13 639.33 720.35 
3283 697.60 648.67 720.35 
3284 695.77 656.73 720.35 
3285 697.30 598.29 720.35 
3286 686.36 596.24 720.35 
3287 694.03 608.68 720.35 
3288 704.78 599.65 720.35 
3289 690.45 580.53 720.35 
3290 705.68 586.80 720.35 
3291 698.54 605.50 720.35 
3292 703.88 604.46 720.35 
3293 701.79 608.08 720.35 
3294 715.69 626.16 720.35 
3295 708.17 619.08 720.35 
3296 707.05 603.51 720.35 
3297 700.43 603.80 720.35 
3298 703.75 580.44 720.35 
3299 702.74 566.74 720.35 
3300 695.09 585.43 720.35 
3301 707.86 604.34 720.35 
3302 709.24 587.54 720.35 
3303 694.25 571.41 720.35 
3304 703.52 617.29 720.35 
3305 705.36 630.50 720.35 
3306 692.16 596.73 720.35 
3307 689.40 594.26 720.35 
3308 697.35 590.08 720.35 
3309 706.19 614.94 720.35 
3310 701.55 614.64 720.35 
3311 697.72 588.94 720.35 
3312 709.62 569.36 720.35 
3313 700.10 575.08 720.35 
3314 711.46 551.78 720.35 
3315 701.19 600.02 720.35 
3316 705.57 595.43 720.35 
3317 690.34 634.32 720.35 
3318 700.08 675.24 720.35 
3319 696.81 628.33 720.35 
3320 692.13 568.76 720.35 
3321 684.97 589.83 720.35 
3322 707.18 590.94 720.35 
3323 690.16 603.75 720.35 
3324 706.35 579.86 720.35 
3325 699.09 571.29 720.35 
3326 677.02 554.57 720.35 
3327 694.93 543.00 720.35 
3328 691.40 572.68 720.35 
3329 698.58 562.26 720.35 
3330 701.60 564.40 720.35 
3331 702.36 597.21 720.35 
3332 708.46 587.01 720.35 
3333 703.72 610.97 720.35 
3334 712.96 610.24 720.35 
3335 704.87 619.26 720.35 
3336 699.94 645.55 720.35 
3337 696.63 609.84 720.35 
3338 705.42 597.97 720.35 
3339 702.09 595.38 720.35 
3340 695.97 629.24 720.35 
3341 678.70 603.52 720.35 
3342 710.67 622.55 720.35 
3343 703.03 626.76 720.35 
3344 701.42 630.18 720.35 
3345 705.35 625.12 720.35 
3346 689.68 602.16 720.35 
3347 713.54 620.81 720.35 
3348 695.87 605.60 720.35 
3349 707.78 618.23 720.35 
3350 695.01 611.34 720.35 
3351 696.72 590.60 720.35 
3352 697.34 585.49 720.35 
3353 691.09 589.19 720.35 
3354 701.20 622.96 720.35 
3355 691.03 635.09 720.35 
3356 700.91 617.26 720.35 
3357 675.74 609.42 720.35 
3358 682.65 601.54 720.35 
3359 703.19 586.84 720.35 
3360 683.10 546.45 720.35 
3361 693.62 585.42 720.35 
3362 705.89 580.88 720.35 
3363 700.96 618.60 720.35 
3364 707.90 625.20 720.35 
3365 699.21 621.02 720.35 
3366 698.07 616.74 720.35 
3367 690.50 611.45 720.35 
3368 694.07 604.07 720.35 
3369 687.30 602.14 720.35 
3370 701.81 625.53 720.35 
3371 680.92 617.41 720.35 
3372 677.92 588.98 720.35 
3373 701.19 612.27 720.35 
3374 699.13 611.30 720.35 
3375 706.57 595.88 720.35 
3376 688.14 571.50 720.35 
3377 689.52 572.41 720.35 
3378 708.23 602.20 720.35 
3379 706.68 612.36 720.35 
3380 696.44 623.72 720.35 
3381 690.37 619.64 720.35 
3382 698.23 659.08 720.35 
3383 699.35 619.09 720.35 
3384 706.37 639.01 720.35 
3385 679.55 628.69 720.35 
3386 705.99 623.89 720.35 
3387 704.02 613.31 720.35 
3388 685.52 617.14 720.35 
3389 697.12 606.04 720.35 
3390 691.80 599.37 720.35 
3391 690.96 558.02 720.35 
3392 697.68 578.26 720.35 
3393 692.17 582.12 720.35 
3394 689.12 575.41 720.35 
3395 698.20 573.08 720.35 
3396 712.15 589.71 720.35 
3397 690.84 596.94 720.35 
3398 709.29 610.06 720.35 
3399 703.71 595.79 720.35 
3400 697.88 666.08 720.35 
3401 701.49 631.59 720.35 
3402 692.06 595.93 720.35 
3403 703.18 572.18 720.35 
3404 700.63 613.12 720.35 
3405 689.02 600.87 720.35 
3406 710.13 602.42 720.35 
3407 697.03 603.39 720.35 
3408 719.36 631.82 720.35 
3409 702.70 618.87 720.35 
3410 705.19 595.91 720.35 
3411 712.77 618.34 720.35 
3412 698.24 595.46 720.35 
3413 702.10 611.95 720.35 
3414 691.43 600.53 720.35 
3415 694.53 597.82 720.35 
3416 688.66 554.11 720.35 
3417 688.51 571.54 720.35 
3418 694.26 608.49 720.35 
3419 703.09 606.47 720.35 
3420 691.67 593.82 720.35 
3421 699.11 583.82 720.35 
3422 703.66 579.77 720.35 
3423 700.81 584.12 720.35 
3424 696.20 588.46 720.35 
3425 695.67 600.07 720.35 
3426 692.85 574.57 720.35 
3427 708.57 581.69 720.35 
3428 710.10 590.13 720.35 
3429 707.87 625.94 720.35 
3430 689.47 619.88 720.35 
3431 690.08 596.85 720.35 
3432 699.65 612.77 720.35 
3433 693.21 568.69 720.35 
3434 694.07 576.50 720.35 
3435 713.93 616.92 720.35 
3436 700.89 624.96 720.35 
3437 695.54 626.75 720.35 
3438 681.74 623.93 720.35 
3439 711.80 628.36 720.35 
3440 681.67 622.40 720.35 
3441 695.70 612.06 720.35 
3442 692.90 639.48 720.35 
3443 699.29 640.89 720.35 
3444 696.04 654.07 720.35 
3445 696.37 623.70 720.35 
3446 702.15 605.75 720.35 
3447 673.61 631.16 720.35 
3448 695.05 642.58 720.35 
3449 712.95 609.38 720.35 
3450 705.62 612.72 720.35 
3451 696.15 603.36 720.35 
3452 701.19 629.07 720.35 
3453 698.16 608.14 720.35 
3454 685.82 589.17 720.35 
3455 699.24 605.36 720.35 
3456 692.22 616.30 720.35 
3457 696.62 579.35 720.35 
3458 698.37 613.78 720.35 
3459 695.06 600.36 720.35 
3460 674.88 599.15 720.35 
3461 704.56 596.10 720.35 
3462 699.35 619.99 720.35 
3463 690.42 610.20 720.35 
3464 699.46 605.30 720.35 
3465 700.15 564.00 720.35 
3466 700.05 563.16 720.35 
3467 693.30 549.05 720.35 
3468 688.33 544.33 720.35 
3469 700.79 532.52 720.35 
3470 695.34 569.76 720.35 
3471 694.62 555.71 720.35 
3472 690.42 560.24 720.35 
3473 702.57 559.51 720.35 
3474 685.91 560.89 720.35 
3475 704.07 582.82 720.35 
3476 713.97 564.13 720.35 
3477 698.36 580.93 720.35 
3478 706.58 626.83 720.35 
3479 686.27 626.06 720.35 
3480 709.88 638.57 720.35 
3481 686.50 592.05 720.35 
3482 708.53 601.14 720.35 
3483 700.14 588.79 720.35 
3484 707.73 536.16 720.35 
3485 699.29 563.57 720.35 
3486 695.51 572.09 720.35 
3487 673.59 615.64 720.35 
3488 692.07 577.66 720.35 
3489 693.63 558.19 720.35 
3490 700.93 568.57 720.35 
3491 690.34 579.02 720.35 
3492 697.02 610.27 720.35 
3493 705.58 615.87 720.35 
3494 690.95 586.81 720.35 
3495 709.50 577.14 720.35 
3496 694.47 544.64 720.35 
3497 710.27 598.92 720.35 
3498 701.42 596.48 720.35 
3499 691.15 627.99 720.35 
3500 700.81 601.12 720.35 
3501 697.42 634.44 720.35 
3502 691.14 622.86 720.35 
3503 700.23 634.42 720.35 
3504 700.53 657.45 720.35 
3505 703.46 645.84 720.35 
3506 693.18 618.96 720.35 
3507 697.02 617.14 720.35 
3508 680.30 639.09 720.35 
3509 700.24 602.95 720.35 
3510 706.84 629.80 720.35 
3511 704.03 602.36 720.35 
3512 711.39 604.12 720.35 
3513 694.67 621.69 720.35 
3514 699.55 583.55 720.35 
3515 704.50 612.89 720.35 
3516 710.67 618.27 720.35 
3517 700.88 635.47 720.35 
3518 699.83 642.04 720.35 
3519 685.96 633.00 720.35 
3520 689.56 650.93 720.35 
3521 704.97 659.24 720.35 
3522 694.15 660.79 720.35 
3523 688.39 646.40 720.35 
3524 687.78 626.03 720.35 
3525 708.66 617.34 720.35 
3526 678.74 616.75 720.35 
3527 703.36 648.06 720.35 
3528 691.60 659.51 720.35 
3529 682.81 659.19 720.35 
3530 693.61 639.24 720.35 
3531 699.80 632.86 720.35 
3532 679.94 664.38 720.35 
3533 702.43 662.25 720.35 
3534 696.98 659.86 720.35 
3535 682.80 632.84 720.35 
3536 684.64 627.87 720.35 
3537 691.81 636.48 720.35 
3538 705.78 635.90 720.35 
3539 695.15 640.81 720.35 
3540 698.96 636.91 720.35 
3541 698.58 652.71 720.35 
3542 692.91 661.83 720.35 
3543 703.11 645.40 720.35 
3544 688.62 645.64 720.35 
3545 685.47 656.15 720.35 
3546 694.32 671.48 720.35 
3547 699.62 664.99 720.35 
3548 698.35 677.33 720.35 
3549 699.81 682.04 720.35 
3550 683.84 671.45 720.35 
3551 702.47 671.67 720.35 
3552 692.71 670.85 720.35 
3553 697.19 669.06 720.35 
3554 710.09 678.11 720.35 
3555 710.82 675.98 720.35 
3556 694.83 675.34 720.35 
3557 696.64 670.96 720.35 
3558 714.58 673.78 720.35 
3559 711.15 661.77 720.35 
3560 694.78 679.52 720.35 
3561 701.01 657.20 720.35 
3562 686.93 657.74 720.35 
3563 688.16 658.35 720.35 
3564 698.20 656.91 720.35 
3565 700.90 658.25 720.35 
3566 695.59 658.90 720.35 
3567 709.84 664.04 720.35 
3568 698.27 664.02 720.35 
3569 681.62 663.50 720.35 
3570 702.91 663.19 720.35 
3571 700.46 673.34 720.35 
3572 694.40 673.87 720.35 
3573 710.91 663.01 720.35 
3574 691.90 663.38 720.35 
3575 699.10 660.01 720.35 
3576 700.52 663.14 720.35 
3577 695.79 670.39 720.35 
3578 708.65 670.69 720.35 
3579 700.62 644.44 720.35 
3580 685.25 644.83 720.35 
3581 710.68 628.62 720.35 
3582 698.97 631.68 720.35 
3583 683.36 641.08 720.35 
3584 699.25 592.01 720.35 
3585 703.19 656.17 720.35 
3586 693.17 654.33 720.35 
3587 695.70 637.70 720.35 
3588 695.36 648.34 720.35 
3589 689.08 659.12 720.35 
3590 693.39 651.50 720.35 
3591 705.45 675.54 720.35 
3592 692.87 676.46 720.35 
3593 697.30 679.36 720.35 
3594 688.41 679.32 720.35 
3595 702.72 655.10 720.35 
3596 696.12 666.38 720.35 
3597 694.30 667.03 720.35 
3598 708.78 660.01 720.35 
3599 680.74 672.25 720.35 
3600 697.22 656.49 720.35 
3601 682.18 653.25 720.35 
3602 697.56 658.52 720.35 
3603 705.64 632.75 720.35 
3604 702.83 601.83 720.35 
3605 696.11 613.04 720.35 
3606 693.92 637.91 720.35 
3607 684.57 633.62 720.35 
3608 692.45 583.45 720.35 
3609 694.44 589.35 720.35 
3610 694.01 614.29 720.35 
3611 688.02 613.19 720.35 
3612 682.26 585.27 720.35 
3613 703.42 573.35 720.35 
3614 700.66 551.99 720.35 
3615 695.46 527.76 720.35 
3616 694.35 493.69 720.35 
3617 705.35 546.41 720.35 
3618 700.03 543.52 720.35 
3619 703.66 513.54 720.35 
3620 692.32 540.25 720.35 
3621 699.95 542.69 720.35 
3622 686.17 528.33 720.35 
3623 704.94 501.17 720.35 
3624 704.18 533.80 720.35 
3625 701.52 516.40 720.35 
3626 695.78 539.76 720.35 
3627 702.24 550.48 720.35 
3628 698.06 585.58 720.35 
3629 700.63 596.84 720.35 
3630 699.75 586.06 720.35 
3631 695.03 593.39 720.35 
3632 711.96 586.92 720.35 
3633 707.52 635.30 720.35 
3634 688.34 617.87 720.35 
3635 708.74 629.84 720.35 
3636 706.49 622.81 720.35 
3637 696.37 594.83 720.35 
3638 711.85 618.92 720.35 
3639 700.55 593.81 720.35 
3640 704.05 650.37 720.35 
3641 686.28 629.71 720.35 
3642 701.32 622.77 720.35 
3643 704.14 644.97 720.35 
3644 706.81 670.05 720.35 
3645 700.18 682.45 720.35 
3646 697.59 644.71 720.35 
3647 701.93 646.82 720.35 
3648 693.61 652.52 720.35 
3649 697.85 647.60 720.35 
3650 687.01 625.45 720.35 
3651 704.76 615.83 720.35 
3652 692.35 617.24 720.35 
3653 702.38 612.49 720.35 
3654 706.34 616.36 720.35 
3655 711.22 620.35 720.35 
3656 704.26 636.41 720.35 
3657 697.47 661.21 720.35 
3658 704.18 617.72 720.35 
3659 703.24 592.27 720.35 
3660 696.35 624.68 720.35 
3661 699.75 624.21 720.35 
3662 695.96 588.61 720.35 
3663 699.04 619.56 720.35 
3664 703.09 609.76 720.35 
3665 685.21 612.35 720.35 
3666 688.66 619.56 720.35 
3667 688.92 617.36 720.35 
3668 687.24 637.25 720.35 
3669 699.55 670.96 720.35 
3670 687.81 640.57 720.35 
3671 684.10 637.52 720.35 
3672 711.44 608.63 720.35 
3673 681.77 594.08 720.35 
3674 695.66 586.09 720.35 
3675 695.00 589.99 720.35 
3676 703.19 597.00 720.35 
3677 702.03 621.57 720.35 
3678 691.88 603.70 720.35 
3679 698.08 610.42 720.35 
3680 704.76 609.64 720.35 
3681 704.53 642.67 720.35 
3682 680.97 653.30 720.35 
3683 711.32 609.99 720.35 
3684 709.45 615.12 720.35 
3685 698.23 632.96 720.35 
3686 695.17 611.92 720.35 
3687 691.02 602.99 720.35 
3688 688.49 613.05 720.35 
3689 696.39 615.34 720.35 
3690 690.69 608.38 720.35 
3691 686.79 591.38 720.35 
3692 709.59 577.31 720.35 
3693 695.21 573.11 720.35 
3694 685.00 606.53 720.35 
3695 704.08 596.23 720.35 
3696 701.69 587.17 720.35 
3697 693.72 615.20 720.35 
3698 684.13 604.42 720.35 
3699 694.89 588.44 720.35 
3700 691.01 626.64 720.35 
3701 698.85 630.01 720.35 
3702 698.80 637.57 720.35 
3703 702.74 640.64 720.35 
3704 700.02 654.26 720.35 
3705 715.43 654.55 720.35 
3706 701.77 634.71 720.35 
3707 700.95 631.54 720.35 
3708 705.84 666.19 720.35 
3709 687.16 671.50 720.35 
3710 711.94 665.79 720.35 
3711 698.88 671.00 720.35 
3712 693.56 658.06 720.35 
3713 699.15 647.33 720.35 
3714 682.66 630.49 720.35 
3715 696.80 619.21 720.35 
3716 699.41 651.69 720.35 
3717 697.08 639.27 720.35 
3718 707.05 666.71 720.35 
3719 691.14 668.31 720.35 
3720 702.30 668.73 720.35 
3721 703.68 635.90 720.35 
3722 689.58 639.31 720.35 
3723 691.94 657.92 720.35 
3724 699.60 658.23 720.35 
3725 698.42 609.72 720.35 
3726 695.46 637.68 720.35 
3727 704.69 650.57 720.35 
3728 699.88 655.09 720.35 
3729 706.08 654.86 720.35 
3730 693.14 630.53 720.35 
3731 692.07 619.14 720.35 
3732 713.98 632.00 720.35 
3733 701.38 622.07 720.35 
3734 703.51 610.37 720.35 
3735 691.03 587.47 720.35 
3736 692.46 583.10 720.35 
3737 694.98 602.90 720.35 
3738 699.14 635.76 720.35 
3739 691.62 619.04 720.35 
3740 691.68 615.65 720.35 
3741 710.58 638.24 720.35 
3742 695.94 641.31 720.35 
3743 697.75 639.50 720.35 
3744 702.32 621.48 720.35 
3745 700.31 661.93 720.35 
3746 698.35 660.51 720.35 
3747 701.45 625.19 720.35 
3748 695.26 605.78 720.35 
3749 695.42 613.91 720.35 
3750 703.06 604.50 720.35 
3751 697.52 589.42 720.35 
3752 701.05 576.29 720.35 
3753 702.55 595.55 720.35 
3754 702.28 599.11 720.35 
3755 702.34 580.43 720.35 
3756 709.96 563.02 720.35 
3757 707.09 574.56 720.35 
3758 702.80 577.48 720.35 
3759 704.57 587.90 720.35 
3760 701.06 595.65 720.35 
3761 692.69 595.94 720.35 
3762 700.53 591.74 720.35 
3763 702.45 601.00 720.35 
3764 694.59 638.56 720.35 
3765 690.44 618.45 720.35 
3766 697.18 601.49 720.35 
3767 685.23 577.66 720.35 
3768 696.42 587.81 720.35 
3769 697.99 591.97 720.35 
3770 703.72 595.01 720.35 
3771 708.22 626.16 720.35 
3772 688.92 605.53 720.35 
3773 709.16 637.24 720.35 
3774 696.67 636.14 720.35 
3775 691.79 613.93 720.35 
3776 694.93 631.13 720.35 
3777 701.57 634.02 720.35 
3778 711.27 628.43 720.35 
3779 702.30 630.72 720.35 
3780 696.98 621.38 720.35 
3781 709.39 633.46 720.35 
3782 700.46 640.06 720.35 
3783 700.28 622.18 720.35 
3784 710.18 610.66 720.35 
3785 681.74 594.64 720.35 
3786 708.28 578.20 720.35 
3787 709.38 590.29 720.35 
3788 691.75 579.85 720.35 
3789 713.38 588.65 720.35 
3790 701.14 577.80 720.35 
3791 696.90 579.06 720.35 
3792 700.51 567.97 720.35 
3793 702.43 573.91 720.35 
3794 714.94 579.15 720.35 
3795 694.29 578.27 720.35 
3796 708.73 589.84 720.35 
3797 702.52 590.31 720.35 
3798 697.58 583.67 720.35 
3799 682.62 579.52 720.35 
3800 711.77 577.32 720.35 
3801 686.86 595.28 720.35 
3802 703.51 588.57 720.35 
3803 709.73 585.70 720.35 
3804 699.49 566.48 720.35 
3805 705.42 576.56 720.35 
3806 703.22 580.13 720.35 
3807 705.21 574.42 720.35 
3808 700.35 585.87 720.35 
3809 708.56 583.51 720.35 
3810 698.15 607.07 720.35 
3811 694.92 636.76 720.35 
3812 706.08 627.79 720.35 
3813 703.06 638.81 720.35 
3814 683.57 629.11 720.35 
3815 703.53 622.70 720.35 
3816 706.26 619.66 720.35 
3817 688.76 598.75 720.35 
3818 712.01 618.27 720.35 
3819 711.56 587.09 720.35 
3820 706.02 581.54 720.35 
3821 708.25 589.65 720.35 
3822 696.40 574.11 720.35 
3823 708.04 581.09 720.35 
3824 701.25 574.33 720.35 
3825 700.39 598.83 720.35 
3826 710.40 622.94 720.35 
3827 699.89 634.26 720.35 
3828 700.44 615.04 720.35 
3829 702.49 624.12 720.35 
3830 704.49 646.09 720.35 
3831 693.65 634.21 720.35 
3832 701.55 629.91 720.35 
3833 702.11 636.69 720.35 
3834 701.27 638.88 720.35 
3835 703.53 622.60 720.35 
3836 701.80 625.98 720.35 
3837 695.41 622.24 720.35 
3838 701.17 622.88 720.35 
3839 708.89 602.46 720.35 
3840 696.05 599.25 720.35 
3841 695.61 635.84 720.35 
3842 687.91 604.84 720.35 
3843 707.69 605.88 720.35 
3844 699.62 567.04 720.35 
3845 704.13 573.94 720.35 
3846 700.52 580.49 720.35 
3847 696.61 614.45 720.35 
3848 693.66 605.98 720.35 
3849 710.58 608.54 720.35 
3850 690.76 582.44 720.35 
3851 700.54 600.93 720.35 
3852 697.82 600.08 720.35 
3853 690.47 604.36 720.35 
3854 691.38 546.10 720.35 
3855 698.79 606.40 720.35 
3856 688.25 577.63 720.35 
3857 681.11 569.33 720.35 
3858 697.66 563.08 720.35 
3859 694.50 568.05 720.35 
3860 707.16 578.95 720.35 
3861 685.96 562.87 720.35 
3862 698.26 564.17 720.35 
3863 691.55 584.28 720.35 
3864 697.43 581.58 720.35 
3865 689.29 581.86 720.35 
3866 694.20 528.91 720.35 
3867 698.72 615.90 720.35 
3868 697.75 597.94 720.35 
3869 699.17 583.52 720.35 
3870 693.97 571.12 720.35 
3871 682.62 600.55 720.35 
3872 691.73 604.60 720.35 
3873 691.17 643.25 720.35 
3874 707.96 639.04 720.35 
3875 699.90 640.99 720.35 
3876 698.68 634.84 720.35 
3877 691.14 593.70 720.35 
3878 694.10 616.14 720.35 
3879 689.35 634.04 720.35 
3880 706.17 637.06 720.35 
3881 710.26 606.35 720.35 
3882 699.96 610.29 720.35 
3883 681.56 629.93 720.35 
3884 701.61 630.05 720.35 
3885 703.24 624.92 720.35 
3886 691.91 634.07 720.35 
3887 697.54 594.26 720.35 
3888 705.42 587.28 720.35 
3889 698.59 608.76 720.35 
3890 684.92 614.99 720.35 
3891 680.63 613.68 720.35 
3892 704.63 615.42 720.35 
3893 706.27 599.18 720.35 
3894 696.85 587.41 720.35 
3895 690.72 596.54 720.35 
3896 708.33 612.59 720.35 
3897 698.84 652.57 720.35 
3898 693.98 655.20 720.35 
3899 701.44 631.52 720.35 
3900 685.36 642.05 720.35 
3901 683.12 640.34 720.35 
3902 698.47 623.98 720.35 
3903 700.04 623.02 720.35 
3904 713.06 611.80 720.35 
3905 701.87 634.23 720.35 
3906 697.57 645.89 720.35 
3907 704.08 626.33 720.35 
3908 699.73 605.34 720.35 
3909 703.94 607.95 720.35 
3910 694.68 598.29 720.35 
3911 691.48 561.56 720.35 
3912 690.86 540.42 720.35 
3913 698.14 546.36 720.35 
3914 709.80 529.50 720.35 
3915 706.67 593.58 720.35 
3916 684.56 576.14 720.35 
3917 702.36 573.43 720.35 
3918 710.23 625.73 720.35 
3919 687.58 630.45 720.35 
3920 695.87 635.00 720.35 
3921 699.51 620.71 720.35 
3922 693.17 622.42 720.35 
3923 689.52 593.57 720.35 
3924 710.82 596.38 720.35 
3925 693.33 612.86 720.35 
3926 705.61 587.08 720.35 
3927 694.70 617.70 720.35 
3928 700.16 639.98 720.35 
3929 702.15 599.96 720.35 
3930 706.29 604.74 720.35 
3931 704.80 651.27 720.35 
3932 684.71 615.84 720.35 
3933 697.93 644.05 720.35 
3934 694.58 627.05 720.35 
3935 686.68 596.32 720.35 
3936 702.22 603.41 720.35 
3937 709.90 622.70 720.35 
3938 708.75 609.59 720.35 
3939 696.27 621.99 720.35 
3940 688.66 606.99 720.35 
3941 701.32 609.81 720.35 
3942 692.10 605.69 720.35 
3943 704.65 608.61 720.35 
3944 676.21 603.79 720.35 
3945 680.67 618.20 720.35 
3946 698.74 607.77 720.35 
3947 693.16 627.71 720.35 
3948 701.30 601.61 720.35 
3949 701.16 612.01 720.35 
3950 684.53 610.34 720.35 
3951 700.31 599.82 720.35 
3952 687.80 593.31 720.35 
3953 692.26 587.33 720.35 
3954 677.86 541.82 720.35 
3955 693.84 565.43 720.35 
3956 689.25 591.45 720.35 
3957 698.64 597.88 720.35 
3958 687.46 577.26 720.35 
3959 704.47 580.56 720.35 
3960 692.44 601.98 720.35 
3961 699.72 591.57 720.35 
3962 707.50 598.89 720.35 
3963 694.65 581.08 720.35 
3964 692.46 601.69 720.35 
3965 711.70 608.77 720.35 
3966 707.37 624.42 720.35 
3967 711.57 611.82 720.35 
3968 694.91 643.79 720.35 
3969 697.46 620.06 720.35 
3970 700.79 628.13 720.35 
3971 709.16 612.72 720.35 
3972 703.41 617.62 720.35 
3973 700.53 607.56 720.35 
3974 707.21 563.23 720.35 
3975 700.05 607.98 720.35 
3976 700.63 614.01 720.35 
3977 710.92 629.99 720.35 
3978 689.02 622.27 720.35 
3979 692.99 623.25 720.35 
3980 696.00 587.26 720.35 
3981 697.99 624.38 720.35 
3982 713.27 625.95 720.35 
3983 710.28 633.36 720.35 
3984 707.56 629.72 720.35 
3985 708.24 622.00 720.35 
3986 708.72 626.89 720.35 
3987 714.28 614.48 720.35 
3988 700.77 621.43 720.35 
3989 681.10 636.69 720.35 
3990 692.43 638.66 720.35 
3991 688.47 645.54 720.35 
3992 688.10 645.34 720.35 
3993 686.28 658.94 720.35 
3994 695.86 631.35 720.35 
3995 687.63 611.71 720.35 
3996 696.46 630.99 720.35 
3997 704.30 619.53 720.35 
3998 709.62 584.43 720.35 
3999 694.39 594.97 720.35 
4000 704.63 590.47 720.35 
4001 701.03 588.85 720.35 
4002 707.27 573.71 720.35 
4003 706.14 641.23 720.35 
4004 698.57 606.94 720.35 
4005 706.30 600.68 720.35 
4006 701.80 598.84 720.35 
4007 712.34 651.82 720.35 
4008 693.27 623.52 720.35 
4009 692.42 633.30 720.35 
4010 688.26 634.14 720.35 
4011 687.61 611.83 720.35 
4012 706.77 632.56 720.35 
4013 692.73 617.49 720.35 
4014 697.58 621.79 720.35 
4015 700.45 651.10 720.35 
4016 709.22 625.26 720.35 
4017 692.70 589.57 720.35 
4018 703.26 652.43 720.35 
4019 698.49 627.79 720.35 
4020 698.24 604.46 720.35 
4021 689.00 587.66 720.35 
4022 701.01 591.17 720.35 
4023 703.23 571.51 720.35 
4024 711.12 588.41 720.35 
4025 696.73 605.59 720.35 
4026 697.49 607.75 720.35 
4027 700.42 628.51 720.35 
4028 705.55 600.84 720.35 
4029 703.25 594.28 720.35 
4030 695.46 613.83 720.35 
4031 691.28 599.52 720.35 
4032 707.31 631.07 720.35 
4033 699.72 655.95 720.35 
4034 709.58 645.24 720.35 
4035 688.10 615.06 720.35 
4036 698.28 625.98 720.35 
4037 693.13 619.13 720.35 
4038 703.89 624.30 720.35 
4039 693.96 591.44 720.35 
4040 703.48 635.73 720.35 
4041 707.45 639.83 720.35 
4042 698.48 634.86 720.35 
4043 697.62 630.67 720.35 
4044 717.04 661.10 720.35 
4045 704.26 642.71 720.35 
4046 707.13 620.33 720.35 
4047 703.90 616.87 720.35 
4048 696.05 625.70 720.35 
4049 700.96 627.46 720.35 
4050 697.54 634.41 720.35 
4051 705.59 623.56 720.35 
4052 700.91 644.36 720.35 
4053 703.55 645.46 720.35 
4054 704.50 666.49 720.35 
4055 703.35 666.39 720.35 
4056 710.59 657.39 720.35 
4057 689.13 666.17 720.35 
4058 697.91 637.66 720.35 
4059 699.03 668.39 720.35 
4060 689.75 642.46 720.35 
4061 705.60 621.37 720.35 
4062 707.53 613.33 720.35 
4063 690.16 629.03 720.35 
4064 702.38 600.52 720.35 
4065 690.49 617.26 720.35 
4066 701.11 564.10 720.35 
4067 691.43 580.75 720.35 
4068 698.11 598.98 720.35 
4069 693.05 577.44 720.35 
4070 690.43 568.30 720.35 
4071 697.49 553.05 720.35 
4072 704.52 554.48 720.35 
4073 706.16 532.70 720.35 
4074 677.40 537.88 720.35 
4075 706.50 557.55 720.35 
4076 704.43 542.47 720.35 
4077 688.47 591.64 720.35 
4078 692.19 580.62 720.35 
4079 685.97 581.47 720.35 
4080 679.62 565.26 720.35 
4081 710.03 567.00 720.35 
4082 687.95 564.56 720.35 
4083 694.53 548.18 720.35 
4084 674.64 536.67 720.35 
4085 701.11 544.32 720.35 
4086 690.78 565.76 720.35 
4087 707.86 559.63 720.35 
4088 688.51 515.24 720.35 
4089 705.15 568.01 720.35 
4090 708.02 607.10 720.35 
4091 700.92 604.00 720.35 
4092 708.96 596.24 720.35 
4093 698.61 604.91 720.35 
4094 675.40 581.39 720.35 
4095 693.13 546.00 720.35 
4096 695.42 521.63 720.35 
4097 693.71 528.75 720.35 
4098 701.14 569.14 720.35 
4099 711.44 594.20 720.35 
4100 700.64 599.92 720.35 
4101 722.22 622.49 720.35 
4102 693.16 616.86 722.22 
4103 713.10 610.00 722.22 
4104 708.72 647.23 722.22 
4105 694.19 600.15 722.22 
4106 700.00 604.14 722.22 
4107 690.02 603.85 722.22 
4108 692.98 589.01 722.22 
4109 704.75 614.69 722.22 
4110 696.99 630.52 722.22 
4111 711.34 657.07 722.22 
4112 679.73 625.81 722.22 
4113 702.30 608.50 722.22 
4114 714.21 626.26 722.22 
4115 712.78 628.62 722.22 
4116 709.68 654.04 722.22 
4117 696.63 649.56 722.22 
4118 705.84 618.20 722.22 
4119 711.88 609.64 722.22 
4120 709.95 603.32 722.22 
4121 711.42 596.33 722.22 
4122 700.63 600.08 722.22 
4123 699.35 588.84 722.22 
4124 698.12 589.35 722.22 
4125 699.98 569.18 722.22 
4126 700.51 579.71 722.22 
4127 691.76 523.79 722.22 
4128 706.11 551.93 722.22 
4129 708.39 566.02 722.22 
4130 709.22 580.03 722.22 
4131 696.62 592.01 722.22 
4132 707.07 586.63 722.22 
4133 693.55 580.33 722.22 
4134 687.37 603.18 722.22 
4135 703.41 579.76 722.22 
4136 696.94 573.89 722.22 
4137 684.59 545.92 722.22 
4138 696.03 504.23 722.22 
4139 704.89 587.04 722.22 
4140 711.15 591.19 722.22 
4141 711.46 612.78 722.22 
4142 704.08 639.71 722.22 
4143 694.39 575.85 722.22 
4144 702.14 567.99 722.22 
4145 701.00 602.32 722.22 
4146 699.85 574.19 722.22 
4147 707.78 565.37 722.22 
4148 707.40 534.30 722.22 
4149 716.94 560.38 722.22 
4150 709.94 591.83 722.22 
4151 701.50 604.80 722.22 
4152 709.42 607.36 722.22 
4153 661.26 593.90 722.22 
4154 703.50 624.64 722.22 
4155 700.79 584.30 722.22 
4156 697.74 586.92 722.22 
4157 703.62 609.05 722.22 
4158 694.96 613.49 722.22 
4159 706.33 604.44 722.22 
4160 681.94 603.36 722.22 
4161 696.99 572.46 722.22 
4162 707.37 592.08 722.22 
4163 699.90 579.11 722.22 
4164 706.58 576.87 722.22 
4165 690.44 575.49 722.22 
4166 697.39 589.81 722.22 
4167 706.05 594.59 722.22 
4168 697.72 619.47 722.22 
4169 704.23 621.02 722.22 
4170 698.56 602.20 722.22 
4171 686.04 593.72 722.22 
4172 704.01 619.90 722.22 
4173 703.60 625.56 722.22 
4174 707.42 636.33 722.22 
4175 692.67 606.28 722.22 
4176 707.84 608.81 722.22 
4177 719.72 557.30 722.22 
4178 687.48 554.18 722.22 
4179 706.13 602.98 722.22 
4180 707.53 630.93 722.22 
4181 704.16 597.22 722.22 
4182 704.26 588.00 722.22 
4183 685.37 567.77 722.22 
4184 700.16 571.45 722.22 
4185 693.24 574.16 722.22 
4186 678.82 568.12 722.22 
4187 699.02 571.98 722.22 
4188 715.73 581.80 722.22 
4189 700.84 583.64 722.22 
4190 709.00 579.11 722.22 
4191 703.83 589.83 722.22 
4192 700.52 593.60 722.22 
4193 710.22 596.97 722.22 
4194 693.92 605.00 722.22 
4195 709.47 600.82 722.22 
4196 688.73 594.37 722.22 
4197 708.76 562.55 722.22 
4198 691.05 539.66 722.22 
4199 687.81 568.00 722.22 
4200 702.12 599.02 722.22 
4201 707.53 586.76 722.22 
4202 698.80 588.00 722.22 
4203 709.93 587.40 722.22 
4204 708.68 580.26 722.22 
4205 704.89 593.65 722.22 
4206 704.34 600.86 722.22 
4207 692.20 603.46 722.22 
4208 697.00 630.60 722.22 
4209 701.95 635.90 722.22 
4210 694.24 639.01 722.22 
4211 686.36 625.62 722.22 
4212 708.58 628.06 722.22 
4213 711.41 636.61 722.22 
4214 714.63 664.86 722.22 
4215 679.54 643.51 722.22 
4216 700.92 636.01 722.22 
4217 710.60 656.29 722.22 
4218 688.79 639.22 722.22 
4219 688.91 647.71 722.22 
4220 711.79 640.07 722.22 
4221 690.56 606.97 722.22 
4222 707.33 623.64 722.22 
4223 713.53 604.43 722.22 
4224 713.03 597.52 722.22 
4225 703.32 601.01 722.22 
4226 704.33 593.15 722.22 
4227 697.68 631.37 722.22 
4228 693.82 656.77 722.22 
4229 704.74 669.12 722.22 
4230 695.80 648.01 722.22 
4231 697.42 672.20 722.22 
4232 704.72 676.66 722.22 
4233 686.75 648.65 722.22 
4234 702.21 664.35 722.22 
4235 694.51 626.21 722.22 
4236 675.94 617.05 722.22 
4237 680.60 602.15 722.22 
4238 701.59 607.58 722.22 
4239 695.63 608.30 722.22 
4240 690.55 614.12 722.22 
4241 705.52 663.22 722.22 
4242 702.03 638.15 722.22 
4243 695.56 643.39 722.22 
4244 706.57 649.99 722.22 
4245 691.69 638.47 722.22 
4246 691.46 641.65 722.22 
4247 694.27 623.37 722.22 
4248 696.69 649.39 722.22 
4249 714.74 644.57 722.22 
4250 683.42 632.21 722.22 
4251 718.59 647.48 722.22 
4252 679.78 652.32 722.22 
4253 694.72 652.83 722.22 
4254 701.62 627.84 722.22 
4255 698.44 662.21 722.22 
4256 693.23 657.78 722.22 
4257 707.24 636.33 722.22 
4258 707.51 659.99 722.22 
4259 702.65 653.71 722.22 
4260 688.93 653.66 722.22 
4261 694.55 657.31 722.22 
4262 696.02 656.20 722.22 
4263 697.84 644.70 722.22 
4264 691.71 612.57 722.22 
4265 710.41 650.93 722.22 
4266 685.08 625.71 722.22 
4267 695.55 621.38 722.22 
4268 704.83 616.82 722.22 
4269 710.43 585.94 722.22 
4270 696.97 591.88 722.22 
4271 707.12 567.71 722.22 
4272 698.46 557.99 722.22 
4273 711.74 540.50 722.22 
4274 690.84 556.76 722.22 
4275 709.87 591.63 722.22 
4276 688.60 589.99 722.22 
4277 698.52 594.28 722.22 
4278 696.45 595.61 722.22 
4279 698.82 622.19 722.22 
4280 714.21 634.02 722.22 
4281 713.66 619.12 722.22 
4282 697.65 600.24 722.22 
4283 698.00 607.20 722.22 
4284 679.60 616.48 722.22 
4285 708.58 626.21 722.22 
4286 680.13 632.22 722.22 
4287 698.72 648.66 722.22 
4288 690.36 655.23 722.22 
4289 678.98 634.48 722.22 
4290 701.19 605.08 722.22 
4291 701.56 612.00 722.22 
4292 695.09 599.55 722.22 
4293 698.01 603.00 722.22 
4294 703.08 604.89 722.22 
4295 706.21 568.40 722.22 
4296 703.48 616.55 722.22 
4297 701.45 632.56 722.22 
4298 704.34 654.00 722.22 
4299 710.96 646.10 722.22 
4300 701.18 667.69 722.22 
4301 707.59 694.41 722.22 
4302 695.30 639.06 722.22 
4303 710.89 660.55 722.22 
4304 684.89 656.20 722.22 
4305 703.91 659.58 722.22 
4306 707.62 656.16 722.22 
4307 712.15 649.55 722.22 
4308 703.85 653.93 722.22 
4309 699.29 649.43 722.22 
4310 698.17 613.58 722.22 
4311 705.64 631.16 722.22 
4312 697.41 604.30 722.22 
4313 708.28 597.59 722.22 
4314 701.61 607.92 722.22 
4315 699.55 594.31 722.22 
4316 712.34 602.87 722.22 
4317 702.70 622.88 722.22 
4318 686.96 626.42 722.22 
4319 706.63 630.22 722.22 
4320 699.27 617.96 722.22 
4321 707.42 627.58 722.22 
4322 701.86 591.33 722.22 
4323 708.97 585.22 722.22 
4324 705.55 619.05 722.22 
4325 695.51 615.52 722.22 
4326 705.33 616.26 722.22 
4327 699.51 635.63 722.22 
4328 701.16 630.01 722.22 
4329 719.44 605.63 722.22 
4330 698.80 595.16 722.22 
4331 714.44 609.96 722.22 
4332 708.13 634.62 722.22 
4333 688.02 599.13 722.22 
4334 692.99 599.30 722.22 
4335 690.65 600.90 722.22 
4336 697.40 615.58 722.22 
4337 694.27 597.12 722.22 
4338 697.10 583.84 722.22 
4339 697.76 584.67 722.22 
4340 703.77 604.98 722.22 
4341 695.17 611.53 722.22 
4342 695.24 599.24 722.22 
4343 695.78 584.89 722.22 
4344 703.78 622.34 722.22 
4345 691.69 613.53 722.22 
4346 709.92 613.90 722.22 
4347 710.89 628.44 722.22 
4348 694.10 607.16 722.22 
4349 697.53 618.23 722.22 
4350 701.07 596.11 722.22 
4351 706.69 622.91 722.22 
4352 698.55 631.75 722.22 
4353 692.67 605.46 722.22 
4354 690.41 645.80 722.22 
4355 685.27 612.20 722.22 
4356 706.80 641.60 722.22 
4357 704.72 628.99 722.22 
4358 709.50 618.02 722.22 
4359 710.61 628.03 722.22 
4360 702.32 648.49 722.22 
4361 697.28 640.53 722.22 
4362 703.78 656.40 722.22 
4363 697.66 605.35 722.22 
4364 683.11 609.82 722.22 
4365 695.34 626.49 722.22 
4366 682.02 640.30 722.22 
4367 679.58 687.05 722.22 
4368 697.37 651.27 722.22 
4369 689.97 688.69 722.22 
4370 707.47 692.76 722.22 
4371 698.07 691.87 722.22 
4372 691.48 661.81 722.22 
4373 699.68 680.12 722.22 
4374 702.84 684.67 722.22 
4375 694.04 678.17 722.22 
4376 701.57 676.89 722.22 
4377 701.77 645.18 722.22 
4378 696.11 643.00 722.22 
4379 703.14 645.70 722.22 
4380 694.27 643.42 722.22 
4381 708.16 614.21 722.22 
4382 699.06 619.50 722.22 
4383 683.59 624.52 722.22 
4384 691.51 638.89 722.22 
4385 704.66 640.27 722.22 
4386 689.55 648.65 722.22 
4387 685.35 628.93 722.22 
4388 689.00 655.72 722.22 
4389 695.50 654.68 722.22 
4390 694.44 647.88 722.22 
4391 699.68 642.31 722.22 
4392 695.26 671.65 722.22 
4393 673.50 656.12 722.22 
4394 687.15 637.19 722.22 
4395 688.73 651.76 722.22 
4396 684.90 641.94 722.22 
4397 694.76 627.66 722.22 
4398 694.36 636.45 722.22 
4399 689.07 602.10 722.22 
4400 698.55 596.35 722.22 
4401 700.49 638.49 722.22 
4402 713.75 619.34 722.22 
4403 695.05 618.67 722.22 
4404 696.45 639.64 722.22 
4405 695.12 647.11 722.22 
4406 682.84 630.30 722.22 
4407 658.94 658.43 722.22 
4408 683.16 640.42 722.22 
4409 704.86 639.42 722.22 
4410 714.06 663.19 722.22 
4411 702.85 670.61 722.22 
4412 699.80 670.96 722.22 
4413 703.85 652.95 722.22 
4414 705.01 643.99 722.22 
4415 699.47 655.92 722.22 
4416 708.62 653.71 722.22 
4417 695.67 652.19 722.22 
4418 690.60 630.91 722.22 
4419 698.50 647.15 722.22 
4420 705.58 639.26 722.22 
4421 710.79 638.98 722.22 
4422 705.23 629.06 722.22 
4423 696.29 651.08 722.22 
4424 710.53 609.86 722.22 
4425 694.17 606.89 722.22 
4426 702.93 615.26 722.22 
4427 700.42 617.65 722.22 
4428 704.86 614.11 722.22 
4429 690.91 613.86 722.22 
4430 695.90 594.36 722.22 
4431 713.25 656.93 722.22 
4432 673.06 631.34 722.22 
4433 698.95 634.43 722.22 
4434 696.41 639.55 722.22 
4435 696.37 641.92 722.22 
4436 703.46 640.57 722.22 
4437 699.99 648.87 722.22 
4438 691.68 640.02 722.22 
4439 700.06 642.53 722.22 
4440 692.52 660.88 722.22 
4441 692.11 639.24 722.22 
4442 693.59 646.05 722.22 
