Iter | Sampling Pol | Evaluation Pol | Best (Sampled) 
   0 -21.77 -17.22 -100000000.00 
   1 -4.27 -17.85 -21.77 
   2  6.19 -15.57 -4.27 
   3 14.82 -7.25  6.19 
   4 26.66 -6.72 14.82 
   5 41.18 -6.31 26.66 
   6 60.80 -5.63 41.18 
   7 83.13 -5.45 60.80 
   8 113.08 -5.05 83.13 
   9 146.22 173.00 113.08 
  10 199.88 654.30 146.22 
  11 272.48 686.51 199.88 
  12 345.86 710.62 272.48 
  13 414.72 718.71 345.86 
  14 467.20 714.81 414.72 
  15 509.78 755.06 467.20 
  16 550.51 759.01 509.78 
  17 585.00 759.01 550.51 
  18 621.66 755.01 585.00 
  19 646.20 755.09 621.66 
  20 663.48 759.17 646.20 
  21 682.17 751.14 663.48 
  22 699.72 759.15 682.17 
  23 705.16 759.11 699.72 
  24 705.66 759.10 705.16 
  25 709.42 751.14 705.66 
  26 713.82 759.13 709.42 
  27 715.91 759.11 713.82 
  28 715.99 759.12 715.91 
  29 721.63 759.16 715.99 
  30 720.50 755.11 721.63 
  31 723.18 755.19 721.63 
  32 726.11 759.19 723.18 
  33 727.32 759.15 726.11 
  34 726.61 755.16 727.32 
  35 729.18 759.18 727.32 
  36 730.81 759.26 729.18 
  37 731.23 759.21 730.81 
  38 732.49 759.20 731.23 
  39 735.37 759.20 732.49 
  40 733.53 759.25 735.37 
  41 735.33 759.25 735.37 
  42 736.96 759.27 735.37 
  43 736.84 759.29 736.96 
  44 736.39 759.29 736.96 
  45 740.23 759.27 736.96 
  46 738.47 759.28 740.23 
  47 741.77 759.30 740.23 
  48 741.61 759.29 741.77 
  49 739.77 759.29 741.77 
  50 739.53 759.30 741.77 
  51 741.49 759.29 741.77 
  52 741.91 759.28 741.77 
  53 741.62 759.29 741.91 
  54 742.96 759.27 741.91 
  55 742.08 759.29 742.96 
  56 742.54 759.29 742.96 
  57 743.33 759.29 742.96 
  58 743.63 759.27 743.33 
  59 745.18 759.27 743.63 
  60 745.72 759.26 745.18 
  61 744.21 759.29 745.72 
  62 745.93 759.25 745.72 
  63 743.63 759.24 745.93 
  64 746.90 759.25 745.93 
  65 744.26 759.27 746.90 
  66 744.60 759.23 746.90 
  67 746.77 759.27 746.90 
  68 747.23 759.25 746.90 
  69 744.63 759.25 747.23 
  70 747.44 759.23 747.23 
  71 748.03 759.24 747.44 
  72 748.57 759.28 748.03 
  73 746.82 759.25 748.57 
  74 747.44 759.29 748.57 
  75 747.78 759.27 748.57 
  76 748.91 759.26 748.57 
  77 748.83 759.25 748.91 
  78 750.16 759.28 748.91 
  79 750.79 759.23 750.16 
  80 749.74 759.27 750.79 
  81 750.63 759.28 750.79 
  82 752.09 759.24 750.79 
  83 751.13 759.21 752.09 
  84 751.22 759.25 752.09 
  85 749.92 759.23 752.09 
  86 752.63 759.22 752.09 
  87 750.00 759.20 752.63 
  88 751.38 759.20 752.63 
  89 750.55 759.16 752.63 
  90 751.63 759.17 752.63 
  91 751.63 759.21 752.63 
  92 751.88 759.21 752.63 
  93 751.88 759.14 752.63 
  94 750.80 759.19 752.63 
  95 751.00 759.22 752.63 
  96 752.43 759.20 752.63 
  97 751.55 759.20 752.63 
  98 751.88 759.20 752.63 
  99 751.18 759.20 752.63 
 100 751.85 759.22 752.63 
 101 751.85 759.19 752.63 
 102 752.39 759.18 752.63 
 103 752.98 759.18 752.63 
 104 752.10 759.21 752.98 
 105 753.31 759.20 752.98 
 106 753.10 759.22 753.31 
 107 753.60 759.20 753.31 
 108 752.60 759.19 753.60 
 109 754.11 759.23 753.60 
 110 753.39 759.23 754.11 
 111 753.26 759.21 754.11 
 112 753.48 759.19 754.11 
 113 753.31 759.20 754.11 
 114 754.06 759.22 754.11 
 115 754.57 759.22 754.11 
 116 753.78 759.25 754.57 
 117 754.02 759.21 754.57 
 118 752.68 759.25 754.57 
 119 754.36 759.22 754.57 
 120 753.11 759.22 754.57 
 121 754.56 759.23 754.57 
 122 753.94 759.20 754.57 
 123 753.44 759.22 754.57 
 124 754.36 759.21 754.57 
 125 754.82 759.22 754.57 
 126 754.11 759.20 754.82 
 127 753.69 759.21 754.82 
 128 754.32 759.17 754.82 
 129 753.32 759.18 754.82 
 130 754.77 759.16 754.82 
 131 754.14 759.16 754.82 
 132 754.19 759.20 754.82 
 133 754.32 759.21 754.82 
 134 754.10 759.18 754.82 
 135 754.61 759.19 754.82 
 136 754.86 759.22 754.82 
 137 754.74 759.17 754.86 
 138 753.94 759.20 754.86 
 139 755.11 759.17 754.86 
 140 754.44 759.18 755.11 
 141 753.90 759.19 755.11 
 142 754.16 759.20 755.11 
 143 754.86 759.21 755.11 
 144 754.74 759.20 755.11 
 145 754.50 759.17 755.11 
 146 754.29 759.19 755.11 
 147 755.37 759.18 755.11 
 148 754.58 759.18 755.37 
 149 755.11 759.19 755.37 
 150 753.99 759.19 755.37 
 151 755.49 759.18 755.37 
 152 754.95 759.19 755.49 
 153 754.82 759.20 755.49 
 154 754.61 759.22 755.49 
 155 754.28 759.22 755.49 
 156 753.70 759.21 755.49 
 157 754.99 759.19 755.49 
 158 754.96 759.18 755.49 
 159 756.08 759.19 755.49 
 160 755.15 759.20 756.08 
 161 755.37 759.20 756.08 
 162 753.95 759.21 756.08 
 163 755.07 759.21 756.08 
 164 754.45 759.18 756.08 
 165 754.83 759.19 756.08 
 166 755.33 759.24 756.08 
 167 755.70 759.21 756.08 
 168 755.66 759.25 756.08 
 169 755.66 759.25 756.08 
 170 754.99 759.23 756.08 
 171 755.83 759.22 756.08 
 172 754.29 759.21 756.08 
 173 755.08 759.20 756.08 
 174 755.95 759.19 756.08 
 175 754.62 759.22 756.08 
 176 755.41 759.20 756.08 
 177 754.87 759.20 756.08 
 178 755.45 759.19 756.08 
 179 755.82 759.21 756.08 
 180 756.46 759.19 756.08 
 181 756.25 759.23 756.46 
 182 756.12 759.21 756.46 
 183 755.99 759.18 756.46 
 184 755.66 759.20 756.46 
 185 755.83 759.20 756.46 
 186 756.33 759.20 756.46 
 187 755.37 759.18 756.46 
 188 756.25 759.15 756.46 
 189 756.42 759.19 756.46 
 190 755.75 755.17 756.46 
 191 756.20 759.19 756.46 
 192 756.32 759.19 756.46 
 193 755.58 759.17 756.46 
 194 755.92 759.18 756.46 
 195 755.78 759.21 756.46 
 196 755.87 759.18 756.46 
 197 755.62 759.18 756.46 
 198 756.00 759.19 756.46 
 199 756.38 759.20 756.46 
 200 755.78 759.22 756.46 
 201 755.87 759.20 756.46 
 202 756.17 759.17 756.46 
 203 755.45 759.19 756.46 
 204 755.12 759.22 756.46 
 205 756.08 755.20 756.46 
 206 756.37 759.20 756.46 
 207 756.29 759.19 756.46 
 208 756.00 759.21 756.46 
 209 755.75 759.20 756.46 
 210 756.33 759.15 756.46 
 211 755.66 759.19 756.46 
 212 756.13 759.17 756.46 
 213 756.08 759.18 756.46 
 214 756.04 759.13 756.46 
 215 755.12 759.20 756.46 
 216 755.87 759.16 756.46 
 217 755.71 759.17 756.46 
 218 756.33 759.15 756.46 
 219 755.62 759.16 756.46 
 220 755.74 759.16 756.46 
 221 755.29 759.20 756.46 
 222 755.87 759.19 756.46 
 223 755.54 759.18 756.46 
 224 756.66 759.17 756.46 
 225 756.91 759.17 756.66 
 226 755.74 755.17 756.91 
 227 754.82 759.13 756.91 
 228 755.87 759.22 756.91 
 229 755.83 759.18 756.91 
 230 756.50 759.18 756.91 
 231 755.71 759.25 756.91 
 232 755.79 759.22 756.91 
 233 756.12 759.21 756.91 
 234 756.05 759.18 756.91 
 235 756.34 759.19 756.91 
 236 756.84 759.17 756.91 
 237 755.63 759.17 756.91 
 238 756.09 759.18 756.91 
 239 755.55 759.22 756.91 
 240 756.50 759.22 756.91 
 241 755.88 759.15 756.91 
 242 756.34 759.14 756.91 
 243 755.37 759.16 756.91 
 244 756.62 759.20 756.91 
 245 755.33 759.22 756.91 
 246 756.12 759.20 756.91 
 247 755.92 759.15 756.91 
 248 755.96 759.19 756.91 
 249 757.38 759.21 756.91 
 250 755.75 759.20 757.38 
 251 756.38 759.18 757.38 
 252 756.13 759.17 757.38 
 253 756.30 759.16 757.38 
 254 756.21 759.18 757.38 
 255 756.67 759.22 757.38 
 256 756.76 759.19 757.38 
 257 756.25 759.19 757.38 
 258 756.67 759.20 757.38 
 259 756.16 759.20 757.38 
 260 756.13 759.20 757.38 
 261 755.75 759.21 757.38 
 262 756.01 759.20 757.38 
 263 756.42 759.21 757.38 
 264 756.54 759.17 757.38 
 265 756.00 759.18 757.38 
 266 756.13 759.20 757.38 
 267 756.38 759.19 757.38 
 268 756.46 759.17 757.38 
 269 756.34 759.17 757.38 
 270 756.97 759.22 757.38 
 271 756.76 759.20 757.38 
 272 756.67 759.19 757.38 
 273 756.50 759.19 757.38 
 274 756.30 759.21 757.38 
 275 756.60 759.22 757.38 
 276 756.59 759.21 757.38 
 277 756.85 759.20 757.38 
 278 756.34 759.16 757.38 
 279 756.26 759.18 757.38 
 280 756.43 759.19 757.38 
 281 756.30 759.23 757.38 
 282 756.72 759.20 757.38 
 283 756.51 759.21 757.38 
 284 756.34 759.18 757.38 
 285 756.51 759.18 757.38 
 286 756.22 759.18 757.38 
 287 756.42 759.18 757.38 
 288 756.34 759.16 757.38 
 289 756.13 759.16 757.38 
 290 756.05 759.17 757.38 
 291 756.34 759.13 757.38 
 292 756.05 759.15 757.38 
 293 756.01 759.14 757.38 
 294 756.51 759.19 757.38 
 295 756.55 759.17 757.38 
 296 756.97 759.20 757.38 
 297 756.30 759.13 757.38 
 298 756.55 759.23 757.38 
 299 756.04 759.17 757.38 
 300 756.17 759.17 757.38 
 301 756.76 759.16 757.38 
 302 755.92 759.18 757.38 
 303 756.08 759.16 757.38 
 304 756.54 759.20 757.38 
 305 755.74 759.18 757.38 
 306 755.75 759.16 757.38 
 307 756.62 759.17 757.38 
 308 756.42 759.16 757.38 
 309 757.12 759.15 757.38 
 310 756.55 759.15 757.38 
 311 756.63 759.18 757.38 
 312 756.46 759.16 757.38 
 313 756.71 759.16 757.38 
 314 756.24 759.18 757.38 
 315 756.79 759.18 757.38 
 316 756.25 759.17 757.38 
 317 757.00 759.17 757.38 
 318 756.75 759.18 757.38 
 319 757.38 759.17 757.38 
 320 756.38 759.17 757.38 
 321 757.13 759.18 757.38 
 322 756.67 759.22 757.38 
 323 756.55 759.14 757.38 
 324 756.88 759.19 757.38 
 325 756.42 759.20 757.38 
 326 756.29 759.20 757.38 
 327 756.46 759.17 757.38 
 328 756.84 759.19 757.38 
 329 757.01 759.18 757.38 
 330 756.21 759.20 757.38 
 331 756.41 759.18 757.38 
 332 756.42 759.19 757.38 
 333 756.46 759.16 757.38 
 334 756.71 759.15 757.38 
 335 756.38 759.17 757.38 
 336 756.97 759.13 757.38 
 337 756.67 759.19 757.38 
 338 756.33 759.20 757.38 
 339 756.87 759.18 757.38 
 340 757.34 759.16 757.38 
 341 757.08 759.18 757.38 
 342 756.96 759.18 757.38 
 343 756.16 759.18 757.38 
 344 756.75 759.17 757.38 
 345 756.70 759.16 757.38 
 346 756.41 759.20 757.38 
 347 756.71 759.18 757.38 
 348 756.46 759.17 757.38 
 349 756.84 759.14 757.38 
 350 757.21 759.18 757.38 
 351 756.96 759.17 757.38 
 352 757.12 759.18 757.38 
 353 757.13 759.21 757.38 
 354 757.52 759.19 757.38 
 355 756.84 759.13 757.52 
 356 756.92 759.20 757.52 
 357 757.22 759.18 757.52 
 358 756.59 759.16 757.52 
 359 757.84 759.17 757.52 
 360 756.72 759.19 757.84 
 361 757.01 759.21 757.84 
 362 757.30 759.14 757.84 
 363 758.01 759.18 757.84 
 364 756.84 759.18 758.01 
 365 756.84 759.20 758.01 
 366 757.26 759.16 758.01 
 367 756.46 759.18 758.01 
 368 756.68 759.17 758.01 
 369 756.46 759.16 758.01 
 370 756.88 759.16 758.01 
 371 756.84 759.18 758.01 
 372 756.71 755.19 758.01 
 373 757.59 759.20 758.01 
 374 756.63 759.20 758.01 
 375 756.05 759.19 758.01 
 376 756.93 759.20 758.01 
 377 756.63 759.20 758.01 
 378 757.34 759.20 758.01 
 379 756.34 759.20 758.01 
 380 756.67 759.17 758.01 
 381 756.50 759.18 758.01 
 382 757.30 759.16 758.01 
 383 756.96 759.15 758.01 
 384 756.67 759.14 758.01 
 385 756.13 759.16 758.01 
 386 756.93 759.19 758.01 
 387 756.67 759.16 758.01 
 388 756.80 759.18 758.01 
 389 757.22 759.21 758.01 
 390 756.97 759.15 758.01 
 391 756.93 759.17 758.01 
 392 756.55 759.18 758.01 
 393 757.10 759.19 758.01 
 394 756.96 759.21 758.01 
 395 756.63 759.16 758.01 
 396 757.13 759.18 758.01 
 397 756.43 759.17 758.01 
 398 756.89 759.16 758.01 
 399 756.72 759.19 758.01 
 400 756.38 759.19 758.01 
 401 757.05 759.18 758.01 
 402 756.43 759.18 758.01 
 403 756.68 759.15 758.01 
 404 757.43 759.18 758.01 
 405 757.02 759.17 758.01 
 406 757.72 759.17 758.01 
 407 756.97 759.18 758.01 
 408 756.84 759.12 758.01 
 409 757.22 759.16 758.01 
 410 757.97 755.12 758.01 
 411 757.09 759.14 758.01 
 412 757.18 759.15 758.01 
 413 756.76 759.15 758.01 
 414 757.18 759.15 758.01 
 415 757.97 759.14 758.01 
 416 757.22 759.17 758.01 
 417 757.55 759.17 758.01 
 418 757.43 759.18 758.01 
 419 757.30 759.13 758.01 
 420 757.05 759.18 758.01 
 421 757.26 759.14 758.01 
 422 757.01 759.15 758.01 
 423 756.80 759.17 758.01 
 424 757.21 759.17 758.01 
 425 757.26 759.14 758.01 
 426 756.75 759.15 758.01 
 427 757.80 759.15 758.01 
 428 757.67 759.13 758.01 
 429 757.22 759.16 758.01 
 430 757.26 759.15 758.01 
 431 757.38 759.14 758.01 
 432 756.63 759.16 758.01 
 433 757.13 759.13 758.01 
 434 757.04 759.14 758.01 
 435 757.21 759.11 758.01 
 436 757.17 759.16 758.01 
 437 757.17 759.16 758.01 
 438 756.75 759.17 758.01 
 439 757.38 759.15 758.01 
 440 757.50 759.14 758.01 
 441 756.92 759.18 758.01 
 442 757.26 759.14 758.01 
 443 757.21 759.12 758.01 
 444 757.29 759.17 758.01 
 445 757.41 759.16 758.01 
 446 756.71 759.16 758.01 
 447 757.29 759.13 758.01 
 448 757.00 759.14 758.01 
 449 757.21 759.16 758.01 
 450 757.50 759.16 758.01 
 451 757.09 759.17 758.01 
 452 757.42 759.13 758.01 
 453 757.67 759.13 758.01 
 454 757.38 759.17 758.01 
 455 757.63 759.12 758.01 
 456 757.55 759.15 758.01 
 457 757.38 759.15 758.01 
 458 756.92 759.14 758.01 
 459 757.34 759.16 758.01 
 460 757.00 759.14 758.01 
 461 757.50 759.11 758.01 
 462 757.29 759.18 758.01 
 463 757.62 759.15 758.01 
 464 757.17 759.12 758.01 
 465 757.71 759.13 758.01 
 466 757.54 759.14 758.01 
 467 757.70 759.15 758.01 
 468 757.41 759.14 758.01 
 469 757.00 759.10 758.01 
 470 757.29 759.13 758.01 
 471 757.63 759.09 758.01 
 472 757.46 759.17 758.01 
 473 757.04 759.13 758.01 
 474 757.21 759.15 758.01 
 475 757.71 759.11 758.01 
 476 757.17 759.11 758.01 
 477 757.25 759.15 758.01 
 478 757.38 759.13 758.01 
 479 757.67 759.11 758.01 
 480 757.33 759.14 758.01 
 481 756.96 759.13 758.01 
 482 757.42 759.13 758.01 
 483 757.88 759.13 758.01 
 484 757.08 759.12 758.01 
 485 757.00 759.09 758.01 
 486 757.08 759.14 758.01 
 487 757.79 759.14 758.01 
 488 756.79 759.12 758.01 
 489 757.16 759.15 758.01 
 490 757.04 759.12 758.01 
 491 757.50 759.17 758.01 
 492 757.42 759.14 758.01 
 493 757.42 759.13 758.01 
 494 757.84 759.14 758.01 
 495 757.62 759.13 758.01 
 496 757.16 759.15 758.01 
 497 757.41 759.14 758.01 
 498 756.62 759.15 758.01 
 499 757.41 759.13 758.01 
 500 757.49 759.11 758.01 
 501 757.12 759.14 758.01 
 502 757.66 759.15 758.01 
 503 757.37 759.16 758.01 
 504 757.96 759.11 758.01 
 505 757.62 759.11 758.01 
 506 756.99 759.16 758.01 
 507 757.37 759.12 758.01 
 508 757.70 759.13 758.01 
 509 757.45 759.12 758.01 
 510 757.03 759.13 758.01 
 511 757.29 759.11 758.01 
 512 756.95 759.12 758.01 
 513 756.82 759.07 758.01 
 514 756.61 759.11 758.01 
 515 757.62 759.14 758.01 
 516 757.99 759.09 758.01 
 517 757.41 759.14 758.01 
 518 757.34 759.14 758.01 
 519 757.50 759.14 758.01 
 520 757.37 759.14 758.01 
 521 757.33 759.13 758.01 
 522 757.33 759.10 758.01 
 523 757.25 759.13 758.01 
 524 757.18 759.13 758.01 
 525 757.21 759.16 758.01 
 526 757.09 759.09 758.01 
 527 756.75 759.10 758.01 
 528 757.33 759.14 758.01 
 529 756.92 759.13 758.01 
 530 757.71 759.14 758.01 
 531 757.67 759.17 758.01 
 532 757.04 759.13 758.01 
 533 757.21 759.16 758.01 
 534 757.38 759.13 758.01 
 535 757.67 759.10 758.01 
 536 757.42 759.14 758.01 
 537 756.83 759.15 758.01 
 538 757.67 759.12 758.01 
 539 757.71 759.11 758.01 
 540 757.50 759.11 758.01 
 541 757.59 759.12 758.01 
 542 757.92 759.15 758.01 
 543 757.63 759.11 758.01 
 544 757.42 759.14 758.01 
 545 756.88 759.11 758.01 
 546 757.72 759.17 758.01 
 547 757.60 759.13 758.01 
 548 756.92 759.13 758.01 
 549 757.84 759.14 758.01 
 550 757.38 759.13 758.01 
 551 757.38 759.14 758.01 
 552 757.47 759.15 758.01 
 553 757.72 759.13 758.01 
 554 757.38 759.13 758.01 
 555 757.42 759.14 758.01 
 556 757.38 759.09 758.01 
 557 757.59 759.12 758.01 
 558 758.00 759.12 758.01 
 559 757.55 759.14 758.01 
 560 758.13 759.16 758.01 
 561 757.92 759.10 758.13 
 562 757.47 759.13 758.13 
 563 757.80 759.12 758.13 
 564 757.75 759.12 758.13 
 565 757.80 759.08 758.13 
 566 757.63 759.12 758.13 
 567 757.63 759.12 758.13 
 568 757.88 759.10 758.13 
 569 757.09 759.11 758.13 
 570 757.63 759.14 758.13 
 571 757.88 759.17 758.13 
 572 757.72 759.15 758.13 
 573 757.72 759.15 758.13 
 574 757.55 759.14 758.13 
 575 757.64 759.14 758.13 
 576 757.59 759.10 758.13 
 577 757.72 759.16 758.13 
 578 757.55 759.13 758.13 
 579 757.97 759.11 758.13 
 580 757.51 759.16 758.13 
 581 757.88 759.14 758.13 
 582 757.77 759.15 758.13 
 583 757.76 759.12 758.13 
 584 757.55 759.13 758.13 
 585 757.76 759.14 758.13 
 586 757.80 759.14 758.13 
 587 757.72 759.16 758.13 
 588 757.72 759.11 758.13 
 589 757.38 759.14 758.13 
 590 757.80 759.15 758.13 
 591 757.55 759.13 758.13 
 592 757.63 759.15 758.13 
 593 757.92 759.14 758.13 
 594 757.68 759.13 758.13 
 595 757.22 759.15 758.13 
 596 757.68 759.13 758.13 
 597 757.51 759.11 758.13 
 598 758.18 759.16 758.13 
 599 757.88 759.12 758.18 
 600 757.76 759.11 758.18 
 601 758.01 759.14 758.18 
 602 757.59 759.11 758.18 
 603 757.47 759.14 758.18 
 604 758.01 759.15 758.18 
 605 757.80 755.10 758.18 
 606 757.80 759.15 758.18 
 607 757.63 759.14 758.18 
 608 757.51 759.13 758.18 
 609 758.30 759.16 758.18 
 610 757.84 759.11 758.30 
 611 757.67 759.12 758.30 
 612 757.59 759.15 758.30 
 613 757.80 759.13 758.30 
 614 757.63 759.15 758.30 
 615 757.79 759.15 758.30 
 616 757.71 759.16 758.30 
 617 757.80 759.12 758.30 
 618 757.50 759.13 758.30 
 619 758.09 759.14 758.30 
 620 757.46 759.11 758.30 
 621 757.08 759.14 758.30 
 622 757.76 759.10 758.30 
 623 757.84 759.12 758.30 
 624 757.96 759.11 758.30 
 625 757.95 759.12 758.30 
 626 757.88 759.15 758.30 
 627 757.83 759.13 758.30 
 628 757.79 759.14 758.30 
 629 757.59 759.15 758.30 
 630 757.76 759.10 758.30 
 631 758.22 759.13 758.30 
 632 758.05 759.15 758.30 
 633 757.59 759.12 758.30 
 634 757.75 759.12 758.30 
 635 758.01 759.11 758.30 
 636 757.92 759.14 758.30 
 637 757.26 759.14 758.30 
 638 758.05 759.14 758.30 
 639 757.76 759.11 758.30 
 640 757.83 759.15 758.30 
 641 758.25 759.16 758.30 
 642 757.71 759.11 758.30 
 643 757.58 759.14 758.30 
 644 757.92 759.10 758.30 
 645 757.46 759.16 758.30 
 646 757.92 759.13 758.30 
 647 758.13 759.13 758.30 
 648 758.01 759.13 758.30 
 649 758.17 759.17 758.30 
 650 757.79 759.14 758.30 
 651 758.05 759.14 758.30 
 652 757.67 759.16 758.30 
 653 758.09 759.12 758.30 
 654 757.84 759.17 758.30 
 655 758.18 759.16 758.30 
 656 757.80 759.13 758.30 
 657 758.13 759.13 758.30 
 658 757.46 759.10 758.30 
 659 757.25 759.12 758.30 
 660 758.18 759.12 758.30 
 661 757.97 759.14 758.30 
 662 757.93 759.14 758.30 
 663 758.21 759.14 758.30 
 664 758.05 759.15 758.30 
 665 758.00 759.14 758.30 
 666 757.38 759.12 758.30 
 667 758.00 759.15 758.30 
 668 757.84 759.11 758.30 
 669 757.96 759.15 758.30 
 670 758.21 759.14 758.30 
 671 758.05 755.12 758.30 
 672 758.13 759.14 758.30 
 673 757.92 759.09 758.30 
 674 758.05 759.10 758.30 
 675 757.46 759.10 758.30 
 676 758.17 759.13 758.30 
 677 758.05 759.10 758.30 
 678 758.04 759.11 758.30 
 679 757.67 759.12 758.30 
 680 757.72 759.13 758.30 
 681 758.14 759.13 758.30 
 682 757.72 759.13 758.30 
 683 758.26 759.13 758.30 
 684 757.51 759.14 758.30 
 685 757.47 759.16 758.30 
 686 757.84 759.11 758.30 
 687 757.76 759.10 758.30 
 688 757.92 759.14 758.30 
 689 758.14 759.14 758.30 
 690 757.72 759.05 758.30 
 691 757.76 759.11 758.30 
 692 757.88 759.12 758.30 
 693 757.73 759.13 758.30 
 694 758.09 759.13 758.30 
 695 757.72 759.10 758.30 
 696 757.84 759.12 758.30 
 697 757.64 759.16 758.30 
 698 757.92 759.09 758.30 
 699 757.80 759.13 758.30 
 700 758.05 759.15 758.30 
 701 757.56 759.12 758.30 
 702 757.81 759.13 758.30 
 703 757.89 759.12 758.30 
 704 757.72 759.12 758.30 
 705 758.01 759.14 758.30 
 706 758.02 759.13 758.30 
 707 758.01 759.13 758.30 
 708 757.85 759.16 758.30 
 709 758.02 759.16 758.30 
 710 757.85 759.13 758.30 
 711 757.73 759.16 758.30 
 712 757.76 759.16 758.30 
 713 757.55 759.11 758.30 
 714 757.68 759.15 758.30 
 715 756.93 759.17 758.30 
 716 757.98 759.11 758.30 
 717 757.63 759.12 758.30 
 718 757.63 759.14 758.30 
 719 757.76 759.11 758.30 
 720 757.92 759.17 758.30 
 721 757.67 759.11 758.30 
 722 757.76 759.12 758.30 
 723 757.76 759.14 758.30 
 724 757.97 759.13 758.30 
 725 757.80 759.17 758.30 
 726 757.80 759.15 758.30 
 727 758.05 759.12 758.30 
 728 758.01 759.15 758.30 
 729 757.84 759.11 758.30 
 730 758.09 755.13 758.30 
 731 757.64 759.11 758.30 
 732 757.80 759.11 758.30 
 733 758.01 759.15 758.30 
 734 757.68 759.13 758.30 
 735 757.81 759.17 758.30 
 736 757.77 759.11 758.30 
 737 757.89 759.17 758.30 
 738 757.68 759.13 758.30 
 739 757.68 759.13 758.30 
 740 757.72 759.14 758.30 
 741 757.51 759.13 758.30 
 742 758.09 759.10 758.30 
 743 758.34 759.14 758.30 
 744 757.84 759.14 758.34 
 745 757.80 759.13 758.34 
 746 757.80 759.15 758.34 
 747 757.55 759.14 758.34 
 748 757.72 759.13 758.34 
 749 757.96 759.09 758.34 
 750 758.01 759.13 758.34 
 751 758.30 759.12 758.34 
 752 757.42 759.14 758.34 
 753 757.84 759.11 758.34 
 754 758.25 759.12 758.34 
 755 757.96 759.15 758.34 
 756 758.05 759.09 758.34 
 757 758.05 759.15 758.34 
 758 757.79 759.16 758.34 
 759 758.43 759.14 758.34 
 760 757.92 759.12 758.43 
 761 758.34 759.11 758.43 
 762 757.63 759.11 758.43 
 763 757.84 759.12 758.43 
 764 757.84 759.10 758.43 
 765 757.92 759.17 758.43 
 766 758.51 759.09 758.43 
 767 757.92 759.10 758.51 
 768 758.17 759.11 758.51 
 769 757.62 759.09 758.51 
 770 757.96 759.12 758.51 
 771 757.71 759.15 758.51 
 772 757.92 759.12 758.51 
 773 757.92 759.12 758.51 
 774 758.00 759.10 758.51 
 775 758.08 759.14 758.51 
 776 757.67 759.12 758.51 
 777 757.96 759.15 758.51 
 778 757.75 759.10 758.51 
 779 757.92 759.14 758.51 
 780 757.92 759.11 758.51 
 781 757.92 759.11 758.51 
 782 758.04 759.09 758.51 
 783 757.33 759.12 758.51 
 784 757.46 759.12 758.51 
 785 757.75 759.12 758.51 
 786 757.79 759.16 758.51 
 787 757.84 755.14 758.51 
 788 757.71 759.12 758.51 
 789 758.00 759.15 758.51 
 790 757.83 759.12 758.51 
 791 757.83 759.11 758.51 
 792 757.62 759.14 758.51 
 793 757.21 759.13 758.51 
 794 757.54 759.11 758.51 
 795 757.67 759.14 758.51 
 796 757.42 759.13 758.51 
 797 758.09 759.14 758.51 
 798 757.75 759.14 758.51 
 799 757.96 759.10 758.51 
 800 757.96 759.12 758.51 
 801 758.13 759.13 758.51 
 802 757.92 759.14 758.51 
 803 758.43 755.14 758.51 
 804 758.26 759.12 758.51 
 805 758.47 759.10 758.51 
 806 758.26 759.14 758.51 
 807 758.06 759.11 758.51 
 808 758.05 759.15 758.51 
 809 757.59 759.14 758.51 
 810 757.84 759.12 758.51 
 811 758.01 759.14 758.51 
 812 757.68 759.14 758.51 
 813 757.55 759.13 758.51 
 814 757.68 759.15 758.51 
 815 758.26 759.16 758.51 
 816 757.97 759.16 758.51 
 817 758.05 759.17 758.51 
 818 757.39 759.12 758.51 
 819 757.72 759.15 758.51 
 820 758.35 759.11 758.51 
 821 758.01 755.09 758.51 
 822 757.84 759.12 758.51 
 823 757.84 759.09 758.51 
 824 757.46 759.14 758.51 
 825 757.60 759.15 758.51 
 826 758.13 759.12 758.51 
 827 758.43 759.14 758.51 
 828 758.48 759.15 758.51 
 829 758.09 759.13 758.51 
 830 758.22 759.14 758.51 
 831 757.63 759.13 758.51 
 832 758.43 759.17 758.51 
 833 758.05 759.14 758.51 
 834 757.89 759.15 758.51 
 835 757.76 759.14 758.51 
 836 758.02 759.17 758.51 
 837 758.18 759.12 758.51 
 838 758.27 759.16 758.51 
 839 757.93 759.14 758.51 
 840 758.35 759.13 758.51 
 841 758.01 759.13 758.51 
 842 758.31 759.12 758.51 
 843 758.30 759.16 758.51 
 844 758.05 759.08 758.51 
 845 758.22 759.10 758.51 
 846 757.76 759.12 758.51 
 847 757.80 759.11 758.51 
 848 757.97 759.14 758.51 
 849 758.00 759.15 758.51 
 850 758.13 759.14 758.51 
 851 758.31 759.13 758.51 
 852 757.97 759.13 758.51 
 853 758.26 759.13 758.51 
 854 757.81 759.14 758.51 
 855 758.10 759.14 758.51 
 856 758.26 759.12 758.51 
 857 757.72 759.14 758.51 
 858 757.97 759.15 758.51 
 859 758.22 759.15 758.51 
 860 757.85 759.12 758.51 
 861 758.10 759.14 758.51 
 862 757.55 759.11 758.51 
 863 758.10 759.16 758.51 
 864 757.84 759.13 758.51 
 865 757.97 759.16 758.51 
 866 758.01 759.12 758.51 
 867 758.13 759.14 758.51 
 868 758.06 759.13 758.51 
 869 758.13 759.14 758.51 
 870 757.97 759.14 758.51 
 871 757.81 759.15 758.51 
 872 758.10 759.13 758.51 
 873 758.14 759.13 758.51 
 874 757.38 759.15 758.51 
 875 758.39 759.11 758.51 
 876 758.23 759.14 758.51 
 877 758.02 759.12 758.51 
 878 757.76 759.11 758.51 
 879 757.97 755.12 758.51 
 880 758.35 759.14 758.51 
 881 757.17 759.13 758.51 
 882 758.09 759.14 758.51 
 883 757.76 759.08 758.51 
 884 758.14 759.16 758.51 
 885 757.63 759.13 758.51 
 886 757.97 759.15 758.51 
 887 758.17 759.13 758.51 
 888 758.26 759.16 758.51 
 889 758.01 759.13 758.51 
 890 757.80 759.15 758.51 
 891 757.93 759.14 758.51 
 892 758.30 759.11 758.51 
 893 758.18 759.13 758.51 
 894 757.88 759.18 758.51 
 895 758.22 759.14 758.51 
 896 758.13 759.13 758.51 
 897 758.26 759.14 758.51 
 898 758.64 759.11 758.51 
 899 758.01 755.13 758.64 
 900 757.93 759.14 758.64 
 901 757.76 759.14 758.64 
 902 757.93 759.12 758.64 
 903 758.06 759.13 758.64 
 904 758.05 759.13 758.64 
 905 758.14 759.12 758.64 
 906 758.30 759.13 758.64 
 907 757.93 759.14 758.64 
 908 758.26 759.15 758.64 
 909 757.93 759.14 758.64 
 910 757.84 759.12 758.64 
 911 757.84 759.14 758.64 
 912 758.35 759.10 758.64 
 913 757.88 759.16 758.64 
 914 757.79 759.13 758.64 
 915 757.67 759.13 758.64 
 916 757.80 759.14 758.64 
 917 758.17 759.11 758.64 
 918 757.71 759.13 758.64 
 919 758.18 759.13 758.64 
 920 758.26 759.12 758.64 
 921 758.01 759.12 758.64 
 922 758.09 759.18 758.64 
 923 757.97 759.13 758.64 
 924 757.97 759.12 758.64 
 925 757.88 759.13 758.64 
 926 758.42 759.13 758.64 
 927 758.13 759.12 758.64 
 928 758.01 759.10 758.64 
 929 758.42 759.13 758.64 
 930 758.39 759.15 758.64 
 931 757.80 759.16 758.64 
 932 757.72 759.15 758.64 
 933 758.05 759.13 758.64 
 934 758.05 759.16 758.64 
 935 758.30 759.14 758.64 
 936 757.47 759.14 758.64 
 937 758.05 759.13 758.64 
 938 758.43 759.14 758.64 
 939 758.09 759.13 758.64 
 940 758.05 759.11 758.64 
 941 758.05 759.15 758.64 
 942 758.26 759.11 758.64 
 943 757.59 759.12 758.64 
 944 758.39 759.15 758.64 
 945 758.39 759.15 758.64 
 946 757.72 759.15 758.64 
 947 757.97 759.11 758.64 
 948 758.01 759.13 758.64 
 949 758.01 755.13 758.64 
 950 758.05 759.16 758.64 
 951 758.13 759.13 758.64 
 952 757.67 759.12 758.64 
 953 758.18 759.15 758.64 
 954 758.39 759.13 758.64 
 955 758.06 759.15 758.64 
 956 758.22 759.11 758.64 
 957 758.06 759.12 758.64 
 958 758.43 759.11 758.64 
 959 758.14 755.12 758.64 
 960 758.05 759.12 758.64 
 961 758.05 759.14 758.64 
 962 758.10 759.14 758.64 
 963 758.72 759.15 758.64 
 964 757.97 759.13 758.72 
 965 758.26 759.14 758.72 
 966 757.80 759.16 758.72 
 967 757.59 759.12 758.72 
 968 758.06 759.15 758.72 
 969 758.18 759.14 758.72 
 970 758.10 759.13 758.72 
 971 757.97 759.16 758.72 
 972 758.09 759.17 758.72 
 973 758.14 759.14 758.72 
 974 757.89 759.14 758.72 
 975 758.18 759.11 758.72 
 976 758.02 759.14 758.72 
 977 757.93 759.08 758.72 
 978 758.01 759.12 758.72 
 979 758.35 759.10 758.72 
 980 758.64 759.14 758.72 
 981 758.51 759.11 758.72 
 982 757.46 759.10 758.72 
 983 758.22 759.10 758.72 
 984 757.54 759.13 758.72 
 985 758.05 759.11 758.72 
 986 758.25 759.10 758.72 
 987 757.97 759.11 758.72 
 988 758.01 759.11 758.72 
 989 758.13 759.11 758.72 
 990 758.00 755.12 758.72 
 991 758.13 759.15 758.72 
 992 758.22 759.13 758.72 
 993 757.93 755.15 758.72 
 994 758.09 759.11 758.72 
 995 758.09 759.13 758.72 
 996 758.46 759.10 758.72 
 997 758.21 759.09 758.72 
 998 758.22 759.12 758.72 
 999 758.17 759.11 758.72 
1000 757.75 759.13 758.72 
1001 758.08 759.12 758.72 
1002 757.96 759.10 758.72 
1003 757.79 759.15 758.72 
1004 757.92 759.13 758.72 
1005 758.05 759.11 758.72 
1006 758.05 759.12 758.72 
1007 758.18 759.12 758.72 
1008 758.05 759.11 758.72 
1009 758.22 759.11 758.72 
1010 758.21 759.12 758.72 
1011 758.17 759.10 758.72 
1012 758.25 759.14 758.72 
1013 757.92 759.13 758.72 
1014 758.00 759.15 758.72 
1015 758.38 759.10 758.72 
1016 758.13 759.17 758.72 
1017 757.71 759.15 758.72 
1018 757.58 759.12 758.72 
1019 758.04 759.14 758.72 
1020 758.12 759.09 758.72 
1021 758.21 759.15 758.72 
1022 758.42 759.11 758.72 
1023 757.96 759.10 758.72 
1024 758.22 759.10 758.72 
1025 758.50 759.11 758.72 
1026 757.96 759.14 758.72 
1027 757.96 759.15 758.72 
1028 757.79 759.10 758.72 
1029 758.09 759.14 758.72 
1030 758.42 759.11 758.72 
1031 758.04 759.10 758.72 
1032 758.39 759.14 758.72 
1033 757.97 759.16 758.72 
1034 758.18 759.13 758.72 
1035 757.96 759.12 758.72 
1036 758.38 759.11 758.72 
1037 758.09 759.10 758.72 
1038 758.13 759.12 758.72 
1039 758.01 759.12 758.72 
1040 758.00 759.14 758.72 
1041 758.51 759.11 758.72 
1042 758.22 759.12 758.72 
1043 758.05 759.11 758.72 
1044 758.29 759.09 758.72 
1045 758.51 759.11 758.72 
1046 758.55 759.11 758.72 
1047 758.01 759.13 758.72 
1048 758.01 759.14 758.72 
1049 757.59 759.14 758.72 
1050 758.30 759.10 758.72 
1051 758.13 759.16 758.72 
1052 757.92 759.13 758.72 
1053 758.17 759.11 758.72 
1054 758.17 759.12 758.72 
1055 757.75 759.11 758.72 
1056 758.30 759.13 758.72 
1057 757.84 759.16 758.72 
1058 758.34 759.14 758.72 
1059 757.88 759.14 758.72 
1060 757.96 759.12 758.72 
1061 758.13 759.15 758.72 
1062 758.01 759.12 758.72 
1063 757.75 759.12 758.72 
1064 758.46 759.12 758.72 
1065 757.71 759.12 758.72 
1066 758.55 759.13 758.72 
1067 758.58 759.11 758.72 
1068 758.13 759.10 758.72 
1069 758.42 759.11 758.72 
1070 758.29 759.12 758.72 
1071 758.00 759.10 758.72 
1072 757.96 759.12 758.72 
1073 758.21 759.13 758.72 
1074 757.96 759.12 758.72 
1075 758.25 759.13 758.72 
1076 758.42 759.08 758.72 
1077 758.13 759.07 758.72 
1078 758.09 759.10 758.72 
1079 758.29 759.13 758.72 
1080 758.17 759.11 758.72 
1081 758.30 759.09 758.72 
1082 758.00 759.11 758.72 
1083 758.13 759.13 758.72 
1084 757.92 759.12 758.72 
1085 758.59 759.11 758.72 
1086 757.66 759.13 758.72 
1087 758.63 759.15 758.72 
1088 758.34 759.08 758.72 
1089 758.63 759.12 758.72 
1090 757.97 759.14 758.72 
1091 758.21 759.12 758.72 
1092 757.96 759.09 758.72 
1093 758.29 759.10 758.72 
1094 758.04 759.06 758.72 
1095 757.96 759.11 758.72 
1096 758.25 759.12 758.72 
1097 758.21 759.09 758.72 
1098 758.29 759.11 758.72 
1099 757.95 755.11 758.72 
1100 758.33 759.10 758.72 
1101 757.92 759.12 758.72 
1102 758.09 759.10 758.72 
1103 758.17 759.13 758.72 
1104 758.16 759.10 758.72 
1105 758.46 759.11 758.72 
1106 757.83 759.12 758.72 
1107 758.08 759.13 758.72 
1108 758.25 759.10 758.72 
1109 758.08 759.09 758.72 
1110 758.26 759.12 758.72 
1111 758.42 759.11 758.72 
1112 758.38 759.10 758.72 
1113 758.04 759.10 758.72 
1114 758.17 759.12 758.72 
1115 758.59 759.08 758.72 
1116 758.34 759.11 758.72 
1117 758.09 759.09 758.72 
1118 758.42 755.11 758.72 
1119 758.25 759.13 758.72 
1120 758.59 759.13 758.72 
1121 757.88 759.11 758.72 
1122 758.13 759.11 758.72 
1123 758.21 759.13 758.72 
1124 758.59 759.08 758.72 
1125 758.30 759.14 758.72 
1126 758.05 759.14 758.72 
1127 758.05 759.11 758.72 
1128 757.97 759.14 758.72 
1129 758.05 759.11 758.72 
1130 757.88 759.16 758.72 
1131 757.63 759.14 758.72 
1132 757.92 759.16 758.72 
1133 757.92 759.15 758.72 
1134 758.05 759.18 758.72 
1135 758.21 759.09 758.72 
1136 758.09 759.14 758.72 
1137 757.84 759.16 758.72 
1138 758.26 759.13 758.72 
1139 758.00 759.11 758.72 
1140 757.92 759.11 758.72 
1141 757.88 759.17 758.72 
1142 758.47 759.12 758.72 
1143 758.26 759.14 758.72 
1144 758.22 759.17 758.72 
1145 758.26 759.14 758.72 
1146 758.22 759.12 758.72 
1147 758.09 759.16 758.72 
1148 758.34 759.13 758.72 
1149 757.84 759.14 758.72 
1150 758.14 759.13 758.72 
1151 758.13 759.15 758.72 
1152 758.22 759.13 758.72 
1153 758.51 759.15 758.72 
1154 758.09 759.13 758.72 
1155 758.25 759.14 758.72 
1156 757.80 759.12 758.72 
1157 757.92 759.13 758.72 
1158 758.38 759.13 758.72 
1159 758.38 759.13 758.72 
1160 758.14 759.15 758.72 
1161 758.05 759.15 758.72 
1162 758.34 759.13 758.72 
1163 757.84 759.15 758.72 
1164 758.43 759.11 758.72 
1165 758.13 759.11 758.72 
1166 758.30 759.14 758.72 
1167 757.97 759.10 758.72 
1168 758.05 759.14 758.72 
1169 758.10 759.13 758.72 
1170 758.09 759.14 758.72 
1171 758.18 759.15 758.72 
1172 758.31 755.14 758.72 
1173 757.85 759.12 758.72 
1174 758.31 759.15 758.72 
1175 757.88 759.14 758.72 
1176 758.89 759.16 758.72 
1177 758.22 759.15 758.89 
1178 758.31 759.12 758.89 
1179 758.22 759.15 758.89 
1180 758.64 759.14 758.89 
1181 757.97 759.11 758.89 
1182 758.22 759.14 758.89 
1183 758.18 759.16 758.89 
1184 758.27 759.11 758.89 
1185 758.31 759.18 758.89 
1186 758.22 759.14 758.89 
1187 758.27 759.13 758.89 
1188 757.89 759.14 758.89 
1189 757.97 759.14 758.89 
1190 758.35 755.11 758.89 
1191 757.89 759.17 758.89 
1192 758.47 759.15 758.89 
1193 757.93 759.15 758.89 
1194 758.01 759.13 758.89 
1195 758.34 759.12 758.89 
1196 758.14 759.14 758.89 
1197 758.10 759.15 758.89 
1198 758.18 759.14 758.89 
1199 758.26 759.17 758.89 
1200 758.30 759.15 758.89 
1201 758.22 759.14 758.89 
1202 757.84 759.17 758.89 
1203 758.43 759.12 758.89 
1204 758.01 759.11 758.89 
1205 758.13 759.12 758.89 
1206 758.43 759.12 758.89 
1207 758.76 759.14 758.89 
1208 758.14 759.12 758.89 
1209 758.22 759.13 758.89 
1210 758.22 759.15 758.89 
1211 758.31 759.13 758.89 
1212 758.35 759.16 758.89 
1213 758.39 759.14 758.89 
1214 758.14 759.14 758.89 
1215 758.27 759.17 758.89 
1216 758.31 759.14 758.89 
1217 758.26 759.14 758.89 
1218 758.35 755.11 758.89 
1219 758.38 759.15 758.89 
1220 758.51 759.16 758.89 
1221 758.09 759.12 758.89 
1222 758.13 759.15 758.89 
1223 758.22 759.16 758.89 
1224 758.34 759.13 758.89 
1225 757.97 759.15 758.89 
1226 758.10 759.14 758.89 
1227 758.18 759.13 758.89 
1228 758.55 759.13 758.89 
1229 758.55 759.11 758.89 
1230 758.13 759.11 758.89 
1231 758.30 759.13 758.89 
1232 758.51 759.13 758.89 
1233 758.43 759.13 758.89 
1234 758.26 759.09 758.89 
1235 758.59 759.11 758.89 
1236 758.55 759.12 758.89 
1237 758.22 759.10 758.89 
1238 758.17 759.14 758.89 
1239 758.55 759.15 758.89 
1240 758.55 759.18 758.89 
1241 757.92 759.11 758.89 
1242 758.38 759.16 758.89 
1243 758.39 759.11 758.89 
1244 758.01 759.09 758.89 
1245 758.38 759.14 758.89 
1246 758.09 759.14 758.89 
1247 758.10 759.12 758.89 
1248 758.43 759.13 758.89 
1249 758.10 759.12 758.89 
1250 757.89 759.13 758.89 
1251 758.43 759.13 758.89 
1252 758.26 759.16 758.89 
1253 758.26 759.10 758.89 
1254 758.13 759.15 758.89 
1255 758.18 759.12 758.89 
1256 758.43 759.15 758.89 
1257 758.14 759.11 758.89 
1258 758.59 759.12 758.89 
1259 757.97 759.17 758.89 
1260 758.10 759.13 758.89 
1261 758.72 759.13 758.89 
1262 758.39 759.13 758.89 
1263 758.26 759.11 758.89 
1264 758.56 755.11 758.89 
1265 758.39 759.14 758.89 
1266 757.84 759.15 758.89 
1267 758.09 759.13 758.89 
1268 758.01 759.16 758.89 
1269 758.18 759.14 758.89 
1270 758.13 759.14 758.89 
1271 758.18 759.12 758.89 
1272 758.22 759.12 758.89 
1273 757.76 759.15 758.89 
1274 758.34 759.15 758.89 
1275 757.87 759.13 758.89 
1276 758.46 759.14 758.89 
1201 758.18 759.16 -100000000.00 
1202 758.06 759.10 758.18 
1203 758.43 759.14 758.18 
1204 758.30 759.11 758.43 
1205 757.93 759.13 758.43 
1206 758.38 759.13 758.43 
1207 758.22 759.15 758.43 
1208 758.13 759.16 758.43 
1209 758.22 759.13 758.43 
1210 758.55 759.13 758.43 
1211 758.31 759.12 758.55 
1212 757.93 759.15 758.55 
1213 758.01 759.15 758.55 
1214 758.43 759.15 758.55 
1215 758.47 759.13 758.55 
1216 758.18 759.13 758.55 
1217 758.47 759.13 758.55 
1218 758.01 759.15 758.55 
1219 757.93 759.13 758.55 
1220 758.35 759.14 758.55 
1221 758.52 759.14 758.55 
1222 758.14 759.13 758.55 
1223 758.43 759.14 758.55 
1224 758.18 759.12 758.55 
1225 758.26 759.10 758.55 
1226 758.39 759.13 758.55 
1227 758.30 759.11 758.55 
1228 758.09 759.14 758.55 
1229 758.68 759.13 758.55 
1230 758.55 759.14 758.68 
1231 758.30 759.12 758.68 
1232 757.97 759.10 758.68 
1233 758.26 759.13 758.68 
1234 758.22 759.14 758.68 
1235 758.39 759.14 758.68 
1236 758.34 759.12 758.68 
1237 758.39 759.13 758.68 
1238 758.59 759.13 758.68 
1239 758.13 759.12 758.68 
1240 758.26 759.16 758.68 
1241 757.80 759.13 758.68 
1242 758.47 759.14 758.68 
1243 758.46 759.11 758.68 
1244 758.76 759.13 758.68 
1245 758.13 759.12 758.76 
1246 758.39 759.13 758.76 
1247 758.01 759.12 758.76 
1248 758.13 759.14 758.76 
1249 758.25 759.11 758.76 
1250 758.30 759.09 758.76 
1251 758.37 759.10 758.76 
1252 758.16 759.08 758.76 
1253 758.12 755.09 758.76 
1254 758.12 759.10 758.76 
1255 758.55 759.14 758.76 
1256 758.29 759.13 758.76 
1257 758.38 759.09 758.76 
1258 758.17 759.09 758.76 
1259 758.13 759.09 758.76 
1260 758.51 759.12 758.76 
1261 758.34 759.12 758.76 
1262 758.17 759.14 758.76 
1263 758.26 759.12 758.76 
1264 758.17 759.13 758.76 
1265 758.01 759.11 758.76 
1266 758.17 759.16 758.76 
1267 758.34 759.11 758.76 
1268 758.22 759.13 758.76 
1269 758.27 759.13 758.76 
1270 758.60 755.11 758.76 
1271 758.51 759.13 758.76 
1272 758.31 759.11 758.76 
1273 758.38 759.14 758.76 
1274 758.55 759.11 758.76 
1275 758.18 759.12 758.76 
1276 758.01 755.15 758.76 
1277 758.17 759.14 758.76 
1278 758.26 759.14 758.76 
1279 758.56 759.12 758.76 
1280 758.13 759.12 758.76 
1281 757.88 759.13 758.76 
1282 757.84 759.12 758.76 
1283 757.80 759.12 758.76 
1284 758.76 759.15 758.76 
1285 758.51 759.11 758.76 
1286 758.38 759.14 758.76 
1287 758.26 759.11 758.76 
1288 758.18 759.12 758.76 
1289 758.05 759.12 758.76 
1290 758.47 759.11 758.76 
1291 758.34 759.14 758.76 
1292 758.26 759.15 758.76 
1293 758.39 759.13 758.76 
1294 758.22 759.10 758.76 
1295 758.17 759.14 758.76 
1296 758.51 759.14 758.76 
1297 758.22 759.13 758.76 
1298 758.51 759.10 758.76 
1299 757.92 759.12 758.76 
1300 758.59 759.14 758.76 
1301 758.13 759.14 758.76 
1302 758.38 759.12 758.76 
1303 758.22 759.15 758.76 
1304 758.51 759.14 758.76 
1305 758.55 759.10 758.76 
1306 758.18 759.16 758.76 
1307 758.47 759.12 758.76 
1308 758.18 759.10 758.76 
1309 758.26 759.11 758.76 
1310 758.14 759.10 758.76 
1311 758.43 759.14 758.76 
1312 758.47 759.14 758.76 
1313 758.64 759.13 758.76 
1314 758.55 759.14 758.76 
1315 758.55 759.16 758.76 
1316 758.17 759.14 758.76 
1317 758.34 759.11 758.76 
1318 758.59 759.10 758.76 
1319 758.55 759.17 758.76 
1320 758.43 759.15 758.76 
1321 758.51 759.13 758.76 
1322 758.31 759.13 758.76 
1323 758.35 759.14 758.76 
1324 757.84 759.10 758.76 
1325 758.01 759.12 758.76 
1326 758.09 759.16 758.76 
1327 758.59 759.11 758.76 
1328 758.76 759.11 758.76 
1329 758.46 759.12 758.76 
1330 758.34 759.12 758.76 
1331 758.01 759.12 758.76 
1332 758.26 759.13 758.76 
1333 758.38 759.12 758.76 
1334 758.25 759.10 758.76 
1335 758.63 759.14 758.76 
1336 758.09 759.10 758.76 
1337 758.63 759.10 758.76 
1338 758.47 759.11 758.76 
1339 758.34 759.10 758.76 
1340 758.34 759.11 758.76 
1341 758.34 759.12 758.76 
1342 758.46 759.14 758.76 
1343 758.18 759.13 758.76 
1344 758.54 759.10 758.76 
1345 758.34 759.13 758.76 
1346 758.38 759.10 758.76 
1347 758.47 759.14 758.76 
1348 758.30 759.11 758.76 
1349 758.55 759.12 758.76 
1350 758.42 759.16 758.76 
1351 758.42 759.10 758.76 
1352 758.43 759.11 758.76 
1353 758.39 759.12 758.76 
1354 758.22 759.15 758.76 
1355 758.30 759.13 758.76 
1356 757.88 759.16 758.76 
1357 758.18 759.12 758.76 
1358 758.30 759.14 758.76 
1359 758.13 759.14 758.76 
1360 758.25 759.13 758.76 
1361 758.55 759.10 758.76 
1362 758.30 759.13 758.76 
1363 758.17 759.12 758.76 
1364 758.64 759.09 758.76 
1365 758.30 759.13 758.76 
1366 758.35 759.14 758.76 
1367 758.18 759.14 758.76 
1368 758.09 759.11 758.76 
1369 758.22 759.10 758.76 
1370 758.26 759.14 758.76 
1371 758.55 759.13 758.76 
1372 758.30 759.13 758.76 
1373 758.51 759.11 758.76 
1374 758.30 759.14 758.76 
1375 757.71 759.14 758.76 
1376 758.46 759.14 758.76 
1377 758.34 759.13 758.76 
1378 758.17 759.10 758.76 
1379 758.30 759.13 758.76 
1380 758.30 759.12 758.76 
1381 758.47 759.13 758.76 
1382 758.39 759.12 758.76 
1383 758.55 759.15 758.76 
1384 758.34 759.15 758.76 
1385 758.10 759.14 758.76 
1386 758.56 759.13 758.76 
1387 758.22 755.13 758.76 
1388 758.42 759.14 758.76 
1389 758.47 759.12 758.76 
1390 758.68 759.13 758.76 
1391 758.34 759.15 758.76 
1392 758.05 759.15 758.76 
1393 758.21 759.10 758.76 
1394 758.34 759.15 758.76 
1395 758.23 759.13 758.76 
1396 758.43 759.12 758.76 
1397 758.43 759.14 758.76 
1398 758.35 759.09 758.76 
1399 758.30 759.10 758.76 
1400 758.59 759.10 758.76 
1401 758.39 759.14 758.76 
1402 758.43 759.12 758.76 
1403 758.30 759.13 758.76 
1404 758.18 759.12 758.76 
1405 758.01 759.09 758.76 
1406 758.05 759.15 758.76 
1407 758.56 759.14 758.76 
1408 758.56 759.13 758.76 
1409 758.55 759.14 758.76 
1410 758.22 759.14 758.76 
1411 758.26 759.12 758.76 
1412 758.26 759.13 758.76 
1413 758.43 759.12 758.76 
1414 758.22 759.14 758.76 
1415 758.47 759.13 758.76 
1416 758.35 759.13 758.76 
1417 758.43 759.14 758.76 
1418 758.34 759.10 758.76 
1419 758.05 759.08 758.76 
1420 758.38 759.14 758.76 
1421 758.09 759.13 758.76 
1422 758.00 759.09 758.76 
1423 758.30 759.12 758.76 
1424 758.35 759.12 758.76 
1425 758.38 759.13 758.76 
1426 758.26 759.16 758.76 
1427 758.55 759.15 758.76 
1428 758.09 759.12 758.76 
1429 758.26 759.12 758.76 
1430 758.01 759.11 758.76 
1431 758.05 759.11 758.76 
1432 758.47 759.11 758.76 
1433 758.60 759.13 758.76 
1434 758.51 759.13 758.76 
1435 758.72 759.12 758.76 
1436 758.60 759.12 758.76 
1437 758.35 759.11 758.76 
1438 758.76 759.14 758.76 
1439 758.31 759.12 758.76 
1440 758.47 759.12 758.76 
1441 758.51 759.12 758.76 
1442 758.39 759.12 758.76 
1443 758.26 759.11 758.76 
1444 758.47 759.11 758.76 
1445 758.63 759.11 758.76 
1446 758.18 759.14 758.76 
1447 758.51 759.14 758.76 
1448 758.43 759.13 758.76 
1449 758.52 759.13 758.76 
1450 758.43 755.08 758.76 
1451 758.43 759.10 758.76 
1452 758.01 759.14 758.76 
1453 758.43 759.13 758.76 
1454 758.05 759.13 758.76 
1455 758.35 759.11 758.76 
1456 758.59 759.14 758.76 
1457 758.22 759.14 758.76 
1458 758.30 759.12 758.76 
1459 758.34 759.13 758.76 
1460 758.55 759.13 758.76 
1461 758.30 759.12 758.76 
1462 758.43 759.12 758.76 
1463 758.51 759.15 758.76 
1464 758.47 759.07 758.76 
1465 758.34 759.16 758.76 
1466 758.64 759.13 758.76 
1467 758.68 759.13 758.76 
1468 758.34 759.11 758.76 
1469 758.22 759.12 758.76 
1470 758.68 759.11 758.76 
1471 758.59 759.10 758.76 
1472 758.46 759.09 758.76 
1473 758.47 759.11 758.76 
1474 758.42 759.12 758.76 
1475 758.27 759.14 758.76 
1476 758.26 759.12 758.76 
1477 758.22 759.08 758.76 
1478 758.43 759.11 758.76 
1479 758.22 759.14 758.76 
1480 758.50 759.12 758.76 
1481 758.38 759.13 758.76 
1482 758.26 759.14 758.76 
1483 758.55 759.11 758.76 
1484 758.47 759.12 758.76 
1485 758.47 759.13 758.76 
1486 758.51 759.13 758.76 
1487 758.35 759.07 758.76 
1488 758.22 759.13 758.76 
1489 758.60 759.13 758.76 
1490 758.72 759.14 758.76 
1491 758.51 759.15 758.76 
1492 758.39 759.15 758.76 
1493 758.05 759.10 758.76 
1494 758.55 759.13 758.76 
1495 758.68 759.14 758.76 
1496 758.72 759.10 758.76 
1497 758.55 759.11 758.76 
1498 758.55 759.13 758.76 
1499 758.51 759.11 758.76 
1500 758.30 759.11 758.76 
1501 758.38 759.10 758.76 
1502 758.43 759.15 758.76 
1503 758.72 759.13 758.76 
1504 758.22 759.11 758.76 
1505 758.59 759.12 758.76 
1506 758.55 759.13 758.76 
1507 758.43 759.13 758.76 
1508 758.51 759.14 758.76 
1509 758.64 759.15 758.76 
1510 758.26 759.13 758.76 
1511 758.73 759.13 758.76 
1512 758.68 759.14 758.76 
1513 758.60 759.12 758.76 
1514 758.43 759.14 758.76 
1515 758.47 759.11 758.76 
1516 758.55 759.14 758.76 
1517 758.39 759.12 758.76 
1518 758.38 759.11 758.76 
1519 758.39 759.15 758.76 
1520 757.76 759.16 758.76 
1521 758.34 759.12 758.76 
1522 758.55 759.15 758.76 
1523 758.26 759.11 758.76 
1524 758.51 759.13 758.76 
1525 758.47 759.13 758.76 
1526 758.40 759.10 758.76 
1527 758.39 759.10 758.76 
1528 758.93 759.12 758.76 
1529 758.72 759.13 758.93 
1530 758.47 759.16 758.93 
1531 758.26 759.13 758.93 
1532 758.51 759.16 758.93 
1533 758.30 759.12 758.93 
1534 758.21 759.13 758.93 
1535 758.59 759.11 758.93 
1536 758.43 759.12 758.93 
1537 758.47 759.14 758.93 
1538 758.30 759.12 758.93 
1539 758.22 759.15 758.93 
1540 758.13 759.10 758.93 
1541 758.47 759.14 758.93 
1542 758.55 759.12 758.93 
1543 758.22 759.11 758.93 
1544 758.48 759.13 758.93 
1545 758.43 759.14 758.93 
1546 758.52 759.15 758.93 
1547 758.31 759.12 758.93 
1548 758.48 755.11 758.93 
1549 757.97 759.16 758.93 
1550 758.23 759.14 758.93 
1551 758.68 759.14 758.93 
1552 758.48 759.16 758.93 
1553 758.73 759.13 758.93 
1554 758.34 759.13 758.93 
1555 758.22 759.14 758.93 
1556 758.23 759.14 758.93 
1557 758.56 759.13 758.93 
1558 758.40 759.13 758.93 
1559 758.14 759.11 758.93 
1560 758.65 759.14 758.93 
1561 758.26 759.14 758.93 
1562 758.56 759.15 758.93 
1563 758.77 759.15 758.93 
1564 758.52 759.13 758.93 
1565 758.39 759.12 758.93 
1566 758.55 759.14 758.93 
1567 758.56 759.13 758.93 
1568 758.26 759.12 758.93 
1569 758.34 759.13 758.93 
1570 758.55 759.13 758.93 
1571 758.64 759.15 758.93 
1572 758.39 759.12 758.93 
1573 758.21 759.11 758.93 
1574 758.34 759.12 758.93 
1575 758.13 759.13 758.93 
1576 758.63 759.14 758.93 
1577 758.63 759.15 758.93 
1578 758.51 759.12 758.93 
1579 758.55 759.10 758.93 
1580 758.17 759.11 758.93 
1581 758.63 759.14 758.93 
1582 758.55 759.12 758.93 
1583 758.59 759.11 758.93 
1584 758.21 759.13 758.93 
1585 758.33 759.09 758.93 
1586 758.29 759.15 758.93 
1587 758.63 759.12 758.93 
1588 758.39 759.16 758.93 
1589 758.51 759.15 758.93 
1590 758.55 759.13 758.93 
1591 758.34 759.16 758.93 
1592 758.39 759.15 758.93 
1593 758.47 759.10 758.93 
1594 758.26 755.13 758.93 
1595 758.71 759.11 758.93 
1596 758.34 759.12 758.93 
1597 758.42 759.13 758.93 
1598 758.59 759.12 758.93 
1599 758.46 759.15 758.93 
1600 758.63 759.11 758.93 
1601 758.51 759.10 758.93 
1602 758.46 759.11 758.93 
1603 758.30 759.13 758.93 
1604 758.50 759.14 758.93 
1605 758.59 759.11 758.93 
1606 758.38 759.15 758.93 
1607 758.71 759.15 758.93 
1608 758.59 759.14 758.93 
1609 758.47 759.15 758.93 
1610 758.38 759.13 758.93 
1611 758.80 759.13 758.93 
1612 758.43 759.12 758.93 
1613 758.51 759.13 758.93 
1614 758.51 759.14 758.93 
1615 758.22 759.14 758.93 
1616 758.35 759.12 758.93 
1617 758.30 759.10 758.93 
1618 758.51 759.11 758.93 
1619 758.38 759.13 758.93 
1620 758.68 759.13 758.93 
1621 758.55 759.15 758.93 
1622 758.72 759.14 758.93 
1623 758.72 759.12 758.93 
1624 758.55 759.12 758.93 
1625 758.47 759.14 758.93 
1626 758.34 759.14 758.93 
1627 757.92 759.15 758.93 
1628 757.92 759.13 758.93 
1629 758.51 759.11 758.93 
1630 758.55 759.11 758.93 
1631 758.47 755.11 758.93 
1632 758.51 759.14 758.93 
1633 758.55 759.11 758.93 
1634 758.81 759.15 758.93 
1635 758.39 759.17 758.93 
1636 758.09 759.12 758.93 
1637 758.22 759.11 758.93 
1638 758.47 759.11 758.93 
1639 758.17 759.10 758.93 
1640 758.46 759.11 758.93 
1641 758.42 759.13 758.93 
1642 758.67 759.13 758.93 
1643 758.35 759.10 758.93 
1644 758.25 759.11 758.93 
1645 758.46 759.13 758.93 
1646 758.21 759.10 758.93 
1647 758.17 759.12 758.93 
1648 758.47 759.11 758.93 
1649 758.34 759.13 758.93 
1650 758.38 759.16 758.93 
1651 758.30 759.14 758.93 
1652 758.76 759.14 758.93 
1653 758.01 759.11 758.93 
1654 758.64 759.15 758.93 
1655 758.51 759.11 758.93 
1656 758.64 759.15 758.93 
1657 758.13 759.14 758.93 
1658 758.59 759.11 758.93 
1659 758.76 759.15 758.93 
1660 758.34 759.15 758.93 
1661 758.64 759.13 758.93 
1662 758.05 759.13 758.93 
1663 758.47 759.15 758.93 
1664 758.38 759.13 758.93 
1665 758.59 759.12 758.93 
1666 758.34 759.15 758.93 
1667 758.42 759.08 758.93 
1668 758.67 759.13 758.93 
1669 757.96 759.12 758.93 
1670 758.00 759.14 758.93 
1671 758.34 759.12 758.93 
1672 758.13 759.12 758.93 
1673 758.38 759.10 758.93 
1674 758.25 759.14 758.93 
1675 758.42 759.12 758.93 
1676 758.59 759.12 758.93 
1677 758.50 759.13 758.93 
1678 758.55 759.13 758.93 
1679 758.41 755.08 758.93 
1680 758.13 759.13 758.93 
1681 758.38 759.13 758.93 
1682 758.30 759.11 758.93 
1683 758.04 759.15 758.93 
1684 758.30 759.11 758.93 
1685 758.17 759.08 758.93 
1686 757.80 759.10 758.93 
1687 758.54 759.11 758.93 
1688 758.13 759.10 758.93 
1689 758.50 759.09 758.93 
1690 758.67 759.11 758.93 
1691 758.60 759.12 758.93 
1692 758.17 759.14 758.93 
1693 758.55 759.16 758.93 
1694 758.59 759.12 758.93 
1695 758.17 759.11 758.93 
1696 758.26 759.09 758.93 
1697 758.55 759.11 758.93 
1698 758.43 759.12 758.93 
1699 758.18 759.10 758.93 
1700 758.38 759.11 758.93 
1701 758.59 759.13 758.93 
1702 758.13 759.15 758.93 
1703 758.29 759.15 758.93 
1704 758.21 759.10 758.93 
1705 758.37 759.12 758.93 
1706 758.25 759.10 758.93 
1707 758.33 759.09 758.93 
1708 758.20 759.11 758.93 
1709 758.20 759.10 758.93 
1710 758.32 759.16 758.93 
1711 758.20 759.08 758.93 
1712 758.16 759.10 758.93 
1713 758.21 759.12 758.93 
1714 758.37 759.10 758.93 
1715 758.54 759.12 758.93 
1716 758.67 759.12 758.93 
1717 758.51 759.13 758.93 
1718 758.21 759.06 758.93 
1719 758.25 759.12 758.93 
1720 758.26 759.12 758.93 
1721 758.38 759.15 758.93 
1722 758.12 759.07 758.93 
1723 758.50 759.12 758.93 
1724 758.34 759.12 758.93 
1725 758.29 759.11 758.93 
1726 758.46 759.12 758.93 
1727 758.42 759.14 758.93 
1728 758.25 759.12 758.93 
1729 758.67 759.14 758.93 
1730 758.38 759.13 758.93 
1731 758.38 759.12 758.93 
1732 758.17 759.10 758.93 
1733 758.34 759.13 758.93 
1734 758.34 759.09 758.93 
1735 758.30 759.14 758.93 
1736 758.51 759.14 758.93 
1737 758.22 759.13 758.93 
1738 758.47 759.11 758.93 
1739 758.34 759.10 758.93 
1740 758.72 759.13 758.93 
1741 758.38 759.14 758.93 
1742 758.34 759.13 758.93 
1743 758.47 759.10 758.93 
1744 758.55 759.12 758.93 
1745 758.05 759.12 758.93 
1746 758.68 759.12 758.93 
1747 758.54 759.12 758.93 
1748 758.46 759.12 758.93 
1749 758.42 759.13 758.93 
1750 758.51 759.12 758.93 
1751 758.21 759.11 758.93 
1752 758.76 755.12 758.93 
1753 758.34 759.12 758.93 
1754 758.46 759.14 758.93 
1755 758.01 759.10 758.93 
1756 757.92 759.15 758.93 
1757 758.63 759.10 758.93 
1758 758.25 759.13 758.93 
1759 758.38 759.11 758.93 
1760 758.13 759.11 758.93 
1761 758.55 759.16 758.93 
1762 758.55 759.11 758.93 
1763 758.38 759.11 758.93 
1764 758.18 759.12 758.93 
1765 758.59 759.10 758.93 
1766 758.59 759.08 758.93 
1767 758.84 759.11 758.93 
1768 758.72 759.11 758.93 
1769 758.26 759.16 758.93 
1770 758.59 759.13 758.93 
1771 758.09 759.12 758.93 
1772 758.46 759.10 758.93 
1773 758.17 759.10 758.93 
1774 758.54 759.12 758.93 
1775 758.34 759.09 758.93 
1776 758.08 759.12 758.93 
1777 758.34 759.14 758.93 
1778 758.71 759.11 758.93 
1779 758.42 759.09 758.93 
1780 758.33 759.13 758.93 
1781 757.95 755.12 758.93 
1782 758.51 759.08 758.93 
1783 758.21 759.07 758.93 
1784 758.13 759.08 758.93 
1785 758.76 759.13 758.93 
1786 758.55 759.10 758.93 
1787 758.38 759.11 758.93 
1788 758.38 759.12 758.93 
1789 758.17 759.09 758.93 
1790 758.21 759.08 758.93 
1791 758.47 759.13 758.93 
1792 758.34 759.12 758.93 
1793 758.75 759.10 758.93 
1794 758.34 759.09 758.93 
1795 758.63 759.11 758.93 
1796 758.51 759.08 758.93 
1797 758.38 759.09 758.93 
1798 758.38 759.11 758.93 
1799 758.30 759.08 758.93 
1800 758.42 759.08 758.93 
1801 758.09 759.12 758.93 
1802 758.12 759.08 758.93 
1803 758.33 759.12 758.93 
1804 758.17 759.11 758.93 
1805 758.71 759.09 758.93 
1806 758.38 759.11 758.93 
1807 758.04 759.12 758.93 
1808 758.29 759.11 758.93 
1809 758.16 759.10 758.93 
1810 758.42 759.09 758.93 
1811 758.17 759.11 758.93 
1812 758.34 759.11 758.93 
1813 758.25 759.08 758.93 
1814 758.41 759.09 758.93 
1815 758.46 759.11 758.93 
1816 758.13 759.15 758.93 
1817 758.34 759.13 758.93 
1818 758.30 759.09 758.93 
1819 758.46 759.09 758.93 
1820 758.42 759.12 758.93 
1821 758.12 759.13 758.93 
1822 758.42 759.13 758.93 
1823 758.58 759.12 758.93 
1824 758.00 759.09 758.93 
1825 758.49 759.09 758.93 
1826 758.32 759.13 758.93 
1827 758.50 759.08 758.93 
1828 758.20 759.10 758.93 
1829 758.78 759.07 758.93 
1830 758.41 759.10 758.93 
1831 758.50 759.13 758.93 
1832 758.50 759.09 758.93 
1833 758.33 759.11 758.93 
1834 758.46 759.10 758.93 
1835 758.29 759.08 758.93 
1836 758.50 759.10 758.93 
1837 758.13 759.10 758.93 
1838 758.37 759.10 758.93 
1839 758.58 759.06 758.93 
1840 758.71 759.15 758.93 
1841 758.67 759.10 758.93 
1842 758.50 759.07 758.93 
1843 758.08 759.11 758.93 
1844 758.46 759.10 758.93 
1845 758.59 759.12 758.93 
1846 758.42 759.10 758.93 
1847 758.63 759.13 758.93 
1848 758.30 759.10 758.93 
1849 758.05 759.13 758.93 
1850 758.67 759.13 758.93 
1851 758.54 759.13 758.93 
1852 758.26 759.11 758.93 
1853 758.51 759.15 758.93 
1854 758.68 759.12 758.93 
1855 758.68 759.11 758.93 
1856 758.34 759.10 758.93 
1857 758.64 759.13 758.93 
1858 758.64 759.13 758.93 
1859 758.47 759.16 758.93 
1860 758.47 759.13 758.93 
1861 758.34 759.14 758.93 
1862 757.97 759.14 758.93 
1863 758.68 759.11 758.93 
1864 758.30 759.15 758.93 
1865 758.47 759.13 758.93 
1866 758.76 759.11 758.93 
1867 758.22 759.13 758.93 
1868 758.55 759.12 758.93 
1869 758.51 759.14 758.93 
1870 758.30 759.13 758.93 
1871 758.42 759.12 758.93 
1872 758.76 759.13 758.93 
1873 758.26 759.14 758.93 
1874 758.76 759.10 758.93 
1875 758.59 759.11 758.93 
1876 758.54 759.13 758.93 
1877 758.59 759.12 758.93 
1878 758.50 759.10 758.93 
1879 758.38 759.13 758.93 
1880 758.68 759.13 758.93 
1881 758.59 759.11 758.93 
1882 758.51 759.13 758.93 
1883 758.55 759.11 758.93 
1884 758.63 759.14 758.93 
1885 758.39 759.14 758.93 
1886 758.60 759.12 758.93 
1887 758.55 759.11 758.93 
1888 758.56 759.12 758.93 
1889 758.51 759.12 758.93 
1890 758.64 759.13 758.93 
1891 758.68 759.14 758.93 
1892 758.51 759.13 758.93 
1893 758.72 759.08 758.93 
1894 758.38 759.10 758.93 
1895 758.34 759.10 758.93 
1896 758.50 759.12 758.93 
1897 758.76 759.11 758.93 
1898 758.38 759.10 758.93 
1899 758.63 759.14 758.93 
1900 758.68 759.12 758.93 
1901 758.34 759.15 758.93 
1902 758.30 759.11 758.93 
1903 758.80 759.14 758.93 
1904 758.51 759.13 758.93 
1905 758.47 759.14 758.93 
1906 758.43 759.16 758.93 
1907 758.60 759.14 758.93 
1908 758.73 759.12 758.93 
1909 758.47 759.12 758.93 
1910 758.34 759.13 758.93 
1911 758.09 759.15 758.93 
1912 758.05 759.13 758.93 
1913 758.35 759.18 758.93 
1914 758.48 759.17 758.93 
1915 758.31 759.12 758.93 
1916 758.60 759.11 758.93 
1917 758.47 759.10 758.93 
1918 758.60 759.13 758.93 
1919 758.18 759.10 758.93 
1920 758.51 759.13 758.93 
1921 758.38 759.16 758.93 
1922 758.47 759.11 758.93 
1923 758.93 759.12 758.93 
1924 758.47 759.12 758.93 
1925 758.35 759.13 758.93 
1926 758.60 759.13 758.93 
1927 758.47 759.12 758.93 
1928 758.22 759.11 758.93 
1929 758.68 759.13 758.93 
1930 758.47 759.12 758.93 
1931 758.26 759.11 758.93 
1932 758.26 759.10 758.93 
1933 758.51 759.12 758.93 
1934 758.59 759.12 758.93 
1935 758.63 759.15 758.93 
1936 758.38 759.10 758.93 
1937 758.26 759.13 758.93 
1938 758.51 759.10 758.93 
1939 758.46 759.12 758.93 
1940 758.72 759.13 758.93 
1941 758.63 759.13 758.93 
1942 758.81 759.15 758.93 
1943 758.59 759.11 758.93 
1944 757.97 759.09 758.93 
1945 758.80 759.10 758.93 
1946 758.50 759.12 758.93 
1947 758.42 759.12 758.93 
1948 758.33 759.10 758.93 
1949 758.42 759.15 758.93 
1950 758.47 759.12 758.93 
1951 758.55 759.10 758.93 
1952 758.63 759.12 758.93 
1953 758.84 759.11 758.93 
1954 758.13 759.11 758.93 
1955 758.59 759.10 758.93 
1956 758.55 759.11 758.93 
1957 758.30 759.09 758.93 
1958 758.67 759.10 758.93 
1959 758.59 759.12 758.93 
1960 758.55 759.10 758.93 
1961 758.58 759.10 758.93 
1962 758.54 759.13 758.93 
1963 758.08 759.10 758.93 
1964 758.42 759.11 758.93 
1965 758.21 759.11 758.93 
1966 758.37 759.11 758.93 
1967 758.50 759.14 758.93 
1968 758.34 759.11 758.93 
1969 758.46 759.10 758.93 
1970 758.59 759.10 758.93 
1971 758.42 759.12 758.93 
1972 758.67 759.11 758.93 
1973 758.46 759.15 758.93 
1974 758.25 759.12 758.93 
1975 758.29 759.11 758.93 
1976 758.83 759.09 758.93 
1977 758.33 759.12 758.93 
1978 758.41 759.15 758.93 
1979 758.22 759.09 758.93 
1980 758.42 759.12 758.93 
1981 758.55 759.10 758.93 
1982 758.38 759.13 758.93 
1983 758.46 759.09 758.93 
1984 758.21 759.09 758.93 
1985 758.42 759.09 758.93 
1986 758.33 759.11 758.93 
1987 758.42 759.09 758.93 
1988 758.42 759.13 758.93 
1989 758.37 759.09 758.93 
1990 758.37 759.09 758.93 
1991 758.42 759.10 758.93 
1992 758.12 759.10 758.93 
1993 758.29 759.14 758.93 
1994 758.29 759.12 758.93 
1995 758.34 759.09 758.93 
1996 758.46 759.12 758.93 
1997 758.12 759.13 758.93 
1998 758.54 759.14 758.93 
1999 758.38 759.13 758.93 
2000 758.38 759.11 758.93 
2001 758.41 759.12 758.93 
2002 758.13 759.08 758.93 
2003 758.33 759.13 758.93 
2004 758.50 759.09 758.93 
2005 758.33 759.15 758.93 
2006 758.21 759.11 758.93 
2007 758.16 759.11 758.93 
2008 758.59 759.11 758.93 
2009 758.34 759.10 758.93 
2010 758.54 759.13 758.93 
2011 758.34 759.12 758.93 
2012 758.17 759.11 758.93 
2013 758.59 759.12 758.93 
2014 758.38 759.13 758.93 
2015 758.12 759.11 758.93 
2016 758.16 759.10 758.93 
2017 758.50 759.12 758.93 
2018 758.46 759.10 758.93 
2019 758.59 759.12 758.93 
2020 758.38 759.13 758.93 
2021 758.47 759.14 758.93 
2022 758.80 759.11 758.93 
2023 758.17 759.14 758.93 
2024 758.51 759.12 758.93 
2025 758.30 759.13 758.93 
2026 757.83 759.12 758.93 
2027 758.51 759.14 758.93 
2028 758.76 759.16 758.93 
2029 758.34 759.13 758.93 
2030 758.26 759.14 758.93 
2031 758.55 759.14 758.93 
2032 758.01 759.16 758.93 
2033 758.64 759.14 758.93 
2034 758.43 759.13 758.93 
2035 758.59 759.14 758.93 
2036 758.30 759.15 758.93 
2037 758.43 759.15 758.93 
2038 758.46 759.13 758.93 
2039 757.88 759.11 758.93 
2040 758.51 759.13 758.93 
2041 758.55 759.12 758.93 
2042 758.22 759.11 758.93 
2043 758.26 759.14 758.93 
2044 758.30 759.13 758.93 
2045 758.34 759.12 758.93 
2046 758.26 759.15 758.93 
2047 757.88 759.14 758.93 
2048 758.63 759.14 758.93 
2049 758.17 759.11 758.93 
2050 758.25 759.15 758.93 
2051 758.17 759.14 758.93 
2052 758.21 759.13 758.93 
2053 758.51 759.15 758.93 
2054 758.68 759.13 758.93 
2055 758.34 755.09 758.93 
2056 758.30 759.12 758.93 
2057 758.42 759.13 758.93 
2058 758.34 759.11 758.93 
2059 758.55 759.12 758.93 
2060 758.26 759.12 758.93 
2061 758.17 759.15 758.93 
2062 758.29 759.13 758.93 
2063 758.34 759.12 758.93 
2064 758.26 759.15 758.93 
2065 758.01 759.12 758.93 
2066 758.34 759.10 758.93 
2067 758.34 759.12 758.93 
2068 758.34 759.11 758.93 
2069 758.42 759.09 758.93 
2070 758.71 759.12 758.93 
2071 758.34 759.11 758.93 
2072 758.55 759.12 758.93 
2073 758.38 759.11 758.93 
2074 758.63 759.12 758.93 
2075 758.63 759.11 758.93 
2076 758.13 759.11 758.93 
2077 758.38 759.11 758.93 
2078 758.55 759.11 758.93 
2079 758.59 759.09 758.93 
2080 758.54 759.10 758.93 
2081 758.59 759.12 758.93 
2082 758.47 759.13 758.93 
2083 758.67 759.12 758.93 
2084 758.25 759.10 758.93 
2085 758.59 759.11 758.93 
2086 758.34 759.09 758.93 
2087 758.58 759.12 758.93 
2088 758.46 759.12 758.93 
2089 758.50 759.12 758.93 
2090 758.00 759.11 758.93 
2091 758.67 759.12 758.93 
2092 758.30 759.13 758.93 
2093 758.34 759.10 758.93 
2094 758.30 759.13 758.93 
2095 758.34 759.13 758.93 
2096 758.38 759.11 758.93 
2097 758.59 759.15 758.93 
2098 758.09 759.14 758.93 
2099 758.38 759.14 758.93 
2100 758.38 759.12 758.93 
2101 758.63 759.10 758.93 
2102 758.38 759.16 758.93 
2103 758.55 759.12 758.93 
2104 758.17 759.14 758.93 
2105 758.21 759.09 758.93 
2106 758.21 759.12 758.93 
2107 757.83 755.11 758.93 
2108 758.50 759.14 758.93 
2109 758.55 759.08 758.93 
2110 758.21 759.09 758.93 
2111 758.59 759.08 758.93 
2112 758.26 759.10 758.93 
2113 758.21 759.12 758.93 
2114 758.46 759.10 758.93 
2115 758.42 759.16 758.93 
2116 758.17 759.12 758.93 
2117 758.59 759.11 758.93 
2118 758.63 759.13 758.93 
2119 758.59 759.10 758.93 
2120 758.84 759.12 758.93 
2121 758.50 759.14 758.93 
2122 758.41 759.09 758.93 
2123 758.34 759.09 758.93 
2124 758.42 759.08 758.93 
2125 758.25 759.12 758.93 
2126 758.54 759.14 758.93 
2127 758.50 759.11 758.93 
2128 757.87 759.10 758.93 
2129 758.71 759.12 758.93 
2130 758.04 759.11 758.93 
2131 758.33 759.10 758.93 
2132 758.62 759.11 758.93 
2133 758.55 759.09 758.93 
2134 758.05 759.10 758.93 
2135 758.37 759.08 758.93 
2136 758.42 759.08 758.93 
2137 758.29 759.12 758.93 
2138 758.25 759.09 758.93 
2139 758.42 759.07 758.93 
2140 758.58 759.10 758.93 
2141 758.62 759.10 758.93 
2142 758.25 759.10 758.93 
2143 758.54 759.08 758.93 
2144 758.42 759.13 758.93 
2145 758.46 759.11 758.93 
2146 758.50 759.12 758.93 
2147 758.59 759.12 758.93 
2148 758.38 759.11 758.93 
2149 758.38 759.12 758.93 
2150 758.08 759.08 758.93 
2151 758.54 759.11 758.93 
2152 758.46 759.11 758.93 
2153 758.88 759.11 758.93 
2154 758.84 759.11 758.93 
2155 758.46 759.12 758.93 
2156 758.51 759.12 758.93 
2157 758.50 759.10 758.93 
2158 758.59 759.12 758.93 
2159 758.38 759.13 758.93 
2160 758.46 759.10 758.93 
2161 758.50 759.13 758.93 
2162 758.75 759.12 758.93 
2163 758.54 759.12 758.93 
2164 758.54 759.09 758.93 
2165 758.50 759.09 758.93 
2166 758.54 759.11 758.93 
2167 758.46 759.11 758.93 
2168 758.71 759.11 758.93 
2169 758.79 759.08 758.93 
2170 758.50 759.11 758.93 
2171 758.16 759.11 758.93 
2172 758.67 759.08 758.93 
2173 758.50 759.11 758.93 
2174 758.50 759.12 758.93 
2175 758.16 759.13 758.93 
2176 758.59 759.11 758.93 
2177 758.42 759.12 758.93 
2178 758.63 759.15 758.93 
2179 758.68 759.12 758.93 
2180 758.30 759.13 758.93 
2181 758.59 759.13 758.93 
2182 758.47 759.14 758.93 
2183 758.55 759.15 758.93 
2184 758.59 759.11 758.93 
2185 758.67 759.12 758.93 
2186 758.76 759.12 758.93 
2187 758.75 759.13 758.93 
2188 758.58 759.10 758.93 
2189 758.67 759.11 758.93 
2190 758.63 759.09 758.93 
2191 758.51 759.11 758.93 
2192 758.51 759.13 758.93 
2193 758.46 759.10 758.93 
2194 758.29 759.10 758.93 
2195 758.42 759.08 758.93 
2196 758.29 755.10 758.93 
2197 758.72 759.10 758.93 
2198 758.34 759.10 758.93 
2199 758.67 759.12 758.93 
2200 758.55 759.10 758.93 
2201 758.54 759.12 758.93 
2202 758.67 759.12 758.93 
2203 758.38 759.10 758.93 
2204 758.54 759.07 758.93 
2205 758.62 759.09 758.93 
2206 758.50 759.10 758.93 
2207 758.59 759.12 758.93 
2208 758.67 759.10 758.93 
2209 758.38 759.09 758.93 
2210 758.50 759.10 758.93 
2211 758.66 759.09 758.93 
2212 758.46 759.08 758.93 
2213 758.49 759.08 758.93 
2214 758.21 759.12 758.93 
2215 758.38 755.12 758.93 
2216 758.29 759.14 758.93 
2217 758.37 759.10 758.93 
2218 758.38 759.12 758.93 
2219 758.71 759.14 758.93 
2220 758.59 759.10 758.93 
2221 758.67 759.12 758.93 
2222 758.43 759.10 758.93 
2223 758.46 759.13 758.93 
2224 758.39 759.11 758.93 
2225 758.42 759.13 758.93 
2226 758.55 759.12 758.93 
2227 758.47 759.14 758.93 
2228 758.59 759.14 758.93 
2229 758.71 759.12 758.93 
2230 758.68 759.12 758.93 
2231 758.55 759.13 758.93 
2232 758.55 759.13 758.93 
2233 758.42 759.11 758.93 
2234 758.30 759.11 758.93 
2235 758.34 759.12 758.93 
2236 758.34 759.13 758.93 
2237 757.96 759.12 758.93 
2238 758.80 759.13 758.93 
2239 758.54 759.11 758.93 
2240 758.63 759.11 758.93 
2241 758.34 759.13 758.93 
2242 758.55 759.12 758.93 
2243 758.63 759.11 758.93 
2244 758.88 759.11 758.93 
2245 758.30 759.13 758.93 
2246 758.30 759.11 758.93 
2247 758.59 759.12 758.93 
2248 758.80 759.12 758.93 
2249 758.80 759.13 758.93 
2250 758.34 759.12 758.93 
2251 758.76 759.12 758.93 
2252 758.13 759.11 758.93 
2253 758.22 759.13 758.93 
2254 758.30 759.11 758.93 
2255 758.38 759.14 758.93 
2256 758.30 759.13 758.93 
2257 758.42 759.12 758.93 
2258 758.46 759.13 758.93 
2259 758.09 759.12 758.93 
2260 758.59 755.12 758.93 
2261 758.42 759.11 758.93 
2262 758.38 759.14 758.93 
2263 758.63 759.12 758.93 
2264 758.89 759.14 758.93 
2265 758.43 759.13 758.93 
2266 758.30 759.09 758.93 
2267 758.75 759.10 758.93 
2268 758.64 759.11 758.93 
2269 758.26 759.12 758.93 
2270 758.51 759.11 758.93 
2271 758.09 759.13 758.93 
2272 758.59 759.13 758.93 
2273 758.59 759.13 758.93 
2274 758.42 759.13 758.93 
2275 758.59 759.11 758.93 
2276 758.59 759.12 758.93 
2277 758.51 759.12 758.93 
2278 758.68 759.13 758.93 
2279 758.63 759.13 758.93 
2280 758.55 759.13 758.93 
2281 758.38 759.11 758.93 
2282 758.72 759.13 758.93 
2283 758.26 759.12 758.93 
2284 758.59 759.12 758.93 
2285 758.26 759.12 758.93 
2286 758.55 759.14 758.93 
2287 758.67 759.11 758.93 
2288 758.21 759.13 758.93 
2289 758.55 759.12 758.93 
2290 758.34 759.12 758.93 
2291 758.38 759.13 758.93 
2292 758.34 759.12 758.93 
2293 758.00 759.12 758.93 
2294 758.59 759.11 758.93 
2295 758.38 759.12 758.93 
2296 758.55 759.13 758.93 
2297 758.26 759.12 758.93 
2298 758.47 759.10 758.93 
2299 758.55 759.15 758.93 
2300 758.26 759.12 758.93 
2301 758.47 759.09 758.93 
2302 758.76 759.10 758.93 
2303 758.59 759.15 758.93 
2304 758.67 759.12 758.93 
2305 758.30 759.13 758.93 
2306 758.72 759.12 758.93 
2307 758.59 759.13 758.93 
2308 758.42 759.13 758.93 
2309 758.63 759.14 758.93 
2310 758.67 759.12 758.93 
2311 758.68 759.12 758.93 
2312 758.76 759.10 758.93 
2313 758.51 759.12 758.93 
2314 758.43 759.14 758.93 
2315 758.43 759.12 758.93 
2316 758.47 759.12 758.93 
2317 758.30 759.13 758.93 
2318 758.47 759.15 758.93 
2319 758.34 759.14 758.93 
2320 758.38 759.14 758.93 
2321 758.59 759.12 758.93 
2322 758.55 759.14 758.93 
2323 758.63 759.13 758.93 
2324 758.72 759.12 758.93 
2325 758.76 759.15 758.93 
2326 758.55 759.11 758.93 
2327 758.80 759.12 758.93 
2328 758.59 759.13 758.93 
2329 758.38 759.15 758.93 
2330 758.13 759.14 758.93 
2331 758.47 759.14 758.93 
2332 758.39 759.13 758.93 
2333 758.59 759.12 758.93 
2334 758.84 759.11 758.93 
2335 758.30 759.15 758.93 
2336 758.30 759.12 758.93 
2337 758.35 759.16 758.93 
2338 758.76 759.16 758.93 
2339 758.56 759.15 758.93 
2340 758.47 759.12 758.93 
2341 758.67 759.12 758.93 
2342 758.64 759.11 758.93 
2343 758.55 759.12 758.93 
2344 758.60 759.13 758.93 
2345 758.76 759.14 758.93 
2346 758.63 759.13 758.93 
2347 758.76 759.13 758.93 
2348 758.47 759.12 758.93 
2349 758.72 759.13 758.93 
2350 758.55 759.12 758.93 
2351 758.80 759.14 758.93 
2352 758.39 759.11 758.93 
2353 758.34 759.12 758.93 
2354 758.84 759.14 758.93 
2355 758.72 759.13 758.93 
2356 758.71 759.12 758.93 
2357 758.30 759.12 758.93 
2358 758.67 759.10 758.93 
2359 758.63 759.12 758.93 
2360 758.58 759.08 758.93 
2361 758.47 759.14 758.93 
2362 758.63 759.13 758.93 
2363 758.47 759.13 758.93 
2364 758.63 759.11 758.93 
2365 758.34 759.10 758.93 
2366 758.72 759.11 758.93 
2367 758.51 759.14 758.93 
2368 758.55 759.10 758.93 
2369 758.46 759.11 758.93 
2370 758.55 759.09 758.93 
2371 758.51 759.12 758.93 
2372 758.59 759.11 758.93 
2373 758.51 759.11 758.93 
2374 758.34 759.11 758.93 
2375 758.63 759.10 758.93 
2376 758.63 759.10 758.93 
2377 758.42 759.10 758.93 
2378 758.55 759.11 758.93 
2379 758.75 759.13 758.93 
2380 758.33 759.11 758.93 
2381 758.67 759.08 758.93 
2382 758.71 759.11 758.93 
2383 758.55 759.11 758.93 
2384 758.80 759.13 758.93 
2385 758.13 759.12 758.93 
2386 758.59 759.12 758.93 
2387 758.93 759.11 758.93 
2388 758.47 759.09 758.93 
2389 758.51 759.13 758.93 
2390 758.72 759.13 758.93 
2391 758.42 759.14 758.93 
2392 758.63 759.13 758.93 
2393 758.76 759.13 758.93 
2394 758.59 759.14 758.93 
2395 758.88 759.15 758.93 
2396 758.51 759.14 758.93 
2397 758.34 759.12 758.93 
2398 758.09 759.12 758.93 
2399 758.47 759.12 758.93 
2400 758.34 759.15 758.93 
2401 758.59 759.11 758.93 
2402 758.42 759.15 758.93 
2403 758.51 759.12 758.93 
2404 758.43 759.12 758.93 
2405 758.72 759.12 758.93 
2406 758.34 759.10 758.93 
2407 758.72 759.12 758.93 
2408 758.76 759.14 758.93 
2409 758.76 759.13 758.93 
2410 758.63 759.11 758.93 
2411 758.80 759.10 758.93 
2412 758.68 759.12 758.93 
2413 758.55 759.11 758.93 
2414 758.63 759.13 758.93 
2415 758.51 759.11 758.93 
2416 758.46 759.11 758.93 
2417 758.38 759.13 758.93 
2418 758.76 759.11 758.93 
2419 758.42 759.13 758.93 
2420 758.55 759.16 758.93 
2421 758.30 759.13 758.93 
2422 758.42 759.15 758.93 
2423 758.68 759.11 758.93 
2424 758.63 759.12 758.93 
2425 758.68 759.10 758.93 
2426 758.17 759.13 758.93 
2427 758.68 759.10 758.93 
2428 758.63 759.09 758.93 
2429 758.51 759.09 758.93 
2430 758.80 759.11 758.93 
2431 758.34 759.14 758.93 
2432 758.21 759.12 758.93 
2433 758.54 759.13 758.93 
2434 758.59 759.14 758.93 
2435 758.72 759.11 758.93 
2436 758.47 759.12 758.93 
2437 758.68 759.12 758.93 
2438 758.72 759.12 758.93 
2439 758.55 759.11 758.93 
2440 758.72 759.10 758.93 
2441 758.47 759.09 758.93 
2442 758.67 755.08 758.93 
2443 758.30 759.11 758.93 
2444 758.55 759.09 758.93 
2445 758.55 759.13 758.93 
2446 758.68 759.11 758.93 
2447 758.51 759.14 758.93 
2448 758.72 759.17 758.93 
2449 758.30 759.13 758.93 
2450 758.72 759.13 758.93 
2451 758.51 759.11 758.93 
2452 758.42 759.08 758.93 
2453 758.88 759.11 758.93 
2454 758.51 759.07 758.93 
2455 758.33 759.10 758.93 
2456 758.63 759.10 758.93 
2457 758.51 759.10 758.93 
2458 758.46 759.11 758.93 
2459 758.46 759.15 758.93 
2460 758.13 759.15 758.93 
2461 758.47 759.11 758.93 
2462 758.59 759.11 758.93 
2463 758.72 759.10 758.93 
2464 758.71 759.13 758.93 
2465 758.55 759.16 758.93 
2466 758.42 759.11 758.93 
2467 758.54 759.11 758.93 
2468 758.71 759.11 758.93 
2469 758.46 759.13 758.93 
2470 758.17 759.10 758.93 
2471 758.29 759.11 758.93 
2472 758.67 759.10 758.93 
2473 758.26 759.14 758.93 
2474 758.59 759.11 758.93 
2475 758.59 759.11 758.93 
2476 758.55 759.11 758.93 
2477 758.63 759.14 758.93 
2478 758.76 759.13 758.93 
2479 758.51 759.11 758.93 
2480 758.63 759.12 758.93 
2481 758.51 759.13 758.93 
2482 758.64 759.08 758.93 
2483 758.42 759.14 758.93 
2484 758.51 759.12 758.93 
2485 758.72 759.11 758.93 
2486 758.47 759.13 758.93 
2487 758.47 759.14 758.93 
2488 758.85 759.11 758.93 
2489 758.39 759.12 758.93 
2490 758.39 759.16 758.93 
2491 758.43 759.13 758.93 
2492 758.46 759.12 758.93 
2493 758.43 759.13 758.93 
2494 758.80 759.13 758.93 
2495 758.68 759.14 758.93 
2496 758.55 759.10 758.93 
2497 758.68 759.11 758.93 
2498 758.46 759.11 758.93 
2499 758.63 759.14 758.93 
2500 758.80 759.14 758.93 
2501 758.34 759.14 758.93 
2502 758.51 759.14 758.93 
2503 758.63 759.10 758.93 
2504 758.29 759.13 758.93 
2505 758.34 759.13 758.93 
2506 758.63 759.12 758.93 
2507 758.59 759.11 758.93 
2508 758.38 759.12 758.93 
2509 758.67 759.12 758.93 
2510 758.63 759.13 758.93 
2511 758.46 759.13 758.93 
2512 758.38 759.12 758.93 
2513 758.46 759.11 758.93 
2514 758.67 759.09 758.93 
2515 758.50 759.10 758.93 
2516 758.38 759.09 758.93 
2517 758.25 759.14 758.93 
2518 758.38 759.08 758.93 
2519 758.09 759.10 758.93 
2520 758.83 759.13 758.93 
2521 758.42 759.10 758.93 
2522 758.50 759.10 758.93 
2523 758.50 759.15 758.93 
2524 758.54 759.07 758.93 
2525 758.54 759.08 758.93 
2526 758.42 759.09 758.93 
2527 758.25 759.10 758.93 
2528 758.46 759.10 758.93 
2529 758.38 759.11 758.93 
2530 758.25 759.12 758.93 
2531 758.71 759.10 758.93 
2532 758.67 759.10 758.93 
2533 758.46 759.10 758.93 
2534 758.34 759.12 758.93 
2535 758.76 759.11 758.93 
2536 758.88 759.11 758.93 
2537 758.71 759.11 758.93 
2538 758.67 759.12 758.93 
2539 758.63 759.09 758.93 
2540 758.25 759.13 758.93 
2541 758.71 759.13 758.93 
2542 758.21 759.14 758.93 
2543 758.54 759.09 758.93 
2544 758.46 759.10 758.93 
2545 758.59 759.10 758.93 
2546 758.25 759.09 758.93 
2547 758.80 759.10 758.93 
2548 758.50 759.15 758.93 
2549 758.34 755.08 758.93 
2550 758.76 759.13 758.93 
2551 758.89 759.12 758.93 
2552 758.21 759.13 758.93 
2553 758.75 759.11 758.93 
2554 758.63 759.10 758.93 
2555 758.55 759.08 758.93 
2556 758.26 759.15 758.93 
2557 758.67 759.10 758.93 
2558 758.63 759.11 758.93 
2559 758.47 759.12 758.93 
2560 758.38 759.11 758.93 
2561 758.72 759.13 758.93 
2562 758.55 759.12 758.93 
2563 758.43 759.13 758.93 
2564 758.46 759.13 758.93 
2565 758.59 759.13 758.93 
2566 758.13 759.14 758.93 
2567 758.42 759.13 758.93 
2568 758.46 759.13 758.93 
2569 758.13 759.14 758.93 
2570 758.25 759.12 758.93 
2571 758.55 759.14 758.93 
2572 758.38 759.13 758.93 
2573 758.42 759.12 758.93 
2574 758.29 759.15 758.93 
2575 758.21 759.14 758.93 
2576 758.13 759.11 758.93 
2577 758.59 759.12 758.93 
2578 758.63 759.10 758.93 
2579 758.63 759.09 758.93 
2580 758.75 759.10 758.93 
2581 758.33 759.11 758.93 
2582 758.08 759.12 758.93 
2583 758.13 759.12 758.93 
2584 758.62 759.16 758.93 
2585 758.79 759.11 758.93 
2586 758.63 755.13 758.93 
2587 758.59 759.14 758.93 
2588 758.50 759.10 758.93 
2589 758.33 759.12 758.93 
2590 758.58 759.10 758.93 
2591 758.67 759.11 758.93 
2592 758.37 759.14 758.93 
2593 758.21 759.11 758.93 
2594 758.50 759.10 758.93 
2595 758.21 759.12 758.93 
2596 758.50 759.15 758.93 
2597 757.87 759.17 758.93 
2598 758.55 759.11 758.93 
2599 758.17 759.10 758.93 
2600 758.55 759.09 758.93 
2601 758.67 759.10 758.93 
2602 758.71 759.11 758.93 
2603 758.38 759.12 758.93 
2604 758.42 759.11 758.93 
2605 758.21 759.11 758.93 
2606 758.67 759.11 758.93 
2607 758.47 759.12 758.93 
2608 758.17 759.11 758.93 
2609 758.46 759.12 758.93 
2610 758.29 759.14 758.93 
2611 758.59 759.14 758.93 
2612 758.38 759.10 758.93 
2613 758.21 759.11 758.93 
2614 758.75 759.12 758.93 
2615 758.46 759.12 758.93 
2616 758.58 759.08 758.93 
2617 758.54 755.08 758.93 
2618 758.37 759.09 758.93 
2619 758.49 759.11 758.93 
2620 758.70 759.13 758.93 
2621 758.58 759.12 758.93 
2622 758.54 759.12 758.93 
2623 758.46 759.13 758.93 
2624 758.41 759.12 758.93 
2625 758.71 759.09 758.93 
2626 758.33 759.11 758.93 
2627 758.41 759.12 758.93 
2628 758.83 759.10 758.93 
2629 758.63 759.05 758.93 
2630 758.42 759.13 758.93 
2631 758.46 759.10 758.93 
2632 758.37 759.13 758.93 
2633 758.58 759.17 758.93 
2634 758.46 759.11 758.93 
2635 758.59 759.08 758.93 
2636 758.71 759.14 758.93 
2637 758.20 759.10 758.93 
2638 758.25 759.13 758.93 
2639 758.46 759.15 758.93 
2640 758.54 759.10 758.93 
2641 758.46 759.10 758.93 
2642 758.54 759.14 758.93 
2643 758.50 759.11 758.93 
2644 758.67 759.09 758.93 
2645 758.08 759.13 758.93 
2646 758.59 759.11 758.93 
2647 758.67 759.13 758.93 
2648 758.63 759.14 758.93 
2649 758.37 759.12 758.93 
2650 758.46 759.12 758.93 
2651 758.67 759.13 758.93 
2652 758.13 759.10 758.93 
2653 758.55 759.14 758.93 
2654 758.59 759.13 758.93 
2655 758.55 759.15 758.93 
2656 758.34 759.14 758.93 
2657 758.50 759.15 758.93 
2658 758.38 759.14 758.93 
2659 758.34 759.13 758.93 
2660 758.63 759.12 758.93 
2661 758.42 759.15 758.93 
2662 758.38 759.14 758.93 
2663 758.29 759.13 758.93 
2664 758.21 759.13 758.93 
2665 758.29 759.12 758.93 
2666 758.25 759.12 758.93 
2667 758.63 759.15 758.93 
2668 758.42 759.13 758.93 
2669 758.47 759.12 758.93 
2670 758.43 759.15 758.93 
2671 758.51 759.11 758.93 
2672 758.64 759.13 758.93 
2673 758.13 759.13 758.93 
2674 758.52 759.14 758.93 
2675 758.68 759.14 758.93 
2676 758.55 759.11 758.93 
2677 758.80 759.15 758.93 
2678 758.47 759.11 758.93 
2679 758.80 759.12 758.93 
2680 758.59 759.11 758.93 
2681 758.09 759.11 758.93 
2682 758.63 759.15 758.93 
2683 758.55 759.14 758.93 
2684 758.55 759.13 758.93 
2685 758.55 759.11 758.93 
2686 758.76 759.12 758.93 
2687 758.97 759.13 758.93 
2688 758.63 759.12 758.97 
2689 758.63 759.12 758.97 
2690 758.59 759.12 758.97 
2691 758.13 759.13 758.97 
2692 758.71 759.11 758.97 
2693 758.51 759.09 758.97 
2694 758.55 759.12 758.97 
2695 758.30 759.13 758.97 
2696 758.68 759.12 758.97 
2697 758.59 759.12 758.97 
2698 758.59 759.12 758.97 
2699 759.01 759.11 758.97 
2700 758.80 759.17 759.01 
2701 758.63 759.13 759.01 
2702 758.25 759.13 759.01 
2703 758.72 759.11 759.01 
2704 758.34 755.12 759.01 
2705 758.63 759.13 759.01 
2706 758.72 759.09 759.01 
2707 758.84 759.13 759.01 
2708 758.76 759.12 759.01 
2709 758.72 759.14 759.01 
2710 758.55 759.15 759.01 
2711 758.51 759.14 759.01 
2712 758.51 759.15 759.01 
2713 758.76 759.11 759.01 
2714 758.34 759.13 759.01 
2715 758.38 759.14 759.01 
2716 758.60 759.12 759.01 
2717 758.55 759.11 759.01 
2718 758.72 759.15 759.01 
2719 758.68 759.12 759.01 
2720 758.47 759.14 759.01 
2721 758.68 759.14 759.01 
2722 758.09 759.11 759.01 
2723 758.42 759.13 759.01 
2724 758.59 759.14 759.01 
2725 758.80 759.12 759.01 
2726 758.42 759.12 759.01 
2727 758.55 759.14 759.01 
2728 758.76 755.08 759.01 
2729 758.51 759.13 759.01 
2730 758.42 759.14 759.01 
2731 758.68 759.14 759.01 
2732 758.84 759.13 759.01 
2733 758.51 759.12 759.01 
2734 758.59 759.14 759.01 
2735 758.93 759.14 759.01 
2736 758.72 759.14 759.01 
2737 758.59 759.12 759.01 
2738 758.55 759.13 759.01 
2739 758.76 759.15 759.01 
2740 758.55 759.13 759.01 
2741 758.67 759.12 759.01 
2742 758.84 759.11 759.01 
2743 758.50 759.13 759.01 
2744 758.55 759.11 759.01 
2745 758.50 759.12 759.01 
2746 758.59 759.14 759.01 
2747 758.47 759.15 759.01 
2748 758.38 759.14 759.01 
2749 758.75 759.12 759.01 
2750 758.22 759.13 759.01 
2751 758.30 759.14 759.01 
2752 758.63 759.16 759.01 
2753 758.51 759.14 759.01 
2754 758.09 759.14 759.01 
2755 758.51 759.14 759.01 
2756 758.50 759.15 759.01 
2757 758.46 759.12 759.01 
2758 758.63 759.14 759.01 
2759 758.42 759.13 759.01 
2760 758.58 759.14 759.01 
2761 758.76 759.15 759.01 
2762 758.29 759.12 759.01 
2763 758.21 759.14 759.01 
2764 758.26 759.12 759.01 
2765 758.51 759.08 759.01 
2766 758.51 759.14 759.01 
2767 758.34 755.11 759.01 
2768 758.63 759.14 759.01 
2769 758.59 759.13 759.01 
2770 758.38 759.13 759.01 
2771 758.34 759.12 759.01 
2772 758.43 759.13 759.01 
2773 758.46 759.14 759.01 
2774 758.59 759.14 759.01 
2775 758.63 759.14 759.01 
2776 758.38 759.12 759.01 
2777 758.51 759.13 759.01 
2778 758.38 759.13 759.01 
2779 758.17 759.14 759.01 
2780 758.51 759.11 759.01 
2781 757.97 759.14 759.01 
2782 758.34 759.12 759.01 
2783 758.26 759.15 759.01 
2784 758.43 759.12 759.01 
2785 758.63 759.13 759.01 
2786 758.64 759.12 759.01 
2787 758.47 759.13 759.01 
2788 758.39 759.12 759.01 
2789 758.26 755.13 759.01 
2790 758.47 759.14 759.01 
2791 758.63 759.11 759.01 
2792 758.21 759.11 759.01 
2793 758.71 759.14 759.01 
2794 758.13 759.13 759.01 
2795 758.38 759.12 759.01 
2796 758.42 759.11 759.01 
2797 758.46 759.09 759.01 
2798 758.50 759.11 759.01 
2799 758.38 759.12 759.01 
2800 758.34 759.12 759.01 
2801 758.42 759.12 759.01 
2802 758.42 759.10 759.01 
2803 758.54 759.13 759.01 
2804 758.30 759.11 759.01 
2805 758.47 759.12 759.01 
2806 758.26 759.12 759.01 
2807 758.55 759.10 759.01 
2808 758.63 759.12 759.01 
2809 758.42 759.09 759.01 
2810 758.64 759.15 759.01 
2811 758.30 759.13 759.01 
2812 758.47 759.12 759.01 
2813 758.55 759.13 759.01 
2814 758.68 759.10 759.01 
2815 758.30 759.12 759.01 
2816 758.55 759.10 759.01 
2817 758.43 759.12 759.01 
2818 758.55 759.13 759.01 
2819 758.59 759.10 759.01 
2820 758.76 759.11 759.01 
2821 758.59 759.11 759.01 
2822 758.80 759.11 759.01 
2823 758.29 759.10 759.01 
2824 758.42 759.12 759.01 
2825 758.67 759.11 759.01 
2826 758.59 759.13 759.01 
2827 758.38 755.08 759.01 
2828 758.33 759.10 759.01 
2829 758.34 759.12 759.01 
2830 758.50 759.11 759.01 
2831 758.34 759.10 759.01 
2832 758.42 759.10 759.01 
2833 758.87 759.09 759.01 
2834 758.67 759.15 759.01 
2835 758.67 759.10 759.01 
2836 758.50 759.15 759.01 
2837 758.38 759.11 759.01 
2838 758.62 759.10 759.01 
2839 758.88 759.10 759.01 
2840 758.42 759.13 759.01 
2841 758.84 759.12 759.01 
2842 758.63 759.11 759.01 
2843 758.71 759.14 759.01 
2844 758.63 759.13 759.01 
2845 758.67 759.09 759.01 
2846 758.71 759.12 759.01 
2847 758.67 759.11 759.01 
2848 758.59 759.11 759.01 
2849 758.63 759.11 759.01 
2850 758.55 759.10 759.01 
2851 758.71 759.11 759.01 
2852 758.58 759.12 759.01 
2853 758.63 759.13 759.01 
2854 758.71 759.10 759.01 
2855 758.54 759.12 759.01 
2856 758.38 759.12 759.01 
2857 758.38 759.13 759.01 
2858 758.42 759.14 759.01 
2859 758.59 759.10 759.01 
2860 758.54 759.11 759.01 
2861 758.63 759.12 759.01 
2862 758.88 759.07 759.01 
2863 758.80 759.09 759.01 
2864 758.51 759.12 759.01 
2865 758.58 759.11 759.01 
2866 758.67 759.12 759.01 
2867 758.55 759.08 759.01 
2868 758.67 759.11 759.01 
2869 758.63 759.12 759.01 
2870 758.55 759.12 759.01 
2871 758.55 759.13 759.01 
2872 758.38 759.09 759.01 
2873 758.25 759.11 759.01 
2874 758.42 759.10 759.01 
2875 758.59 759.09 759.01 
2876 758.72 759.11 759.01 
2877 758.37 759.14 759.01 
2878 758.37 759.11 759.01 
2879 758.59 759.12 759.01 
2880 758.54 759.12 759.01 
2881 758.63 759.09 759.01 
2882 758.54 759.10 759.01 
2883 758.21 759.10 759.01 
2884 758.63 759.09 759.01 
2885 758.67 759.08 759.01 
2886 758.71 759.12 759.01 
2887 758.64 759.11 759.01 
2888 758.80 759.13 759.01 
2889 758.76 759.13 759.01 
2890 758.89 759.10 759.01 
2891 758.85 759.11 759.01 
2892 758.55 759.11 759.01 
2893 758.79 759.12 759.01 
2894 758.22 759.14 759.01 
2895 758.92 759.11 759.01 
2896 758.67 759.14 759.01 
2897 758.63 755.11 759.01 
2898 758.71 759.11 759.01 
2899 758.55 759.11 759.01 
2900 758.71 759.09 759.01 
2901 758.55 759.12 759.01 
2902 758.51 759.13 759.01 
2903 758.63 759.14 759.01 
2904 758.59 759.11 759.01 
2905 758.72 759.13 759.01 
2906 758.72 759.13 759.01 
2907 758.67 759.08 759.01 
2908 758.43 759.15 759.01 
2909 758.72 759.09 759.01 
2910 758.55 759.12 759.01 
2911 758.38 759.10 759.01 
2912 758.59 759.11 759.01 
2913 758.59 759.14 759.01 
2914 758.42 759.13 759.01 
2915 758.59 759.12 759.01 
2916 758.46 759.12 759.01 
2917 758.30 759.12 759.01 
2918 758.50 759.13 759.01 
2919 758.63 759.12 759.01 
2920 758.00 759.11 759.01 
2921 758.42 759.13 759.01 
2922 758.76 759.13 759.01 
2923 758.47 759.12 759.01 
2924 758.64 759.14 759.01 
2925 758.72 759.12 759.01 
2926 758.55 759.13 759.01 
2927 758.76 759.13 759.01 
2928 758.52 759.12 759.01 
2929 758.85 759.14 759.01 
2930 758.97 759.13 759.01 
2931 758.59 759.14 759.01 
2932 758.30 759.12 759.01 
2933 758.72 759.11 759.01 
2934 758.47 759.14 759.01 
2935 758.60 759.11 759.01 
2936 758.63 759.11 759.01 
2937 758.60 759.11 759.01 
2938 758.80 759.10 759.01 
2939 758.69 759.15 759.01 
2940 758.60 759.12 759.01 
2941 758.80 759.10 759.01 
2942 758.39 759.12 759.01 
2943 758.72 759.12 759.01 
2944 758.64 759.13 759.01 
2945 758.60 759.12 759.01 
2946 758.68 759.12 759.01 
2947 758.64 759.11 759.01 
2948 758.59 759.11 759.01 
2949 758.55 759.14 759.01 
2950 758.47 759.11 759.01 
2951 758.68 759.12 759.01 
2952 758.38 751.11 759.01 
2953 758.76 759.14 759.01 
2954 758.59 759.11 759.01 
2955 758.80 759.10 759.01 
2956 758.38 759.12 759.01 
2957 758.51 759.12 759.01 
2958 758.77 759.11 759.01 
2959 758.68 759.09 759.01 
2960 758.67 759.12 759.01 
2961 758.51 759.10 759.01 
2962 758.30 759.10 759.01 
2963 758.72 759.09 759.01 
2964 758.09 759.09 759.01 
2965 758.76 759.14 759.01 
2966 758.72 759.09 759.01 
2967 758.63 759.12 759.01 
2968 758.43 759.16 759.01 
2969 758.76 759.12 759.01 
2970 758.67 759.12 759.01 
2971 758.59 759.09 759.01 
2972 758.43 759.10 759.01 
2973 758.51 759.13 759.01 
2974 758.39 759.17 759.01 
2975 758.76 759.11 759.01 
2976 758.17 759.11 759.01 
2977 757.96 759.13 759.01 
2978 757.96 759.09 759.01 
2979 758.46 759.14 759.01 
2980 758.59 759.14 759.01 
2981 758.55 759.10 759.01 
2982 758.47 759.12 759.01 
2983 758.76 759.11 759.01 
2984 758.42 759.12 759.01 
2985 758.46 759.08 759.01 
2986 758.71 759.14 759.01 
2987 758.67 759.11 759.01 
2988 758.51 759.13 759.01 
2989 758.84 759.16 759.01 
2990 758.46 759.13 759.01 
2991 758.59 759.17 759.01 
2992 758.55 759.14 759.01 
2993 758.59 759.13 759.01 
2994 758.81 759.12 759.01 
2995 758.38 759.11 759.01 
2996 758.60 759.15 759.01 
2997 758.51 759.15 759.01 
2998 758.72 759.16 759.01 
2999 758.47 759.10 759.01 
3000 758.55 759.17 759.01 
3001 758.38 759.09 759.01 
3002 757.97 759.11 759.01 
3003 758.34 759.13 759.01 
3004 758.55 759.14 759.01 
3005 758.34 759.14 759.01 
3006 758.76 759.16 759.01 
3007 758.30 755.12 759.01 
3008 758.63 759.15 759.01 
3009 758.39 759.11 759.01 
3010 758.34 759.15 759.01 
3011 758.42 759.12 759.01 
3012 758.72 759.10 759.01 
3013 758.67 759.09 759.01 
3014 758.76 759.11 759.01 
3015 758.47 759.12 759.01 
3016 758.64 759.13 759.01 
3017 758.85 759.14 759.01 
3018 758.52 759.10 759.01 
3019 758.30 759.11 759.01 
3020 758.47 759.14 759.01 
3021 758.60 759.11 759.01 
3022 758.47 759.13 759.01 
3023 758.59 759.13 759.01 
3024 758.47 759.15 759.01 
3025 758.76 759.12 759.01 
3026 758.51 759.10 759.01 
3027 758.43 759.14 759.01 
3028 758.63 759.11 759.01 
3029 758.51 759.13 759.01 
3030 758.47 759.07 759.01 
3031 758.76 759.13 759.01 
3032 758.68 759.14 759.01 
3033 758.67 759.12 759.01 
3034 758.30 759.12 759.01 
3035 758.55 759.13 759.01 
3036 758.68 759.12 759.01 
3037 758.63 759.11 759.01 
3038 758.55 759.13 759.01 
3039 758.68 759.13 759.01 
3040 758.63 759.13 759.01 
3041 758.55 759.09 759.01 
3042 758.67 759.11 759.01 
3043 758.59 759.11 759.01 
3044 758.72 759.09 759.01 
3045 758.71 759.13 759.01 
3046 758.59 759.10 759.01 
3047 758.46 759.12 759.01 
3048 758.21 759.16 759.01 
3049 758.26 759.11 759.01 
3050 758.55 759.10 759.01 
3051 758.54 759.11 759.01 
3052 758.42 759.11 759.01 
3053 758.59 759.13 759.01 
3054 758.85 759.12 759.01 
3055 758.80 759.10 759.01 
3056 758.76 759.12 759.01 
3057 758.60 759.11 759.01 
3058 758.59 759.10 759.01 
3059 758.63 759.14 759.01 
3060 758.55 759.14 759.01 
3061 758.76 759.09 759.01 
3062 758.42 759.12 759.01 
3063 758.34 759.13 759.01 
3064 758.59 759.14 759.01 
3065 758.68 759.13 759.01 
3066 758.55 759.14 759.01 
3067 758.80 759.09 759.01 
3068 758.64 759.13 759.01 
3069 758.51 759.13 759.01 
3070 758.51 759.12 759.01 
3071 758.59 759.13 759.01 
3072 758.68 759.12 759.01 
3073 758.47 759.09 759.01 
3074 758.55 759.09 759.01 
3075 758.75 759.10 759.01 
3076 758.63 759.09 759.01 
3077 758.71 759.14 759.01 
3078 758.55 759.13 759.01 
3079 758.63 759.11 759.01 
3080 758.17 759.10 759.01 
3081 758.63 759.12 759.01 
3082 758.26 759.12 759.01 
3083 758.42 759.14 759.01 
3084 758.76 759.13 759.01 
3085 758.59 759.11 759.01 
3086 758.55 759.11 759.01 
3087 758.33 759.13 759.01 
3088 758.76 759.11 759.01 
3089 758.68 759.08 759.01 
3090 758.63 759.11 759.01 
3091 758.67 759.10 759.01 
3092 758.59 759.08 759.01 
3093 758.54 759.11 759.01 
3094 758.08 759.14 759.01 
3095 758.71 759.09 759.01 
3096 758.42 759.11 759.01 
3097 758.79 759.11 759.01 
3098 758.63 759.12 759.01 
3099 758.63 759.08 759.01 
3100 758.63 759.10 759.01 
3101 758.46 759.15 759.01 
3102 758.38 759.15 759.01 
3103 758.46 759.09 759.01 
3104 758.75 759.12 759.01 
3105 758.72 759.11 759.01 
3106 758.80 759.13 759.01 
3107 758.63 759.17 759.01 
3108 758.67 759.14 759.01 
3109 758.63 759.13 759.01 
3110 758.42 759.13 759.01 
3111 758.59 759.13 759.01 
3112 758.50 759.13 759.01 
3113 758.39 759.10 759.01 
3114 758.59 759.13 759.01 
3115 758.80 759.15 759.01 
3116 758.68 759.13 759.01 
3117 758.55 759.11 759.01 
3118 758.42 759.12 759.01 
3119 758.76 759.13 759.01 
3120 758.63 759.14 759.01 
3121 758.55 759.12 759.01 
3122 758.59 759.13 759.01 
3123 758.59 759.12 759.01 
3124 758.92 759.11 759.01 
3125 758.55 759.13 759.01 
3126 758.47 759.13 759.01 
3127 758.59 759.14 759.01 
3128 758.84 759.12 759.01 
3129 758.59 759.11 759.01 
3130 758.71 759.12 759.01 
3131 758.34 759.13 759.01 
3132 758.50 759.14 759.01 
3133 758.72 759.13 759.01 
3134 758.59 759.15 759.01 
3135 758.59 759.15 759.01 
3136 758.88 759.13 759.01 
3137 758.59 759.13 759.01 
3138 758.30 759.10 759.01 
3139 758.72 759.13 759.01 
3140 758.72 759.14 759.01 
3141 758.72 759.13 759.01 
3142 758.63 759.14 759.01 
3143 758.80 759.13 759.01 
3144 758.55 759.11 759.01 
3145 758.63 759.12 759.01 
3146 758.30 759.12 759.01 
3147 758.56 759.12 759.01 
3148 758.60 759.12 759.01 
3149 758.31 759.12 759.01 
3150 758.76 759.14 759.01 
3151 758.59 759.14 759.01 
3152 758.81 759.13 759.01 
3153 758.51 759.14 759.01 
3154 758.76 759.10 759.01 
3155 758.81 759.14 759.01 
3156 758.67 759.10 759.01 
3157 758.72 759.17 759.01 
3158 758.34 759.16 759.01 
3159 758.34 759.13 759.01 
3160 758.68 759.11 759.01 
3161 758.85 759.12 759.01 
3162 758.68 759.13 759.01 
3163 758.47 759.12 759.01 
3164 758.34 759.13 759.01 
3165 758.51 759.12 759.01 
3166 758.43 759.15 759.01 
3167 758.68 759.14 759.01 
3168 758.68 759.13 759.01 
3169 758.60 759.13 759.01 
3170 758.55 759.15 759.01 
3171 758.38 759.12 759.01 
3172 758.76 759.12 759.01 
3173 758.47 759.13 759.01 
3174 758.68 759.14 759.01 
3175 758.59 759.13 759.01 
3176 758.51 759.12 759.01 
3177 758.63 759.08 759.01 
3178 758.63 759.12 759.01 
3179 758.71 759.14 759.01 
3180 758.75 759.11 759.01 
3181 758.55 759.14 759.01 
3182 758.59 759.13 759.01 
3183 758.59 759.12 759.01 
3184 758.79 759.12 759.01 
3185 758.43 759.12 759.01 
3186 758.63 759.13 759.01 
3187 758.38 759.09 759.01 
3188 758.55 759.12 759.01 
3189 758.51 759.09 759.01 
3190 758.38 759.10 759.01 
3191 758.64 759.09 759.01 
3192 758.76 759.14 759.01 
3193 758.84 759.12 759.01 
3194 758.43 759.12 759.01 
3195 758.47 759.13 759.01 
3196 758.80 759.16 759.01 
3197 758.60 759.11 759.01 
3198 758.56 759.14 759.01 
3199 758.47 759.10 759.01 
3200 758.55 759.10 759.01 
3201 758.42 759.12 759.01 
3202 758.72 759.13 759.01 
3203 758.56 759.13 759.01 
3204 758.68 759.11 759.01 
3205 758.80 759.13 759.01 
3206 758.77 759.11 759.01 
3207 758.52 759.13 759.01 
3208 758.98 759.12 759.01 
3209 758.64 759.11 759.01 
3210 758.60 759.11 759.01 
3211 758.72 759.13 759.01 
3212 758.85 759.15 759.01 
3213 758.64 759.11 759.01 
3214 758.76 759.10 759.01 
3215 758.76 759.13 759.01 
3216 758.76 759.08 759.01 
3217 758.68 759.13 759.01 
3218 758.43 759.11 759.01 
3219 758.89 759.13 759.01 
3220 758.89 759.11 759.01 
3221 758.67 759.13 759.01 
3222 758.76 759.14 759.01 
3223 758.68 759.10 759.01 
3224 758.73 759.16 759.01 
3225 758.76 759.11 759.01 
3226 758.59 759.09 759.01 
3227 758.72 759.14 759.01 
3228 758.51 759.12 759.01 
3229 758.64 759.11 759.01 
3230 758.50 759.14 759.01 
3231 758.63 759.11 759.01 
3232 758.55 759.14 759.01 
3233 758.89 759.13 759.01 
3234 758.84 759.09 759.01 
3235 758.80 759.12 759.01 
3236 758.64 759.14 759.01 
3237 758.72 759.11 759.01 
3238 758.60 759.16 759.01 
3239 758.68 759.13 759.01 
3240 758.05 759.12 759.01 
3241 758.89 759.13 759.01 
3242 758.64 759.12 759.01 
3243 758.68 759.11 759.01 
3244 758.84 759.13 759.01 
3245 758.51 759.10 759.01 
3246 758.64 759.14 759.01 
3247 758.72 759.11 759.01 
3248 758.43 759.11 759.01 
3249 758.38 759.12 759.01 
3250 758.92 759.11 759.01 
3251 758.58 759.08 759.01 
3252 758.76 759.10 759.01 
3253 758.42 759.10 759.01 
3254 758.71 759.08 759.01 
3255 758.79 759.11 759.01 
3256 758.33 759.13 759.01 
3257 758.67 759.13 759.01 
3258 758.75 759.06 759.01 
3259 758.96 759.09 759.01 
3260 758.71 759.12 759.01 
3261 758.58 759.11 759.01 
3262 758.67 759.12 759.01 
3263 758.71 759.10 759.01 
3264 758.67 759.10 759.01 
3265 758.63 759.09 759.01 
3266 758.63 755.07 759.01 
3267 758.63 759.10 759.01 
3268 758.63 759.08 759.01 
3269 758.80 759.10 759.01 
3270 758.59 759.10 759.01 
3271 758.67 759.12 759.01 
3272 758.71 759.09 759.01 
3273 758.59 759.08 759.01 
3274 758.67 759.12 759.01 
3275 758.59 751.07 759.01 
3276 758.34 759.12 759.01 
3277 758.42 759.14 759.01 
3278 758.71 759.10 759.01 
3279 758.46 759.12 759.01 
3280 758.72 759.11 759.01 
3281 758.67 759.12 759.01 
3282 758.67 759.15 759.01 
3283 758.59 755.12 759.01 
3284 758.59 759.12 759.01 
3285 758.67 759.13 759.01 
3286 758.71 759.12 759.01 
3287 758.59 759.12 759.01 
3288 758.59 759.11 759.01 
3289 758.67 759.12 759.01 
3290 758.68 759.13 759.01 
3291 758.51 759.15 759.01 
3292 758.76 759.09 759.01 
3293 758.93 759.11 759.01 
3294 758.76 759.09 759.01 
3295 758.51 759.13 759.01 
3296 758.47 759.13 759.01 
3297 758.55 759.12 759.01 
3298 758.80 759.14 759.01 
3299 758.63 759.10 759.01 
3300 758.63 759.12 759.01 
3301 758.46 759.12 759.01 
3302 758.51 759.09 759.01 
3303 758.59 759.10 759.01 
3304 758.68 759.12 759.01 
3305 758.80 759.07 759.01 
3306 758.59 759.07 759.01 
3307 758.67 759.11 759.01 
3308 758.47 759.12 759.01 
3309 758.42 759.12 759.01 
3310 758.71 759.11 759.01 
3311 758.67 759.15 759.01 
3312 758.54 759.13 759.01 
3313 758.71 759.08 759.01 
3314 758.37 759.10 759.01 
3315 758.75 759.11 759.01 
3316 758.54 759.11 759.01 
3317 758.84 759.08 759.01 
3318 758.71 759.12 759.01 
3319 758.63 759.08 759.01 
3320 758.75 759.11 759.01 
3321 758.42 759.12 759.01 
3322 758.29 759.12 759.01 
3323 758.66 759.07 759.01 
3324 758.50 759.11 759.01 
3325 758.67 759.09 759.01 
3326 758.42 759.14 759.01 
3327 758.67 759.13 759.01 
3328 758.83 759.13 759.01 
3329 758.63 759.12 759.01 
3330 758.72 759.12 759.01 
3331 758.68 759.10 759.01 
3332 758.59 759.10 759.01 
3333 758.84 759.13 759.01 
3334 758.17 759.10 759.01 
3335 758.84 759.10 759.01 
3336 758.63 759.11 759.01 
3337 758.58 759.12 759.01 
3338 758.67 759.13 759.01 
3339 758.80 759.08 759.01 
3340 758.54 759.10 759.01 
3341 758.58 759.14 759.01 
3342 758.54 759.11 759.01 
3343 758.63 759.13 759.01 
3344 758.63 759.14 759.01 
3345 758.67 759.12 759.01 
3346 758.67 759.12 759.01 
3347 758.68 759.14 759.01 
3348 758.68 759.09 759.01 
3349 758.84 759.11 759.01 
3350 758.72 759.12 759.01 
3351 758.51 759.09 759.01 
3352 758.76 759.11 759.01 
3353 758.84 759.13 759.01 
3354 758.46 759.08 759.01 
3355 758.46 759.13 759.01 
3356 758.30 759.13 759.01 
3357 758.76 755.10 759.01 
3358 758.72 759.13 759.01 
3359 758.47 759.15 759.01 
3360 758.34 759.08 759.01 
3361 758.80 759.11 759.01 
3362 758.72 759.12 759.01 
3363 758.67 759.12 759.01 
3364 758.55 759.16 759.01 
3365 758.84 759.13 759.01 
3366 758.42 759.13 759.01 
3367 758.63 759.12 759.01 
3368 758.84 759.13 759.01 
3369 758.76 759.13 759.01 
3370 758.63 759.13 759.01 
3371 758.63 759.14 759.01 
3372 758.59 759.11 759.01 
3373 758.58 759.12 759.01 
3374 758.63 759.12 759.01 
3375 758.55 759.08 759.01 
3376 758.21 759.11 759.01 
3377 758.50 759.11 759.01 
3378 758.42 759.12 759.01 
3379 758.42 759.11 759.01 
3380 758.59 759.12 759.01 
3381 758.38 759.07 759.01 
3382 758.71 759.10 759.01 
3383 758.51 759.10 759.01 
3384 758.67 759.11 759.01 
3385 758.62 759.09 759.01 
3386 758.50 759.13 759.01 
3387 758.67 759.10 759.01 
3388 758.46 759.12 759.01 
3389 758.79 759.12 759.01 
3390 758.67 759.08 759.01 
3391 758.54 759.12 759.01 
3392 758.38 759.10 759.01 
3393 758.63 759.12 759.01 
3394 758.76 759.09 759.01 
3395 758.34 759.12 759.01 
3396 758.54 759.12 759.01 
3397 758.50 759.11 759.01 
3398 758.58 759.09 759.01 
3399 758.87 759.10 759.01 
3400 758.42 759.10 759.01 
3401 758.58 759.12 759.01 
3402 758.46 759.12 759.01 
3403 758.54 759.10 759.01 
3404 758.75 759.11 759.01 
3405 758.50 759.13 759.01 
3406 758.79 759.06 759.01 
3407 758.45 759.08 759.01 
3408 758.45 759.13 759.01 
3409 758.62 759.11 759.01 
3410 758.75 759.10 759.01 
3411 758.45 759.12 759.01 
3412 758.74 759.07 759.01 
3413 758.83 759.09 759.01 
3414 758.87 759.09 759.01 
3415 758.66 759.11 759.01 
3416 758.79 759.13 759.01 
3417 758.92 759.11 759.01 
3418 758.50 759.10 759.01 
3419 758.50 759.07 759.01 
3420 758.62 759.13 759.01 
3421 758.46 759.10 759.01 
3422 758.63 759.11 759.01 
3423 758.59 759.12 759.01 
3424 758.49 759.10 759.01 
3425 758.58 759.10 759.01 
3426 758.66 759.10 759.01 
3427 758.67 759.12 759.01 
3428 758.75 759.11 759.01 
3429 758.66 759.12 759.01 
3430 758.63 759.12 759.01 
3431 758.37 759.12 759.01 
3432 758.59 759.12 759.01 
3433 758.54 759.10 759.01 
3434 758.59 759.09 759.01 
3435 758.67 759.09 759.01 
3436 758.50 759.13 759.01 
3437 758.84 759.11 759.01 
3438 758.50 759.11 759.01 
3439 758.46 759.13 759.01 
3440 758.75 759.13 759.01 
3441 758.63 759.10 759.01 
3442 758.67 759.06 759.01 
3443 758.71 759.11 759.01 
3444 758.59 759.14 759.01 
3445 758.59 759.11 759.01 
3446 758.50 759.10 759.01 
3447 758.76 759.14 759.01 
3448 758.80 759.09 759.01 
3449 758.51 759.10 759.01 
3450 758.72 759.11 759.01 
3451 758.67 759.11 759.01 
3452 758.93 759.14 759.01 
3453 758.68 759.13 759.01 
3454 758.42 759.10 759.01 
3455 758.64 759.13 759.01 
3456 758.72 759.12 759.01 
3457 758.72 759.09 759.01 
3458 758.93 759.12 759.01 
3459 758.80 759.11 759.01 
3460 758.59 759.13 759.01 
3461 758.88 759.10 759.01 
3462 758.76 759.11 759.01 
3463 758.38 759.07 759.01 
3464 758.59 759.12 759.01 
3465 758.76 759.13 759.01 
3466 758.55 759.10 759.01 
3467 758.34 759.11 759.01 
3468 758.85 759.11 759.01 
3469 758.59 759.09 759.01 
3470 758.67 759.13 759.01 
3471 758.76 759.11 759.01 
3472 758.80 759.09 759.01 
3473 758.89 759.10 759.01 
3474 758.47 759.13 759.01 
3475 758.72 759.12 759.01 
3476 758.68 759.16 759.01 
3477 758.80 759.14 759.01 
3478 758.76 759.09 759.01 
3479 758.76 759.12 759.01 
3480 758.51 759.15 759.01 
3481 758.67 759.13 759.01 
3482 758.46 759.09 759.01 
3483 758.58 759.09 759.01 
3484 758.71 759.08 759.01 
3485 758.55 759.12 759.01 
3486 758.84 759.11 759.01 
3487 758.50 759.12 759.01 
3488 758.59 759.12 759.01 
3489 758.63 759.11 759.01 
3490 758.80 759.10 759.01 
3491 758.58 759.09 759.01 
3492 758.71 759.05 759.01 
3493 758.79 759.07 759.01 
3494 758.58 759.08 759.01 
3495 758.46 759.08 759.01 
3496 758.74 759.11 759.01 
3497 758.70 759.10 759.01 
3498 758.62 759.14 759.01 
3499 758.70 759.12 759.01 
3500 758.62 759.08 759.01 
3501 758.92 759.10 759.01 
3502 758.72 759.10 759.01 
3503 758.58 759.08 759.01 
3504 758.38 759.09 759.01 
3505 758.71 759.12 759.01 
3506 758.58 759.05 759.01 
3507 758.58 759.09 759.01 
3508 758.67 759.11 759.01 
3509 758.59 759.09 759.01 
3510 758.67 759.08 759.01 
3511 758.62 759.06 759.01 
3512 758.62 759.14 759.01 
3513 758.46 759.10 759.01 
3514 758.83 759.10 759.01 
3515 758.76 759.06 759.01 
3516 758.46 759.09 759.01 
3517 758.54 759.10 759.01 
3518 758.58 759.11 759.01 
3519 758.75 759.09 759.01 
3520 758.92 759.14 759.01 
3521 758.88 759.11 759.01 
3522 758.79 759.09 759.01 
3523 758.75 759.07 759.01 
3524 758.59 759.13 759.01 
3525 758.71 759.12 759.01 
3526 758.63 759.13 759.01 
3527 758.71 759.13 759.01 
3528 758.34 759.12 759.01 
3529 758.76 759.10 759.01 
3530 758.67 759.12 759.01 
3531 758.80 759.12 759.01 
3532 758.88 759.13 759.01 
3533 758.71 755.07 759.01 
3534 758.71 759.11 759.01 
3535 758.51 759.08 759.01 
3536 758.38 759.13 759.01 
3537 758.67 759.11 759.01 
3538 758.76 759.10 759.01 
3539 758.59 759.09 759.01 
3540 758.67 759.09 759.01 
3541 758.84 759.09 759.01 
3542 758.80 759.10 759.01 
3543 758.93 759.11 759.01 
3544 758.42 759.10 759.01 
3545 758.75 759.12 759.01 
3546 758.59 759.11 759.01 
3547 758.71 755.12 759.01 
3548 758.55 759.11 759.01 
3549 758.88 759.12 759.01 
3550 758.63 759.10 759.01 
3551 758.76 759.12 759.01 
3552 758.88 759.10 759.01 
3553 758.71 759.09 759.01 
3554 758.72 759.10 759.01 
3555 758.92 759.09 759.01 
3556 758.67 759.13 759.01 
3557 758.88 759.10 759.01 
3558 758.71 759.10 759.01 
3559 758.55 759.11 759.01 
3560 758.75 759.13 759.01 
3561 758.50 759.06 759.01 
3562 758.79 759.10 759.01 
3563 758.71 759.09 759.01 
3564 758.42 759.11 759.01 
3565 758.71 759.10 759.01 
3566 758.63 759.09 759.01 
3567 758.67 759.11 759.01 
3568 758.84 759.11 759.01 
3569 758.80 759.10 759.01 
3570 758.84 759.09 759.01 
3571 758.71 759.09 759.01 
3572 758.58 759.11 759.01 
3573 758.88 759.08 759.01 
3574 758.71 759.14 759.01 
3575 758.79 759.12 759.01 
3576 758.72 759.08 759.01 
3577 758.80 759.12 759.01 
3578 758.71 759.12 759.01 
3579 758.93 759.10 759.01 
3580 758.84 759.13 759.01 
3581 758.88 759.10 759.01 
3582 758.63 759.07 759.01 
3583 758.67 759.12 759.01 
3584 758.75 759.10 759.01 
3585 758.92 759.13 759.01 
3586 758.68 759.10 759.01 
3587 758.68 759.11 759.01 
3588 758.72 759.10 759.01 
3589 758.68 759.12 759.01 
3590 758.55 759.10 759.01 
3591 758.84 759.11 759.01 
3592 758.68 759.12 759.01 
3593 758.63 759.09 759.01 
3594 758.80 759.13 759.01 
3595 758.63 759.12 759.01 
3596 758.72 759.13 759.01 
3597 758.84 759.11 759.01 
3598 758.72 759.11 759.01 
3599 758.93 755.11 759.01 
3600 758.72 759.12 759.01 
3601 758.38 759.11 759.01 
3602 758.64 759.13 759.01 
3603 758.38 759.12 759.01 
3604 758.68 759.13 759.01 
3605 758.63 759.13 759.01 
3606 758.93 759.12 759.01 
3607 758.80 759.13 759.01 
3608 758.67 759.11 759.01 
3609 758.81 759.11 759.01 
3610 758.80 759.12 759.01 
3611 758.72 759.14 759.01 
3612 758.64 759.12 759.01 
3613 758.88 759.13 759.01 
3614 758.85 759.13 759.01 
3615 758.93 759.11 759.01 
3616 758.80 759.14 759.01 
3617 758.76 759.12 759.01 
3618 758.72 759.13 759.01 
3619 758.59 759.11 759.01 
3620 758.59 759.13 759.01 
3621 758.71 759.16 759.01 
3622 758.89 759.09 759.01 
3623 758.75 759.12 759.01 
3624 758.67 759.13 759.01 
3625 758.89 759.10 759.01 
3626 758.51 759.11 759.01 
3627 758.67 759.11 759.01 
3628 758.68 759.12 759.01 
3629 758.72 759.11 759.01 
3630 758.55 759.11 759.01 
3631 758.88 759.10 759.01 
3632 758.85 759.12 759.01 
3633 758.76 759.13 759.01 
3634 758.76 759.12 759.01 
3635 758.75 759.09 759.01 
3636 758.46 759.09 759.01 
3637 758.76 759.13 759.01 
3638 758.80 759.11 759.01 
3639 758.93 759.12 759.01 
3640 758.80 759.11 759.01 
3641 758.89 759.13 759.01 
3642 758.92 759.11 759.01 
3643 758.63 759.11 759.01 
3644 758.67 759.10 759.01 
3645 758.72 759.10 759.01 
3646 758.84 759.13 759.01 
3647 758.80 759.13 759.01 
3648 758.88 759.12 759.01 
3649 758.63 759.10 759.01 
3650 758.47 759.12 759.01 
3651 758.64 759.09 759.01 
3652 758.68 759.10 759.01 
3653 758.67 759.09 759.01 
3654 758.42 759.09 759.01 
3655 758.85 759.13 759.01 
3656 758.63 759.11 759.01 
3657 758.51 759.08 759.01 
3658 758.51 759.11 759.01 
3659 758.55 759.12 759.01 
3660 758.76 759.11 759.01 
3661 758.59 759.12 759.01 
3662 758.89 759.12 759.01 
3663 758.63 759.11 759.01 
3664 758.68 759.11 759.01 
3665 758.59 759.09 759.01 
3666 758.76 759.10 759.01 
3667 758.26 759.12 759.01 
3668 758.43 759.11 759.01 
3669 758.68 759.12 759.01 
3670 758.80 759.10 759.01 
3671 758.72 759.13 759.01 
3672 758.84 759.12 759.01 
3673 758.72 759.09 759.01 
3674 758.64 759.11 759.01 
3675 758.84 759.14 759.01 
3676 758.55 759.09 759.01 
3677 758.59 759.08 759.01 
3678 758.46 759.11 759.01 
3679 758.72 759.11 759.01 
3680 758.38 759.09 759.01 
3681 758.55 759.12 759.01 
3682 758.92 759.11 759.01 
3683 758.51 759.10 759.01 
3684 758.59 759.13 759.01 
3685 758.80 759.11 759.01 
3686 758.67 759.10 759.01 
3687 758.93 759.11 759.01 
3688 758.47 759.10 759.01 
3689 758.76 759.10 759.01 
3690 758.72 759.08 759.01 
3691 758.77 759.14 759.01 
3692 758.39 759.13 759.01 
3693 758.47 759.14 759.01 
3694 758.47 755.11 759.01 
3695 758.76 759.14 759.01 
3696 758.81 759.12 759.01 
3697 758.76 759.12 759.01 
3698 758.85 759.11 759.01 
3699 758.72 759.11 759.01 
3700 758.68 759.12 759.01 
3701 758.76 759.13 759.01 
3702 758.76 759.11 759.01 
3703 758.89 759.14 759.01 
3704 758.93 759.12 759.01 
3705 758.84 759.11 759.01 
3706 758.72 759.13 759.01 
3707 758.60 759.12 759.01 
3708 758.76 759.14 759.01 
3709 758.85 759.10 759.01 
3710 758.68 759.11 759.01 
3711 758.60 759.12 759.01 
3712 758.52 759.13 759.01 
3713 758.72 759.12 759.01 
3714 758.93 759.13 759.01 
3715 758.59 759.12 759.01 
3716 758.84 759.07 759.01 
3717 758.72 759.10 759.01 
3718 758.55 759.08 759.01 
3719 758.84 759.10 759.01 
3720 758.81 759.12 759.01 
3721 758.72 759.13 759.01 
3722 758.47 759.11 759.01 
3723 758.72 759.12 759.01 
3724 758.51 759.12 759.01 
3725 758.64 759.15 759.01 
3726 758.55 759.14 759.01 
3727 758.67 759.12 759.01 
3728 758.63 759.13 759.01 
3729 758.72 759.12 759.01 
3730 758.84 759.10 759.01 
3731 758.67 759.13 759.01 
3732 758.55 759.09 759.01 
3733 758.76 759.11 759.01 
3734 758.76 759.10 759.01 
3735 758.72 759.11 759.01 
3736 758.51 759.12 759.01 
3737 758.85 759.12 759.01 
3738 758.84 759.12 759.01 
3739 758.59 759.12 759.01 
3740 758.85 759.09 759.01 
3741 758.76 759.13 759.01 
3742 758.55 759.10 759.01 
3743 758.88 759.09 759.01 
3744 758.59 759.10 759.01 
3745 758.80 759.11 759.01 
3746 758.51 759.10 759.01 
3747 758.76 759.09 759.01 
3748 758.75 759.08 759.01 
3749 758.75 759.07 759.01 
3750 758.84 759.09 759.01 
3751 758.67 759.10 759.01 
3752 758.67 759.12 759.01 
3753 758.84 759.15 759.01 
3754 758.71 759.14 759.01 
3755 758.59 759.09 759.01 
3756 758.55 759.11 759.01 
3757 758.58 755.11 759.01 
3758 758.66 759.08 759.01 
3759 758.76 759.12 759.01 
3760 758.80 759.09 759.01 
3761 758.59 759.12 759.01 
3762 758.93 759.13 759.01 
3763 758.67 759.12 759.01 
3764 758.59 759.11 759.01 
3765 758.59 759.11 759.01 
3766 758.71 759.13 759.01 
3767 758.67 759.09 759.01 
3768 758.59 759.12 759.01 
3769 758.80 759.12 759.01 
3770 758.42 759.11 759.01 
3771 758.67 759.10 759.01 
3772 758.54 759.10 759.01 
3773 758.50 759.10 759.01 
3774 758.68 759.14 759.01 
3775 758.71 759.11 759.01 
3776 758.51 759.10 759.01 
3777 758.67 759.09 759.01 
3778 758.68 759.12 759.01 
3779 758.63 759.13 759.01 
3780 758.50 759.09 759.01 
3781 758.76 759.14 759.01 
3782 758.59 759.12 759.01 
3783 758.76 759.12 759.01 
3784 758.64 759.10 759.01 
3785 758.60 759.14 759.01 
3786 758.76 759.10 759.01 
3787 758.76 759.11 759.01 
3788 758.76 759.13 759.01 
3789 758.80 759.12 759.01 
3790 758.64 755.13 759.01 
3791 758.35 759.11 759.01 
3792 758.72 759.09 759.01 
3793 758.51 759.13 759.01 
3794 758.85 759.12 759.01 
3795 758.43 759.12 759.01 
3796 758.59 759.12 759.01 
3797 758.72 755.12 759.01 
3798 758.84 759.13 759.01 
3799 758.76 759.14 759.01 
3800 758.72 759.11 759.01 
3801 758.60 759.13 759.01 
3802 758.76 759.13 759.01 
3803 758.56 759.15 759.01 
3804 758.89 759.13 759.01 
3805 758.55 759.15 759.01 
3806 758.80 759.13 759.01 
3807 758.64 759.12 759.01 
3808 758.68 759.11 759.01 
3809 758.63 759.11 759.01 
3810 758.72 759.13 759.01 
3811 758.84 759.11 759.01 
3812 758.59 759.12 759.01 
3813 758.64 759.13 759.01 
3814 758.80 759.10 759.01 
3815 758.63 759.11 759.01 
3816 758.80 759.13 759.01 
3817 758.72 759.12 759.01 
3818 758.21 759.14 759.01 
3819 758.80 759.13 759.01 
3820 758.80 759.14 759.01 
3821 758.68 759.11 759.01 
3822 758.67 759.11 759.01 
3823 758.59 759.12 759.01 
3824 758.51 759.13 759.01 
3825 758.76 759.13 759.01 
3826 758.72 759.11 759.01 
3827 758.63 759.10 759.01 
3828 758.84 759.14 759.01 
3829 758.80 759.09 759.01 
3830 758.42 759.12 759.01 
3831 758.51 759.14 759.01 
3832 758.76 759.12 759.01 
3833 758.68 759.12 759.01 
3834 758.64 759.13 759.01 
3835 758.67 759.15 759.01 
3836 758.67 759.12 759.01 
3837 758.63 759.10 759.01 
3838 758.68 759.13 759.01 
3839 758.92 759.13 759.01 
3840 758.59 759.12 759.01 
3841 758.51 759.12 759.01 
3842 758.80 759.14 759.01 
3843 758.55 759.10 759.01 
3844 758.93 759.10 759.01 
3845 758.93 759.10 759.01 
3846 758.55 759.12 759.01 
3847 758.59 759.11 759.01 
3848 758.67 759.15 759.01 
3849 758.76 755.12 759.01 
3850 758.80 759.11 759.01 
3851 758.72 759.09 759.01 
3852 758.63 759.12 759.01 
3853 758.59 759.12 759.01 
3854 758.68 759.12 759.01 
3855 758.85 759.12 759.01 
3856 758.30 759.12 759.01 
3857 758.47 759.11 759.01 
3858 758.93 759.11 759.01 
3859 758.76 759.09 759.01 
3860 758.59 759.10 759.01 
3861 758.71 759.11 759.01 
3862 758.55 759.11 759.01 
3863 758.97 759.08 759.01 
3864 758.68 759.08 759.01 
3865 758.59 759.11 759.01 
3866 758.71 759.12 759.01 
3867 758.50 759.11 759.01 
3868 758.38 759.10 759.01 
3869 758.72 759.12 759.01 
3870 758.80 759.07 759.01 
3871 758.71 759.08 759.01 
3872 758.84 759.12 759.01 
3873 758.75 759.10 759.01 
3874 758.88 759.12 759.01 
3875 758.84 759.11 759.01 
3876 758.63 759.12 759.01 
3877 758.46 759.10 759.01 
3878 758.92 759.11 759.01 
3879 758.80 759.10 759.01 
3880 758.76 759.10 759.01 
3881 758.55 759.11 759.01 
3882 758.79 759.10 759.01 
3883 758.80 759.11 759.01 
3884 758.63 759.10 759.01 
3885 758.80 759.09 759.01 
3886 758.75 759.12 759.01 
3887 758.63 759.11 759.01 
3888 758.88 759.11 759.01 
3889 758.79 759.13 759.01 
3890 758.63 759.13 759.01 
3891 758.84 759.13 759.01 
3892 758.46 755.10 759.01 
3893 758.55 759.10 759.01 
3894 758.80 759.13 759.01 
3895 758.71 759.07 759.01 
3896 758.55 759.11 759.01 
3897 758.84 755.06 759.01 
3898 758.92 759.09 759.01 
3899 758.59 759.11 759.01 
3900 758.75 759.12 759.01 
3901 758.46 759.11 759.01 
3902 758.75 759.09 759.01 
3903 758.71 759.07 759.01 
3904 758.50 759.10 759.01 
3905 758.54 759.10 759.01 
3906 758.71 759.09 759.01 
3907 758.50 759.11 759.01 
3908 758.50 759.12 759.01 
3909 758.50 759.09 759.01 
3910 758.71 759.12 759.01 
3911 758.84 759.10 759.01 
3912 758.63 759.09 759.01 
3913 758.20 759.10 759.01 
3914 758.75 759.10 759.01 
3915 758.54 759.14 759.01 
3916 758.63 759.06 759.01 
3917 758.54 759.12 759.01 
3918 758.75 759.11 759.01 
3919 758.46 759.07 759.01 
3920 758.75 759.06 759.01 
3921 758.79 759.11 759.01 
3922 758.62 755.05 759.01 
3923 758.58 759.09 759.01 
3924 758.62 759.09 759.01 
3925 758.71 759.08 759.01 
3926 758.88 759.12 759.01 
3927 758.71 759.11 759.01 
3928 758.58 759.10 759.01 
3929 758.42 759.08 759.01 
3930 758.38 759.12 759.01 
3931 758.84 759.11 759.01 
3932 758.63 759.09 759.01 
3933 758.42 759.12 759.01 
3934 758.84 759.10 759.01 
3935 758.83 759.13 759.01 
3936 758.93 759.13 759.01 
3937 758.71 759.13 759.01 
3938 758.88 759.10 759.01 
3939 758.42 759.08 759.01 
3940 758.67 759.10 759.01 
3941 758.55 759.13 759.01 
3942 758.72 759.13 759.01 
3943 758.80 759.12 759.01 
3944 758.76 759.11 759.01 
3945 758.59 759.12 759.01 
3946 758.75 759.08 759.01 
3947 758.75 759.10 759.01 
3948 758.88 759.13 759.01 
3949 758.80 759.12 759.01 
3950 758.62 759.08 759.01 
3951 758.71 759.11 759.01 
3952 758.75 759.13 759.01 
3953 758.79 759.13 759.01 
3954 758.54 759.13 759.01 
3955 758.84 759.15 759.01 
3956 758.72 759.11 759.01 
3957 758.76 759.14 759.01 
3958 758.67 759.13 759.01 
3959 758.63 759.13 759.01 
3960 758.75 759.08 759.01 
3961 758.63 759.09 759.01 
3962 758.76 759.13 759.01 
3963 758.80 755.10 759.01 
3964 758.84 759.08 759.01 
3965 758.76 759.13 759.01 
3966 758.88 759.09 759.01 
3967 758.96 759.08 759.01 
3968 758.76 759.13 759.01 
3969 758.38 759.08 759.01 
3970 758.59 759.10 759.01 
3971 759.01 759.10 759.01 
3972 758.72 759.12 759.01 
3973 758.51 759.12 759.01 
3974 758.72 759.15 759.01 
3975 758.42 759.12 759.01 
3976 758.64 759.14 759.01 
3977 758.47 759.10 759.01 
3978 758.72 759.07 759.01 
3979 758.21 759.12 759.01 
3980 758.67 759.07 759.01 
3981 758.84 759.11 759.01 
3982 758.72 759.12 759.01 
3983 758.51 759.11 759.01 
3984 758.60 759.08 759.01 
3985 758.81 759.12 759.01 
3986 758.47 759.14 759.01 
3987 758.55 759.12 759.01 
3988 758.93 759.13 759.01 
3989 758.84 759.09 759.01 
3990 758.76 759.11 759.01 
3991 758.55 759.11 759.01 
3992 758.64 759.10 759.01 
3993 758.72 759.10 759.01 
3994 758.47 759.11 759.01 
3995 758.51 759.10 759.01 
3996 758.76 759.10 759.01 
3997 758.88 759.09 759.01 
3998 758.76 759.12 759.01 
3999 758.33 759.14 759.01 
4000 758.80 759.12 759.01 
4001 758.72 759.11 759.01 
4002 758.80 759.14 759.01 
4003 758.80 759.11 759.01 
4004 758.71 759.09 759.01 
4005 758.67 759.09 759.01 
4006 758.72 759.09 759.01 
4007 758.58 759.06 759.01 
4008 758.63 755.10 759.01 
4009 758.71 759.12 759.01 
4010 758.55 759.10 759.01 
4011 758.83 759.11 759.01 
4012 758.55 759.11 759.01 
4013 758.71 759.09 759.01 
4014 758.79 759.10 759.01 
4015 758.55 759.06 759.01 
4016 758.13 759.09 759.01 
4017 758.66 759.10 759.01 
4018 758.84 759.11 759.01 
4019 758.75 759.13 759.01 
4020 758.79 759.11 759.01 
4021 758.59 759.12 759.01 
4022 758.63 759.09 759.01 
4023 758.84 759.11 759.01 
4024 758.46 759.16 759.01 
4025 758.76 759.11 759.01 
4026 758.67 759.12 759.01 
4027 758.38 759.12 759.01 
4028 758.59 759.14 759.01 
4029 758.72 759.14 759.01 
4030 758.84 759.10 759.01 
4031 758.89 759.15 759.01 
4032 758.72 759.12 759.01 
4033 758.93 759.12 759.01 
4034 758.76 759.11 759.01 
4035 758.68 759.14 759.01 
4036 758.76 759.14 759.01 
4037 758.68 759.13 759.01 
4038 758.60 759.14 759.01 
4039 758.59 759.09 759.01 
4040 758.43 759.07 759.01 
4041 758.51 759.12 759.01 
4042 758.68 759.10 759.01 
4043 758.76 759.10 759.01 
4044 758.38 759.14 759.01 
4045 758.63 759.12 759.01 
4046 758.67 759.11 759.01 
4047 758.76 759.08 759.01 
4048 758.47 759.11 759.01 
4049 758.64 759.12 759.01 
4050 758.76 759.09 759.01 
4051 758.59 759.13 759.01 
4052 758.88 759.11 759.01 
4053 758.68 759.13 759.01 
4054 758.84 759.12 759.01 
4055 758.89 759.08 759.01 
4056 758.55 759.13 759.01 
4057 758.55 759.13 759.01 
4058 758.72 759.12 759.01 
4059 758.80 759.11 759.01 
4060 758.68 759.12 759.01 
4061 758.60 759.09 759.01 
4062 758.76 759.13 759.01 
4063 758.55 759.11 759.01 
4064 758.55 759.11 759.01 
4065 758.76 759.10 759.01 
4066 758.47 759.12 759.01 
4067 758.93 759.14 759.01 
4068 758.67 759.12 759.01 
4069 758.71 759.10 759.01 
4070 758.92 759.10 759.01 
4071 758.67 759.10 759.01 
4072 758.83 759.10 759.01 
4073 758.79 759.10 759.01 
4074 758.75 759.12 759.01 
4075 758.80 755.10 759.01 
4076 758.80 759.09 759.01 
4077 758.72 759.11 759.01 
4078 758.83 759.10 759.01 
4079 758.67 759.12 759.01 
4080 758.76 759.15 759.01 
4081 758.72 759.10 759.01 
4082 758.63 759.13 759.01 
4083 758.76 759.11 759.01 
4084 758.47 759.13 759.01 
4085 758.63 759.11 759.01 
4086 758.43 759.09 759.01 
4087 758.80 759.09 759.01 
4088 758.46 759.12 759.01 
4089 758.85 759.11 759.01 
4090 758.55 759.12 759.01 
4091 758.64 759.13 759.01 
4092 758.72 759.13 759.01 
4093 758.63 759.14 759.01 
4094 758.60 759.17 759.01 
4095 758.59 759.13 759.01 
4096 758.80 759.13 759.01 
4097 758.47 759.13 759.01 
4098 758.55 759.14 759.01 
4099 758.92 759.12 759.01 
4100 758.67 759.12 759.01 
4101 758.55 759.11 759.01 
4102 758.63 759.12 759.01 
4103 758.84 759.13 759.01 
4104 758.92 759.10 759.01 
4105 758.72 759.07 759.01 
4106 758.76 759.14 759.01 
4107 758.84 759.11 759.01 
4108 758.76 759.10 759.01 
4109 758.68 759.12 759.01 
4110 758.59 759.10 759.01 
4111 758.88 759.13 759.01 
4112 758.76 759.14 759.01 
4113 758.55 759.10 759.01 
4114 758.68 759.11 759.01 
4115 758.42 759.11 759.01 
4116 758.46 759.14 759.01 
4117 758.59 759.15 759.01 
4118 758.71 759.13 759.01 
4119 758.63 759.13 759.01 
4120 758.42 759.12 759.01 
4121 758.88 759.13 759.01 
4122 758.71 759.10 759.01 
4123 758.67 759.11 759.01 
4124 758.80 759.13 759.01 
4125 758.93 759.11 759.01 
4126 758.80 759.12 759.01 
4127 758.59 759.10 759.01 
4128 758.67 759.12 759.01 
4129 758.72 759.12 759.01 
4130 758.55 759.11 759.01 
4131 758.67 759.12 759.01 
4132 758.67 759.14 759.01 
4133 758.59 759.12 759.01 
4134 758.55 759.11 759.01 
4135 758.46 759.13 759.01 
4136 758.76 759.12 759.01 
4137 758.67 759.13 759.01 
4138 758.63 759.10 759.01 
4139 758.38 759.10 759.01 
4140 758.67 759.10 759.01 
4141 758.55 759.14 759.01 
4142 758.68 759.14 759.01 
4143 758.72 759.11 759.01 
4144 758.63 759.12 759.01 
4145 758.72 759.12 759.01 
4146 758.63 759.16 759.01 
4147 758.72 759.12 759.01 
4148 758.84 759.12 759.01 
4149 758.68 759.13 759.01 
4150 758.80 759.11 759.01 
4151 758.59 759.12 759.01 
4152 758.72 759.11 759.01 
4153 758.76 759.07 759.01 
4154 758.55 759.13 759.01 
4155 758.71 759.09 759.01 
4156 758.72 759.13 759.01 
4157 758.42 759.11 759.01 
4158 758.68 759.11 759.01 
4159 758.71 759.10 759.01 
4160 758.71 759.11 759.01 
4161 758.34 759.12 759.01 
4162 758.63 759.13 759.01 
4163 758.84 759.12 759.01 
4164 758.63 759.12 759.01 
4165 758.67 759.09 759.01 
4166 758.80 759.14 759.01 
4167 758.71 759.10 759.01 
4168 758.68 759.11 759.01 
4169 758.72 759.14 759.01 
4170 758.63 759.13 759.01 
4171 758.55 755.11 759.01 
4172 758.80 759.12 759.01 
4173 758.72 759.13 759.01 
4174 758.38 759.13 759.01 
4175 758.67 759.14 759.01 
4176 758.63 759.11 759.01 
4177 758.84 759.13 759.01 
4178 758.76 759.14 759.01 
4179 758.89 759.13 759.01 
4180 758.68 759.11 759.01 
4181 758.60 759.12 759.01 
4182 758.60 759.12 759.01 
4183 758.64 759.14 759.01 
4184 758.76 759.12 759.01 
4185 758.72 759.14 759.01 
4186 758.85 759.11 759.01 
4187 758.76 759.11 759.01 
4188 758.84 759.11 759.01 
4189 758.89 759.12 759.01 
4190 758.72 759.13 759.01 
4191 758.64 759.11 759.01 
4192 758.93 759.16 759.01 
4193 758.51 759.12 759.01 
4194 758.51 759.11 759.01 
4195 758.59 759.13 759.01 
4196 758.68 759.11 759.01 
4197 758.63 759.13 759.01 
4198 758.72 759.13 759.01 
4199 758.47 759.14 759.01 
4200 758.80 759.13 759.01 
4201 758.68 759.11 759.01 
4202 758.51 759.10 759.01 
4203 758.59 759.13 759.01 
4204 758.47 759.10 759.01 
4205 758.84 759.14 759.01 
4206 758.80 759.13 759.01 
4207 759.00 759.12 759.01 
4208 758.84 759.11 759.01 
4209 758.88 759.10 759.01 
4210 758.79 759.09 759.01 
4211 758.75 759.13 759.01 
4212 758.50 759.09 759.01 
4213 758.87 759.11 759.01 
4214 758.54 759.10 759.01 
4215 758.67 759.08 759.01 
4216 758.75 759.12 759.01 
4217 758.63 759.09 759.01 
4218 758.87 759.12 759.01 
4219 758.58 759.08 759.01 
4220 758.87 759.14 759.01 
4221 758.51 759.11 759.01 
4222 758.55 759.10 759.01 
4223 758.92 759.09 759.01 
4224 758.63 759.10 759.01 
4225 758.63 759.10 759.01 
4226 758.71 759.11 759.01 
4227 758.50 759.12 759.01 
4228 758.67 759.12 759.01 
4229 758.63 759.10 759.01 
4230 758.79 759.12 759.01 
4231 758.63 759.11 759.01 
4232 758.63 759.15 759.01 
4233 758.55 759.13 759.01 
4234 758.92 759.09 759.01 
4235 758.75 759.13 759.01 
4236 758.75 759.12 759.01 
4237 758.38 759.11 759.01 
4238 758.71 759.11 759.01 
4239 758.76 759.12 759.01 
4240 758.59 759.13 759.01 
4241 758.46 759.11 759.01 
4242 758.80 759.12 759.01 
4243 758.75 759.12 759.01 
4244 758.71 759.14 759.01 
4245 758.79 759.11 759.01 
4246 758.66 759.09 759.01 
4247 758.62 759.11 759.01 
4248 758.54 759.09 759.01 
4249 758.62 759.10 759.01 
4250 758.74 759.08 759.01 
4251 758.62 759.10 759.01 
4252 758.79 759.09 759.01 
4253 758.62 759.11 759.01 
4254 758.53 759.07 759.01 
4255 758.53 759.07 759.01 
4256 758.87 759.06 759.01 
4257 758.62 759.11 759.01 
4258 758.70 759.09 759.01 
4259 758.61 759.10 759.01 
4260 758.66 759.07 759.01 
4261 758.53 759.07 759.01 
4262 758.48 759.07 759.01 
4263 758.70 759.09 759.01 
4264 758.45 759.08 759.01 
4265 758.91 759.09 759.01 
4266 758.45 759.10 759.01 
4267 758.74 759.08 759.01 
4268 758.78 759.12 759.01 
4269 758.66 759.08 759.01 
4270 758.53 759.06 759.01 
4271 758.49 759.07 759.01 
4272 758.41 759.08 759.01 
4273 758.40 759.08 759.01 
4274 758.53 759.12 759.01 
4275 758.62 759.07 759.01 
4276 758.49 759.07 759.01 
4277 758.75 759.11 759.01 
4278 758.83 759.08 759.01 
4279 758.71 759.08 759.01 
4280 758.59 759.13 759.01 
4281 758.67 759.12 759.01 
4282 758.63 759.14 759.01 
4283 758.71 759.11 759.01 
4284 758.71 759.11 759.01 
4285 758.79 759.12 759.01 
4286 758.92 759.09 759.01 
4287 758.88 759.07 759.01 
4288 758.79 759.10 759.01 
4289 758.80 759.13 759.01 
4290 758.50 759.11 759.01 
4291 758.67 759.10 759.01 
4292 758.55 759.12 759.01 
4293 758.63 759.15 759.01 
4294 758.75 759.12 759.01 
4295 758.80 759.12 759.01 
4296 758.88 759.11 759.01 
4297 758.41 759.08 759.01 
4298 758.83 759.11 759.01 
4299 758.50 759.06 759.01 
4300 758.62 759.09 759.01 
4301 758.54 759.11 759.01 
4302 758.66 759.12 759.01 
4303 758.74 759.12 759.01 
4304 758.75 759.10 759.01 
4305 758.66 759.11 759.01 
4306 758.63 759.12 759.01 
4307 758.50 759.13 759.01 
4308 758.71 759.11 759.01 
4309 758.67 759.11 759.01 
4310 758.54 759.11 759.01 
4311 758.88 759.12 759.01 
4312 758.84 759.11 759.01 
4313 758.75 759.12 759.01 
4314 758.46 759.12 759.01 
4315 758.68 759.11 759.01 
4316 758.68 759.14 759.01 
4317 758.80 759.12 759.01 
4318 758.59 759.13 759.01 
4319 758.81 759.10 759.01 
4320 758.89 759.11 759.01 
4321 758.51 759.11 759.01 
4322 758.72 759.12 759.01 
4323 758.97 759.10 759.01 
4324 758.72 759.12 759.01 
4325 757.63 759.11 759.01 
4326 758.47 759.10 759.01 
4327 758.59 755.09 759.01 
4328 758.85 759.10 759.01 
4329 758.67 759.14 759.01 
4330 758.68 759.12 759.01 
4331 758.72 759.14 759.01 
4332 758.80 759.11 759.01 
4333 758.72 759.12 759.01 
4334 758.64 759.14 759.01 
4335 758.60 759.13 759.01 
4336 758.68 759.14 759.01 
4337 758.80 759.14 759.01 
4338 758.93 759.09 759.01 
4339 758.80 759.11 759.01 
4340 758.43 759.12 759.01 
4341 758.64 759.10 759.01 
4342 758.42 759.13 759.01 
4343 758.38 759.10 759.01 
4344 758.25 759.12 759.01 
4345 758.55 759.12 759.01 
4346 758.84 759.11 759.01 
4347 758.63 759.11 759.01 
4348 758.75 759.13 759.01 
4349 758.72 759.12 759.01 
4350 758.59 759.11 759.01 
4351 758.63 759.12 759.01 
4352 758.72 759.12 759.01 
4353 758.76 759.14 759.01 
4354 758.79 759.13 759.01 
4355 758.84 759.15 759.01 
4356 758.76 759.13 759.01 
4357 758.71 759.14 759.01 
4358 758.59 759.13 759.01 
4359 758.55 759.12 759.01 
4360 758.64 759.15 759.01 
4361 758.64 759.13 759.01 
4362 758.72 759.12 759.01 
4363 758.72 759.13 759.01 
4364 758.89 759.13 759.01 
4365 758.93 759.12 759.01 
