iteration,time_sampling,stoc_pol_mean,stoc_pol_std,stoc_pol_max,stoc_pol_min,rollout_success,alpha,delta,time_vpg,time_npg,kl_dist,surr_improvement,running_score,rwd_sparse,rwd_dense,success_percentage,num_samples,time_VF,VF_error_before,VF_error_after,eval_score,eval_success
0,8.684048891067505,-345.2563059359034,15.76259945356872,-317.59476595059954,-376.74878871998436,0.0,1.0570411896053298,0.1,0.030150651931762695,0.3954029083251953,0.051855672,0.101503715,-345.2563059359034,-3.3961000687400564,-3.450794674491602,0.0,9600,0.8916268348693848,0.9996210319286236,0.16347745426917062,-286.38028090019554,0.0
1,10.13358187675476,-344.2171351362204,13.48896410465456,-321.1753754864466,-376.8580939868143,0.0,1.4659841671527667,0.1,0.012882471084594727,0.35948729515075684,0.047014076,0.06514204,-345.1523888559351,-3.3855766982022844,-3.440382560605235,0.0,9600,1.025251865386963,0.15892968131774274,0.0528870192728212,-283.91870542607916,0.0
2,9.603682279586792,-345.5565159021914,14.928281142878207,-316.53216335518806,-379.4274251624686,0.0,1.3934590728091723,0.1,0.016717910766601562,0.4728126525878906,0.050622534,0.07237423,-345.1928015605608,-3.3988621014930502,-3.453750893957684,0.0,9600,0.863544225692749,0.058187872870644135,0.04327897254651769,-298.1374671860551,0.0
3,9.749024629592896,-348.5220344197881,15.534165771233901,-317.5019539526639,-383.0178436192866,0.0,1.6091431791254611,0.1,0.01779484748840332,0.4535801410675049,0.052075874,0.06515114,-345.5257248464835,-3.428635038009915,-3.4834036429608264,0.0,9600,1.0261166095733643,0.04520264034660403,0.03536838587848536,-287.753355862705,0.0
4,9.47915768623352,-345.4686846967566,14.389463685240047,-317.21775641250736,-382.72758561932,0.0,1.5922006504224515,0.1,0.013160228729248047,0.5297925472259521,0.053277835,0.06519688,-345.5200208315108,-3.397872673851906,-3.452920167029561,0.0,9600,1.043663740158081,0.037719112071221944,0.02796732373995457,-283.60605655609686,0.0
5,9.587382793426514,-349.5278300368459,16.16352069897936,-313.63886087818145,-383.29026809813234,0.0,1.594911463189519,0.1,0.014917135238647461,0.5727059841156006,0.050486106,0.06276412,-345.9208017520443,-3.438438117031114,-3.493448336943279,0.0,9600,1.6376104354858398,0.03060777279520182,0.020508411416467354,-288.8821158128342,0.0
6,10.717442750930786,-345.9722835292021,15.01093462647928,-312.65799484075563,-383.7483895114378,0.0,1.5289559733753508,0.1,0.01462101936340332,0.4295639991760254,0.051517747,0.06928837,-345.9259499297601,-3.4029339076048744,-3.4579811496018915,0.0,9600,2.032989740371704,0.024022616767396192,0.014305282640436292,-273.5895294652153,0.0
7,8.04669976234436,-345.19222115519506,15.695805805277253,-317.3008084259058,-385.4958620141602,0.0,1.5285285376276943,0.1,0.017892122268676758,0.5918064117431641,0.051008668,0.06810413,-345.8525770523036,-3.3950691952786713,-3.4501395270201374,0.0,9600,1.9474279880523682,0.013881863680866491,0.00882018867697482,-278.79640258463854,0.0
8,10.320636510848999,-345.50680936007603,14.126137295100829,-316.29301950636255,-387.7048973510795,0.0,1.569732520875228,0.1,0.009746313095092773,0.43265199661254883,0.05046518,0.06446298,-345.8180002830809,-3.398141881226284,-3.45323497624103,0.0,9600,2.6516454219818115,0.009478756438739768,0.00520604056688404,-281.43387639835277,0.0
9,9.854372262954712,-343.18288832730394,13.526262713716063,-314.6798693373757,-386.3923993158061,0.0,1.4720437178947983,0.1,0.014600515365600586,0.5206437110900879,0.052051395,0.07169843,-345.5544890875032,-3.3751456998004077,-3.4299680382781346,0.0,9600,1.4774391651153564,0.005259947439701294,0.0029272035516506745,-279.12743231656856,0.0
10,8.739859580993652,-341.122988301511,11.156136529609931,-320.3743023247264,-368.69237857439975,0.0,1.4392362857110295,0.1,0.012423276901245117,0.449462890625,0.05051471,0.070264526,-345.111339008904,-3.354207658536906,-3.409392144786287,0.0,9600,1.6910123825073242,0.0030917530835075356,0.0014165383025786255,-265.059034728759,0.0
11,8.280577898025513,-329.77544017130515,9.821122987829872,-306.70857958781767,-354.58016234182156,0.0,1.4467576588429223,0.1,0.009466409683227539,0.31821680068969727,0.051000517,0.07191363,-343.5777491251441,-3.240553467422181,-3.296038811803872,0.0,9600,1.7029519081115723,0.0023510076759533727,0.0011250910281664142,-264.7179417387807,0.0
12,10.209603309631348,-322.95278043210334,10.614415137550475,-302.2154912155987,-353.05630606827606,0.0,1.361535784244146,0.1,0.013805150985717773,0.5478298664093018,0.051654145,0.076010756,-341.51525225584004,-3.1721534164062657,-3.227842531405481,0.0,9600,2.6000583171844482,0.0014767182767492927,0.0009551201944105009,-263.59234135547024,0.0
13,10.526649236679077,-312.74213658080004,7.436980212474768,-297.0801187421033,-335.0404548954194,0.0,1.4472886655584503,0.1,0.019301891326904297,0.4497721195220947,0.051653106,0.07093772,-338.637940688336,-3.0700569209745154,-3.125814684143188,0.0,9600,2.2514231204986572,0.0012073856786943735,0.0006540016942130554,-260.12057153098357,0.0
14,10.18915867805481,-304.76918445366005,7.017371539549756,-288.93850450496336,-318.09846782850485,0.0,1.4151471325191687,0.1,0.014290094375610352,0.4468221664428711,0.052230585,0.07387333,-335.2510650648684,-2.990412000784031,-3.046301565163045,0.0,9600,2.6006245613098145,0.0010925342504798314,0.00041897554615770986,-251.43719389443982,0.0
15,10.062249898910522,-297.5363772944774,8.99168119485861,-277.902248336626,-314.8467738104923,0.0,1.438927916582206,0.1,0.03147268295288086,0.6790151596069336,0.050687127,0.06930136,-331.4795962878293,-2.918520181441449,-2.974054673910756,0.0,9600,1.5849766731262207,0.0008991870459447312,0.0004897669826400478,-245.63851125248863,0.0
16,9.408859729766846,-287.4697309439095,6.486827487636015,-278.26506244411485,-302.8823125114057,0.0,1.393910101261388,0.1,0.03001117706298828,0.6498403549194336,0.053250372,0.07135077,-327.0786097534373,-2.8187653441648437,-2.8735474694833623,0.0,9600,2.680495262145996,0.0006681741517137519,0.00031840828439555935,-237.09412803540263,0.0
17,9.821229696273804,-280.5606607745313,5.827946565388425,-269.2428314175292,-300.22928191769466,0.0,1.500159431052191,0.1,0.021836519241333008,0.5939886569976807,0.051677246,0.06996151,-322.4268148555467,-2.7497872772581338,-2.8045283639939775,0.0,9600,3.009913921356201,0.0006889238382879904,0.00033125963907380395,-227.83661907755712,0.0
18,8.546531438827515,-272.9234020965891,5.457161868547915,-262.18599065255347,-296.0039545296868,0.0,1.2817842707601284,0.1,0.018817663192749023,0.5099785327911377,0.054476358,0.079605766,-317.47647357965093,-2.6736522544163086,-2.7282324923747665,0.0,9600,2.4609718322753906,0.0008753146098271623,0.00035210865690252604,-213.6927195116002,0.0
19,8.631563901901245,-264.6137034245937,4.9028992759438825,-254.33414964754257,-280.1893457788076,0.0,1.3989152829139728,0.1,0.02018117904663086,0.6101787090301514,0.046307083,0.06561584,-312.1901965641452,-2.5905982496200624,-2.6452166002117963,0.0,9600,2.8364927768707275,0.000819822516814467,0.0003238877834803096,-193.1253507511934,0.0
20,10.249781131744385,-257.8020168309685,4.197290154835338,-249.56377229781367,-268.93047776505017,0.0,1.2906498924890155,0.1,0.02120375633239746,0.553640604019165,0.047610577,0.07532959,-306.7513785908275,-2.5225294771196203,-2.5771636052367572,0.0,9600,2.7937426567077637,0.0005582673339928525,0.00023598556537315628,-194.33103736549018,0.0
21,9.821223258972168,-253.04824363509013,4.47063639112036,-243.2465103427599,-265.9948177373884,0.0,1.273535822740586,0.1,0.028000354766845703,0.5105195045471191,0.04506123,0.07169296,-301.3810650952538,-2.4752833407812935,-2.5296729344364675,0.0,9600,2.675734519958496,0.00037748152396391396,0.00023437591466627495,-193.05487398266263,0.0
22,9.75560998916626,-246.1362921648682,5.611155613687894,-233.95523183817937,-258.68845012640884,0.0,1.3961854172957304,0.1,0.018917560577392578,0.6473093032836914,0.03722761,0.057370797,-295.85658780221524,-2.4067807071196037,-2.460559927916121,0.0,9600,2.4216549396514893,0.0008789192982973761,0.00040863647367962036,-194.7826695367678,0.0
23,9.586240530014038,-239.2739071408474,6.03830622191425,-223.0176542910347,-254.65664640146178,0.0,1.349144872463678,0.1,0.03384518623352051,0.6736021041870117,0.038859714,0.06045724,-290.1983197360785,-2.338489378023864,-2.3920068459509074,0.0,9600,3.7601191997528076,0.0010623156295242755,0.0005353739985476506,-193.21320032784936,0.0
24,8.109865427017212,-232.0068339693164,7.607510555535933,-218.39108627647684,-259.5804954624892,0.0,1.3762468525029208,0.1,0.028586864471435547,0.5296893119812012,0.039047275,0.05904553,-284.3791711594023,-2.266270294098654,-2.3193735137497717,0.0,9600,3.1695845127105713,0.001562435652872832,0.000954897073016122,-193.80665722519,0.0
25,9.161898136138916,-224.3953842036974,7.390212235094649,-205.21981860238856,-253.87631823582726,0.0,1.407774505197549,0.1,0.016519546508789062,0.4849076271057129,0.042577248,0.063006796,-278.3807924638318,-2.190475486451672,-2.2434001412017874,0.0,9600,2.48905873298645,0.0015497801391359128,0.0009486283036572603,-197.19439094100454,0.0
26,9.513434171676636,-219.79768970280134,4.485480938250524,-207.12171078461878,-238.64467956797273,0.0,1.3472671968579724,0.1,0.011038064956665039,0.5415112972259521,0.0437453,0.064870074,-272.52248218772877,-2.1447813681959134,-2.197481266942082,0.0,9600,2.4676549434661865,0.0006693425623183244,0.0005765494825710241,-199.26246739605827,0.0
27,9.757852792739868,-215.8216163000283,5.804477975908648,-194.0766281677125,-231.83549232232093,0.0,1.467999230807208,0.1,0.021521568298339844,0.5326600074768066,0.044488706,0.06513728,-266.8523955989587,-2.105177388464977,-2.1578377866578795,0.0,9600,2.3293769359588623,0.0007722041148622751,0.0005785818640337895,-198.28115099179357,0.0
28,9.31776213645935,-210.7948921669384,7.436863510941571,-192.1924102600917,-238.0303236061633,0.0,1.3507522440975421,0.1,0.014978647232055664,0.49590015411376953,0.04556666,0.07162611,-261.2466452557567,-2.0550694426210954,-2.107646715216316,0.0,9600,2.5957117080688477,0.0012075687686259585,0.0008700585526063528,-199.6186369304816,0.0
29,9.586140155792236,-202.75900612013615,7.580591078557422,-193.68363396261915,-240.4979012414613,0.0,1.2847896407054389,0.1,0.02490711212158203,0.6820213794708252,0.046044875,0.074652,-255.39788134219464,-1.974545872609384,-2.0272831381277583,0.0,9600,3.024603843688965,0.0016481922907795655,0.0010701603381188301,-212.04313889264222,0.0
30,9.137483596801758,-199.30767384765173,5.119109121095089,-191.1954187077157,-219.31344989024026,0.0,1.4344537338550596,0.1,0.016436338424682617,0.5429863929748535,0.04285821,0.060378127,-249.78886059274035,-1.940084941082313,-1.9928269179530342,0.0,9600,2.391326427459717,0.0010850118109486033,0.0006901709659559156,-210.17789983635492,0.0
31,9.662280321121216,-197.30194759577475,4.922714407383697,-186.8914658246504,-228.13083001549725,0.0,1.3339198943194535,0.1,0.016463041305541992,0.5147011280059814,0.043933425,0.06465299,-244.5401692930438,-1.9202700076812045,-1.9728182118843103,0.0,9600,3.5197460651397705,0.0005996294598919057,0.0006426033054892445,-211.43312263058843,0.0
32,9.484835863113403,-195.26352110680364,3.8894527828658267,-188.76520207841511,-214.75527808551055,0.0,1.5071746592898925,0.1,0.015632152557373047,0.4357330799102783,0.04808425,0.06295966,-239.61250447441978,-1.8999740871916704,-1.9524557479275828,0.0,9600,1.4789142608642578,0.0005066034901315183,0.0004524385496100709,-209.39574792644635,0.0
33,9.490655183792114,-192.99581333771357,3.759799572295895,-184.8961625867553,-207.99166010800275,0.0,1.3312911406590688,0.1,0.01898336410522461,0.6112098693847656,0.04538674,0.0664186,-234.95083536074915,-1.8773596052026893,-1.9298047494842052,0.0,9600,2.6236822605133057,0.0005716611011531257,0.00042766147791863763,-210.4138404673795,0.0
34,9.518575191497803,-191.3654481171898,4.479870733066017,-183.72141652414587,-209.75391159174998,0.0,1.2968999964565633,0.1,0.021103620529174805,0.6385726928710938,0.047725663,0.07037174,-230.59229663639323,-1.861116882482501,-1.9135073246066554,0.0,9600,3.6929516792297363,0.0005606385961489331,0.00043886933759987296,-209.3490149423465,0.0
35,9.892102479934692,-189.2215370931884,3.333476645553204,-183.55749881080908,-210.6656850277884,0.0,1.4316895284708577,0.1,0.028414249420166016,0.6821229457855225,0.047856018,0.06647232,-226.45522068207276,-1.8398548427588224,-1.8920655242416224,0.0,9600,2.5124928951263428,0.00035953131975632695,0.00026164922541728144,-200.9803269599082,0.0
36,9.552834272384644,-187.12682136253497,2.6509951797343962,-181.3335715438941,-200.2515948221658,0.0,1.3744857131809953,0.1,0.013180971145629883,0.5268166065216064,0.04986931,0.06956828,-222.522380750119,-1.8193469330720304,-1.8711813037881349,0.0,9600,2.0033228397369385,0.0003943560793167893,0.00027907969692844584,-197.784826449295,0.0
37,9.581294059753418,-185.87889126425998,3.0139024413728572,-176.25086172238622,-192.70518778600936,0.0,1.4407747599471084,0.1,0.02814483642578125,0.589043378829956,0.04857577,0.066596225,-218.85803180153312,-1.806755692448397,-1.858676566748149,0.0,9600,1.6667745113372803,0.00042119771874132465,0.0003572112575589235,-188.9876267603869,0.0
38,9.44979977607727,-183.49605430002555,2.8024258457901694,-175.91200110148986,-191.2496257100431,0.0,1.4610418103608815,0.1,0.013262033462524414,0.5426120758056641,0.0478828,0.06887315,-215.32183405138235,-1.7834154016766723,-1.8348939466347318,0.0,9600,1.5913305282592773,0.0006299514004886284,0.00024362683666241002,-186.6765739721304,0.0
39,8.294181823730469,-181.2466853672638,3.403275192387766,-171.98802352280387,-189.21699105712517,0.0,1.3856304049319463,0.1,0.029027462005615234,0.7852969169616699,0.04810994,0.07403608,-211.9143191829705,-1.7611793932384945,-1.8123721721534196,0.0,9600,2.752703905105591,0.0003521494810085949,0.00030472386145392405,-185.2480489292493,0.0
40,9.813422918319702,-179.58445282734988,4.912710084407675,-171.13283444897394,-216.0484295321076,0.0,1.3449213930466388,0.1,0.017240285873413086,0.5238540172576904,0.04569968,0.06066978,-208.68133254740846,-1.7448769375197735,-1.7957740562008613,0.0,9600,1.9136378765106201,0.000721515149701446,0.00047199499364835294,-185.2846994599197,0.0
41,9.510578632354736,-177.90298895065112,2.8386435744566554,-171.84894771032762,-185.04937404198714,0.0,1.5490507404051774,0.1,0.03208804130554199,0.7119810581207275,0.04588487,0.060073346,-205.60349818773273,-1.728258297769367,-1.7789796009983594,0.0,9600,3.8681931495666504,0.000344762994309351,0.0002764242244228341,-181.59272323104608,0.0
42,9.86235499382019,-175.4057592956818,2.9841731901198862,-168.9779014773739,-184.60630788637343,0.0,1.5012476323361814,0.1,0.025185108184814453,0.5498538017272949,0.04369693,0.062977135,-202.58372429852764,-1.7032215260931574,-1.7540346683674912,0.0,9600,2.051809787750244,0.00043670850248285676,0.00030851777238783556,-178.44690256109155,0.0
43,9.699095964431763,-175.53556022962962,4.001795114262483,-162.46798879979175,-186.03841995395376,0.0,1.4285116074252144,0.1,0.016416072845458984,0.4658503532409668,0.0420259,0.060926184,-199.87890789163785,-1.7047586064237894,-1.7553460870440138,0.0,9600,2.247847557067871,0.0005544456881061857,0.0005355773493797043,-178.24610580537833,0.0
44,8.194172620773315,-174.0306958405495,3.3531895324023147,-164.65452822221764,-184.94886119505233,0.0,1.611860710409994,0.1,0.02107715606689453,0.6197340488433838,0.03733762,0.05091926,-197.29408668652903,-1.6899622367368217,-1.7402835815032693,0.0,9600,2.251476526260376,0.0005275167706943157,0.00038883193446197033,-179.87959793445197,0.0
45,9.709478616714478,-173.6149556130946,3.716968292882848,-165.0001641930683,-181.69524096281677,0.0,1.6418547312123677,0.1,0.020112037658691406,0.4479081630706787,0.048481997,0.05648211,-194.9261735791856,-1.6860721352213381,-1.7361079539229063,0.0,9600,1.73583984375,0.0005721659334337603,0.00045655424270718776,-179.76435829681367,0.0
46,8.094273567199707,-172.34538605213615,4.958143717648286,-156.26098272108166,-186.53008426887112,0.0,1.4692690838523297,0.1,0.01712775230407715,0.5382952690124512,0.04624857,0.0862424,-192.66809482648063,-1.6755198579773325,-1.723465142954735,0.0,9600,3.055142402648926,0.0008990972333419633,0.0007980624984284609,-175.71822026094043,0.0
47,9.408833980560303,-173.03651100229695,5.892748560249029,-151.74259327598125,-190.0897590179915,0.0,1.396878315970723,0.1,0.0217893123626709,0.5036215782165527,0.04434466,0.06777726,-190.70493644406227,-1.682274802039693,-1.7303413525727611,0.0,9600,3.2646420001983643,0.0010067529617823656,0.0008462738380500624,-173.40446160378042,0.0
48,8.969178438186646,-171.661628383867,4.1291239101995165,-161.2999283184211,-181.72941039727706,0.0,1.4878292726544446,0.1,0.02089524269104004,0.5507841110229492,0.03740683,0.056575067,-188.80060563804275,-1.6668213360402386,-1.7166110313297551,0.0,9600,3.22286319732666,0.0007500319393428987,0.00057958612009631,-176.53953642532497,0.0
49,8.304417610168457,-171.3177605977925,5.1308245164948705,-161.40551862302058,-188.01281135572987,0.0,1.4018502774322243,0.1,0.024662256240844727,0.5900313854217529,0.04114805,0.062375933,-187.05232113401772,-1.665270224291562,-1.7131856434834856,0.0,9600,3.989452362060547,0.0007189110415278426,0.000585741170446404,-180.83774359450805,0.0
50,9.72733211517334,-170.0530507140549,4.945272975116352,-156.33021041444871,-183.2937532932847,0.0,1.4934977077996656,0.1,0.019623517990112305,0.37239503860473633,0.045148768,0.069548786,-185.35239409202146,-1.653928495621441,-1.700502610286638,0.0,9600,2.135711431503296,0.0008888973179631968,0.0007554514917832144,-177.96670432546463,0.0
51,9.582953691482544,-169.16159257917073,5.025950561184737,-156.28026680842925,-178.19691084235404,0.0,1.4832600371973197,0.1,0.01938915252685547,0.474346399307251,0.046421863,0.064987734,-183.73331394073637,-1.64352972828375,-1.6916405490236537,0.0,9600,4.378883600234985,0.0009233896293962515,0.0007627575047794918,-177.5342155561527,0.0
52,7.606247663497925,-168.0058988746324,6.3142112281506,-152.64804190700417,-187.34690985779346,0.0,1.4698203068568505,0.1,0.021114110946655273,0.5684309005737305,0.0461908,0.067910776,-182.16057243412598,-1.6361235924203932,-1.680035338041374,0.0,9600,4.157098293304443,0.0010247381685961681,0.0008013622231230428,-166.89133656818225,0.0
53,9.61118483543396,-167.89630478964943,6.508976105428652,-147.53379842581376,-184.41392410524938,0.0,1.4715477389946574,0.1,0.019036054611206055,0.612696647644043,0.041873842,0.05635411,-180.73414566967833,-1.634332852395086,-1.6789682164517774,0.0,9600,2.5460569858551025,0.0008842513752536128,0.0007272238635921502,-169.0788470592008,0.0
54,8.28338360786438,-165.00417958975228,6.09486705745292,-143.72138333155692,-179.0120094514417,0.0,1.500170247272372,0.1,0.04132533073425293,0.5221431255340576,0.04838052,0.07179333,-179.1611490616857,-1.6081268434722322,-1.6500981055927741,0.0,9600,2.8325533866882324,0.001507007323373094,0.001079294906205528,-157.67154008088562,0.0
55,8.447431564331055,-165.01764354050025,7.8994495192901875,-133.27774282954184,-184.41823790992282,0.0,1.3495709231321482,0.1,0.02327132225036621,0.567263126373291,0.047053356,0.09095282,-177.74679850956716,-1.6168389334041127,-1.6502153253266851,0.0,9600,2.4902052879333496,0.0014524562477483544,0.0012543860649244425,-156.75671471150073,0.0
56,10.042092323303223,-162.3527733302741,9.868864739231457,-130.5431036038356,-188.17160327377516,0.0,1.3035051999777054,0.1,0.0252988338470459,0.6010417938232422,0.047822878,0.09733994,-176.20739599163784,-1.605811014662389,-1.623517503549995,0.0,9600,2.990304470062256,0.0018894498515418727,0.00148509155721912,-144.7168266114825,0.0
57,9.509000778198242,-161.02362113939827,9.124912740110785,-133.04239965588226,-178.74242888140216,0.0,1.295313497251699,0.1,0.02625107765197754,0.7097434997558594,0.045835923,0.081623755,-174.68901850641387,-1.6073598946590237,-1.610275294298951,0.0,9600,1.958005666732788,0.0017696060749144633,0.0014081254561503864,-102.71249388589693,0.0
58,9.174637794494629,-156.90842960092496,10.888855781236156,-114.78936311257215,-185.4019068213118,0.0,1.2794144255157283,0.1,0.01312112808227539,0.5038330554962158,0.047000494,0.07860491,-172.910959615865,-1.6064874479969198,-1.569106055297058,0.0,9600,2.023202657699585,0.002074806788618839,0.0017590040847412249,-88.05919934820275,0.0
59,8.145716190338135,-153.20540155939995,14.040517001917223,-108.42029271579047,-184.96347856360654,0.0,1.2665938681046072,0.1,0.030383586883544922,0.5141243934631348,0.048362788,0.094277486,-170.9404038102185,-1.609182083645404,-1.532071497151948,0.0,9600,3.5076396465301514,0.0029347589405174027,0.0027630555323901527,-88.6439469496857,0.0
60,9.078387260437012,-149.9516536747784,11.731501628703183,-117.26694727479594,-174.44046019608035,0.0,1.3281613948622069,0.1,0.020742416381835938,0.6237754821777344,0.04972214,0.08878045,-168.8415287966745,-1.585112455533303,-1.4995224439561976,0.0,9600,1.6665973663330078,0.002784386503395909,0.002399807790045708,-67.11708674785041,0.0
61,9.606577396392822,-149.03413391362537,15.123629750011924,-98.6709065907237,-179.9156012224799,0.0,1.305234754198972,0.1,0.016182899475097656,0.4302098751068115,0.047424674,0.07867536,-166.8607893083696,-1.5849777869824504,-1.4904061316012331,0.0,9600,2.094637393951416,0.003703031161318963,0.0034478533998253506,-74.55682997080412,0.0
62,8.92570686340332,-142.91969544009726,14.527939032347664,-111.95977417117389,-180.2006556198646,0.0,1.3027393307327568,0.1,0.0224761962890625,0.5506331920623779,0.049228836,0.070486404,-164.46667992154238,-1.569278401072756,-1.429273579197032,0.0,9600,3.9186737537384033,0.0034538757274965443,0.003143205529778903,-78.46953279350468,0.0
63,10.134271144866943,-138.27216672465053,15.696330545845479,-104.91580903121566,-174.5490365759051,0.0,1.3711888141969455,0.1,0.015484809875488281,0.40637850761413574,0.047706053,0.07319302,-161.8472286018532,-1.5393712048817598,-1.3828076294852878,0.0,9600,2.4302141666412354,0.00466785923228485,0.0037259958374022332,-71.40137937729067,0.0
64,9.772892951965332,-136.25332335056206,14.983947953481275,-100.14772060957652,-165.45785713483698,0.0,1.2693059950662555,0.1,0.027409791946411133,0.6983938217163086,0.04940394,0.083604306,-159.2878380767241,-1.551644379718759,-1.36262223774509,0.0,9600,3.431325674057007,0.0042371423059601445,0.00389982439202755,-48.238481843586136,0.0
65,9.79461932182312,-129.9336979674164,13.91703564562483,-97.69487828215266,-168.9829488097487,0.0,1.284028863935131,0.1,0.026190519332885742,0.5605630874633789,0.04690362,0.07683336,-156.35242406579334,-1.527744217445747,-1.2993887969319704,0.0,9600,2.074918270111084,0.004569472567042001,0.0036283622932484156,-49.10868973296733,0.0
66,9.098405122756958,-129.012210726698,15.978432703023868,-95.8770320259065,-169.68889441719517,0.0,1.2885563643624414,0.1,0.02560734748840332,0.3861865997314453,0.049876254,0.07884842,-153.6184027318838,-1.5340346980544606,-1.2902105351200506,0.0,9600,2.4521570205688477,0.004991793929332537,0.00440363860651477,-103.5805706872306,0.0
67,9.413986682891846,-123.79479205376731,18.26004991588316,-77.95278316215105,-175.58598550477382,0.0,1.3057891646105175,0.1,0.02081465721130371,0.6992418766021729,0.046990566,0.06678904,-150.63604166407217,-1.5066186639730585,-1.238031879953702,0.0,9600,2.4617905616760254,0.006789002032896734,0.006015790151706284,-97.41157774016418,0.0
68,9.564343929290771,-122.18352421158738,16.88492898156406,-84.01743500591952,-166.46324034467352,0.0,1.3908953664414008,0.1,0.016774892807006836,0.480576753616333,0.04667491,0.06560727,-147.7907899188237,-1.4998644376338035,-1.22195163392325,0.0,9600,2.609631061553955,0.006354242657696535,0.005753585278063904,-53.640538780046114,0.0
69,9.723507165908813,-119.45096347667607,15.620183812121564,-87.13988171099172,-168.22793475709693,0.0,1.1686813098129032,0.1,0.023946046829223633,0.6473560333251953,0.046985686,0.07730667,-144.95680727460893,-1.5144112900624964,-1.1946122456875459,0.0,9600,1.8248720169067383,0.005367676934152796,0.004750241474908131,-71.58210859569361,0.0
70,9.452008247375488,-112.1529099630526,16.048725191799214,-68.51105491979418,-161.39648245900344,0.0,1.3870235129663167,0.1,0.029567718505859375,0.4245941638946533,0.044575658,0.06925677,-141.6764175434533,-1.487292283479271,-1.121607397463911,0.0,9600,1.9355700016021729,0.007248194144485467,0.006046546599021111,-69.91649439171188,0.0
71,8.727367639541626,-112.30971312021181,21.00384498707264,-74.87499848684615,-166.68243631827895,0.0,1.2040110554835552,0.1,0.013141155242919922,0.3974170684814453,0.04772541,0.0756162,-138.73974710112918,-1.48632579671726,-1.1231559723979823,0.0,9600,2.164989471435547,0.008881846392245514,0.00772037585732194,-89.91126494785148,0.0
72,9.51801085472107,-107.35492705426611,19.82758952110532,-63.211914522038555,-162.25384837018495,0.0,1.41687233113582,0.1,0.02236652374267578,0.5025126934051514,0.048695154,0.06832355,-135.6012650964429,-1.4555658509490066,-1.0736523873594601,0.0,9600,2.2790486812591553,0.012529848232576092,0.010886870560804934,-67.6604594120714,0.0
73,7.485677480697632,-106.19565287983009,22.333256083669735,-52.57007012914943,-163.20414452939102,0.0,1.3640967338882866,0.1,0.03012251853942871,0.5872805118560791,0.049259834,0.07335539,-132.6607038747816,-1.4614917748516347,-1.0620096339469391,0.0,9600,3.2117037773132324,0.011445509293112447,0.010182391510704103,-74.38111659366183,0.0
74,9.880699396133423,-106.46523276841691,21.86358437546611,-61.68257599716395,-163.57098496723927,0.0,1.3707554953719765,0.1,0.019840717315673828,0.6448283195495605,0.04125545,0.057014205,-130.04115676414514,-1.4378567853715616,-1.064782363021413,0.0,9600,1.6177024841308594,0.012739344310964915,0.010983489014459884,-72.67045132832004,0.0
75,9.940609693527222,-96.36361534023403,20.52720003761907,-43.90648154321383,-151.11960323440164,0.0,1.4049334547393644,0.1,0.026473283767700195,0.6968288421630859,0.04847296,0.07572529,-126.67340262175404,-1.4046963875936285,-0.9637662779238395,0.0,9600,2.2344846725463867,0.01507225687650958,0.01090804987432292,-20.742790949137458,0.0
76,9.148018598556519,-91.8987881951957,22.547076100702235,-22.843398493471113,-140.5349338191951,0.0,1.3892510337767006,0.1,0.020279407501220703,0.5770759582519531,0.04776416,0.06910383,-123.19594117909821,-1.4142340921742484,-0.9191138284338459,0.0,9600,2.8186872005462646,0.01805412467983264,0.015752677455690048,-41.050618972201654,0.0
77,9.78730821609497,-90.33950733930084,27.86866033714531,-30.20098994530225,-163.77753505431164,0.0,1.4038069114830554,0.1,0.027710914611816406,0.4417428970336914,0.044460483,0.060329158,-119.91029779511848,-1.394387959503657,-0.9035144067459013,0.0,9600,2.299281120300293,0.028155614489926397,0.024679674958053927,-62.39090037189751,0.0
78,9.698469638824463,-89.71052285033693,22.580712376815107,-46.205188251055844,-150.252874065184,0.0,1.2830649578881845,0.1,0.022308349609375,0.6533856391906738,0.047784135,0.068017155,-116.89032030064033,-1.4051878407216414,-0.8972197314309268,0.0,9600,2.958787202835083,0.017123924822459616,0.016107694749597258,-57.80877762427491,0.0
79,9.745016098022461,-86.15865911346418,25.077740009910094,-29.09982813938512,-145.60281395326763,0.0,1.3735831523079736,0.1,0.021021366119384766,0.46035099029541016,0.045680355,0.066946484,-113.81715418192272,-1.376774798349268,-0.8617959225035744,0.0,9600,1.8573682308197021,0.021950852790263112,0.019540854129254284,-11.908632482291026,0.0
80,9.58064603805542,-77.63211516755896,24.580312079225926,-14.950230883180657,-146.25955314957724,0.0,1.5081877839729942,0.1,0.014708280563354492,0.5223305225372314,0.04555478,0.061788388,-110.19865028048635,-1.3741898110943866,-0.7765254090374009,0.0,9600,2.950817823410034,0.025388027766043098,0.02103248607025295,-34.91337477375335,0.0
81,9.553524255752563,-74.85063825280007,24.770909042045947,-10.014069779173209,-147.05415437184794,0.0,1.395387868220508,0.1,0.025602102279663086,0.6863646507263184,0.045408625,0.06283928,-106.66384907771773,-1.3698633866218055,-0.7487320303917228,0.0,9600,1.9387834072113037,0.0276230114264724,0.023153799306436854,-12.05729214758967,0.0
82,9.542709589004517,-68.64891182308958,26.34122294617854,-12.142185902333114,-138.1251157263817,0.0,1.5143488053936134,0.1,0.01942753791809082,0.5401651859283447,0.04565744,0.056462146,-102.86235535225491,-1.347310390714804,-0.6867127589873876,0.0,9600,2.5352089405059814,0.03503141817433813,0.028507472655177436,-2.1355676003752295,0.0
83,9.556130170822144,-66.051761811227,33.7959093423194,21.865718499725322,-141.8600397496533,0.0,1.414301278124947,0.1,0.027712106704711914,0.8314938545227051,0.045177802,0.0637026,-99.18129599815212,-1.3402677010469475,-0.6606685748659625,0.0,9600,3.4525363445281982,0.049363840110974055,0.044259169705735325,2.867720515954048,0.0
84,8.751728296279907,-63.20988899865364,32.72930069228779,0.8852048146180105,-156.29449314803622,0.0,1.4313457260521927,0.1,0.01605224609375,0.5079195499420166,0.04899221,0.062889405,-95.58415529820228,-1.332746070846965,-0.6323503180647411,0.0,9600,2.548959493637085,0.04834748104261822,0.043396086218539985,-21.363954793479387,0.0
85,9.63377571105957,-52.83857807467382,23.0189461563547,17.207844988392495,-100.74171163417576,0.0,1.3992738964416054,0.1,0.027187108993530273,0.7867991924285889,0.045635425,0.07197633,-91.30959757584944,-1.3180582233320561,-0.5285640308222329,0.0,9600,4.622102499008179,0.03597798677137279,0.02792429704263187,-26.374406873498682,0.0
86,8.711434125900269,-51.93490603318216,38.11276904592754,37.80746556172598,-158.07077819046245,0.0,1.4907222600097236,0.1,0.018255949020385742,0.6088924407958984,0.044244904,0.059031405,-87.3721284215827,-1.3078455498919854,-0.5194611545391719,0.0,9600,2.0750179290771484,0.0974790715838669,0.08036045306265555,-22.750262662914654,0.0
87,9.574280738830566,-44.04544132319818,32.746135311051134,21.64115401237802,-147.0013204695306,0.0,1.400776076681063,0.1,0.02334141731262207,0.6981203556060791,0.044860587,0.06453121,-83.03945971174424,-1.287374466620592,-0.4406154913107178,0.0,9600,2.3322489261627197,0.07134951354855845,0.06067593369334726,-5.96275530398184,0.0
88,9.478666067123413,-31.574410516163017,34.163743522241546,53.023067587454,-134.53169445776138,0.0,1.5851170333429159,0.1,0.01958751678466797,0.6131436824798584,0.042717528,0.051625457,-77.89295479218612,-1.268699704124754,-0.31601630297583744,0.0,9600,2.453357219696045,0.09266045560073512,0.08118755024669136,-26.354886599989065,0.0
89,8.737165927886963,-32.61027042603676,43.278682773900854,64.33848784111892,-155.19560017873056,0.0,1.428393090293468,0.1,0.027722835540771484,0.6286869049072266,0.046466686,0.060856856,-73.36468635557118,-1.2634702984155535,-0.326335494847723,0.0,9600,2.8065133094787598,0.14241753648810362,0.1235865436160893,-4.205441741361218,0.0
90,9.547235488891602,-26.97235238825847,41.34928480022034,79.9826161577938,-126.84901840646552,0.0,1.485768395702272,0.1,0.02111530303955078,0.6373238563537598,0.04489376,0.059513994,-68.72545295883992,-1.2554997261048424,-0.269925347239842,0.0,9600,4.000306129455566,0.13423424134345865,0.11635893443137629,23.198218788927452,0.0
91,9.301716804504395,-20.112737158425155,38.65300328608504,86.62452149154483,-147.3590982583735,0.0,1.5684406119097745,0.1,0.013930320739746094,0.5718238353729248,0.043252453,0.05580125,-63.86418137879845,-1.249510273440417,-0.201354422830634,0.0,9600,2.9999806880950928,0.11432539650873697,0.09805987131198991,19.514132301991637,0.0
92,9.549110174179077,-10.208716365296,43.93532962503258,94.14617114916747,-124.68192248397325,0.0,1.4552306694275063,0.1,0.032532691955566406,0.6656591892242432,0.040423304,0.0551681,-58.498634877448204,-1.2328943739832814,-0.10235117492921696,0.0,9600,3.6251795291900635,0.16077682471514582,0.14392483211608642,-21.211017564066267,0.0
93,9.755889654159546,-2.944053890670738,48.28317989207174,115.47119413619596,-132.54556615519817,0.0,1.4822339313182504,0.1,0.03397369384765625,0.657768964767456,0.044752378,0.058815084,-52.94317677877046,-1.2153837797809857,-0.029721863428730583,0.0,9600,3.138123035430908,0.23454870328558197,0.2057602431150077,-36.61511709968392,0.0
94,8.272213220596313,-1.333448021978502,55.00141309640819,147.88767543182357,-120.20421342968366,0.0,1.581451268254269,0.1,0.024979829788208008,0.5420949459075928,0.038374513,0.050251223,-47.78220390309126,-1.1905784484521549,-0.013597380467119025,0.0,9600,3.14324688911438,0.27916707705632565,0.24463552317255427,-67.77560366914008,0.0
95,7.327345609664917,10.748526091450591,67.91216505823446,170.9507162796043,-127.64622572316495,0.0,1.5955491888308657,0.1,0.020322322845458984,0.8685183525085449,0.04367732,0.05177602,-41.92913090363707,-1.1625424944731861,0.10718430609408246,0.0,9600,3.148714065551758,0.4910475067385442,0.4109997112052366,-45.89273584546316,0.0
96,9.646668195724487,16.82415011160435,47.34238435346434,138.62362351658172,-112.2105805621575,0.0,1.6697387959950252,0.1,0.026453733444213867,0.6053321361541748,0.043836623,0.057205696,-36.05380280211293,-1.1671776218526861,0.1680189960575461,0.0,9600,2.75356125831604,0.31537978342022893,0.25936694695418666,-53.70790192989723,0.0
97,9.517382144927979,31.177891709471492,59.30893581057943,180.13519930347084,-105.77823223297638,0.0,1.6602921671611377,0.1,0.020005464553833008,0.757028341293335,0.040068816,0.050236106,-29.330633350954493,-1.1491054458486314,0.3115484232979206,0.0,9600,3.340743064880371,0.39718010831210543,0.3434647980680375,-53.95876361690434,0.0
98,9.39156436920166,19.32192407467267,74.25087318961911,194.56851614998945,-141.6392052285199,0.0,1.4095403420498602,0.1,0.020886898040771484,0.63283371925354,0.040464647,0.056155745,-24.46537760839178,-1.1532692153320874,0.19289674942590726,0.0,9600,2.663130760192871,0.5011991031555667,0.43368092939942865,-53.94099920542487,0.0
99,9.761329174041748,34.95263464720666,67.15169859584788,243.88085977821328,-114.14321802006785,0.0,1.5347083161717117,0.1,0.02154707908630371,0.5901095867156982,0.044423886,0.06036934,-18.523576382831937,-1.1279425042323072,0.3491616499073558,0.0,9600,3.716888189315796,0.46215777676506836,0.39811430397533987,-57.27381165714333,0.0
100,9.853286981582642,44.452560935066934,69.80831687508497,252.17459038979672,-126.3076906379114,0.0,1.6011045056723245,0.1,0.013280391693115234,0.4560568332672119,0.042566534,0.055259965,-12.22596265104205,-1.131239199018611,0.44415871984910477,0.0,9600,1.4975619316101074,0.4294335673019118,0.38641582576673095,-55.894085697200374,0.0
101,9.748819589614868,74.99272995629197,66.90695379182968,220.68537676979713,-104.16016479459265,0.0,1.5332422248934434,0.1,0.03276228904724121,0.7002720832824707,0.043229993,0.060065955,-3.5040933903086477,-1.0986635182070275,0.7495691934007983,0.0,9600,2.53741192817688,0.38780559942600124,0.33030436991629875,-62.94341092032916,0.0
102,8.755134105682373,73.96190756813051,70.49366690684285,252.7501864279639,-132.4509468952198,0.0,1.572547835438029,0.1,0.025196552276611328,0.7114465236663818,0.037047703,0.05026594,4.242506705535269,-1.0990780576192725,0.7383092744813485,0.0,9600,2.7498533725738525,0.42962065874871774,0.37347654611070097,-68.09122807736445,0.0
103,8.375178337097168,81.41469584778525,81.26139610080646,265.1916832530214,-115.10842528136297,0.0,1.6466889698250706,0.1,0.022365331649780273,0.6400439739227295,0.035593204,0.049361635,11.959725619760267,-1.0887855899089962,0.8131961110681476,0.0,9600,2.0991978645324707,0.4386395691454443,0.3880645296179438,-71.89593704653043,0.0
104,9.864337921142578,90.01255385183727,74.69589800673067,270.1726863860087,-127.18517196327251,0.0,1.6085452994348588,0.1,0.024233341217041016,0.7433278560638428,0.041772697,0.054345112,19.765008442967968,-1.0818199963096844,0.8996894352751754,0.0,9600,2.820213556289673,0.3900742622137372,0.35405650784573095,-49.84110345214007,0.0
105,8.30687952041626,97.18958515275135,85.67020182059834,275.2300108578142,-125.49238573865394,0.0,1.5729605812347343,0.1,0.03347921371459961,0.6281211376190186,0.041268315,0.05511329,27.507466113946307,-1.0768088932091027,0.9714036640469121,0.0,9600,2.7307257652282715,0.39800836048477584,0.35281878990016846,-36.64229547435411,0.0
106,9.563923358917236,132.00958912583044,76.25483169008442,274.4303209817273,-30.377649997766355,0.0,1.6023337398321988,0.1,0.025374412536621094,0.7021050453186035,0.03616852,0.050471514,37.95767841513472,-1.0592669315866357,1.3186779770116503,0.0,9600,2.528286933898926,0.29575178088874265,0.2445148806266249,-40.460415707523005,0.0
107,9.665440320968628,130.71708248847133,79.26163529056217,272.991560386589,-72.49861786866346,0.0,1.6107005738539668,0.1,0.025805950164794922,0.606356143951416,0.034753423,0.047370076,47.23361882246839,-1.0607325034223498,1.305836151707636,0.0,9600,2.3072705268859863,0.22968451560767963,0.20795219857916045,-81.31461042834543,0.0
108,9.676800966262817,159.98753134502513,81.22789582560544,274.5345400095141,-86.17705429839226,0.0,1.4503809181548708,0.1,0.012578964233398438,0.4113171100616455,0.0359222,0.053200096,58.50901007472407,-1.048116816170151,1.5984941674270248,0.0,9600,1.9862985610961914,0.20275053566415743,0.15736665535335506,-57.913275102238636,0.0
109,9.632756233215332,178.86227346404266,68.51151774976294,271.5374232062245,-3.829999765756798,0.0,1.5352651676593887,0.1,0.026424169540405273,0.5989556312561035,0.03663903,0.052126333,70.54433641365593,-1.038816908726943,1.7863664125464556,0.0,9600,3.043924331665039,0.12339982272046067,0.10273338302901601,-61.86922090349168,0.0
110,8.740925312042236,187.06569989688623,66.19244651594727,281.6108208114564,-25.40581768141645,0.0,1.53973701385496,0.1,0.019437551498413086,0.5957000255584717,0.04231577,0.05588157,82.19647276197895,-1.0332893799685954,1.8683766793629086,0.0,9600,2.305682420730591,0.12696678492603827,0.10136929662726515,-43.848198954359006,0.0
111,9.711555004119873,206.42457865965636,59.171820323954336,277.6576506808863,-3.1797196188165833,0.0,1.579675032830608,0.1,0.015750885009765625,0.47314023971557617,0.035223525,0.048398796,94.6192833517467,-1.0272808232648973,2.0628439899204873,0.0,9600,2.01216459274292,0.09165044518084753,0.07260272330474936,-30.14567377411361,0.0
112,9.682496070861816,208.93773924890823,67.55198691652859,282.6214022556364,0.47117781225351973,0.0,1.6336510177428991,0.1,0.02422308921813965,0.6330814361572266,0.036455706,0.050841648,106.05112894146286,-1.0282581534879858,2.0863490987754783,0.0,9600,2.833249092102051,0.10048097842428474,0.0875891057891125,-39.44202902735813,0.0
113,8.34054684638977,208.99005730330813,61.24224468367656,281.7070019400108,0.5206635443532848,0.0,1.5583811469069795,0.1,0.02279829978942871,0.7407464981079102,0.037636418,0.052625876,116.34502177764739,-1.0249640081948665,2.0880445169760877,0.0,9600,2.554194927215576,0.09664558642071987,0.08351935908990947,-49.398447478809,0.0
114,9.610192775726318,207.18906324027174,78.18693253368016,280.965049798443,-60.10007667461553,0.0,1.632672508425149,0.1,0.017896175384521484,0.5406303405761719,0.041566305,0.05394249,125.42942592390983,-1.02395342281674,2.0700459828150795,0.0,9600,2.076733350753784,0.13873855504311483,0.1041740475476585,-39.50346832056006,0.0
115,8.524583101272583,226.77555668589903,58.92371667466984,282.255571978748,21.608922058841788,0.0,1.4973311778431766,0.1,0.01871466636657715,0.6941707134246826,0.036322795,0.05132336,135.56403900010875,-1.016709502362516,2.264200999927987,0.0,9600,3.330888271331787,0.07560616473313686,0.05737073744151784,-12.250121736968017,0.0
116,8.3107328414917,220.3640366097749,56.362619517853325,281.03139601423464,47.41368249813539,0.0,1.5779293569534967,0.1,0.020676136016845703,0.5272359848022461,0.0356176,0.050415803,144.04403876107537,-1.0158104439640512,2.201371408268002,0.0,9600,2.6797165870666504,0.07576303079732777,0.06167297005743153,-7.300737262684361,0.0
117,9.573576211929321,229.5709794265914,57.81756440498786,281.6450760330457,14.610566275376383,0.0,1.5926532234483695,0.1,0.03025960922241211,0.5621614456176758,0.03757737,0.05191609,152.596732827627,-1.013973296729468,2.2930067007692068,0.0,9600,1.7433104515075684,0.06954942626241609,0.057188095072957086,-7.725283283184547,0.0
118,9.678845405578613,237.90134194551635,50.8666378543807,282.1829066019421,-20.554215993804746,0.0,1.6603586645169057,0.1,0.030875205993652344,0.8136148452758789,0.035371933,0.04705284,161.12719373941593,-1.0132738408626691,2.3758714476526817,0.0,9600,2.317180633544922,0.049329711732235174,0.03663179524034121,-64.76675729744174,0.0
119,9.528908252716064,237.58228669643552,39.81539676084154,283.1817320817639,66.5962795730162,0.0,1.4641707468441212,0.1,0.026009321212768555,0.7262229919433594,0.038355142,0.056228943,168.7727030351179,-1.0145494800658423,2.3726906055223833,0.0,9600,2.80011248588562,0.029861510865472837,0.023486522522210503,-3.2484060398166443,0.0
120,9.751237392425537,249.50734699882727,38.180098367539806,284.60946068895686,102.53014273732931,0.0,1.5818216696452143,0.1,0.018640995025634766,0.5818243026733398,0.038537353,0.052517854,176.84616743148885,-1.0050483888617379,2.492783255210905,0.0,9600,2.434128761291504,0.033982553965708706,0.02871851302301918,-2.5152636268474877,0.0
121,9.629816055297852,246.72479032477068,52.461402384114365,286.33033805637933,-60.16674840139804,0.0,1.433909870037823,0.1,0.019234418869018555,0.5720770359039307,0.04182105,0.053843983,183.83402972081703,-1.0043806800129822,2.4637117586234223,0.0,9600,2.8192081451416016,0.048411570695607656,0.03696355450057172,-50.98261283783701,0.0
122,10.168562412261963,253.0987039760242,28.969403834381787,282.8363005400195,152.12294104897651,0.0,1.6104373228217552,0.1,0.023331403732299805,0.5795845985412598,0.046133786,0.05749411,190.76049714633774,-1.0032754009793434,2.528272750344902,0.0,9600,2.0814902782440186,0.01992909638759941,0.015537388802351313,-1.1499833114823792,0.0
123,8.545160293579102,262.31090808708404,25.162061353635455,285.46256167470375,169.40312790295255,0.0,1.6564343770779164,0.1,0.01606130599975586,0.5837619304656982,0.039829146,0.050837345,197.9155382404124,-0.9990415735204747,2.619562315272162,0.0,9600,2.2207415103912354,0.017408838474179105,0.014026861754845351,3.6392226387117286,0.0
124,8.257101058959961,261.63236684570387,31.027913990227756,283.75046859123114,78.05173700219949,0.0,1.6717325592708039,0.1,0.020998477935791016,0.6217842102050781,0.038763404,0.048802797,204.28722110094154,-0.9981208961968591,2.6123416421061374,0.0,9600,3.2570743560791016,0.02063860208771478,0.01612004962696205,3.0887892544163753,0.0
125,9.917175531387329,262.37243716783337,29.918209706636873,286.9039474956272,137.0569156137189,0.0,1.5153891159062887,0.1,0.022096633911132812,0.5016517639160156,0.040163245,0.05253651,210.09574270763073,-0.9966028478303652,2.6197458023055877,0.0,9600,2.1493382453918457,0.019960648365463,0.016466993388215705,-5.6445864195252495,0.0
126,9.287591695785522,262.44682878880116,29.774962822175578,284.01380441461686,126.31298127558952,0.0,1.552192473772782,0.1,0.02705550193786621,0.7679402828216553,0.03859207,0.051994365,215.3308513157478,-0.9950664619733893,2.620918345146089,0.0,9600,2.1083242893218994,0.017810607424049413,0.01505854998296152,3.255082473778857,0.0
127,9.634660243988037,260.25419087290896,44.97812414635303,286.50161488169664,26.235455077156974,0.0,1.3807450397504666,0.1,0.02028656005859375,0.5486962795257568,0.04184125,0.057507336,219.8231852714639,-0.9943544406439687,2.5989802364736168,0.0,9600,1.844343662261963,0.02813951226644751,0.0235225939914866,-10.016731374752272,0.0
128,8.96751356124878,260.0163626837112,42.75432257180231,285.8175987772383,-5.6581930060597045,0.0,1.5483732339015677,0.1,0.031466007232666016,0.672612190246582,0.04143786,0.052689403,223.84250301268864,-0.9973172316441968,2.5961843198423007,0.0,9600,1.6286191940307617,0.03646311382259944,0.0279512457427257,10.245170751797312,0.0
129,9.519846200942993,257.0446497441416,43.94888641201224,285.683614839692,19.551277150665754,0.0,1.5531565231205648,0.1,0.03136849403381348,0.5831928253173828,0.039422955,0.05133552,227.16271768583397,-0.9966446926848488,2.5673143867075523,0.0,9600,1.8854494094848633,0.04181546019803232,0.029494898497509428,-1.7582550563009796,0.0
130,9.097365140914917,262.27909617917487,34.04362698419822,286.4601811044131,69.69566284245477,0.0,1.5181363398066219,0.1,0.029111146926879883,0.8621764183044434,0.039923064,0.04981735,230.67435553516805,-0.9975645513954353,2.6200819276783665,0.0,9600,2.476745367050171,0.030459683515878386,0.020135055727367606,5.311234127916398,0.0
131,9.343401908874512,267.11770115715746,23.566761846757206,286.2175685971588,118.60168535831733,0.0,1.4849797170585954,0.1,0.028735876083374023,0.600872278213501,0.042167243,0.051623218,234.318690097367,-0.9930775244326915,2.6671843156340276,0.0,9600,2.027103900909424,0.011090263507149126,0.008694277371031275,6.974875134034283,0.0
132,9.537595510482788,265.4490389378155,36.19458480370647,285.7045613255493,26.102001960932682,0.0,1.5586517727518576,0.1,0.027148723602294922,0.5681798458099365,0.038910273,0.046279736,237.4317249814119,-0.9918551427389254,2.650914286250645,0.0,9600,3.931797742843628,0.022291290403093925,0.020014107046712817,19.30438255883271,0.0
133,8.225048065185547,269.45592292961163,20.66985857162834,285.49616581764263,195.88923556030926,0.0,1.6184559719611098,0.1,0.020978927612304688,0.4806833267211914,0.045286927,0.05093472,240.6341447762319,-0.9916094738755176,2.6914151743636645,0.0,9600,2.906611680984497,0.010986111650432466,0.00679254060347424,11.158512629179956,0.0
134,8.35844874382019,271.5657114376225,24.907809747556414,286.01366366381063,155.00800405491827,0.0,1.4853370306088234,0.1,0.01898479461669922,0.4802210330963135,0.04315453,0.055467747,243.72730144237096,-0.9928588611192337,2.711656855096692,0.0,9600,2.172060251235962,0.014033563400849172,0.010053646854496818,-1.774133480519552,0.0
135,9.668883085250854,270.747126261083,28.523549145830984,287.1511678967221,69.1906190392546,0.0,1.6316538411455275,0.1,0.0219576358795166,0.5388462543487549,0.04080842,0.047498547,246.42928392424216,-0.9906660569623004,2.70349513757799,0.0,9600,2.329566478729248,0.018251027255225132,0.012845418641437605,7.867721291334885,0.0
136,9.506169319152832,275.23905396092783,14.41875581892331,288.6964311945305,203.96571280379507,0.0,1.7901714156549906,0.1,0.022556304931640625,0.5005524158477783,0.038629208,0.04518965,249.31026092791075,-0.9852307724995172,2.7483782839566984,0.0,9600,2.856473922729492,0.005970269597489275,0.004797802601208481,3.526315944631483,0.0
137,9.969871759414673,274.0706724208799,25.53934216193301,287.9335482964964,99.57326257184903,0.0,1.582732491785605,0.1,0.022830963134765625,0.8175904750823975,0.040577378,0.048281897,251.78630207720767,-0.984600438625292,2.7367195941588047,0.0,9600,2.0220954418182373,0.009828075715977876,0.0074100359890707556,3.7165769149555725,0.0
138,9.606658220291138,274.9456592353369,15.63458989323107,287.2909945244215,219.05604514201943,0.0,1.6542373017090575,0.1,0.023568153381347656,0.5658695697784424,0.038302302,0.049191397,254.10223779302058,-0.9865182244411795,2.7454603391810544,0.0,9600,2.139218807220459,0.0064343960134445825,0.004980157368433885,-9.368096850321118,0.0
139,9.314646482467651,275.96752724783147,18.279393338004184,287.0344377200598,156.2143556195519,0.0,1.3595633261813047,0.1,0.035393714904785156,0.5864608287811279,0.04236945,0.055339195,256.2887667385017,-0.9846131557589791,2.756114526952041,0.0,9600,2.008225440979004,0.007388490229074224,0.005114030593810654,-9.607807072440147,0.0
140,9.65077257156372,275.3460343551007,20.360829794759283,288.41563525333584,175.43331797448772,0.0,1.6416627637481587,0.1,0.02339911460876465,0.45488977432250977,0.04368492,0.050080426,258.1944935001616,-0.9834658198437154,2.749891496037294,0.0,9600,3.0600082874298096,0.007200556373022446,0.00592335367015035,-0.5243208876379044,0.0
141,8.73659062385559,277.03908129586705,19.9353183861101,287.85165665485863,120.3631155854848,0.0,1.6023886851326055,0.1,0.020504236221313477,0.5368518829345703,0.043984294,0.04926246,260.07895227973216,-0.9801837079959608,2.766814292167586,0.0,9600,3.32159423828125,0.006535378808401802,0.005180011738749151,16.110771126345323,0.0
142,8.542537927627563,275.68693179481244,13.004228334437856,289.190460866401,236.19379777177264,0.0,1.395497497001421,0.1,0.019402027130126953,0.46204137802124023,0.048023522,0.0577672,261.6397502312402,-0.9785201807997898,2.752859632703011,0.0,9600,1.938892126083374,0.0034573548973796573,0.002384787007375476,-9.217035469303651,0.0
143,8.484206438064575,274.2206734163388,23.814548763266053,287.8086509297736,159.58408508431057,0.0,1.4902728806820027,0.1,0.025462865829467773,0.5264122486114502,0.041336972,0.05373496,262.89784254975007,-0.9809874860173512,2.738217799076812,0.0,9600,2.0334627628326416,0.01289773830132376,0.01083070787642657,-8.967289900029986,0.0
144,9.549009561538696,278.4827461713782,19.44378885471129,288.90984270963946,126.38383470149857,0.0,1.5215128030859393,0.1,0.023873329162597656,0.5246603488922119,0.040016346,0.053535454,264.4563329119129,-0.9802822314200769,2.7808268362310096,0.0,9600,3.7227017879486084,0.007679498987690583,0.00589876447148451,-4.0680743886271795,0.0
145,9.806050062179565,280.57788945338643,10.958816896700379,287.9876942368456,234.44143173937277,0.0,1.6489153540329509,0.1,0.023671388626098633,0.5609540939331055,0.042519186,0.048163578,266.0684885660603,-0.9769156743642617,2.8017737080593537,0.0,9600,1.927459955215454,0.003012595170737805,0.0020388425492384545,26.324059231752187,0.0
146,9.600032567977905,279.8490062571334,10.600586470465762,288.6855686787873,209.05268707595638,0.0,1.5388922058429597,0.1,0.025669336318969727,0.5134155750274658,0.045530967,0.05395822,267.4465403351676,-0.9761450814333809,2.794506319273493,0.0,9600,3.5807909965515137,0.0025924451792092382,0.0016924342399969293,-3.780268408432801,0.0
147,9.108011245727539,277.00340012045154,25.390399857970998,289.0161023936976,133.32619059413128,0.0,1.6128880584329865,0.1,0.02232074737548828,0.6799366474151611,0.039683163,0.045540072,268.40222631369596,-0.976007100792207,2.766456873491709,0.0,9600,1.8125998973846436,0.014132641694042616,0.011135458460729695,4.965688489087965,0.0
148,9.640754222869873,283.1880103589054,8.144102486014138,288.6011387697843,222.33690517887496,0.0,1.728333314647429,0.1,0.017436742782592773,0.5354335308074951,0.041822456,0.051320694,269.8808047182169,-0.973301811507651,2.8283122007133366,0.0,9600,2.5800440311431885,0.0037113221675793132,0.0014841973080706543,38.83809155400167,0.0
149,8.536009550094604,282.30443892800236,14.38054095309974,288.6180228077247,185.95910262452162,0.0,1.5377635525814173,0.1,0.016628742218017578,0.4046049118041992,0.04629204,0.050789323,271.12316813919546,-0.9712898603367033,2.8190442579706114,0.0,9600,2.568577766418457,0.004351804822008071,0.001488484663094224,63.78613506440592,0.0
150,8.62570858001709,282.94021377493084,9.545483688000573,289.6368494131708,209.6768533470867,0.0,1.6826200661311004,0.1,0.02392435073852539,0.6307363510131836,0.042579222,0.050383195,272.304872702769,-0.9694262847715868,2.8253985127203776,0.0,9600,2.5246317386627197,0.002677149796124075,0.0019953689629250105,51.28688139260093,0.0
151,9.913737773895264,283.3849059618903,11.129144637435108,290.81409489909834,178.98170767453666,0.0,1.6122587523413747,0.1,0.028965473175048828,0.6222107410430908,0.042148337,0.046405196,273.4128760286811,-0.967848109762786,2.8298441175720677,0.0,9600,1.9803884029388428,0.003377563062905467,0.0027643640855066526,42.92114340906711,0.0
152,8.92958950996399,281.23449793970116,14.429442169107098,290.0349109101447,181.08435741220703,0.0,1.509305474489704,0.1,0.01913905143737793,0.6311485767364502,0.03918302,0.04696439,274.19503821978316,-0.9696614561292792,2.8083442803446346,0.0,9600,2.664576530456543,0.004138639782190914,0.002713251010061719,47.064636398101335,0.0
153,8.592204093933105,285.1238295610343,5.214861793620544,290.05944872312756,258.4697722512165,0.0,1.6004407796110474,0.1,0.017174720764160156,0.5700578689575195,0.043513626,0.054553874,275.28791735390826,-0.9632695483692059,2.8472138334395845,0.0,9600,1.9660165309906006,0.0012224137125700283,0.0005611899844349135,38.61750301963285,0.0
154,9.693507671356201,282.0017089279932,13.523116773693953,290.0177025296116,207.20995160221446,0.0,1.5508005051958906,0.1,0.017296552658081055,0.5377299785614014,0.03975529,0.046836127,275.9592965113168,-0.9666412389519755,2.816015333643179,0.0,9600,2.252366542816162,0.0041837006901261214,0.0023832494219981314,42.870226080861904,0.0
155,8.56410551071167,284.47303170563487,5.705043083327511,290.9032079592883,248.6066753153542,0.0,1.7382371042521712,0.1,0.024722814559936523,0.5292601585388184,0.041225985,0.047276437,276.8106700307486,-0.9672397071766036,2.84071741810852,0.0,9600,2.829254627227783,0.0010634314156908432,0.0005116077387025531,108.18822168077577,0.0
156,8.371299505233765,283.83726809918045,7.864273883071157,290.3179654284273,235.1896143303443,0.0,1.7376860154482132,0.1,0.02014446258544922,0.5381083488464355,0.04421894,0.046803735,277.5133298375918,-0.9686336258498098,2.834362962911515,0.0,9600,1.812230110168457,0.0015152548517427958,0.0013999085412944403,132.71473344729367,0.0
157,8.572196960449219,284.3252486080733,8.71239560405456,289.5861623266318,233.306205581406,0.0,1.5488280587387573,0.1,0.02631688117980957,0.6691734790802002,0.0384889,0.047921635,278.19452171463996,-0.9661530244896839,2.83924180568944,0.0,9600,2.1149473190307617,0.0018249225822471276,0.0015215114008462732,161.20793722225906,0.0
158,8.565054893493652,286.57856764288135,1.886446372956395,289.7524702417389,276.95065143235104,0.0,1.7715890539079757,0.1,0.022821426391601562,0.4149179458618164,0.04659041,0.05587193,279.0329263074641,-0.9621235467688706,2.861771553756615,0.0,9600,1.940577745437622,0.00034787439872003276,0.00012055303167271546,128.82653398634184,0.0
159,8.935666561126709,285.8586377258686,4.815888735252991,290.75706853145795,258.0060508859246,0.0,1.4584899554208015,0.1,0.021003007888793945,0.6961700916290283,0.042689312,0.056474812,279.71549744930456,-0.959003737074484,2.8545952570742963,0.0,9600,2.462714672088623,0.00043752041109435,0.00029986611811850085,121.01257959075376,0.0
160,9.500387191772461,283.8981924856212,9.910922729640099,291.08098124144516,226.8647981686914,0.0,1.5371422779554118,0.1,0.027236461639404297,0.5455541610717773,0.04520759,0.049381677,280.13376695293624,-0.9562393292174581,2.834969830685908,0.0,9600,2.015371561050415,0.0021774422961817453,0.0017688897294336297,133.12507076184312,0.0
161,8.382537603378296,285.88041522249864,6.701451290813755,290.66720996789854,232.091303245691,0.0,1.7087139557355928,0.1,0.025861501693725586,0.6168534755706787,0.047801092,0.053167015,280.70843177989246,-0.9573439936440499,2.8547905027114893,0.0,9600,1.9727704524993896,0.0016519428888420323,0.0009887065456312969,173.6401351866469,0.0
162,7.999791145324707,284.84603462349855,10.470864409194167,290.80813733210084,218.0423623039587,0.0,1.6849955175879483,0.1,0.019155263900756836,0.540273904800415,0.041989587,0.04589141,281.12219206425306,-0.9584593942827192,2.8444620334577304,0.0,9600,2.0585310459136963,0.0024333047739893486,0.0018509364882625951,173.52037793454204,0.0
163,8.405637264251709,286.57696512080895,2.724364659955968,290.13887827793064,272.59549660846017,0.0,1.598506047036361,0.1,0.021419286727905273,0.6086676120758057,0.045550287,0.060239412,281.66766936990865,-0.9601061831809391,2.8617652071094217,0.0,9600,3.6837801933288574,0.0004730044835004979,0.0002068565940157873,177.67675624283217,0.0
164,9.59511113166809,286.65930116181283,4.574325220958099,290.58112411753865,253.1460358692423,0.0,1.7009418967188352,0.1,0.021361589431762695,0.5598080158233643,0.042629533,0.0465093,282.16683254909907,-0.9546068203791079,2.8625791345365967,0.0,9600,1.8379735946655273,0.0005187935231664259,0.0004662789776393455,161.44309274340327,0.0
165,8.56433916091919,285.25712030127585,11.815819502817584,291.79054980592304,196.49895286851734,0.0,1.4954432424782678,0.1,0.017527103424072266,0.4898247718811035,0.047428064,0.049835574,282.4758613243168,-0.953484452585581,2.84855477748407,0.0,9600,1.886681079864502,0.002720687105040479,0.0014959417425528723,185.94692615425157,0.0
166,8.58338212966919,283.67922512228216,20.35560080767938,290.54855917854223,108.33120921970439,0.0,1.3877804111686018,0.1,0.027909040451049805,0.833019495010376,0.047985133,0.051349193,282.5961977041133,-0.9563569462547751,2.8327655801555918,0.0,9600,3.05397629737854,0.00784249887020566,0.0059247392258813,153.5672343061507,0.0
167,9.484854221343994,286.93068465105557,4.568056646470508,291.42457642485044,254.4829226793279,0.0,1.5518001731307673,0.1,0.025943994522094727,0.6358113288879395,0.04218998,0.056354236,283.02964639880753,-0.9525787903090687,2.8653014878452,0.0,9600,3.6768569946289062,0.0010599325742652733,0.0004185283347760235,141.15331547422144,0.0
168,9.588479042053223,283.864131497717,24.91688728925047,289.6261569008867,44.82430612846288,0.0,1.416898080730196,0.1,0.02388143539428711,0.5582318305969238,0.04651228,0.04847468,283.1130949086985,-0.9586955434392067,2.8350589515678237,0.0,9600,2.5851457118988037,0.011274705548504757,0.008553409385531506,153.37038066968464,0.0
169,9.662593603134155,285.14031218504323,10.26029038614768,290.55571252972044,200.39666348260502,0.0,1.601947213454192,0.1,0.018594026565551758,0.49863409996032715,0.04578075,0.056038145,283.31581663633295,-0.9578668727927919,2.847384339458598,0.0,9600,3.088876962661743,0.0023959661354254454,0.001087130181463055,186.01588521934596,0.0
170,8.584118843078613,286.34891737810716,5.276239620491738,290.9189222371091,258.4016060509693,0.0,1.7470138130127228,0.1,0.01727914810180664,0.5639264583587646,0.047626764,0.053273626,283.6191267105104,-0.951211464199965,2.859468334427055,0.0,9600,2.475090742111206,0.0007407395910104257,0.0005104113863565895,194.10819386928134,0.0
171,8.97917890548706,287.25842133256896,2.4434919733242637,290.7841986494259,273.36029291801856,0.0,1.5837168747696317,0.1,0.017931461334228516,0.7140476703643799,0.044111513,0.053202115,283.98305617271626,-0.9533488339360469,2.8685806405468264,0.0,9600,2.1631672382354736,0.00018020310581693736,0.00012574487287737689,222.65793257528276,0.0
172,8.414409637451172,287.226300690309,2.9374600209103936,291.3323440731755,268.13070892374344,0.0,1.7401930204887006,0.1,0.018241167068481445,0.5571012496948242,0.045396984,0.049785037,284.3073806244755,-0.9523970272443153,2.868259893149645,0.0,9600,2.6960837841033936,0.00017182989760039372,0.00014755256410296043,284.1681107390038,0.0
173,9.641053676605225,286.01466089463713,6.053161872339106,292.7632812028011,258.77382508466906,0.0,1.3748681669834142,0.1,0.017735004425048828,0.6945197582244873,0.043128405,0.051188435,284.47810865149165,-0.95213157107595,2.856129196811356,0.0,9600,2.4219276905059814,0.0005803673674410397,0.0005060860640662081,283.4810238707849,0.0
174,10.077881813049316,284.8081026718875,11.054831747619593,290.63869961278556,224.27358102629574,0.0,1.568309828869727,0.1,0.017322063446044922,0.5012075901031494,0.044603765,0.050443657,284.51110805353125,-0.9522277904541805,2.8440752530173135,0.0,9600,1.8402750492095947,0.002663943896480709,0.0021101593040239123,283.98436669714874,0.0
175,9.74893856048584,287.3374713629591,2.9733413583416826,293.3188531454109,272.1246603117405,0.0,1.5838300149275693,0.1,0.023016929626464844,0.6271922588348389,0.043243308,0.05207421,284.79374438447405,-0.9499819585591037,2.869365173789898,0.0,9600,2.328747272491455,0.00033549188376732385,0.00013688000707645482,284.2177400074017,0.0
176,9.875183582305908,286.90663746222845,4.310462580397887,293.2328383226767,263.95603924066273,0.0,1.4819411664535498,0.1,0.016905546188354492,0.49068498611450195,0.046627622,0.05526585,285.0050336922495,-0.9512819021785276,2.8650549016257805,0.0,9600,2.204998254776001,0.00048375419355184727,0.00045786881944682263,284.035895969298,0.0
177,9.671402931213379,287.5273651709078,4.398488363686444,292.0681073245162,255.90265765055295,0.0,1.6815004786314665,0.1,0.022246837615966797,0.5256786346435547,0.04572548,0.04986798,285.2572668401154,-0.9469182080899367,2.8712657685274983,0.0,9600,2.643991231918335,0.00047570349228140494,0.00044867493178012385,283.57149263628565,0.0
178,9.619423866271973,285.52493124384847,13.392288102564118,291.87439850293896,175.96421047529077,0.0,1.377725058103187,0.1,0.0247042179107666,0.738567590713501,0.05056948,0.049648024,285.2840332804887,-0.9475708663975441,2.8512223031980546,0.0,9600,2.857612371444702,0.003913672285388989,0.002745530293961686,283.80121641762275,0.0
179,8.730095863342285,287.2519059092481,4.3723796390857315,291.7380852098073,256.04351423126377,0.0,1.5977609040576235,0.1,0.022471904754638672,0.5982508659362793,0.047366437,0.05046182,285.48082054336464,-0.9479224384887083,2.868491420543313,0.0,9600,2.5013530254364014,0.0003981380449265741,0.000233895882457796,247.03980301601115,0.0
180,8.700406789779663,287.83395141189504,4.356212146461331,293.00760969611866,252.2661987383907,0.0,1.6081666562808539,0.1,0.019122838973999023,0.6561131477355957,0.04170486,0.051276393,285.71613363021766,-0.9449095281084645,2.8743177088486074,0.0,9600,2.3160738945007324,0.0004077486942436138,0.00036315514011856816,226.72128112291253,0.0
181,10.021682977676392,287.4671328229731,7.96185792424034,292.2799678186971,214.16974407716654,0.0,1.7455123056468194,0.1,0.01964402198791504,0.6086690425872803,0.04308094,0.03886702,285.8912335494932,-0.9449834930820699,2.8706422975623216,0.0,9600,1.773803949356079,0.001532585713932461,0.0014690335715109972,194.376082402312,0.0
182,9.636265993118286,286.20014777052035,16.149463397543776,291.6543236133489,134.50698493769093,0.0,1.5853319900269973,0.1,0.024964094161987305,0.4937734603881836,0.041088693,0.043397464,285.92212497159596,-0.9457833909479519,2.857982896854589,0.0,9600,2.0220823287963867,0.005989087886512269,0.004533512916601304,243.19107006975477,0.0
183,9.647079944610596,287.1893476199352,11.478387978004722,292.03456046993205,177.6124615952283,0.0,1.8240746437055664,0.1,0.016434907913208008,0.46643614768981934,0.040486667,0.04339335,286.0488472364299,-0.9440673671044865,2.867869108657432,0.0,9600,3.528944492340088,0.0028561973831714074,0.0018334479644882527,226.90257901304645,0.0
184,9.7343590259552,285.99211779755245,13.275257001239034,291.1403009230898,165.55600555730751,0.0,1.6892102301791114,0.1,0.01796746253967285,0.5192520618438721,0.038447957,0.03995804,286.0431742925422,-0.9480654434316955,2.855901657900914,0.0,9600,2.3152077198028564,0.004069839345830669,0.003435642018907812,283.83569903059055,0.0
185,9.661094188690186,287.92542225571896,3.687654284287609,291.0854900339499,257.11891851505186,0.0,1.6622668717311233,0.1,0.026780366897583008,0.6019396781921387,0.046975806,0.059390273,286.23139908885986,-0.9459974391862375,2.875230062601787,0.0,9600,3.387234926223755,0.0006860957733919254,0.000269684643042673,235.18537815613695,0.0
186,8.455078601837158,287.2714147065262,5.7078165900112445,292.3610613935667,247.701327235269,0.0,1.4845526339026265,0.1,0.019412994384765625,0.6138975620269775,0.04436564,0.055833854,286.33540065062647,-0.9481532348656897,2.86868362545948,0.0,9600,3.141871213912964,0.0005935275340307445,0.00047881134882858586,239.06124829184623,0.0
187,9.803613185882568,287.48295009097137,4.305914999147033,292.6294676918069,254.95785852941393,0.0,1.5979696457775592,0.1,0.014144182205200195,0.3550539016723633,0.04401965,0.04990324,286.450155594661,-0.9473770935391584,2.870812567413599,0.0,9600,1.990002155303955,0.0004539963007301326,0.0003656289761889805,202.67494367307177,0.0
188,9.920118570327759,288.0899170851146,2.6328423312967693,290.93679732326893,266.7883176599681,0.0,1.5352453515113607,0.1,0.027059078216552734,0.5968062877655029,0.04502372,0.050683063,286.61413174370637,-0.945965933317806,2.8768751420669267,0.0,9600,2.4983069896698,0.0001910034575460122,0.00015103140617789203,255.58955789036415,0.0
189,10.198608636856079,288.76783196935565,1.4781999630853027,291.7096991188538,282.08346179465786,0.0,1.5537586481486663,0.1,0.02036309242248535,0.5081508159637451,0.047121186,0.057482153,286.8295017662713,-0.9410816444459607,2.8836473076793667,0.0,9600,1.7814462184906006,5.044457256805113e-05,3.0241896662848738e-05,247.71805895746692,0.0
190,9.763277769088745,288.81937103682736,4.824279970075768,295.0050201802902,247.87369458103677,0.0,1.5389913910552477,0.1,0.018659114837646484,0.543550968170166,0.04701654,0.048089255,287.0284886933269,-0.9355469145348465,2.884163473496015,0.0,9600,2.696592330932617,0.0003872492061950896,0.00037140173499101856,199.11377128794075,0.0
191,8.239296197891235,287.23047400191246,12.564722739914478,292.7806227284668,172.39209903311695,0.0,1.5940968564916362,0.1,0.0666661262512207,0.8186943531036377,0.04891809,0.045227867,287.04868722418547,-0.9413202917471842,2.8682840829227083,0.0,9600,3.657559394836426,0.0023129379698855162,0.0014515083597192136,191.03704339727096,0.0
192,8.538786172866821,288.9198793788085,2.189150792865174,293.17223488205167,276.3373706057344,0.0,1.6138680452286245,0.1,0.024985074996948242,0.6994788646697998,0.04789,0.063467525,287.2358064396478,-0.9380016440791415,2.8851623758297564,0.0,9600,2.284846067428589,0.00032156377481997177,7.809574016991081e-05,283.9469090420191,0.0
193,9.53653883934021,287.96568606993316,4.718504586059509,292.9674529046781,261.68105526677437,0.0,1.4501216163644686,0.1,0.028219223022460938,0.46436023712158203,0.048332512,0.047425207,287.3087944026763,-0.9406232565049771,2.8756370587659847,0.0,9600,4.158548831939697,0.0003778037922807555,0.0003541702752512186,223.28730582535087,0.0
194,9.69195556640625,288.82594039671517,3.535965890148125,292.8679600814242,268.07537314241756,0.0,1.5480098005775387,0.1,0.018034696578979492,0.488527774810791,0.044931106,0.044697966,287.4605090020802,-0.9341053101083062,2.884659031085133,0.0,9600,2.042584180831909,0.00024720548763509096,0.0002030237365863931,207.67397846065606,0.0
195,9.603204488754272,289.20376987256606,3.9857376976634473,294.4390033003898,260.729656655246,0.0,1.6891946983949102,0.1,0.027152061462402344,0.6208310127258301,0.045761067,0.048364602,287.6348350891288,-0.9326245038693542,2.8880039445464587,0.0,9600,3.725815534591675,0.0003618337262114461,0.0003349399302511587,259.7272789010453,0.0
196,9.901605606079102,288.3623927474934,8.334144231099337,295.3285866456528,221.6842636221555,0.0,1.6148327212966895,0.1,0.022568941116333008,0.6991391181945801,0.046669517,0.0447745,287.70759085496525,-0.9351939243213442,2.880026831273053,0.0,9600,1.9238688945770264,0.0014810501232579711,0.0009990806846081805,243.97506689198093,0.0
197,8.64975094795227,289.5332937482571,2.6320745676248682,294.4167437903395,269.49620127496735,0.0,1.6408512115365843,0.1,0.01581859588623047,0.5303220748901367,0.041553184,0.05055307,287.89016114429444,-0.9332006500410929,2.891294299393444,0.0,9600,2.1701881885528564,0.00021946025603935754,9.383208763619976e-05,284.47260465702493,0.0
198,8.62095832824707,287.2933071357816,22.058420591729078,295.46481410615195,74.35697124029288,0.0,1.3276545035154903,0.1,0.018945693969726562,0.5631275177001953,0.044933695,0.051847145,287.8304757434432,-0.9327449814103624,2.868892914569752,0.0,9600,2.8054020404815674,0.009850750560566966,0.007512078413200861,284.5351275134082,0.0
199,8.763530731201172,289.63537357031635,2.734503158854707,296.1147925528016,267.2031391694764,0.0,1.7728234049130382,0.1,0.01804661750793457,0.7314167022705078,0.04647943,0.05517217,288.01096552613046,-0.9315371725466823,2.892320429045307,0.0,9600,2.6056606769561768,0.000824404087302472,0.00022740716401491013,284.20271753405586,0.0
200,9.689749479293823,290.0897303103395,1.607153647238828,294.2321478158155,279.9763338526989,0.0,1.5995878668121426,0.1,0.014518260955810547,0.49497199058532715,0.047902115,0.060818665,288.2188420045514,-0.9294700252739037,2.8968628014867064,0.0,9600,2.525869131088257,0.00011073083804099256,7.652069700855271e-05,285.68442380675185,0.0
201,8.361620426177979,289.466111283247,5.677096688304744,294.28944059719,237.2446313079762,0.0,1.4293850805695434,0.1,0.022017240524291992,0.6432301998138428,0.048285022,0.05100502,288.34356893242096,-0.9310045855601841,2.89062902947545,0.0,9600,3.2785120010375977,0.0007927271096563986,0.0006565514997140744,285.56557811433095,0.0
202,10.002648830413818,289.95867424617944,2.6844898105105663,295.75898357398125,273.9008173916561,0.0,1.4984623632866028,0.1,0.024083375930786133,0.711702823638916,0.045652878,0.063313775,288.5050794637968,-0.9290658734125113,2.895559832163947,0.0,9600,2.1638054847717285,0.00021361136593082183,0.0001406352075688742,285.382495973439,0.0
203,10.052966594696045,289.3253136074708,3.6150922160064205,294.18001859352086,268.2103250436861,0.0,1.3077194121906026,0.1,0.017323970794677734,0.46653056144714355,0.045138344,0.042983413,288.5871028781642,-0.9297064810515527,2.8892029769867253,0.0,9600,2.7094340324401855,0.00012777903363243162,6.732194661027029e-05,285.2851340136137,0.0
204,9.456448078155518,288.61296279489926,7.79068285020118,296.5499040202195,225.7882562710895,0.0,1.5322866170663918,0.1,0.019349098205566406,0.45146965980529785,0.04354001,0.04372358,288.58968886983774,-0.9344338818911968,2.8820919704601144,0.0,9600,2.3336634635925293,0.0011816622659692425,0.0008389002549803015,285.30638638817305,0.0
205,9.619877815246582,290.0057327343213,2.8083399508156455,296.0558131842644,267.320350506357,0.0,1.614483012535345,0.1,0.029908418655395508,0.5299637317657471,0.04707323,0.061157156,288.7312932562861,-0.928330039026848,2.8960442141898484,0.0,9600,2.860091209411621,0.00025624462625423926,0.00014648789328146285,284.72800698033103,0.0
206,7.326716899871826,290.3077722118962,3.018892138158062,296.1992159652002,270.2084142510499,0.0,1.625777847725702,0.1,0.022354602813720703,0.40752339363098145,0.047551632,0.115949176,288.8889411518471,-0.9326311125268442,2.899052788008356,0.0,9600,2.916724443435669,0.00023173511985952923,0.0002260923937233045,290.43563134998215,0.0
207,9.641171216964722,290.10399596564235,9.382904329050149,296.27584510638513,201.2013078804716,0.0,1.2955931113647041,0.1,0.017298221588134766,0.3701186180114746,0.047510367,0.04803907,289.01044663322665,-0.928795320430274,2.8970093722683914,0.0,9600,2.020220994949341,0.0020263839028503575,0.0016771741025305281,290.65645469281196,0.0
208,9.751662254333496,288.0523399412982,17.486559341371493,296.30127990741903,156.4674305705564,0.0,1.5521100757088362,0.1,0.0172426700592041,0.41292715072631836,0.047409758,0.05131751,288.91463596403383,-0.9315162921891348,2.876494905404279,0.0,9600,2.706240653991699,0.006118917286944413,0.0041945819527838945,291.16241574308657,0.0
209,9.759440660476685,290.7437388732437,3.8363415190518944,296.51419463692247,262.9379683061675,0.0,1.5731766487037604,0.1,0.02439570426940918,0.657383918762207,0.049667932,0.06833214,289.09754625495486,-0.9291022070390508,2.903413097123382,0.0,9600,3.205538511276245,0.0006292377216892039,0.0002499735014881482,290.8373265549281,0.0
210,10.21757984161377,291.43618303265947,2.293943703054317,297.22852562488015,286.43532519574154,0.0,1.2794832818064161,0.1,0.03171277046203613,0.5497481822967529,0.047240492,0.15167509,289.33140993272536,-0.9277251218103171,2.91031416021213,0.0,9600,2.3232340812683105,7.230416183447832e-05,4.199577814457669e-05,291.0828389299611,0.0
211,8.803890943527222,292.5018006590515,2.1792148206945874,296.77763739885916,287.4182554501149,0.0,1.2351224079676646,0.1,0.017579078674316406,0.43979310989379883,0.049025573,0.105079405,289.64844900535803,-0.9268490589494273,2.9209821570981744,0.0,9600,2.5588488578796387,4.9753402427386204e-05,5.217078924956483e-05,290.95542622243585,0.0
212,9.515208959579468,293.5116101536251,2.0385809261673615,297.42728943266104,285.3017291581033,0.0,1.550923203953666,0.1,0.025120258331298828,0.5051679611206055,0.047571924,0.06831691,290.0347651201847,-0.9288981141092031,2.931089957346167,0.0,9600,2.6502323150634766,7.941633092968672e-05,5.1869126352000356e-05,290.2939655615706,0.0
213,8.654950141906738,293.2048815666108,5.33184054941847,297.1172398774275,246.96596572170188,0.0,1.7449431865104588,0.1,0.01630997657775879,0.4573063850402832,0.048321374,0.041191988,290.3517767648274,-0.9279544120918812,2.9280095847080356,0.0,9600,1.7239232063293457,0.0006844819248068935,0.0006394134367335084,290.7903432033237,0.0
214,9.630727052688599,293.10299148721515,4.991355011477302,297.83414123440764,256.51027210401736,0.0,1.563656787697474,0.1,0.020903825759887695,0.46336889266967773,0.04517928,0.048598453,290.6268982370662,-0.9273566535099768,2.926998630006258,0.0,9600,3.2576029300689697,0.0005481935655219308,0.00044251447149188576,290.3477381019414,0.0
215,9.33568787574768,293.1859904674981,8.676829966754708,297.7033614730293,211.55816929726677,0.0,1.4788644388944379,0.1,0.024209260940551758,0.5997486114501953,0.050780322,0.046962783,290.8828074601094,-0.925227049328394,2.9278083492918197,0.0,9600,2.8774757385253906,0.001805475203253746,0.0012407484288860743,290.5058944988315,0.0
216,9.534189224243164,293.88601402312133,1.8894879092319201,296.9442478827909,287.7310427327021,0.0,1.5815186080045274,0.1,0.01972365379333496,0.617037296295166,0.047273535,0.06081368,291.1831281164106,-0.9232030661136523,2.934812600589337,0.0,9600,2.621185064315796,0.0003502183923890592,5.4984884284795576e-05,290.6882091115455,0.0
217,8.541593551635742,294.34491513549534,1.722054615187338,298.8280793682445,289.5472773269141,0.0,1.495933855073849,0.1,0.028573274612426758,0.4648623466491699,0.04721892,0.06364768,291.4993068183191,-0.9218694960969241,2.9394092334895636,0.0,9600,2.545427083969116,9.937522581059359e-05,4.3286527662648945e-05,290.77731262798994,0.0
218,9.697259426116943,294.3266332480997,1.7185560516964178,297.8171150543332,288.75367507355435,0.0,1.4416188103980259,0.1,0.02875542640686035,0.5615487098693848,0.04095563,0.05264042,291.7820394612972,-0.9237116677994347,2.9392199651132738,0.0,9600,2.4717957973480225,4.690182159139543e-05,3.41490222722631e-05,291.06254231875056,0.0
219,9.762131690979004,293.9231436069581,6.682953656837423,297.4225262251675,230.37098609767497,0.0,1.5847621789291826,0.1,0.030826091766357422,0.6677346229553223,0.045893073,0.043345604,291.9961498758633,-0.9217651082864194,2.9351709367541687,0.0,9600,2.2027206420898438,0.0005091608084944124,0.00031126186731811697,291.01724372677575,0.0
220,9.700055599212646,293.84905982437454,4.994297639524134,297.78551800342535,252.0386837983343,0.0,1.7798100692800263,0.1,0.035088539123535156,0.5975377559661865,0.04848401,0.043504205,292.1814408707144,-0.9236566494294912,2.9344415526862218,0.0,9600,4.277288198471069,0.0006542572096908017,0.00048417751936845923,290.9778428260177,0.0
221,9.106735706329346,294.61943448264805,1.5052830282599028,298.44687806293194,288.60091593628476,0.0,1.4589396412586064,0.1,0.020081520080566406,0.53908371925354,0.04753033,0.05870963,292.42524023190776,-0.9217349940096738,2.9421326172612403,0.0,9600,2.511958599090576,0.00010837638759392646,3.0629951361857e-05,290.61931955449575,0.0
222,9.684641361236572,294.61010984971784,1.635612512734451,297.59301643010036,288.81799789137233,0.0,1.4604732451974303,0.1,0.030271291732788086,0.7968196868896484,0.045275513,0.05257937,292.6437271936888,-0.9212890360074556,2.9420568928394957,0.0,9600,3.8561322689056396,4.034061661726496e-05,3.4731909863686255e-05,290.4388627103618,0.0
223,9.308264970779419,294.87298755200203,1.881057058256863,298.1658136251077,285.16538964674726,0.0,1.5098366588985876,0.1,0.014622926712036133,0.33863115310668945,0.043947395,0.054403942,292.8666532295201,-0.918424600272063,2.9446648975384044,0.0,9600,1.8946411609649658,6.631156453876062e-05,6.818883497809221e-05,290.4325533917546,0.0
224,10.242136001586914,295.32949430963055,1.1279134190006308,297.4038925199292,291.85349484615193,0.0,1.581363017580173,0.1,0.022977352142333984,0.48717689514160156,0.046146978,0.05640584,293.1129373375312,-0.9157870036239334,2.949241542862786,0.0,9600,2.949949026107788,4.267959240057144e-05,1.8556118375894393e-05,290.4958553836105,0.0
225,9.269705295562744,295.0760293215248,1.7264644700838674,298.3483432379079,289.17061136889834,0.0,1.4806226032126648,0.1,0.019091367721557617,0.6465210914611816,0.045127716,0.04963386,293.3092465359306,-0.917170120736607,2.946703897978114,0.0,9600,2.5617868900299072,4.0037695792425225e-05,3.498606921077929e-05,290.65202162734954,0.0
226,8.53641653060913,295.49854049778247,1.2223571875411419,298.09497226399816,291.2983065517644,0.0,1.610832987404592,0.1,0.019369125366210938,0.39676856994628906,0.046916306,0.057511877,293.5281759321158,-0.9138513290988269,2.950919908588793,0.0,9600,2.2892661094665527,3.0008529854849393e-05,2.158917693828274e-05,291.22260768915936,0.0
227,9.867796182632446,295.5415825702216,1.2583540349327718,298.21085261181355,291.6180684354903,0.0,1.6347508949569103,0.1,0.026923656463623047,0.6921229362487793,0.043198757,0.052541543,293.7295165959264,-0.9138131265160938,2.9513616922852433,0.0,9600,4.129971981048584,2.6239039960405513e-05,2.321023993652219e-05,291.6815544178791,0.0
228,9.976582050323486,295.5128198994998,1.4927858247440808,298.55319095002335,290.1701712895227,0.0,1.5317307232297777,0.1,0.018233776092529297,0.48803067207336426,0.04333487,0.053896733,293.90784692628375,-0.9132848306472722,2.9510677200371,0.0,9600,2.771301507949829,3.057804528764582e-05,3.0118452570057637e-05,291.7648593066116,0.0
229,9.500277280807495,295.8966137602985,1.4364994898544605,299.16810259624333,289.87047146562674,0.0,1.3956318097563858,0.1,0.025584936141967773,0.5160603523254395,0.046663377,0.050815675,294.1067236096852,-0.9092326477991151,2.954923814400825,0.0,9600,1.9542908668518066,3.270584325510456e-05,2.3572959385022222e-05,291.6959936533751,0.0
230,9.834774732589722,295.9750967298678,1.3381171722365326,298.67872319816934,291.94705705145196,0.0,1.4821296124239132,0.1,0.017290115356445312,0.6687846183776855,0.04735801,0.051631417,294.2935609217035,-0.9084674350012891,2.9556803069533655,0.0,9600,3.059401273727417,2.570365489673447e-05,2.4782507550018853e-05,291.589904601812,0.0
231,8.5713050365448,295.9933789058727,1.2660797550868352,299.3803707010454,293.2034375018643,0.0,1.6932545888779795,0.1,0.014661073684692383,0.4861423969268799,0.046728104,0.051581282,294.4635427201204,-0.9091370684055257,2.9558794560955,0.0,9600,2.387356758117676,2.8936918090699102e-05,2.3636495285625174e-05,291.9676211721609,0.0
232,9.197001934051514,295.8436857388837,1.396951827715225,298.8214740498106,290.0536796092391,0.0,1.4920508766597957,0.1,0.020985126495361328,0.6999104022979736,0.04897127,0.060082518,294.6015570219967,-0.9105565099841515,2.9543869035968306,0.0,9600,2.885963201522827,2.3961468446053063e-05,2.369923157085278e-05,291.44939934161346,0.0
233,10.06806230545044,296.18121190127425,1.3372346208893775,299.34063823011877,292.7356026652592,0.0,1.7186458802436906,0.1,0.026236534118652344,0.5628013610839844,0.047655765,0.054979306,294.7595225099245,-0.908051533746804,2.957751401469656,0.0,9600,2.192645311355591,2.9207838732915314e-05,2.9578529171421895e-05,291.68959985159654,0.0
234,9.303846836090088,296.1159240870413,1.425853898459056,298.6505961275351,289.71198775415826,0.0,1.5990260060618957,0.1,0.0208892822265625,0.5375430583953857,0.04613663,0.05737009,294.8951626676362,-0.9079680185592937,2.957093974271595,0.0,9600,2.6042721271514893,4.0846123475128276e-05,3.125925549130602e-05,291.9862304595841,0.0
235,8.485497236251831,295.9838072010507,1.6213988517613556,299.02490525097875,290.52990587868436,0.0,1.344767582504396,0.1,0.01794886589050293,0.49698376655578613,0.048229706,0.049730416,295.0040271209777,-0.9068730548631333,2.955769780559763,0.0,9600,2.893897294998169,3.344302475726238e-05,2.438379596489468e-05,292.03087774762867,0.0
236,8.265373468399048,296.47204362844076,1.3518628563377655,299.08557649366287,290.0010805016949,0.0,1.4180150343377131,0.1,0.022148847579956055,0.5526165962219238,0.04607981,0.057925034,295.15082877172404,-0.9048767859485118,2.960661380629618,0.0,9600,2.347219944000244,2.5966455679359292e-05,2.3393566689579452e-05,292.21071424005675,0.0
237,9.57895016670227,296.55075543215474,1.4132275932003635,299.2998277183298,291.7209993992692,0.0,1.5152574855819299,0.1,0.022713661193847656,0.4962596893310547,0.045470223,0.054997247,295.29082143776714,-0.9041847017207498,2.961454730052541,0.0,9600,2.1012330055236816,2.9825631796307125e-05,2.3024253921932182e-05,291.8809080080629,0.0
238,8.466877460479736,294.97029125794415,14.493192827876504,299.1334346104862,154.6692739378218,0.0,1.6994921619782863,0.1,0.02568221092224121,0.45268821716308594,0.04584086,0.042709295,295.2587684197849,-0.9054621345972679,2.9460896273519115,0.0,9600,3.1047587394714355,0.004305753145688316,0.0020365694610946553,291.4044001244039,0.0
239,9.801533937454224,296.33227298397594,1.5550420494769988,299.1505508477507,289.6607468730371,0.0,1.6533628524773785,0.1,0.01690959930419922,0.4061238765716553,0.04763942,0.059833087,295.366118876204,-0.9043816979702646,2.959271299486209,0.0,9600,1.8485510349273682,0.00014261199454565954,3.908640253816739e-05,291.3895576061882,0.0
240,9.898482084274292,296.2010409763079,1.059094802973759,298.60363949342866,293.4321630690806,0.0,1.7150912300686425,0.1,0.026797056198120117,0.5689620971679688,0.04735137,0.053540174,295.4496110862144,-0.9077310502605993,2.9579515758778925,0.0,9600,2.8379921913146973,2.8761076045840856e-05,2.1544660736288263e-05,291.55856270911545,0.0
241,8.461379528045654,296.3145670849116,1.2318665732957406,298.7100032308453,292.6583917348892,0.0,1.6165100075808043,0.1,0.01983332633972168,0.5699512958526611,0.047589585,0.05193847,295.53610668608417,-0.9063035043498897,2.9590838546496947,0.0,9600,4.076726675033569,3.2868889103824104e-05,2.9990661352759157e-05,291.49740773881115,0.0
242,9.68780517578125,296.22035837782414,1.891216652550432,298.8610248885698,281.44401421084166,0.0,1.634400367800231,0.1,0.02557539939880371,0.4522991180419922,0.04331368,0.04584121,295.60453185525813,-0.9067252472170676,2.9581333020844567,0.0,9600,2.2496542930603027,6.480258418776928e-05,7.554263436729633e-05,291.33589786714344,0.0
243,9.258298397064209,296.6815263241985,1.023806128801903,299.09344285679475,293.6607863966983,0.0,1.7631799539882638,0.1,0.019260168075561523,0.45325422286987305,0.048539672,0.052996516,295.71223130215213,-0.9036942105989172,2.962758400779377,0.0,9600,2.7455594539642334,5.7243143178246434e-05,1.857702011120218e-05,291.46198814854984,0.0
244,9.581561803817749,296.5392079382508,1.347737261504015,299.40068967278506,292.5138532889203,0.0,1.5309052333586977,0.1,0.02462911605834961,0.5139892101287842,0.04920625,0.06509789,295.794928965762,-0.9042805956851385,2.9613128891158715,0.0,9600,1.9190788269042969,2.6092085343636262e-05,2.780862841924208e-05,291.7320163719953,0.0
245,9.91890263557434,294.99682068520434,17.20615211790816,299.86859023124924,128.20787347873738,0.0,1.7566330734543245,0.1,0.017421960830688477,0.5936095714569092,0.04565275,0.040877745,295.7151181377062,-0.9030564564036437,2.945909003420477,0.0,9600,1.8475992679595947,0.0041971106440481755,0.0020422649555347653,291.5707004187405,0.0
246,9.790035963058472,296.7891910237863,1.136769135401732,298.9234161521809,291.91372148036015,0.0,1.4530459494075942,0.1,0.01971125602722168,0.6015346050262451,0.0470755,0.07487692,295.82252542631426,-0.902091251866485,2.9638262390969135,0.0,9600,2.965646743774414,0.0002889044744602388,2.6859411060370284e-05,291.50118051436874,0.0
247,8.965342044830322,296.73429641105946,1.2704958183255382,300.413748674556,292.70509169985587,0.0,1.674747927519762,0.1,0.024944543838500977,0.5293877124786377,0.04938997,0.05911679,295.9137025247888,-0.9027939039703203,2.9632899592293054,0.0,9600,2.7479610443115234,2.9942500157313578e-05,2.6257042776401564e-05,292.298730032494,0.0
248,8.572429180145264,296.777987083075,1.5343575485321121,299.45348682886873,291.2638780978887,0.0,1.512176042487681,0.1,0.027615785598754883,0.5726869106292725,0.049029257,0.050463986,296.00013098061737,-0.9007362010660246,2.9637142723206673,0.0,9600,2.52944278717041,3.3573638355431414e-05,2.6782995621890726e-05,292.7182979913936,0.0
249,9.815977096557617,296.94750515202537,1.422488565128931,300.150261732631,291.24178578189594,0.0,1.692346079642578,0.1,0.0200197696685791,0.440288782119751,0.047384765,0.04924074,296.0948683977582,-0.9001925241194666,2.9654052445127324,0.0,9600,2.2945053577423096,3.9371794932321574e-05,2.793178785199262e-05,292.49552788305465,0.0
250,9.76331639289856,297.06574491977943,1.405860067929677,300.3550467368265,291.05645351054017,0.0,1.4101999365604372,0.1,0.02564215660095215,0.5568170547485352,0.04962067,0.049862526,296.19195604996037,-0.8972909430704744,2.9665929026973057,0.0,9600,2.550248146057129,2.90553313319092e-05,2.646119746119872e-05,292.4763877560717,0.0
251,9.881947040557861,296.82394137743114,1.606384421194159,299.4112365893769,290.5307206208563,0.0,1.6301269077676996,0.1,0.02156662940979004,0.5707507133483887,0.0480425,0.054550886,296.25515458270746,-0.9007435698337508,2.964183447251957,0.0,9600,2.9531588554382324,5.5373684160896664e-05,2.749926260389299e-05,292.36278288707837,0.0
252,9.783936977386475,297.26273932239,1.1661726937372405,299.68994973134767,292.99554531535216,0.0,1.5895097470629769,0.1,0.031166553497314453,0.7034828662872314,0.047264487,0.05852509,296.3559130566757,-0.8975616677522392,2.968551569431863,0.0,9600,2.2300760746002197,2.2918157544920265e-05,2.1795619101395777e-05,292.3481529469471,0.0
253,8.876058578491211,297.3610472932451,1.2592697322634645,300.4449141020512,293.01088150372107,0.0,1.5807292698244377,0.1,0.01762080192565918,0.4958932399749756,0.047659982,0.055673003,296.45642648033265,-0.8965041266631886,2.9695562461330565,0.0,9600,2.353367328643799,2.664328064792244e-05,2.285407198519665e-05,292.29369369447267,0.0
254,10.019956350326538,297.4507508664008,1.16957577818755,300.0745370231978,294.25736847079764,0.0,1.6224077345327863,0.1,0.02484583854675293,0.638948917388916,0.04385661,0.049674954,296.5558589189395,-0.8958950092280888,2.970446990927749,0.0,9600,3.1155507564544678,2.2075627060793272e-05,1.7776009401908418e-05,292.45161059910083,0.0
255,7.82012152671814,297.3508178696142,1.6345644578155611,300.55521168551803,289.42861431345557,0.0,1.5816158753445284,0.1,0.02312302589416504,0.5282940864562988,0.047389064,0.047884703,296.635354814007,-0.8958337846735623,2.969444161090827,0.0,9600,3.000784158706665,4.610257118508083e-05,4.712684939668644e-05,292.52061767858294,0.0
256,9.699818849563599,297.5449379823498,1.4286793580966195,300.387819676689,292.11731547095553,0.0,1.6409143302524003,0.1,0.019641876220703125,0.45131492614746094,0.048122965,0.04312096,296.7263131308413,-0.8951000475003621,2.971380209586465,0.0,9600,2.4065539836883545,3.830990470532189e-05,2.667071640718455e-05,292.46473200546546,0.0
257,9.916474103927612,297.59872978235666,1.2183528178107625,300.4366642231257,294.3506592485893,0.0,1.5186697294658074,0.1,0.019644498825073242,0.5246157646179199,0.048686795,0.047687892,296.8135547959928,-0.8938673684859353,2.9719272381395316,0.0,9600,3.3745460510253906,2.1898561584982943e-05,2.9536449317245756e-05,292.6264434304167,0.0
258,10.069819927215576,297.6594376439261,1.2883870034220184,300.92594566752337,294.373045840283,0.0,1.6302776487992916,0.1,0.016436100006103516,0.4324178695678711,0.047762685,0.059324816,296.8981430807861,-0.8943837485169249,2.972520283043456,0.0,9600,2.070495843887329,3.3838913677282674e-05,2.4776721869691645e-05,292.97835508437396,0.0
259,9.935180187225342,297.8088922755987,1.2775649929287334,300.34609345195383,294.309503582368,0.0,1.563560090494491,0.1,0.013059616088867188,0.5827443599700928,0.046644635,0.057118975,296.98921800026733,-0.8927251688783774,2.9740108696034633,0.0,9600,2.8592686653137207,3.102260780475122e-05,2.5265061938323603e-05,292.73992832009156,0.0
260,9.66139817237854,297.87704997374,1.4947374217538578,300.3100591366768,290.35251072341384,0.0,1.4127867777305776,0.1,0.02382826805114746,0.5802075862884521,0.047785155,0.04641122,297.07800119761464,-0.8908937193517331,2.9747055487266003,0.0,9600,2.42676043510437,2.536655629908806e-05,2.0905019718714228e-05,292.88271924666856,0.0
261,9.989587306976318,298.14015195219366,1.1771858800038018,301.565512103379,295.00395323057205,0.0,1.5388724525569086,0.1,0.015653371810913086,0.5669231414794922,0.046700574,0.06246978,297.1842162730726,-0.8894408241279873,2.9773326189077913,0.0,9600,2.126049280166626,2.3996596643027707e-05,1.991533179694564e-05,292.9367098309072,0.0
262,10.0682954788208,298.1000591446866,1.0396989092591662,300.05258931300546,295.142813665905,0.0,1.6199712181349986,0.1,0.025539398193359375,0.654836893081665,0.046096846,0.059470788,297.275800560234,-0.8898160637847116,2.9769319635660376,0.0,9600,3.228010892868042,2.291268528032518e-05,1.807386906346534e-05,293.0083718777096,0.0
263,9.195079326629639,298.17253108956714,1.2010521293637577,300.73489245612865,291.9166046213674,0.0,1.373554190044089,0.1,0.020041465759277344,0.588944673538208,0.04915477,0.048718803,297.36547361316735,-0.8888021880994827,2.977653743077278,0.0,9600,2.998927593231201,2.0016319177761294e-05,1.8086080957684976e-05,293.2749430526432,0.0
264,9.48160719871521,297.99556525601383,1.3507728631386158,301.12310447668887,290.6530883564127,0.0,1.4906007777220718,0.1,0.02465510368347168,0.588963508605957,0.047861025,0.045891564,297.42848277745196,-0.8906609862362878,2.975890531285362,0.0,9600,1.4515876770019531,2.308767680215453e-05,2.1189263027015045e-05,293.33145918671454,0.0
265,10.062666416168213,298.1726364530332,1.4065279179938919,301.07165430938096,294.08758003836397,0.0,1.3525976700461848,0.1,0.011033296585083008,0.3520817756652832,0.04870988,0.077651694,297.50289814501014,-0.8889974577795975,2.9776595896229865,0.0,9600,1.7233479022979736,3.097005632074524e-05,2.7251907843416975e-05,293.5908693227899,0.0
266,9.84353494644165,298.4873768776792,1.051608170510645,300.72364120862505,295.5812599935387,0.0,1.476756731584391,0.1,0.02026820182800293,0.5614111423492432,0.049218558,0.06994551,297.60134601827707,-0.8863316490833864,2.980789260456804,0.0,9600,3.2387754917144775,2.0989630688156646e-05,2.276707297673939e-05,293.72778032085705,0.0
267,8.9904043674469,298.60138749134404,1.2807575549404226,301.35769254891744,293.7984790065007,0.0,1.5402672318461126,0.1,0.02078723907470703,0.5619511604309082,0.048617624,0.052490447,297.7013501655838,-0.8845707294475486,2.9819290334088593,0.0,9600,1.883876085281372,2.6999599754999364e-05,1.9045226044198043e-05,293.90249531233695,0.0
268,9.729546546936035,298.56645927017234,1.3234354656507066,301.1438038124363,295.65521964387113,0.0,1.4894780572358945,0.1,0.025751352310180664,0.45227527618408203,0.04798587,0.083593465,297.78786107604265,-0.8856541035200737,2.981600513409789,0.0,9600,2.3530726432800293,2.717500273477707e-05,3.337556571164781e-05,294.1772688391596,0.0
269,10.180922269821167,298.5092085924344,1.4548329375282993,302.29266799796534,292.89887985325976,0.0,1.5090345237958236,0.1,0.03958463668823242,0.5716915130615234,0.048636768,0.06831327,297.8599958276818,-0.8850205191090975,2.9810125622258816,0.0,9600,2.5057876110076904,4.16100196198464e-05,2.4803751505217613e-05,294.2193082650179,0.0
270,9.962686538696289,299.03242556083524,1.2586882299033324,301.7686087618138,294.18724847766094,0.0,1.3783384824277667,0.1,0.021918773651123047,0.45222043991088867,0.0483918,0.051431734,297.97723880099716,-0.8805083701510515,2.986266226264359,0.0,9600,1.9006602764129639,2.2832923380946525e-05,1.6407582256874057e-05,294.35911627006084,0.0
271,9.021538257598877,299.02013117233605,1.2232264553305336,302.01570617492786,294.5599051119483,0.0,1.717347302345029,0.1,0.041940927505493164,0.5400381088256836,0.046171453,0.050804026,298.08152803813107,-0.8806041569866299,2.9861198555055672,0.0,9600,3.2830381393432617,1.970421708635911e-05,1.8364285584947657e-05,294.37887465332653,0.0
272,7.867188930511475,299.2087079497393,1.529130755530429,302.87859384553354,294.0626122105984,0.0,1.5420514295898198,0.1,0.028119802474975586,0.6996643543243408,0.04786844,0.059057776,298.19424602929195,-0.8788065737956391,2.988009678726673,0.0,9600,3.8826406002044678,2.5182769700359188e-05,2.0964771676201577e-05,294.5567447774835,0.0
273,9.90649700164795,299.2236179457078,1.5721903171282854,301.92498352538337,294.0812478141226,0.0,1.4998940667607874,0.1,0.027225971221923828,0.583655595779419,0.048468724,0.055549525,298.29718322093356,-0.8779693650826165,2.9881577108259862,0.0,9600,2.342296838760376,2.4239965007786634e-05,2.527641067306605e-05,294.77802412974995,0.0
274,9.862509965896606,299.49197193557796,1.410929418412724,302.5544780171001,292.9571671410128,0.0,1.4680872743026423,0.1,0.025974273681640625,0.6677453517913818,0.048284102,0.06268599,298.416662092398,-0.8761962353886976,2.990844743666965,0.0,9600,2.5054214000701904,2.4102718681555626e-05,1.813471976966397e-05,295.17056250100876,0.0
275,9.837846040725708,299.35511404047156,1.3473100447605488,301.9185005820862,295.7037974672283,0.0,1.567286396720038,0.1,0.030187129974365234,0.7481813430786133,0.045923416,0.055707213,298.5105072872053,-0.8780000073075857,2.9894868427602312,0.0,9600,2.1871280670166016,2.3349462811780676e-05,1.983641390574221e-05,295.7700126107042,0.0
276,9.919334411621094,299.77035080254245,1.3112950477151384,302.9937074015081,295.3653409437633,0.0,1.561503584838364,0.1,0.027148962020874023,0.5040504932403564,0.04747404,0.05971014,298.6364916387391,-0.8743074608865772,2.9936261103871638,0.0,9600,2.247868537902832,2.1675092092321397e-05,1.883745899511386e-05,295.9440068945979,0.0
277,9.89981722831726,299.82504028645553,1.3895639328297162,302.42190422095786,294.43432920332737,0.0,1.5081613303416626,0.1,0.020312070846557617,0.5886378288269043,0.047886282,0.06327102,298.75534650351074,-0.8732036149694178,2.99418294615041,0.0,9600,2.9384560585021973,2.904314061451277e-05,2.5052977001326856e-05,296.13366288299653,0.0
278,9.70711064338684,300.14892176156104,1.6830368339976194,303.47160051334185,291.44840214743,0.0,1.415344759259337,0.1,0.019626617431640625,0.6551423072814941,0.047275517,0.056188073,298.89470402931573,-0.8699507561121657,2.9974156379567507,0.0,9600,2.6480371952056885,3.243770173839227e-05,2.4946139132840728e-05,296.46266718902757,0.0
279,9.74759578704834,300.447103311602,1.4346855715546172,303.5926685242324,296.2387100863388,0.0,1.51202683214216,0.1,0.03266191482543945,0.6457140445709229,0.04900812,0.06369939,299.0499439575444,-0.867382366309483,3.0003918710178823,0.0,9600,4.381111145019531,2.5573963988115783e-05,1.880472771858562e-05,297.63823736313884,0.0
280,8.760179042816162,300.36288514123265,1.7981823934237364,303.79332993788137,292.4266100509952,0.0,1.3150455976221738,0.1,0.019072294235229492,0.5530428886413574,0.04790305,0.050367713,299.1812380759132,-0.8669375539501724,2.999577313185658,0.0,9600,2.7904586791992188,3.4268927028970994e-05,4.70347937740523e-05,297.8445069911719,0.0
281,9.128188133239746,300.7019719398508,1.652815239818448,304.6515535895603,293.789045922358,0.0,1.250225003660923,0.1,0.025991439819335938,0.5392260551452637,0.047256045,0.053697415,299.33331146230694,-0.8637168911519287,3.002944187645126,0.0,9600,2.0609796047210693,5.541314162686336e-05,2.6088903808388053e-05,297.72841655270827,0.0
282,9.876021146774292,300.9279258804086,1.750736321661625,303.68570318409905,290.277480849809,0.0,1.502038354247354,0.1,0.030141830444335938,0.8755016326904297,0.04911475,0.05473915,299.49277290411715,-0.862639506801695,3.005199449163179,0.0,9600,2.6183812618255615,3.578813940437139e-05,3.035960371651193e-05,297.2844654868254,0.0
283,8.993160724639893,301.4466523198357,1.2885949882873091,304.0932187283156,298.24551434190465,0.0,1.4991162631118753,0.1,0.017369747161865234,0.5516386032104492,0.047130227,0.0605531,299.688160845689,-0.8575486289177868,3.0103767906399495,0.0,9600,3.432495594024658,2.6650952301288723e-05,1.6258991009349848e-05,297.45544538261373,0.0
284,9.90794038772583,301.3881041627682,1.4016227194126376,303.7399118341143,296.98905475160586,0.0,1.475910263797632,0.1,0.021379470825195312,0.6535806655883789,0.047663547,0.060730726,299.85815517739695,-0.8578848034112944,3.009788190784747,0.0,9600,3.9365956783294678,1.9448698892515943e-05,2.1330259909654594e-05,297.8698646522602,0.0
285,8.718679666519165,301.38985009252343,1.4372404959880256,303.6901716824151,296.39994508403817,0.0,1.3797324391860188,0.1,0.016309738159179688,0.5467402935028076,0.04449494,0.05209705,300.0113246689096,-0.8573023941515889,3.009816708733044,0.0,9600,2.8180718421936035,2.4597277991871224e-05,1.892490487433431e-05,298.43222657759236,0.0
286,9.924098014831543,301.4075335926031,1.45101534421536,303.9516483761764,296.864539579072,0.0,1.5452139718194753,0.1,0.02070021629333496,0.7074060440063477,0.046783295,0.06255049,300.15094556127895,-0.8580996293073927,3.0099764409560144,0.0,9600,3.5333521366119385,2.094882830444399e-05,2.523326682365507e-05,299.0322948549149,0.0
287,8.858429908752441,299.5361982350359,20.99007317481877,304.05297769769356,95.44371916869716,0.0,1.6886771873878772,0.1,0.024580717086791992,0.643305778503418,0.047677934,0.04161088,300.0894708286546,-0.8559750737910177,2.9912722299784527,0.0,9600,2.408844232559204,0.0057163674397869395,0.0037279032613296093,299.25057002682064,0.0
288,9.740325927734375,301.0943221948924,2.024503804324182,304.1533643384884,293.2908112281316,0.0,1.5005871644172086,0.1,0.024286985397338867,0.5561642646789551,0.045264848,0.06249624,300.1899559652784,-0.857280731498134,3.0068449699709867,0.0,9600,1.8983964920043945,0.0002448844420959811,4.5651738685018326e-05,298.95821838777977,0.0
289,9.901983499526978,301.52164027495223,1.6791115620024715,304.3562581517081,293.84835831835824,0.0,1.5334886773808032,0.1,0.03015613555908203,0.604661226272583,0.047934175,0.06645183,300.3231243962458,-0.8552654947652764,3.011125686593027,0.0,9600,2.9589922428131104,0.00010224089799369667,3.702972920937516e-05,298.71740299717914,0.0
290,9.797844648361206,300.81448155106045,1.8729490950601402,304.4233991438384,295.461628076788,0.0,1.4867131043814434,0.1,0.021982669830322266,0.4406154155731201,0.048972275,0.055137947,300.3722601117273,-0.8594304851830735,3.0040649326677245,0.0,9600,2.5276238918304443,3.909708025698133e-05,3.176024533852755e-05,298.8941948728951,0.0
291,10.085515022277832,301.26205978446865,1.675298182276928,304.7747440619645,294.1892969158323,0.0,1.4968398142776798,0.1,0.028840065002441406,0.6899898052215576,0.046273302,0.057760056,300.46124007900147,-0.8586265321452687,3.008530411908423,0.0,9600,2.8784313201904297,3.221093988693513e-05,2.9709573154851864e-05,298.64427186091854,0.0
292,10.114223718643188,301.4886544166457,1.5584701824855869,305.0707107432801,296.7326482212403,0.0,1.5629073199414367,0.1,0.02549147605895996,0.6298789978027344,0.04896739,0.05408289,300.5639815127659,-0.8570741229331441,3.010802567612931,0.0,9600,2.523022413253784,3.361517954042758e-05,2.50062719942957e-05,299.4280879839405,0.0
293,8.516751289367676,301.83854740826814,1.650449623585039,304.50107370017804,294.9429751071113,0.0,1.3581260009360032,0.1,0.0145416259765625,0.44687318801879883,0.047893517,0.057730082,300.6914381023161,-0.8519982530091865,3.014290700366462,0.0,9600,2.451253652572632,2.895926354679317e-05,2.666264849704043e-05,299.5612309302993,0.0
294,7.72439169883728,301.9705446839427,1.6558030167572837,304.89472879343873,295.6579837002591,0.0,1.47231924072751,0.1,0.01985788345336914,0.3211381435394287,0.046678644,0.05933724,300.81934876047876,-0.8516029047578783,3.0156244025869454,0.0,9600,2.220844268798828,3.306120416658331e-05,3.3168237847898554e-05,299.4625441500614,0.0
295,8.584689617156982,301.87725719614417,1.682870200645654,304.3281402346921,294.76882536961466,0.0,1.4926969107985386,0.1,0.024756193161010742,0.4834153652191162,0.045262218,0.062373053,300.92513960404534,-0.8538167363881607,3.014675559564587,0.0,9600,2.7538580894470215,3.755875950612575e-05,2.9835451463684015e-05,299.45574325054224,0.0
296,9.897082805633545,301.6346606289746,1.7597311856426743,304.8650195571113,294.8051978254864,0.0,1.2509795184804429,0.1,0.02124810218811035,0.658198356628418,0.0463806,0.04702584,300.99609170653827,-0.8543655177951361,3.012251736181365,0.0,9600,2.6588261127471924,3.099952492030168e-05,2.2682421009560172e-05,299.51761475221457,0.0
297,9.103381395339966,302.2209412055863,1.4629608179697993,305.5338143540282,295.3582415402928,0.0,1.4800523782007506,0.1,0.03455972671508789,0.5259630680084229,0.048264697,0.060623117,301.11857665644305,-0.8499709178486811,3.01810777600454,0.0,9600,2.2445545196533203,2.4246351510525424e-05,2.061517740806057e-05,299.92195759584814,0.0
298,8.55381178855896,301.74330960190025,2.121999258844637,305.083794114014,289.29770431594335,0.0,1.2823401519439683,0.1,0.04597616195678711,0.7815029621124268,0.048282113,0.04955102,301.1810499509888,-0.8542717782405456,3.013336318879615,0.0,9600,3.938096523284912,3.643135124110982e-05,2.9323952428070825e-05,299.79878700281284,0.0
299,10.070419311523438,302.0440213581914,1.8577155076545504,305.65107187555964,289.77356340129836,0.0,1.2577351662473726,0.1,0.03061366081237793,0.5324180126190186,0.048815306,0.07554414,301.26734709170904,-0.8516653515065564,3.016332254567608,0.0,9600,2.66279935836792,2.526718529506437e-05,2.286352928881291e-05,299.9310022160654,0.0
300,9.755487442016602,302.26246894687984,1.4753009841352738,305.0800996390894,295.21744505074116,0.0,1.429114747979348,0.1,0.026885271072387695,0.6128597259521484,0.047699537,0.061138045,301.3668592772261,-0.8498482833913171,3.018526513971933,0.0,9600,2.7267072200775146,2.1840634241062482e-05,1.7021016342947437e-05,299.9578901047736,0.0
301,8.679539203643799,302.246139381937,1.4450730634621343,304.8436182126953,296.5006550642973,0.0,1.4468117542583885,0.1,0.022645950317382812,0.7299878597259521,0.047118448,0.0582636,301.4547872876972,-0.8495877778879546,3.0183553934822474,0.0,9600,2.5978925228118896,2.218792846527511e-05,1.9829863170408897e-05,299.9177174377828,0.0
302,8.169819116592407,302.4691904776484,1.5418649452842208,304.9752112535576,292.4040699355491,0.0,1.4541578116238096,0.1,0.026220321655273438,0.5796606540679932,0.047144197,0.0514652,301.5562276066923,-0.846562167585939,3.0205980527797394,0.0,9600,3.223799228668213,4.0846648169440024e-05,3.745949689272533e-05,300.2589395657159,0.0
303,9.746464490890503,300.4709228598363,19.671631444113697,304.91108872716035,109.48516158490125,0.0,1.6062354505355587,0.1,0.025323867797851562,0.5416433811187744,0.047761746,0.04364334,301.4476971320067,-0.8490646302402608,3.001039533924468,0.0,9600,3.41261625289917,0.0060609535410285405,0.003167955172646462,300.36159255157395,0.0
304,8.829724550247192,302.6729948656276,1.2055095381544425,304.69729250894596,300.0093794041619,0.0,1.49364807835604,0.1,0.01606440544128418,0.5640988349914551,0.048757598,0.0706313,301.57022690536877,-0.8463175056739898,3.0226254130778454,0.0,9600,2.4729433059692383,0.000419777362402737,2.7519812728848486e-05,300.0917594609824,0.0
305,8.896234273910522,302.0705100874668,3.958620220714453,304.8287249863377,267.07715881932774,0.0,1.0839112761654406,0.1,0.025010347366333008,0.674741268157959,0.04914194,0.04304987,301.6202552235786,-0.8480971091287436,3.016612474887816,0.0,9600,3.6790688037872314,0.00011490498546281871,7.38963203200363e-05,300.03720833241476,0.0
306,10.2031888961792,302.43046049637775,1.3387205969261824,304.9755901031899,297.99164820074935,0.0,1.6331784199349926,0.1,0.03406333923339844,0.5986244678497314,0.045596503,0.054478284,301.70127575085854,-0.8484825701605865,3.0202094868105847,0.0,9600,2.0536117553710938,4.232985996401113e-05,2.5922232213383827e-05,300.4608880002915,0.0
307,8.911798238754272,302.6630991028872,1.3389563280710477,305.2169901364868,298.48088247850905,0.0,1.7065412175368326,0.1,0.0238800048828125,0.5680346488952637,0.047871497,0.05778595,301.7974580860614,-0.8461650633508988,3.0225224309185723,0.0,9600,2.7202537059783936,3.453036215780894e-05,2.700358692315667e-05,300.7401872781159,0.0
308,9.629173517227173,302.97515160560414,1.2782059496721725,304.91797695595807,298.88281694187754,0.0,1.4765366885429838,0.1,0.019619226455688477,0.5910482406616211,0.04646098,0.058036875,301.9152274380157,-0.84272065396805,3.025641412697371,0.0,9600,3.3278517723083496,2.05999801859225e-05,1.66001843748238e-05,300.87269844035745,0.0
309,9.590841054916382,303.06005669786543,1.1777510253685683,305.5920178410768,299.17862578027433,0.0,1.4802883763823458,0.1,0.021310806274414062,0.6294839382171631,0.0474871,0.059600472,302.02971036400066,-0.8418838808011712,3.026496308798977,0.0,9600,1.5459117889404297,1.5130790111720642e-05,1.5937890940665634e-05,301.33069908860955,0.0
310,9.70238709449768,302.66188731634713,3.3250959772798123,305.4400745575226,275.1317636301802,0.0,1.125057900632287,0.1,0.018075942993164062,0.4460413455963135,0.04862537,0.036422495,302.0929280592353,-0.8429018538598552,3.0225100961980846,0.0,9600,2.526270627975464,6.967293101495776e-05,5.5699212263648034e-05,301.48332832963615,0.0
311,9.563889741897583,302.89549065068024,1.5778219801698716,305.16330573651913,296.88431470798486,0.0,1.4385523682282304,0.1,0.022084951400756836,0.5543365478515625,0.048809517,0.06407933,302.1731843183798,-0.8443985709718792,3.0248522941500084,0.0,9600,2.93550181388855,4.11133931150258e-05,2.9821624932234665e-05,301.0352800389847,0.0
312,8.593515157699585,302.5450622917346,1.674815336216187,310.09378939800706,296.3351418797544,0.0,1.5122727920025418,0.1,0.01994919776916504,0.7202904224395752,0.0473129,0.06146169,302.2103721157153,-0.8477998890744333,3.02134405463817,0.0,9600,1.8920345306396484,2.985408254244756e-05,2.4845560599371737e-05,300.6788774462716,0.0
313,8.773432493209839,303.00863087705125,1.6726209083213608,311.55488612484635,298.3531062150649,0.0,1.305625300257581,0.1,0.022848129272460938,0.70949387550354,0.046715293,0.15587167,302.2901979918489,-0.8446166581662196,3.025976035055635,0.0,9600,2.306525468826294,2.3594756771271257e-05,2.3212613015947266e-05,300.1236912152602,0.0
314,8.724798440933228,302.9868913575999,2.0663025876348224,314.319166260447,299.31347422010856,0.0,1.4675497134587812,0.1,0.028111934661865234,0.556748628616333,0.049399737,0.28992763,302.35986732842406,-0.8464714189322878,3.025768853689715,0.0,9600,3.0855448246002197,3.406644860651622e-05,2.975764830258839e-05,299.51629117281294,0.0
315,8.553743362426758,302.3476768517492,2.0021858437628706,305.4234618388021,294.0292051272304,0.0,1.3626867080420189,0.1,0.01543879508972168,0.41144847869873047,0.049097273,0.049612544,302.3586482807566,-0.8482569767678448,3.0193628837137028,0.0,9600,2.122220993041992,4.071354444809312e-05,2.630469046334785e-05,299.22468162807843,0.0
316,9.819995880126953,302.5059139689345,2.4410894118750575,318.3146308330509,295.55580297942333,0.0,1.2811747402279274,0.1,0.028379201889038086,0.753425121307373,0.048147775,0.15340394,302.3733748495744,-0.8511272046992797,3.020958730835685,0.0,9600,3.952446222305298,3.7442602829913685e-05,3.69928064976219e-05,298.30955996399217,0.0
317,9.980874300003052,304.07695773787833,5.889722160187995,334.18355062645276,298.3205968497716,2.0833333333333335,1.044271064154555,0.1,0.026535511016845703,0.41190195083618164,0.049197163,0.21858963,302.54373313840483,-0.8550775571235736,3.0366690251286994,2.0833333333333335,9600,1.258587121963501,0.0001495498367440369,0.00013841150494303434,298.1492281223475,0.0
318,9.986166715621948,310.0887562919296,10.557471817142373,343.20845713036886,295.67763116111865,13.541666666666666,1.1035823479012128,0.1,0.021608591079711914,0.4499342441558838,0.0493147,0.16846313,303.29823545375734,-0.8549935144015489,3.0967923180474215,13.541666666666666,9600,2.365558624267578,0.0005297530360823563,0.0004940372529906606,326.2108361298903,100.0
319,9.771048545837402,313.5032903818488,11.544654429661048,345.1550519130758,297.30199523598384,19.791666666666668,1.2494403886384031,0.1,0.02478814125061035,0.7739429473876953,0.04863202,0.075589046,304.3187409465665,-0.8601824901672385,3.130940942726708,19.791666666666668,9600,3.0049469470977783,0.0006340240319524881,0.0005745368501696213,334.6817888561749,100.0
320,10.021079778671265,320.88276395604765,12.61064098668099,356.83299710668285,297.37180059932814,45.833333333333336,1.0479566243720766,0.1,0.016922950744628906,0.4542982578277588,0.04972874,0.1210156,305.97514324751467,-0.8550345731095023,3.204732655617599,45.833333333333336,9600,2.723146438598633,0.001057411464336842,0.0006875305583390992,342.9379672988367,100.0
321,10.143194675445557,325.7273604622323,13.692894887117264,359.28386139206395,294.8885218953657,63.541666666666664,1.2521154287365703,0.1,0.01803731918334961,0.646918773651123,0.047232565,0.08165828,307.95036496898643,-0.853389037040643,3.2531857397097674,63.541666666666664,9600,3.6318092346191406,0.0010021727473607243,0.0008569213702105311,343.04763350064934,100.0
322,10.050137042999268,326.98314338891834,14.45094620699043,378.78033744556825,293.1182287485529,66.66666666666667,1.188047349806359,0.1,0.016203880310058594,0.5802395343780518,0.047288373,0.07817101,309.85364281097964,-0.8510481806181293,3.2657367290868797,66.66666666666667,9600,2.124641180038452,0.0010245957452370293,0.0011691408839326375,351.6637445200116,100.0
323,9.942052841186523,331.0482626044773,14.206264574854798,364.9128877863526,297.50742924904165,76.04166666666667,1.1152974710271284,0.1,0.022890806198120117,0.47958803176879883,0.048433132,0.096959524,311.97310479032944,-0.8516111462777062,3.3063887106151006,76.04166666666667,9600,4.689005613327026,0.0013108583591963467,0.0009509041458902981,356.7998302495151,100.0
324,9.866250991821289,338.0567544266519,13.134786832061746,372.33966157066146,301.9912293169526,87.5,1.2280328572320471,0.1,0.027512073516845703,0.7995381355285645,0.04795264,0.08423031,314.5814697539617,-0.8464553504186769,3.376481979009165,87.5,9600,2.5175774097442627,0.0012335043462081878,0.0009009259254292416,362.0269100585541,100.0
325,7.400073766708374,337.23085830966585,18.003035535900015,375.33613686023375,295.6310884446357,80.20833333333333,1.1771728022991195,0.1,0.019602298736572266,0.5326969623565674,0.04967979,0.07216247,316.8464086095321,-0.8441139349416975,3.3682190246315074,80.20833333333333,9600,2.243798017501831,0.0016805776008248007,0.0015902872359821085,366.4855826492734,100.0
326,9.321959495544434,344.16886116869074,17.99245818587888,406.60452361056235,300.3832447179573,87.5,1.1927059637782826,0.1,0.02683734893798828,0.5727686882019043,0.04840446,0.09155706,319.57865386544796,-0.8371693908674711,3.437595312399367,87.5,9600,2.352513551712036,0.0020149567727475682,0.0018019243121609931,370.9614341741123,100.0
327,9.42967438697815,356.4274736399764,16.42675247432891,409.4163754934276,315.85170844320004,97.91666666666667,1.348624412222606,0.1,0.020734786987304688,0.44728660583496094,0.049091037,0.08600389,323.26353584290086,-0.8277098955663806,3.5601839992439204,97.91666666666667,9600,1.7689790725708008,0.0021527426172984333,0.0016320197608810732,367.0334221404693,100.0
328,9.898872137069702,356.81242248458994,20.372177901687348,416.49292855939643,303.1974432389874,91.66666666666667,1.3247132736389322,0.1,0.01873636245727539,0.5825860500335693,0.046235517,0.06495591,326.6184245070698,-0.822838032338912,3.5640350106413954,91.66666666666667,9600,2.255695104598999,0.0025117201997452787,0.002392314854955232,367.3542880121714,100.0
329,9.518357276916504,358.03207151522315,25.38581096839058,425.225506905133,298.06198878466296,90.625,1.3039788089449804,0.1,0.02582526206970215,0.6760239601135254,0.047074903,0.06257637,329.75978920788515,-0.8216066033191441,3.576225245871573,90.625,9600,3.307838201522827,0.004345058133225372,0.00414832426382568,371.5527980254475,100.0
330,9.138358354568481,365.7847960761671,24.926219063366304,421.8733576925151,263.9087909976261,95.83333333333333,1.3823021972775726,0.1,0.017568349838256836,0.40872621536254883,0.04619934,0.067673564,333.36228989471334,-0.8195456117458604,3.6537541072634903,95.83333333333333,9600,1.7428715229034424,0.005270960777679401,0.0044751020462734095,367.8929806832233,100.0
331,9.680312395095825,370.3235690787781,24.048507344347605,431.6460527471534,296.43369231531153,94.79166666666667,1.3395712792210877,0.1,0.019852399826049805,0.43169689178466797,0.0464283,0.068587035,337.05841781311983,-0.8201296769697577,3.6991444437889185,94.79166666666667,9600,3.6097412109375,0.0034371148118311464,0.0030562247464868976,371.93964577815194,100.0
332,8.654350280761719,368.09547477114364,28.834529941286227,417.526843806327,235.47660543548983,93.75,1.468357809539159,0.1,0.019903898239135742,0.6020736694335938,0.046840042,0.053256284,340.16212350892226,-0.8186972085691231,3.6768656874835504,93.75,9600,3.1800801753997803,0.004765304426975895,0.004845627197400571,376.62544220285736,100.0
333,8.419934749603271,380.28091198488795,23.49363370407884,449.27061986027553,306.0341251841154,98.95833333333333,1.449684459089152,0.1,0.020273208618164062,0.4873032569885254,0.047587965,0.07295825,344.1740023565188,-0.8133210931526559,3.7987188736899853,98.95833333333333,9600,1.7198960781097412,0.0042733694715452655,0.0034120778113076477,385.6793645666848,100.0
334,9.661197900772095,390.16534258779893,33.322302192724095,459.14217362704704,300.0977327148821,92.70833333333333,1.4875499182800025,0.1,0.021112680435180664,0.5024268627166748,0.04781306,0.06134271,348.77313637964687,-0.80038076181528,3.8975416609771756,92.70833333333333,9600,2.8419313430786133,0.006945444530120452,0.006132762890045283,381.6923098261815,100.0
335,9.876554727554321,396.7990058381519,32.91075929663524,469.22856096099594,298.727279690892,95.83333333333333,1.4073070332438606,0.1,0.019510984420776367,0.5352969169616699,0.04714183,0.061987445,353.5757233254974,-0.7995595641032898,3.9638983869136197,95.83333333333333,9600,2.678007125854492,0.005689572719040143,0.005290583479473771,390.7892394482747,100.0
336,8.457760334014893,399.8972770573136,36.85542993726125,470.4195326067899,295.69664276214246,94.79166666666667,1.4729936640192278,0.1,0.015308618545532227,0.4010024070739746,0.047357872,0.058091458,358.207878698679,-0.7968657903685658,3.994863350560206,94.79166666666667,9600,2.3560378551483154,0.007640973877708216,0.007123830355003994,386.88940051634154,100.0
337,9.817973136901855,403.2369956458094,28.690477108851052,467.16501082011484,299.42403029270537,97.91666666666667,1.4833639870256052,0.1,0.017522573471069336,0.6322677135467529,0.047052775,0.058725562,362.710790393392,-0.7935599936579614,4.0282633097644345,97.91666666666667,9600,3.984469175338745,0.005146543036462215,0.004824301232270455,391.42075564843003,100.0
338,8.246203899383545,410.3715781223522,42.880589452793615,518.7251329983168,295.99067997302706,95.83333333333333,1.462847463652918,0.1,0.02235555648803711,0.4662456512451172,0.049099594,0.06280316,367.476869166288,-0.7942111789320077,4.099616654953245,95.83333333333333,9600,2.372814655303955,0.009913176002670583,0.00876063876168947,400.20480534793256,100.0
339,8.320423603057861,413.8116913415973,45.30409932966357,485.1258904895652,222.82646186278964,95.83333333333333,1.318899069369184,0.1,0.016219377517700195,0.6051654815673828,0.048812777,0.060938478,372.11035138381897,-0.7907159959585514,4.13401536803137,95.83333333333333,9600,2.613050937652588,0.010740038562457104,0.010033303900033123,408.85519474583856,100.0
340,9.774790048599243,420.39463880842567,43.48997152618464,513.0246835474555,296.255628843962,95.83333333333333,1.5320298930512952,0.1,0.024501562118530273,0.5982851982116699,0.046015456,0.059783775,376.93878012627965,-0.7853249220276881,4.199849913490871,95.83333333333333,9600,2.677659511566162,0.010141241083992327,0.009187213302267292,392.9888851839343,100.0
341,9.317356586456299,431.95368359527475,49.58376774525593,566.4820677462762,243.42068162627072,96.875,1.5011473755438793,0.1,0.02020740509033203,0.6530916690826416,0.04642347,0.0605262,382.44027047317917,-0.781340564571637,4.315449165234294,96.875,9600,2.6913325786590576,0.014446516395042895,0.013151582687456899,385.5055944335345,100.0
342,9.230332374572754,416.6055474026243,54.71044456353534,559.1697257799607,294.19519872200783,88.54166666666667,1.4646785564934295,0.1,0.016086816787719727,0.42818760871887207,0.04835909,0.064556494,385.8567981661237,-0.7854279927756599,4.16194245167647,88.54166666666667,9600,2.617556571960449,0.016394891197386473,0.013889255071166822,402.3052659889823,100.0
343,10.155583381652832,433.56710234545227,52.45051760290914,534.7926571840153,295.1948292598142,93.75,1.492218696759308,0.1,0.02809882164001465,0.7399413585662842,0.047714774,0.0568208,390.6278285840566,-0.7788576153289001,4.331566596462913,93.75,9600,3.3486971855163574,0.013178729237418092,0.011568025765885837,394.1727143938124,100.0
344,9.9753737449646,442.6374175752391,47.67877754600201,522.0782134114585,302.04773949881604,96.875,1.4876051633788454,0.1,0.015364408493041992,0.3660867214202881,0.046247892,0.058577728,395.8287874831749,-0.7738353531415013,4.422267320845736,96.875,9600,1.3160114288330078,0.01220051873515184,0.010880117480599133,398.6923563237041,100.0
345,8.537262201309204,435.57154280224404,57.66848466143652,562.8940833230489,298.4733418178023,96.875,1.6188860269444478,0.1,0.014648914337158203,0.5251016616821289,0.04738698,0.05608646,399.8030630150819,-0.7786188901078251,4.351609917897355,96.875,9600,3.3240208625793457,0.016455938642440646,0.01533108614497703,386.2074689415243,100.0
346,8.809771299362183,451.0406191515638,55.47014189419358,582.03851524338,295.0154334582193,96.875,1.4937263535592473,0.1,0.020411014556884766,0.4144473075866699,0.048965883,0.060375564,404.9268186287301,-0.769390416677557,4.506320347546152,96.875,9600,1.6332430839538574,0.015355512312969275,0.014012271995465264,386.27777481459617,100.0
347,7.643320798873901,444.0546413254736,54.656653992736246,551.6217501108403,285.8989864777917,93.75,1.5191351111185443,0.1,0.012277603149414062,0.38503265380859375,0.04935767,0.055737305,408.83960089840446,-0.7740951277567142,4.436459181366647,93.75,9600,1.8490400314331055,0.014164941241608097,0.012964350798567382,382.0840479350163,100.0
348,9.9105224609375,453.29057794302565,55.48903954692534,584.9371499076062,303.42118280369095,98.95833333333333,1.6358012221704321,0.1,0.027297258377075195,0.4607696533203125,0.0489986,0.058131646,413.28469860286657,-0.7696241450846276,4.528813886804959,98.95833333333333,9600,1.7432775497436523,0.01559647698774261,0.014692556636334616,377.9945656755048,100.0
349,7.724179267883301,449.9399146804588,58.965821953281335,554.4451730016438,292.2340923855213,94.79166666666667,1.5211971955003072,0.1,0.013243913650512695,0.3789823055267334,0.047377687,0.05524222,416.9502202106258,-0.7699369813190634,4.495327262266872,94.79166666666667,9600,1.5372135639190674,0.016525227000758605,0.014338320700894667,373.8576064015401,100.0
350,8.090958833694458,466.44139906805293,56.04285020187437,661.8626504528531,304.0034707614958,98.95833333333333,1.6870227689391684,0.1,0.013865470886230469,0.36606383323669434,0.047403693,0.05943114,421.8993380963685,-0.7628564466459599,4.660308582524923,98.95833333333333,9600,1.6236600875854492,0.015628395242964756,0.014040628454544872,398.86712426144743,100.0
351,8.505773305892944,477.3730224196227,66.01695151384733,679.5733546161682,343.94079045345495,100.0,1.625284058335684,0.1,0.016944169998168945,0.3459491729736328,0.04627225,0.05459198,427.44670652869394,-0.7585128428498589,4.769639377222556,100.0,9600,1.8144423961639404,0.02163205270759778,0.02077124123068458,394.61341287676436,100.0
