iteration,time_sampling,stoc_pol_mean,stoc_pol_std,stoc_pol_max,stoc_pol_min,rollout_success,alpha,delta,time_vpg,time_npg,kl_dist,surr_improvement,running_score,rwd_sparse,rwd_dense,success_percentage,num_samples,time_VF,VF_error_before,VF_error_after,eval_score,eval_success
0,1.832819938659668,-14.439828028812835,14.583760031515245,39.857831469924136,-34.83417628995642,0.0,0.46488354679951815,0.1,0.19493746757507324,0.3600802421569824,0.053953376,0.29455945,-14.439828028812835,-0.16217421339880528,-0.26787418002205593,0.0,2039,0.23259210586547852,1.0023656752668335,0.3052761173604327,3.626574389894084,0.0
1,1.4520232677459717,-14.211592676354451,13.390883655915488,39.8446861840281,-34.899333130195075,0.0,0.7201521841617383,0.1,0.043488502502441406,0.6585245132446289,0.048924983,0.14591788,-14.417004493566997,-0.17257446113328168,-0.2637717662957653,0.0,1980,0.2060232162475586,0.28038039268487563,0.22408199430834386,2.837508751817421,0.0
2,1.7877326011657715,-14.428220789663625,15.588648418397861,91.56529322462069,-33.390070872922905,0.0,0.6841343790317733,0.1,0.0070841312408447266,0.25849127769470215,0.049193885,0.20632325,-14.418126123176659,-0.17121856889711143,-0.2676325242361391,0.0,1967,0.18660187721252441,0.23663396993515548,0.18691480759748355,1.2121022796624836,0.0
3,1.6805670261383057,-14.461711021014267,13.699411991466551,40.29323682610178,-32.326768712254044,0.0,0.6916387881919783,0.1,0.0505826473236084,0.25763463973999023,0.053779226,0.17068172,-14.422484612960421,-0.20249794447708094,-0.2693234711672508,0.0,1941,0.4132697582244873,0.17329282002831659,0.1256301319502759,2.329120666803223,0.0
4,1.621213674545288,-12.058120562781461,18.77065392680985,138.42798891766418,-33.63978931476513,0.0,0.6442192106408842,0.1,0.022342205047607422,0.46832942962646484,0.049258847,0.7803216,-14.186048207942525,-0.10666394425599457,-0.22078992365670866,0.0,1907,0.3061201572418213,0.2085469489555311,0.1787947067943808,1.2352331696105865,0.0
5,1.7593019008636475,-14.4124327527621,11.94977332841411,41.680378163677354,-34.75657038654107,0.0,0.6211213444972407,0.1,0.018114328384399414,0.17612957954406738,0.0549185,0.60547596,-14.208686662424483,-0.15713950079030467,-0.26790655833670685,0.0,1915,0.2501530647277832,0.10857649192993261,0.08860107321100844,0.11230616013307038,0.0
6,1.8643827438354492,-13.870609522367587,18.784087519590933,139.77936468291378,-38.16508099473382,0.0,0.5682477794797463,0.1,0.006333589553833008,0.14266037940979004,0.050182816,5.0842037,-14.174878948418794,-0.19435936058696104,-0.2571863014110787,0.0,1858,0.3107311725616455,0.15343345595483032,0.14046672191193527,6.832815407926578,0.0
7,1.6623268127441406,-12.260517197568126,17.66564313600651,91.19898806988404,-34.0435731597031,0.0,0.6182301349159963,0.1,0.008450984954833984,0.19962072372436523,0.045374706,0.37113714,-13.983442773333728,-0.1424944030551533,-0.2244420958151729,0.0,1899,0.23968911170959473,0.14049752612404354,0.1251271874178003,9.658105577517905,0.0
8,1.5874173641204834,-8.025236632835586,22.949876882046922,151.4595105179157,-29.920544536504778,0.0,0.6070854237036489,0.1,0.006242275238037109,0.21644043922424316,0.054252524,1.651607,-13.387622159283914,-0.03342171888793243,-0.14083894942724792,0.0,1801,0.25230836868286133,0.25273517948374247,0.2249936352044936,4.283164602871536,0.0
9,1.7132573127746582,-12.803529037018313,20.2644449222822,150.88616666738628,-31.55986169688679,0.0,0.6357874092685178,0.1,0.006439685821533203,0.3476543426513672,0.051390838,1.8275553,-13.329212847057356,-0.19213261809919557,-0.23558739583600152,0.0,1814,0.21735930442810059,0.1577313894910735,0.1489808904817798,4.394779745685792,0.0
10,1.659600019454956,-10.516807943779993,14.740765938895994,61.97868671300249,-34.821165991441816,0.0,0.5886894009398786,0.1,0.034017324447631836,0.4986422061920166,0.048512906,0.404282,-13.04797235672962,-0.06649989694594986,-0.19065573981308673,0.0,1769,0.3187124729156494,0.12325160206003609,0.1136946586349163,10.755197843404956,0.0
11,1.988877773284912,-10.669740981052817,20.496953032834146,101.65777448574875,-29.334545542241816,0.0,0.6016761109368592,0.1,0.006537199020385742,0.15431571006774902,0.050231244,0.45339063,-12.810149219161941,-0.14568041087143072,-0.19250591407587694,0.0,1748,0.16766095161437988,0.16197344248132153,0.15177396165879128,26.151837519438565,0.0
12,1.778324842453003,-12.17961942828122,10.944928111661175,30.486272518334633,-27.803526270728156,0.0,0.6742437985802915,0.1,0.021932363510131836,0.4249742031097412,0.048533916,0.3354525,-12.74709624007387,-0.11420548047965694,-0.22327138990602172,0.0,1798,0.16913270950317383,0.04451855332405957,0.03910206364582309,8.252487486845585,0.0
13,1.7685580253601074,-11.699509414423723,10.016807998086533,31.468575469248613,-28.563521633005205,0.0,0.5825396980616037,0.1,0.006103992462158203,0.13628458976745605,0.049346484,0.7070915,-12.642337557508856,-0.06875118682484417,-0.21400946651227937,0.0,1724,0.19999241828918457,0.04078222725652007,0.03683595045468158,6.058208062165598,0.0
14,1.6566035747528076,-11.476352639750708,10.206519098972077,31.555731681495207,-28.816890614243157,0.0,0.6167242496390576,0.1,0.005980491638183594,0.17968988418579102,0.050747916,0.57711023,-12.525739065733042,-0.06532257870127037,-0.21004507177603618,0.0,1704,0.1520853042602539,0.036423401149436915,0.033500976452987746,5.939199029041827,0.0
15,1.4659538269042969,-3.012797366700042,33.71001239721682,212.67022100084145,-27.24714157916386,0.0,0.5484306336686945,0.1,0.008464813232421875,0.16153383255004883,0.048768938,1.6235327,-11.574444895829743,0.0030452941034418146,-0.04102608763818239,0.0,1669,0.1593308448791504,0.5249850267562424,0.5044435504222826,5.899197996395872,0.0
16,1.4386239051818848,-9.378683871137754,14.88236649043128,91.96075457754691,-27.596559883479337,0.0,0.5884597390644127,0.1,0.0065915584564208984,0.1461474895477295,0.05063084,1.4845715,-11.354868793360545,-0.04168759406197128,-0.1677746363252257,0.0,1664,0.15588831901550293,0.10838779080365155,0.09949174091485624,11.80990284118794,0.0
17,1.5920052528381348,-8.858912344424008,13.042161745791574,42.715488205933156,-29.338924342548697,0.0,0.5965452219239427,0.1,0.017102956771850586,0.42148542404174805,0.051196996,0.5563477,-11.10527314846689,-0.0031265659906345978,-0.15824822032685748,0.0,1603,0.3805394172668457,0.07576066606233597,0.07026624764888871,5.901966965331633,0.0
18,1.9974586963653564,-5.953450456627433,18.066200458497782,92.63881499289765,-28.198633711991917,0.0,0.5469709618239872,0.1,0.0082550048828125,0.21338891983032227,0.04857486,0.7998731,-10.590090879282945,0.04799178356208065,-0.10012052366072022,0.0,1582,0.3251619338989258,0.1669091486163797,0.16200631759699702,6.353389644940111,0.0
19,1.677429437637329,-9.066381517218163,19.32136004204792,161.1632764855016,-24.253155859908148,0.0,0.5450444290928452,0.1,0.007411956787109375,0.15699434280395508,0.050802298,10.132192,-10.437719943076468,-0.06770050233969796,-0.16168698020516167,0.0,1518,0.15138840675354004,0.22477093219450325,0.21825830013033093,5.753067022385496,0.0
20,1.5653719902038574,-8.926723961215652,12.16337986802277,63.22915145612946,-22.604126079105676,0.0,0.5720194523912722,0.1,0.007398366928100586,0.18082237243652344,0.04995092,1.2798425,-10.286620344890386,-0.02668105845473677,-0.1586961461334849,0.0,1549,0.14696359634399414,0.09354946974743965,0.09077706823126361,5.877359924643325,0.0
21,1.5913336277008057,-10.605814787043188,9.237369329496621,31.954967058669236,-25.464187316158323,0.0,0.4932427824653387,0.1,0.02008819580078125,0.15838003158569336,0.050375026,14.03039,-10.318539789105667,-0.05716199013830656,-0.1926735939392856,0.0,1516,0.1408686637878418,0.02778614145858266,0.02609974634483671,7.73493711223142,0.0
22,1.5612459182739258,-5.391054298797293,22.320154060818005,162.55905362715635,-21.780803306637935,0.0,0.5148647451327556,0.1,0.016416072845458984,0.14486408233642578,0.04939558,5.349642,-9.82579124007483,0.048806542045573977,-0.08813185908990612,0.0,1475,0.13950514793395996,0.3691811410236569,0.3567961637124673,6.098900165171658,0.0
23,1.279611587524414,-8.372867779129384,10.940426866538656,52.186160454955626,-23.330404885061178,0.0,0.5502266432907148,0.1,0.0061838626861572266,0.2568488121032715,0.052119598,1.2057241,-9.680498893980285,0.02666671425610266,-0.14776500158113073,0.0,1433,0.17623186111450195,0.09795488981940126,0.09140835509985967,5.764413112841053,0.0
24,1.6221444606781006,-5.656942999812377,18.46970306467771,104.43626410117024,-23.20572012744098,0.0,0.5414732288886097,0.1,0.005985736846923828,0.13463664054870605,0.04961327,0.5572798,-9.278143304563494,0.06195533409859747,-0.09465594940109283,0.0,1430,0.13698196411132812,0.4591632118334895,0.4415292307237957,6.462969276399918,0.0
25,1.4212751388549805,-8.961582635815352,16.20817877806352,102.55748021870838,-26.418173256844465,0.0,0.5288315189250058,0.1,0.006390571594238281,0.14647579193115234,0.049278643,0.52679867,-9.24648723768868,-0.09197699829449067,-0.15939543422706512,0.0,1388,0.13607382774353027,0.20430834515287338,0.1962277671284974,6.740195852733121,0.0
26,1.559324026107788,-6.47429470539272,19.589621382877127,124.13048322476837,-21.505345481667177,0.0,0.5406506533061463,0.1,0.007453203201293945,0.17320942878723145,0.04922865,0.9012005,-8.969267984459083,-0.001492725115146151,-0.10977662392596521,0.0,1433,0.20898199081420898,0.3992577035165749,0.38544861026076505,7.494101180309267,0.0
27,1.575563907623291,-6.442001228114648,20.979482253597315,152.88691919717562,-21.032253268298312,0.0,0.5848240061139569,0.1,0.006295204162597656,0.15776610374450684,0.04984011,1.643833,-8.716541308824642,0.006737547086113534,-0.10949353335984757,0.0,1412,0.26488804817199707,0.2979797875552122,0.28619824850996284,6.927703899534272,0.0
28,1.6286942958831787,-6.971379935431732,22.49841168051878,184.28842383379882,-24.884218683828497,0.0,0.5990550702458917,0.1,0.0064427852630615234,0.13846516609191895,0.04973717,1.6600581,-8.542025171485351,-0.005419578039720156,-0.12021394472925917,0.0,1416,0.16339540481567383,0.36195333797001644,0.3565460794301281,7.818542684865481,0.0
29,1.4220194816589355,-2.960920914698286,24.08033854882463,113.57808628447415,-21.511312690561702,0.0,0.5474212640462479,0.1,0.0062444210052490234,0.13538432121276855,0.04923986,0.4104345,-7.983914745806645,0.09134467551380655,-0.03979899718643625,0.0,1411,0.16992449760437012,0.5195671609682815,0.493384654532075,8.914249173922729,0.0
30,1.8567492961883545,-1.1394956680297794,24.045144264770368,111.25268403099483,-22.776543559687468,0.0,0.5857350177991842,0.1,0.022933006286621094,0.33342647552490234,0.048959065,0.3201318,-7.299472838028959,0.18057849616654362,-0.004424743584998669,0.0,1458,0.31239867210388184,0.5243650093585247,0.5015319776960889,8.742711940883444,0.0
31,1.9086167812347412,-6.813659193835361,16.204203867411568,102.67840577374905,-23.877907453998283,0.0,0.5470347627006095,0.1,0.017171859741210938,0.1554117202758789,0.048407204,0.8405062,-7.250891473609599,0.056668543572981095,-0.11690848070042902,0.0,1416,0.1810302734375,0.32024480292167457,0.29743347771418455,8.019486078377968,0.0
32,1.6772990226745605,-3.1502478142641377,25.94158173044758,161.4901083619386,-23.1374283001432,0.0,0.5400779373803982,0.1,0.008855342864990234,0.17005467414855957,0.05041614,0.7271264,-6.840827107675053,0.08355372786885318,-0.04360392732262348,0.0,1382,0.22052574157714844,0.46787154853132024,0.45050756687500976,8.077338521824078,0.0
33,1.5225777626037598,-4.345675565580186,31.050629776127664,234.59677541738824,-21.02699150426439,0.0,0.5658779015881547,0.1,0.0214998722076416,0.1471693515777588,0.051883154,0.58237267,-6.591311953465566,-0.005175826606295115,-0.0680480247751279,0.0,1374,0.23743176460266113,0.70581852793974,0.6556994384838397,7.9952711762002036,0.0
34,1.7909479141235352,-7.417444651521634,18.162019215820788,114.4213639858063,-21.42321937456927,0.0,0.5407168613755943,0.1,0.01612257957458496,0.16681528091430664,0.05114953,0.42035848,-6.673925223271174,-0.04902250659715718,-0.12933176171237348,0.0,1409,0.21042537689208984,0.433521626363396,0.3725457605977732,9.469366385320136,0.0
35,1.8829071521759033,-6.520376356112837,19.552765083956366,143.72741412928085,-22.25601440711743,0.0,0.608296490376348,0.1,0.016252994537353516,0.21784067153930664,0.049446005,0.80789614,-6.65857033655534,0.009535324579071159,-0.11126849649846714,0.0,1416,0.27655029296875,0.4371829843056897,0.43176632678554255,10.035924415374557,0.0
36,1.5664174556732178,-5.717766802433368,22.782278445434933,122.28300164334576,-21.47288800877048,0.0,0.5231262456059216,0.1,0.006280422210693359,0.27386045455932617,0.050034244,1.0319248,-6.564489983143143,-0.02850736200376776,-0.09542885701526194,0.0,1383,0.2746467590332031,0.40746735293984826,0.39302974413150593,11.884408364352028,0.0
37,1.751265287399292,1.3235352875197965,35.21782251310997,172.79510948807584,-19.68281404898371,0.0,0.5576295111152868,0.1,0.00799250602722168,0.18671369552612305,0.050028022,0.87470776,-5.77568745607685,0.15568061003686906,0.04462274245900046,0.0,1422,0.26102709770202637,0.6386316238436159,0.6139287500183698,31.210036849416728,6.25
38,1.624831199645996,-5.163985259512436,18.979424083987812,112.43972283475239,-23.85901624621377,0.0,0.537777791102767,0.1,0.006036281585693359,0.1502997875213623,0.05089964,1.0153848,-5.7145172364204075,0.06977633924820172,-0.08446127046040942,0.0,1364,0.20447015762329102,0.39322630459283997,0.27233852122915503,30.822351041664135,6.25
39,1.6752643585205078,-4.748003649954036,25.887913286483183,161.8594354035077,-24.662049983968025,0.0,0.5412313610627447,0.1,0.006005048751831055,0.135390043258667,0.04865588,0.77284175,-5.617865877773771,0.025782842549117103,-0.07564958382621943,0.0,1373,0.20257902145385742,0.3700951752514687,0.35976447147968704,8.94789525141437,0.0
40,1.6053011417388916,-3.0789491354253173,35.88156555736972,315.25655936699076,-20.193711717860335,0.0,0.6243495491101682,0.1,0.00609898567199707,0.13794684410095215,0.050746016,0.56714445,-5.363974203538926,0.058712276607199486,-0.0429372892779844,0.0,1357,0.2089061737060547,0.8431133438288563,0.80046809015608,8.97772896350047,0.0
41,1.5058274269104004,-2.805391207935903,60.85806733961129,585.962662466488,-20.03125870339325,1.0416666666666667,0.5586389940107072,0.1,0.006063938140869141,0.1337604522705078,0.05013967,0.7153052,-5.108115903978624,0.015687213928686914,-0.036285993690911976,1.0416666666666667,1375,0.21280884742736816,0.8922975153560297,0.871320993617137,9.698495838597921,0.0
42,1.8241221904754639,-3.9934504704869234,20.6069821672832,114.3614199476657,-20.538391022315658,0.0,0.5540095721419283,0.1,0.01775074005126953,0.15775680541992188,0.050385494,0.25834596,-4.996649360629454,0.10532700512016964,-0.061143933850550836,0.0,1375,0.2653353214263916,0.6332479276030545,0.4233844901062637,8.931643213890888,0.0
43,1.8676304817199707,-4.437629481439364,20.57642230980321,122.65234434509571,-20.695085951394184,0.0,0.5610864144584562,0.1,0.03211021423339844,0.19141173362731934,0.050671946,0.3963946,-4.940747372710445,0.10995523940234113,-0.07024914998714625,0.0,1387,0.24304842948913574,0.4616029543043201,0.44701377119472907,18.124266676404808,0.0
44,1.8384735584259033,-6.259127964665075,13.679245817601803,52.80905284672699,-19.053928121189838,0.0,0.5933011410803478,0.1,0.005940675735473633,0.1746997833251953,0.049967617,0.3531197,-5.072585431905908,0.05444250521240495,-0.10661370539251531,0.0,1359,0.23052048683166504,0.21830469513842116,0.1635501411581977,7.084148061283232,0.0
45,1.8175604343414307,-4.728909167370102,28.520688585769733,221.99736183489108,-19.865952278987734,0.0,0.5303638660295992,0.1,0.007464170455932617,0.30356574058532715,0.049434155,1.0721955,-5.0382178054523274,0.03342094552875794,-0.07530077228330258,0.0,1319,0.3317751884460449,0.5547341812032031,0.5356760005410525,7.93141645340695,0.0
46,1.8006141185760498,-4.893869262065895,21.274483715840343,164.15439058368295,-21.830699220447276,0.0,0.5206044434869584,0.1,0.018259763717651367,0.21514606475830078,0.05069473,0.57127774,-5.0237829511136844,0.09436598157115135,-0.07904505593868559,0.0,1348,0.3997349739074707,0.5316292717403054,0.5161395887502433,8.246926589690469,0.0
47,1.757335901260376,-3.9982622014984415,27.17103169304894,134.90565918681247,-19.667222830029168,0.0,0.521734081450396,0.1,0.007359743118286133,0.20321393013000488,0.051787864,0.3900959,-4.92123087615216,-0.00402692509029344,-0.06070188257046019,0.0,1347,0.35898637771606445,0.5295716122778359,0.47263270051500844,9.14751304582479,0.0
48,1.7799553871154785,-8.008491122843894,10.782864621198643,71.72573247745824,-21.312255364398972,0.0,0.5376241108819304,0.1,0.022057056427001953,0.30083632469177246,0.049924422,0.23844811,-5.229956900821334,0.03517647243071561,-0.14153167057412133,0.0,1335,0.39456963539123535,0.5233386805652681,0.172274587331878,9.04497939923989,0.0
49,1.7543981075286865,-4.573272690895672,29.71496454096219,175.55651104909336,-20.656865265592476,0.0,0.5739994629240421,0.1,0.007057905197143555,0.24712681770324707,0.051478174,0.35124937,-5.164288479828767,-0.11753855866310936,-0.07122966462671232,0.0,1334,0.27150774002075195,0.5187190637697814,0.3763332518296817,9.747454216445387,0.0
50,1.5287830829620361,2.1009959275696097,58.72353951171512,432.6758832475851,-20.24424899472297,1.0416666666666667,0.6225868466956732,0.1,0.005978107452392578,0.13223576545715332,0.049076095,0.32820332,-4.437760039088929,0.0003917774966099459,0.06118973693382079,1.0416666666666667,1321,0.2089674472808838,0.7563127847076283,0.718722080502332,9.051514453907297,0.0
51,1.7283008098602295,-1.3575213550041532,25.751919139548434,144.52084170329985,-20.11948389099965,0.0,0.5624700476315793,0.1,0.02152538299560547,0.1474308967590332,0.04963679,0.30786783,-4.129736170680451,0.15157440456247415,-0.008581859704787064,0.0,1350,0.3090522289276123,0.7001058883108316,0.48073048055156503,9.049062317040889,0.0
52,1.717932939529419,-7.433336921498228,11.740706142821448,84.28086863113124,-19.82969924223606,0.0,0.5350104776422177,0.1,0.01691603660583496,0.13700222969055176,0.04937873,0.94144,-4.460096245762229,0.0640347110024415,-0.1298950854866025,0.0,1345,0.22899889945983887,0.3970562881821746,0.2436119963887893,9.071569021707504,0.0
53,1.5790205001831055,0.45651952366218546,34.8839515522539,212.09842497090574,-20.6627333476709,0.0,0.6140034587893897,0.1,0.0062673091888427734,0.264859676361084,0.049629167,0.31851682,-3.968434668819788,0.15455151716568358,0.028793124144331845,0.0,1372,0.3061246871948242,0.6635968914968995,0.5653376861677062,9.028849929178502,0.0
54,1.3868911266326904,-4.838451079252553,14.051412105201683,82.67638464967506,-18.4835950768397,0.0,0.6167369731805897,0.1,0.0344700813293457,0.1696617603302002,0.051025447,0.17073943,-4.055436309863064,0.1590124033532612,-0.07863107423283884,0.0,1383,0.24629688262939453,1.1235003089723437,0.35725249978250573,9.190025563057278,0.0
55,1.5163569450378418,1.3952272422138643,60.55295317460539,556.4284573922956,-20.106469953765348,1.0416666666666667,0.5031017062345532,0.1,0.007521390914916992,0.2455127239227295,0.05019746,0.5661731,-3.5103699546553715,0.06043342541429134,0.04643791504893439,1.0416666666666667,1350,0.30180954933166504,0.884060058023693,0.8043503697721317,8.116408769529507,0.0
56,1.6671690940856934,10.805509955789022,98.70270758229483,896.5695595572872,-20.710127165012963,1.0416666666666667,0.5828434956450921,0.1,0.0069882869720458984,0.33458852767944336,0.05028604,0.45906442,-2.0787819636109317,0.050576899092842686,0.23554297265516674,1.0416666666666667,1360,0.2671933174133301,0.8368931985475958,0.782146285584475,6.3943252585287995,0.0
57,1.6500685214996338,-4.354676698282825,22.32712192339177,127.9115810490917,-20.206120746534378,0.0,0.6038131492934014,0.1,0.005890607833862305,0.17088937759399414,0.051999837,0.164333,-2.306371437078121,0.05852466502615592,-0.06854706542518074,0.0,1359,0.23102259635925293,1.2667600053701402,0.4843573387588127,5.6722169038866666,0.0
58,1.4007196426391602,-6.606276038536104,14.37799229327748,94.08198464421262,-19.946256541818073,0.0,0.5741649562414375,0.1,0.021836042404174805,0.1412501335144043,0.048584737,0.21891423,-2.7363618972239196,0.047896643590406705,-0.1136075011734133,0.0,1351,0.22765469551086426,0.44357222322370643,0.3780498438822144,5.428204457842467,0.0
59,1.3804540634155273,2.9871772745408527,72.42594337630142,676.4441947647081,-19.007981293379462,1.0416666666666667,0.546450852810624,0.1,0.006134510040283203,0.14032554626464844,0.050362412,0.5512077,-2.1640079800474425,0.14458175718634436,0.07811504292357004,1.0416666666666667,1372,0.2252795696258545,0.8904723309813908,0.8206133331504792,5.38444678999877,0.0
60,1.329087257385254,3.0898022251150157,47.13625899901077,284.645548276541,-18.835596227477552,0.0,0.6045419627075094,0.1,0.01611924171447754,0.13260197639465332,0.05087396,0.38325924,-1.6386269595311966,0.11158397918223002,0.08025845467874425,0.0,1355,0.26353979110717773,0.6526833914964825,0.5425036405608574,7.978604133876865,0.0
61,1.5166974067687988,9.348469222746738,103.52522227668345,967.0130459406212,-20.16739720897372,1.0416666666666667,0.5516194402313777,0.1,0.05518698692321777,0.18648314476013184,0.050183762,0.59361124,-0.5399173413034033,0.12207579950262705,0.20626222926117618,1.0416666666666667,1344,0.2519516944885254,0.8562548641579993,0.8055373333498304,7.869841838647069,0.0
62,1.5333077907562256,-5.198021832018342,15.095003939795957,61.36797588807997,-20.129275247177752,0.0,0.605117982748562,0.1,0.01701664924621582,0.26154589653015137,0.049184427,0.14286135,-1.0057277903748973,0.08472749742948603,-0.08582825226549157,0.0,1352,0.284639835357666,3.5412730394990466,0.5897532920348542,7.419430877564777,0.0
63,1.3585176467895508,10.603190516206618,92.14556332304765,695.9574811564219,-20.243918128481265,2.0833333333333335,0.5972596538196923,0.1,0.007616758346557617,0.24374771118164062,0.050071716,0.34734857,0.15516404028325437,0.04208091812253225,0.23111472233682032,2.0833333333333335,1350,0.28316473960876465,0.8502896569315015,0.6379911431283122,6.559094837518577,0.0
64,1.513437271118164,-0.5321256928906232,71.31251773403434,688.6329623976713,-20.479261001424273,1.0416666666666667,0.550788614962171,0.1,0.006165742874145508,0.221144437789917,0.05011863,0.48544654,0.08643506696586661,0.03839245517601545,0.00828018996717004,1.0416666666666667,1318,0.19836187362670898,0.8834357671404612,0.8030451173576825,8.47363431844055,0.0
65,1.5518505573272705,10.975022783380275,120.13927525695459,1127.487757075149,-18.8764879486011,1.0416666666666667,0.5633758114690957,0.1,0.0076656341552734375,0.1480426788330078,0.049155522,0.99952507,1.1752938386073075,0.12028822892281686,0.2382892279544613,1.0416666666666667,1416,0.22856783866882324,0.82323215412324,0.7969332755853558,7.92194063111824,0.0
66,1.5658586025238037,11.84755016483672,106.31297968330232,977.9414032320492,-20.924018304334773,1.0416666666666667,0.6539359284193794,0.1,0.006627082824707031,0.15532422065734863,0.049745798,0.30642867,2.2425194712302488,0.09496527525039178,0.25540206408899907,1.0416666666666667,1437,0.22976088523864746,0.7669887862800232,0.7415388479393209,9.397858411433907,0.0
67,1.3990285396575928,15.038785190211852,121.10237022755732,1118.452094056554,-20.2061059712275,1.0416666666666667,0.5982551356967614,0.1,0.005993843078613281,0.13487696647644043,0.05004462,0.6041066,3.5221460431284095,0.11448334443765036,0.3194693252089273,1.0416666666666667,1410,0.23743915557861328,0.7513256823775599,0.7231696631213322,11.187901171507338,0.0
68,1.4090240001678467,2.738224365497372,68.72420880064134,627.9470130934506,-19.127581359092282,1.0416666666666667,0.525127471469364,0.1,0.006455421447753906,0.13674569129943848,0.049272805,0.6700865,3.443753875365306,0.036029805749879455,0.07366640155267164,1.0416666666666667,1432,0.23946857452392578,0.8070022781678293,0.7261663883486102,11.118892689636672,0.0
69,1.442136526107788,28.80703550244986,183.70013687758876,1259.189215998143,-19.54288109815078,3.125,0.6340659645302891,0.1,0.006179094314575195,0.13643765449523926,0.048314556,0.25782576,5.980082038073761,0.13494050848114933,0.5939894104365959,3.125,1428,0.23254776000976562,0.8499896044928579,0.7160457593878924,9.83722253205966,0.0
70,1.49808931350708,65.17001388974255,234.00241949015876,1241.1582148977373,-19.73944216661178,8.333333333333334,0.6580015618739771,0.1,0.006353139877319336,0.1408243179321289,0.05174072,0.20839992,11.89907522324064,0.18170844664246266,1.3222029561965132,8.333333333333334,1539,0.44537782669067383,0.6347170682734117,0.5626058193273573,9.58523098237901,0.0
71,1.5768845081329346,20.854032882195128,175.72187650500615,1342.4119823138215,-19.799022238642536,2.0833333333333335,0.6439049027105105,0.1,0.0067446231842041016,0.7676694393157959,0.050408978,0.27978712,12.79457098913609,0.1385105237596184,0.43632873752650814,2.0833333333333335,1529,0.23575615882873535,0.7712691660376872,0.6634688590163489,10.123010028208597,0.0
72,1.6815447807312012,54.466090522696824,214.59521810808914,1142.203401338146,-20.198915007946695,7.291666666666667,0.6619816675521307,0.1,0.006311178207397461,0.14468002319335938,0.050114706,0.21529657,16.961722942492166,0.07439261563704024,1.1084005940861352,7.291666666666667,1528,0.2422475814819336,0.5234940765498202,0.4379987582000165,8.931804699931186,0.0
73,1.4594449996948242,28.709798988478926,169.87069324101847,1021.816811259585,-19.805713150205914,4.166666666666667,0.6510540118749171,0.1,0.010174751281738281,0.29761433601379395,0.049745865,0.18698508,18.136530547090842,0.0801503018131611,0.5921918768568201,4.166666666666667,1514,0.311720609664917,0.5890297746867905,0.5447751678652377,9.045623631060103,0.0
74,1.448542594909668,2.4446822459267397,48.78984889289168,310.864457716258,-18.084180619145133,0.0,0.5983707346035373,0.1,0.006319522857666016,0.13701725006103516,0.04973643,0.14839278,16.567345716974433,0.0601400918949341,0.06834937960245892,0.0,1465,0.23844170570373535,1.510464497373851,0.3483445131616008,10.427186031015456,0.0
75,1.4223263263702393,21.851572128259885,166.71310836532652,1122.4390365472384,-18.915306880844486,3.125,0.6275897170997666,0.1,0.006247282028198242,0.163712739944458,0.04932683,0.3102075,17.09576835810298,0.11275627125747095,0.4548139986116224,3.125,1499,0.2345716953277588,0.6471510337373538,0.49975486114088125,9.878440790792359,0.0
76,1.575232982635498,44.789165460168284,222.70909195960587,1313.8382489135706,-20.489962978538117,4.166666666666667,0.6019014891103834,0.1,0.006170988082885742,0.1426992416381836,0.050270583,0.31025696,19.86510806830951,0.09980416675628705,0.915035961298397,4.166666666666667,1527,0.24511313438415527,0.526487506098982,0.4853860508944335,8.51913513876054,0.0
77,1.1632020473480225,27.767894911147923,185.64142913712203,1585.9023011217196,-19.643862375937395,3.125,0.6190752941119283,0.1,0.006820201873779297,0.14700865745544434,0.049959846,0.26974502,20.65538675259335,0.05669862355318598,0.5740063652436116,3.125,1490,0.22791814804077148,0.6160136144331368,0.5877267292372536,8.496799065844868,0.0
78,1.5571637153625488,23.63831770751607,171.64288075815713,1325.1520114889433,-20.629969128622513,2.0833333333333335,0.6121621840101448,0.1,0.006997585296630859,0.14919495582580566,0.05033383,0.2638026,20.953679848085624,0.02713869936293502,0.4923034805625523,2.0833333333333335,1491,0.22685766220092773,0.5307862515386095,0.4564638664933465,8.329208540959339,0.0
79,1.5339117050170898,80.4250693290153,321.6188680504492,1515.4398400867715,-18.973393820080744,6.25,0.6942396813819408,0.1,0.006629467010498047,0.1461784839630127,0.04998974,0.21715507,26.90081879617859,0.10381069443965389,1.6274484649533623,6.25,1621,0.24509906768798828,0.4655958495248735,0.3931036457958431,8.249414516740163,0.0
80,1.6076316833496094,-7.587516788106064,15.581915616169129,86.72162798187055,-19.136558415593434,0.0,0.5959501974069211,0.1,0.006330013275146484,0.14667749404907227,0.05064977,0.13759364,23.451985237750126,-0.03844138513418424,-0.13241289555229044,0.0,1441,0.1973435878753662,43.723445808888975,5.789432711208683,8.160644210175814,0.0
81,1.672135353088379,35.312013692671606,217.47263073210314,1524.875958626551,-20.364737973766537,3.125,0.6554308952398511,0.1,0.0066242218017578125,0.14275479316711426,0.050079267,0.29981828,24.637988083242277,0.11506733621181801,0.7254365642159977,3.125,1553,0.2611379623413086,0.6409424223981786,0.5503606070537995,7.602006659588345,0.0
82,1.5714335441589355,44.126612734081995,210.64158808893174,1394.4236948055157,-19.457607765416192,3.125,0.6664837424771161,0.1,0.05042743682861328,0.5975897312164307,0.05033211,0.19380076,26.58685054832625,0.11659081528357478,0.9015468779436464,3.125,1589,0.3322784900665283,0.5433870030217824,0.5368871664151091,8.131900111312476,0.0
83,1.4137561321258545,34.55420460271123,195.58248108063404,1332.8728284194858,-20.21862552695817,3.125,0.6355114350342913,0.1,0.008552312850952148,0.3921852111816406,0.049691893,0.24684525,27.38358595376475,0.09797944725213996,0.7097002723671465,3.125,1558,0.507544994354248,0.5182599710851609,0.4723181308739138,7.641048487572745,0.0
84,1.900956630706787,12.828939300701526,167.22686341283887,1566.7851024292486,-19.68180477554594,1.0416666666666667,0.6079428154709634,0.1,0.006533622741699219,0.15344572067260742,0.05029167,0.3142879,25.928121288458428,0.004807837981832245,0.2752482693639011,1.0416666666666667,1450,0.2569243907928467,0.39906349719574397,0.36580780785082523,10.182786182147451,0.0
85,2.0149354934692383,49.68032212331269,217.298429621054,1455.0354655596927,-19.80987865935945,6.25,0.7109107928374258,0.1,0.007081031799316406,0.22861552238464355,0.0508531,0.20563088,28.303341371943855,0.08658303277022834,1.0125321691346032,6.25,1593,0.2528228759765625,0.3457617935536475,0.325647737318206,7.533953249940493,0.0
86,1.6955897808074951,23.984802158971714,189.70675227398962,1574.2660716594883,-20.590562982159607,2.0833333333333335,0.7086334972177178,0.1,0.01972222328186035,0.41532421112060547,0.050126813,0.17857443,27.87148745064664,0.040817325326394226,0.49822374543826636,2.0833333333333335,1515,0.3850693702697754,0.6505245848037755,0.5744367232941245,14.02746015393848,0.0
87,1.8511900901794434,37.04299470612002,181.63244787021125,1152.9571928108776,-19.75651520314457,5.208333333333333,0.674213975303406,0.1,0.060477256774902344,0.2067248821258545,0.049618732,0.20098028,28.78863817619398,0.11583252404634474,0.7594850392787001,5.208333333333333,1616,0.48450613021850586,0.3694870636891957,0.3029520219713205,13.597989733392188,0.0
88,2.628052234649658,46.14616911611509,221.4673326845197,1384.9145557229094,-20.038963592365384,4.166666666666667,0.6775979232728763,0.1,0.017907142639160156,0.2908761501312256,0.049839117,0.1856826,30.524391270186094,0.13091459907521982,0.9410660170596055,4.166666666666667,1714,0.2682054042816162,0.493239106685055,0.45742926475878415,9.584427320572281,0.0
89,2.006119966506958,48.66553323640367,229.7086750877411,1294.2516244863803,-20.431042881695724,5.208333333333333,0.6968893024107762,0.1,0.0504145622253418,0.49945712089538574,0.049361486,0.17964831,32.33850546680785,0.04151616205383416,0.9928144962045461,5.208333333333333,1664,0.5438053607940674,0.35616616780880883,0.3203921920798715,13.381127918825957,0.0
90,1.7469871044158936,29.84541647957546,185.22438107236474,1284.0876421490943,-20.234090966001794,2.0833333333333335,0.5998994603195505,0.1,0.04513216018676758,0.2782857418060303,0.049178343,0.40346527,32.08919656808462,0.06699726928314172,0.6160379988204685,2.0833333333333335,1615,0.3624551296234131,0.3305270602705462,0.28498424854240134,7.428798498793173,0.0
91,1.7927889823913574,49.224986394910594,218.24210605385247,1464.1320914364942,-20.950905633130045,4.166666666666667,0.692367279223728,0.1,0.029941797256469727,0.14442014694213867,0.050685618,0.21468602,33.802775550767215,0.10190527464751857,1.0029715058001318,4.166666666666667,1669,0.4622366428375244,0.3294089686642806,0.3081026170140945,7.0992289395188894,0.0
92,1.9092121124267578,56.52932864601627,239.48552831101065,1223.0122339134257,-19.02284538030159,4.166666666666667,0.7145689543371162,0.1,0.0059125423431396484,0.21006536483764648,0.049868044,0.17984572,36.07543086029212,0.15743761156839736,1.150483979830019,4.166666666666667,1808,0.32355594635009766,0.33947267034967454,0.32088531953468796,8.095427640459636,0.0
93,1.8989224433898926,24.043693160851735,157.03411970504874,1246.136461307334,-20.29402240150124,3.125,0.6494525542142403,0.1,0.048003196716308594,0.14809560775756836,0.049895767,0.2221722,34.872257090348086,0.058166128417727204,0.4991662666951922,3.125,1629,0.26353955268859863,0.3077865088944104,0.27996395317663403,10.095733196990173,0.0
94,1.59614896774292,29.55958505404847,176.47883067949226,1063.2984744799205,-19.41366759051144,3.125,0.6179888387302821,0.1,0.004678249359130859,0.1051793098449707,0.049169365,0.26114777,34.34098988671813,0.08371280584617312,0.6101759430478109,3.125,1616,0.18103265762329102,0.30092612258559226,0.29538597565396724,10.205746468874548,0.0
95,1.655930519104004,72.75701898604886,271.8463340586143,1475.0795986077435,-20.857219006285277,7.291666666666667,0.7266680487935769,0.1,0.004378795623779297,0.4430217742919922,0.049860146,0.16965629,38.1825927966512,0.084729395744414,1.4738786405508701,7.291666666666667,1751,0.35069966316223145,0.3870324203699276,0.34846356347598806,10.131661999704761,0.0
96,1.8788042068481445,40.41478433553552,193.51449917963944,1403.423424355655,-19.067486019313783,3.125,0.7357779946654218,0.1,0.02973198890686035,0.32599520683288574,0.048846427,0.165314,38.40581195053963,0.12807049082783536,0.827601631474879,3.125,1755,0.4174833297729492,0.414681904324484,0.3333221685781915,13.787955586865607,0.0
97,2.0370991230010986,23.229614024768367,174.88793018388094,1453.9546541727816,-19.413960407681802,2.0833333333333335,0.6217254175438649,0.1,0.0698850154876709,0.14516305923461914,0.049527436,0.268349,36.8881921579625,0.036714200816452595,0.48229924128462254,2.0833333333333335,1691,0.2881958484649658,0.3127462632939041,0.2800867798634808,10.107397668253977,0.0
98,1.9184110164642334,50.91035739458812,222.5367350266125,1385.4539337328079,-18.45974269189054,5.208333333333333,0.6925977660051609,0.1,0.006223440170288086,0.18973898887634277,0.049253587,0.19501375,38.29040868162506,0.1548490550954118,1.037491434287375,5.208333333333333,1786,0.31567811965942383,0.34400478371335746,0.2930764380850635,9.995653214030986,0.0
99,1.6708030700683594,21.35930708446006,185.9138074903235,1463.6658851048578,-19.72400549029103,2.0833333333333335,0.6545564674617501,0.1,0.02359938621520996,0.14266109466552734,0.04971931,0.18830983,36.597298521908556,0.08993454803967826,0.4461491129339874,2.0833333333333335,1632,0.20061588287353516,0.6143033913558026,0.5613223174881037,10.07349288931498,0.0
100,1.6747987270355225,21.28046514658583,151.45441140434554,1394.1909586818053,-22.283164243773435,1.0416666666666667,0.6803120194487455,0.1,0.0069293975830078125,0.14919066429138184,0.050977908,0.22977991,35.065615184376284,0.030987391863009976,0.4436146562620276,1.0416666666666667,1677,0.18697738647460938,0.6405924434184754,0.5265642959289152,9.942234650326231,0.0
101,1.6642496585845947,77.11474699113337,283.02449505377,1416.153108691566,-21.447417773596364,7.291666666666667,0.6604928565514985,0.1,0.02262139320373535,0.15057682991027832,0.0502107,0.19211823,39.270528365051995,0.08668869810352808,1.5614648463350405,7.291666666666667,1753,0.3075377941131592,0.4018430742713882,0.22384866696025107,9.98585692335643,0.0
102,1.6096856594085693,16.526614174055183,115.87746713143763,701.4348947979984,-19.72749305885637,3.125,0.667985279225499,0.1,0.006261110305786133,0.14566802978515625,0.051022846,0.13526711,36.996136945952316,0.12224270897007315,0.34963373687550353,3.125,1697,0.28568100929260254,0.7594394211602168,0.36390063789005817,10.023737485269583,0.0
103,1.7455153465270996,30.946235374669698,176.82196851621586,1233.725870981198,-19.70305946823677,2.0833333333333335,0.6709949215743287,0.1,0.01644730567932129,0.2027888298034668,0.04976069,0.20863232,36.39114678882406,0.11391284029827912,0.6378921855631208,2.0833333333333335,1695,0.21469807624816895,0.4893112017464627,0.45559903414555436,9.986343549177713,0.0
104,1.4862639904022217,56.02773537202598,286.7591742652191,1716.6004255443459,-21.530425450164945,4.166666666666667,0.6412154065975214,0.1,0.03529167175292969,0.18614554405212402,0.04902791,0.22605878,38.35480564714425,0.08753630094350455,1.1402024611817998,4.166666666666667,1730,0.4447152614593506,0.3786931482749541,0.3059509400681056,10.157479303606236,0.0
105,1.6160714626312256,6.92017168805148,88.37191291269649,611.8258080674702,-19.97209241105817,2.0833333333333335,0.634679225219695,0.1,0.06856703758239746,0.34044480323791504,0.05017139,0.15322085,35.211342251234974,0.05507818691383474,0.1570602145472749,2.0833333333333335,1631,0.40819287300109863,1.2093840885617135,0.43263277931266525,10.207405999553888,0.0
106,1.798140525817871,32.683320927207596,205.70664921347844,1624.3803768320481,-19.23751173682522,3.125,0.6914747472822267,0.1,0.006885528564453125,0.19529056549072266,0.05020889,0.316338,34.95854011883224,0.12468265185219278,0.6724248997171655,3.125,1676,0.268355131149292,0.3587764666568851,0.32840462103726864,10.1955016458546,0.0
107,1.4369397163391113,12.436595648295901,132.63638626998096,1246.4805962565215,-19.053699057796493,1.0416666666666667,0.6431565199171297,0.1,0.03523874282836914,0.31290435791015625,0.049969215,0.26260737,32.70634567177861,0.05348114146588976,0.26762739083012943,1.0416666666666667,1627,0.2721211910247803,0.28531815220607115,0.25556381966282105,10.119950713340351,0.0
108,1.4860260486602783,102.31459537298913,335.2350580677358,1326.2053347576978,-22.560666981065644,9.375,0.7315636525715691,0.1,0.0063059329986572266,0.1384422779083252,0.050251618,0.17821969,39.66717064189966,0.13729029894757253,2.0646410118755303,9.375,1914,0.45857739448547363,0.3568514958122144,0.23229945365800184,8.668689614325224,0.0
109,1.734321117401123,74.19636558559718,264.16340618902,1575.318951164402,-17.934017214182205,7.291666666666667,0.7357935166030344,0.1,0.006858348846435547,0.14580202102661133,0.04993533,0.14315942,43.12009013626941,0.12136978384593654,1.5028427944367528,7.291666666666667,1827,0.29005885124206543,0.28893477538591816,0.26589847243736614,10.105287524550203,0.0
110,1.8094005584716797,28.386455942334198,157.17823272561844,893.2249494572286,-21.13967695520721,4.166666666666667,0.6572050141232259,0.1,0.00442957878112793,0.09535074234008789,0.05033643,0.1458624,41.64672671687589,0.05244027979418586,0.5872727643420731,4.166666666666667,1701,0.1662607192993164,0.6865376389995345,0.4200625454958583,10.125792176575438,0.0
111,1.5509912967681885,45.706209992161085,241.1559335807751,1574.3700678383634,-20.04672029386694,4.166666666666667,0.7303806818718613,0.1,0.00635981559753418,0.13205885887145996,0.050023038,0.16604802,42.05267504440441,0.036651992012424944,0.9331645324820032,4.166666666666667,1701,0.2698557376861572,0.4682533144231945,0.428354768217047,10.121600617668022,0.0
112,1.5270013809204102,42.96229697813343,209.11347286723887,1584.4802372466204,-18.2383952227647,4.166666666666667,0.706479859681843,0.1,0.026240825653076172,0.18642950057983398,0.04980989,0.18956141,42.14363723777731,0.13661230917919273,0.8782993846496945,4.166666666666667,1745,0.31678056716918945,0.3949323715088203,0.38548038963278664,10.162411270274596,0.0
113,1.536616563796997,26.784408228406903,150.27773075171638,923.2998169299051,-20.16129009059607,3.125,0.7045557224774504,0.1,0.006121635437011719,0.15302515029907227,0.0497595,0.14551106,40.607714336840274,0.12238221028831714,0.5536798354837797,3.125,1758,0.2869536876678467,0.4429541568847827,0.4017271599092417,9.605115087172276,0.0
114,1.4388105869293213,46.09280783963995,200.4503346838697,1266.4040465274709,-19.816974420341843,4.166666666666667,0.7190088943779507,0.1,0.006838321685791016,0.12375998497009277,0.049323834,0.17299344,41.156223687120246,0.12940938763970866,0.9410224214718239,4.166666666666667,1772,0.22965049743652344,0.4211626671517823,0.39623988873636645,8.175389627514196,0.0
115,1.5284545421600342,34.90655979184593,195.2807365404517,1394.8074851917127,-19.522884366402604,3.125,0.6984178610087516,0.1,0.05416107177734375,0.14009356498718262,0.0510643,0.14883478,40.531257297592816,0.14873376650484768,0.717208403158049,3.125,1758,0.21128153800964355,0.5440128275528185,0.4857268868106685,9.461780065390244,0.0
116,1.5154013633728027,56.441770912459965,253.3235286104553,1586.7876231803227,-19.498045847234117,5.208333333333333,0.7753725702453849,0.1,0.017374277114868164,0.11535072326660156,0.049663782,0.16353029,42.122308659079536,0.06544003017750265,1.1478652593926868,5.208333333333333,1786,0.19011187553405762,0.3790460967542895,0.21629251786431636,9.400036716633096,0.0
117,1.5383687019348145,60.36374195509989,239.92421766355386,1767.5684989271888,-19.585596069407956,7.291666666666667,0.8125289775638496,0.1,0.006469249725341797,0.1406698226928711,0.051377,0.2234178,43.946451988681574,0.08813287740220747,1.2266672782599979,7.291666666666667,1834,0.21582508087158203,0.3660685626773085,0.3391159591326324,9.423652320791053,0.0
118,1.4518797397613525,22.29942535554601,184.62045276022127,1594.6314533754999,-19.153744387692175,2.0833333333333335,0.7049247286923949,0.1,0.006234884262084961,0.14607739448547363,0.04969899,0.16071115,41.78174932536802,0.09995594140074647,0.46550106201396807,2.0833333333333335,1687,0.27753424644470215,0.5936733672468533,0.5398865038549124,9.510057642702218,0.0
119,1.5300328731536865,44.10321999747412,217.43260132630434,1262.2933489662669,-20.025742044322847,5.208333333333333,0.5899318033216869,0.1,0.03840446472167969,0.1349165439605713,0.049140014,0.26187047,42.01389639257863,0.025958904306439965,0.9010023181016168,5.208333333333333,1706,0.28761982917785645,0.4579305066220333,0.4103595073372273,9.34680579582606,0.0
120,1.809955358505249,41.27419250115431,227.0091181485993,1565.2794005736605,-21.2307914413346,3.125,0.6380320053363915,0.1,0.006478071212768555,0.1365971565246582,0.049281772,0.18825643,41.9399260034362,0.08045729866202728,0.8439295897427227,3.125,1724,0.2723548412322998,0.3997103071423525,0.36041944054987884,8.93283981560279,0.0
121,1.5979890823364258,110.56506347326695,369.9378853905064,1784.6982419130684,-18.030033256477928,8.333333333333334,0.7070434324505314,0.1,0.0065953731536865234,0.1330125331878662,0.04972299,0.21036406,48.802439750419275,0.1571900150178302,2.2286261285223943,8.333333333333334,1937,0.3434889316558838,0.2745272086130687,0.23567204525774443,9.016246662279334,0.0
122,1.5093655586242676,56.29457517972393,235.11148172769018,1638.129177036277,-20.43066700486887,5.208333333333333,0.7250342843388792,0.1,0.006004810333251953,0.13231778144836426,0.050171293,0.15450898,49.55165329334974,0.11100331422136267,1.1450383639381108,5.208333333333333,1774,0.2751467227935791,0.3953176022877519,0.4009382317041655,10.245723370486791,0.0
123,1.531247615814209,70.79698310246678,283.126173202539,1457.6380832479806,-21.320385673658397,5.208333333333333,0.8171365165922531,0.1,0.006287336349487305,0.14038515090942383,0.049724396,0.12645473,51.67618627426144,0.18031483938429382,1.4346884516344185,5.208333333333333,1995,0.4210057258605957,0.32306379664886714,0.2562539385530881,10.444012881892052,0.0
124,2.2302303314208984,75.0074937890624,287.2958736789006,1395.8469046423372,-20.081141023489486,6.25,0.7439905948622572,0.1,0.04263758659362793,0.15941905975341797,0.050467808,0.16249177,54.00931702574154,0.1255937505621345,1.5191083701484025,6.25,1889,0.3146660327911377,0.23645586983467115,0.19955455470949954,11.068953972383364,0.0
125,1.6171317100524902,69.23706478220312,289.67137999278793,1652.9094246456132,-20.489728649130054,6.25,0.8272453687144534,0.1,0.027735471725463867,0.40038013458251953,0.050590392,0.12201579,55.53209180138769,0.12472385396040146,1.4027116485088194,6.25,1880,0.47634124755859375,0.2890777480564965,0.2692256147297907,10.305298479166057,0.0
126,1.7703914642333984,108.07674656603308,352.80027680986524,1893.002650076082,-21.270029012078478,9.375,0.7104656646407025,0.1,0.03581047058105469,0.23168563842773438,0.05071313,0.19786581,60.78655727785224,0.10676010583458241,2.180054222303191,9.375,1869,0.5104250907897949,0.2710084404618831,0.2249102338108014,10.120173009321988,0.0
127,1.7315404415130615,81.77604391794901,275.529938912264,1603.2910789298492,-18.806820587554576,9.375,0.7522843430876297,0.1,0.06961917877197266,0.27549052238464355,0.0501177,0.15913038,62.885505941861915,0.1204274729564971,1.6543441824259235,9.375,1785,0.44657087326049805,0.3171024862347583,0.25129017602665976,10.073776691792787,0.0
128,1.6562068462371826,61.863309796954866,290.08262008101696,1709.682090521658,-20.13392614484828,4.166666666666667,0.7841285468788455,0.1,0.03339195251464844,0.3701152801513672,0.050229754,0.1372673,62.783286327371215,0.16706437807166785,1.2564474794392522,4.166666666666667,1846,0.3255622386932373,0.322915094605425,0.2949392506718077,9.474809617182608,0.0
129,1.720625877380371,62.642433944971536,277.49229569697036,1597.8860720252608,-20.58733147916041,5.208333333333333,0.7170324334863692,0.1,0.04576730728149414,0.1999037265777588,0.050297864,0.16209978,62.76920108913124,0.04257024025676114,1.2717232819413342,5.208333333333333,1786,0.4023876190185547,0.2745261440646977,0.24118602440183803,8.230320504315113,0.0
130,1.9634511470794678,140.44972759902683,391.14279306673916,1597.0663360048034,-21.209211962181975,12.5,0.8166405759630844,0.1,0.013082027435302734,0.2870619297027588,0.050438028,0.13722308,70.5372537401208,0.12529446213182577,2.8278249324533924,12.5,2012,0.3721921443939209,0.21703539283184536,0.1748525526285601,8.762368037895099,0.0
131,1.6694543361663818,37.04003758002104,163.7276830817701,991.2992665756537,-18.867083680760746,4.166666666666667,0.7046985099783547,0.1,0.007085323333740234,0.23760652542114258,0.05046114,0.13216385,67.18753212411083,0.16021518665128173,0.7592172841600675,4.166666666666667,1885,0.3476428985595703,0.6901416567232934,0.4363542074860422,9.525393618611957,0.0
132,1.5628771781921387,78.33859850937212,307.73202528376044,1735.6845433086105,-20.20173702737911,5.208333333333333,0.7771165310887611,0.1,0.006661415100097656,0.15943193435668945,0.04941661,0.17831238,68.30263876263696,0.19184280809192614,1.585566183727808,5.208333333333333,2000,0.322831392288208,0.301831833111188,0.2309279959236074,10.882850494030626,0.0
133,1.523348093032837,79.64303651389305,309.5108560205392,1785.5176406947169,-21.230174740924944,7.291666666666667,0.7703183744292159,0.1,0.007687568664550781,0.19908714294433594,0.049961872,0.14668918,69.43667853776257,0.10347139139667172,1.6123029424683963,7.291666666666667,1927,0.4989194869995117,0.16063479472830378,0.13755474020560893,10.21118907776555,0.0
134,1.692537784576416,61.20162150092315,256.60216754265093,1514.60941059732,-19.64211448182766,4.166666666666667,0.7460811276811227,0.1,0.007750749588012695,0.1693716049194336,0.050039936,0.14411375,68.61317283407864,0.10539541521217434,1.2437149822358318,4.166666666666667,1780,0.3630256652832031,0.25815125274782486,0.22748742006013753,11.461997016735257,0.0
135,1.763472080230713,62.126284659401755,259.4567552202871,1785.5992422455865,-19.74226485614147,6.25,0.6877398844202374,0.1,0.008272647857666016,0.19379448890686035,0.04989549,0.22457838,67.96448401661095,0.12707334856151734,1.2616528018426179,6.25,1750,0.34981775283813477,0.19464054623021304,0.16592114044211162,11.342949436949649,0.0
136,1.4739902019500732,52.24980444573064,266.7258453912022,1578.2855148095123,-20.225768869803925,4.166666666666667,0.6877233559953162,0.1,0.006392478942871094,0.13166236877441406,0.04949423,0.23568645,66.39301605952292,0.09991596112714511,1.0644654185513898,4.166666666666667,1776,0.28263354301452637,0.18476727713226188,0.17208914614774692,14.48938839549728,0.0
137,1.5984547138214111,98.70324360268917,314.72234046725475,1753.1846363168897,-20.06111633866572,9.375,0.8040964980525309,0.1,0.006375789642333984,0.14254140853881836,0.050516114,0.17804119,69.62403881383955,0.1501014442458006,1.9930437399914627,9.375,1942,0.30839085578918457,0.2579763532261539,0.23999362426056456,10.623194966133015,0.0
138,1.4462988376617432,66.2148333605044,308.85944553998235,1707.194409491288,-19.44521360298175,4.166666666666667,0.7629795926200836,0.1,0.006352663040161133,0.13619136810302734,0.049069192,0.1671143,69.28311826850603,0.06548296481157567,1.3415299879223674,4.166666666666667,1788,0.2788989543914795,0.24332530976196087,0.22202827692679666,8.765548099924263,0.0
139,1.7159810066223145,54.94600565907704,251.96440370595622,1684.8827358291467,-19.83130159144936,5.208333333333333,0.743238906811399,0.1,0.04890751838684082,0.38712286949157715,0.050038114,0.1549269,67.84940700756313,0.15104361917811857,1.1174213032294884,5.208333333333333,1752,0.536569356918335,0.3099680366401438,0.290814482022611,8.722047119828984,0.0
140,1.466017723083496,74.795685302631,335.57052766253406,1748.781630827979,-20.60428727811028,6.25,0.6413509844582591,0.1,0.06501102447509766,0.23382568359375,0.049566906,0.20848344,68.54403483706992,0.12305833695030215,1.5145564084136083,6.25,1711,0.3171956539154053,0.2085106694432014,0.17737686269019437,7.752853354883488,0.0
141,1.8168182373046875,107.24741343381451,340.5549424312075,1714.6543782598833,-19.063778881461655,8.333333333333334,0.7271322633043559,0.1,0.0320286750793457,0.43038320541381836,0.050491802,0.1603651,72.41437269674438,0.17970755631752114,2.1639647423632193,8.333333333333334,1871,0.4529848098754883,0.1960268575693972,0.18507818315470617,7.88373176057547,0.0
142,1.7153761386871338,42.92711925925064,249.9191399649408,1714.807064890575,-19.688373700240206,3.125,0.6064450376711233,0.1,0.0165557861328125,0.19272899627685547,0.048922874,0.20921645,69.465647352995,0.05599305098727114,0.8767201391827699,3.125,1643,0.2619814872741699,0.18033914145925362,0.13905901158195708,7.472281590499844,0.0
143,1.6405580043792725,52.19914120471833,243.34986409266878,1463.8127045582326,-19.270348077337836,4.166666666666667,0.7229465345948984,0.1,0.008438587188720703,0.20351624488830566,0.05021226,0.1718899,67.73899673816734,0.054483456336915946,1.0634628005509603,4.166666666666667,1663,0.3621706962585449,0.16979146166326023,0.15264068598177666,8.101408665828492,0.0
144,1.8922855854034424,37.45162268933121,215.99660682345663,1614.4277016293174,-20.79445421127465,3.125,0.7402511519154191,0.1,0.00601959228515625,0.2765176296234131,0.049190853,0.18605806,64.71025933328373,0.03198508312304513,0.768717098440204,3.125,1687,0.30180811882019043,0.3418204489517979,0.28556565523196037,8.664447343425088,0.0
145,1.6954591274261475,115.23153294713745,339.928718253237,1825.5994872388562,-22.172189411555863,8.333333333333334,0.7214617138746812,0.1,0.007406473159790039,0.14461708068847656,0.049118742,0.20355132,69.7623866946691,0.24319975651103568,2.3232275292928812,8.333333333333334,1979,0.2722787857055664,0.19597019825472267,0.1820117564857774,8.16205723185037,0.0
146,1.6609158515930176,102.22046007955178,349.3602989425342,1857.5374658275864,-19.88573292833634,6.25,0.7252879418885733,0.1,0.022441625595092773,0.1572706699371338,0.05068382,0.15883324,73.00819403315737,0.02638988071662009,2.0629575226473396,6.25,1861,0.34423184394836426,0.14922416697003762,0.13104740238920706,10.177382517721135,0.0
147,2.204115152359009,169.36838072147464,466.24278548684293,1763.1046582354875,-20.125418923205608,11.458333333333334,0.8231951944267266,0.1,0.006931781768798828,0.14321088790893555,0.049977764,0.13234998,82.6442127019891,0.08694549176415929,3.40701725959156,11.458333333333334,2058,0.33939146995544434,0.14124555007212117,0.12007854936080828,8.633781814625413,0.0
148,1.8049919605255127,89.5105431996036,299.09256051357914,1579.0965985341627,-21.217570172182377,8.333333333333334,0.7745700307799713,0.1,0.019744157791137695,0.5391116142272949,0.050614733,0.14506328,83.33084575175056,0.04495011034180235,1.8087018747631483,8.333333333333334,1771,0.5619215965270996,0.12431938573656837,0.1135913602421766,9.973607371903302,0.0
149,1.6870360374450684,52.68752150532387,236.1056911327824,1890.2627979897175,-18.94407206193482,5.208333333333333,0.7865322717637896,0.1,0.02715134620666504,0.1836254596710205,0.05042284,0.15173532,80.2665133271079,0.14531392142846197,1.071796408766159,5.208333333333333,1809,0.41412878036499023,0.37112853660219614,0.3091352593484645,9.32982387168057,0.0
150,1.7780604362487793,102.14952968437495,341.98978694740333,1816.5643299576727,-20.186745498402505,9.375,0.7302551040837821,0.1,0.006365060806274414,0.18275141716003418,0.050455395,0.16738616,82.45481496283462,0.10631690535343237,2.061730829752923,9.375,1863,0.27348804473876953,0.1875743302057713,0.15894310135885836,9.270018342398584,0.0
151,1.9676179885864258,163.40291768791903,445.93459188433525,1916.2617729064336,-20.015776022879802,13.541666666666666,0.7113207695536475,0.1,0.006717681884765625,0.2105998992919922,0.050513472,0.133824,90.54962523534306,0.16337147132039218,3.287396768974805,13.541666666666666,1932,0.30404043197631836,0.13665739512937802,0.11955615025653465,10.063859889746714,0.0
152,2.1664681434631348,172.58730238404095,464.97938615940916,1746.2532792389318,-20.1715421371291,13.541666666666666,0.7512573824458568,0.1,0.017853736877441406,0.1710338592529297,0.04998394,0.12992634,98.75339295021286,0.08710649873156255,3.4709241303704306,13.541666666666666,1957,0.3375284671783447,0.16189129509195796,0.11261909557282752,9.285228756793632,0.0
153,1.556962490081787,181.75971567202842,500.601731685595,2066.3449768975415,-20.312581160386735,13.541666666666666,0.7615095175709314,0.1,0.00808405876159668,0.18426203727722168,0.050696768,0.13803558,107.05402522239442,0.09388835603875138,3.653344254772905,13.541666666666666,2022,0.39978551864624023,0.17463125407948457,0.14182052396633887,9.28000959662566,0.0
154,1.7295825481414795,124.81464595550612,381.2655559938757,1916.1147173696854,-20.545472170991395,11.458333333333334,0.7733645220217701,0.1,0.007911920547485352,0.21711301803588867,0.050096937,0.13480425,108.8300872957056,0.162985714203127,2.5153453205194314,11.458333333333334,1881,0.4355912208557129,0.18407831798939545,0.1505312733596446,10.007081546110204,0.0
155,1.9484343528747559,74.80011581360436,276.5853798249031,1646.1070742404613,-20.27431163717189,6.25,0.7086269221415773,0.1,0.007019519805908203,0.23017454147338867,0.049887914,0.17010936,105.42709014749548,0.05822090166813277,1.5146566545901257,6.25,1800,0.37764620780944824,0.3627281616943423,0.33387039108703476,10.0438706331851,0.0
156,1.748661994934082,94.44895734291764,308.79717208734445,1885.5578263167495,-20.510325948827834,9.375,0.7632716024638487,0.1,0.022255659103393555,0.15274477005004883,0.050465427,0.13735285,104.32927686703769,0.16934649563251233,1.9065893048930684,9.375,1988,0.48793911933898926,0.1949485847604824,0.17072520915282752,9.392001436668275,0.0
157,2.8267321586608887,88.31231493212915,297.96347041380307,1573.574390033809,-20.190101668368996,9.375,0.8413908810677473,0.1,0.02687382698059082,0.3972330093383789,0.050024703,0.13754286,102.72758067354684,0.10841450149246497,1.7852120129443687,9.375,1921,0.2844536304473877,0.29378671697146486,0.24199997178416768,8.645236522478973,0.0
158,1.9051246643066406,118.911772660685,374.60211857359036,1965.9155142230313,-19.544866469489392,9.375,0.7202321994895843,0.1,0.0405573844909668,0.29593658447265625,0.050248593,0.14466493,104.34599987226065,0.14610581345448423,2.3964125581565945,9.375,1879,0.45807504653930664,0.21466028613860097,0.17110779524386763,8.530860869825101,0.0
159,1.9754328727722168,74.72345490430136,276.7067859412117,1615.1319757386068,-20.36709808682839,7.291666666666667,0.7379443230946328,0.1,0.006563425064086914,0.1713705062866211,0.05067673,0.14572547,101.38374537546471,0.11316565132142842,1.5133880051642628,7.291666666666667,1895,0.3962290287017822,0.251834817166483,0.2131272639443759,8.596842988825928,0.0
160,2.62143611907959,109.14443205084405,312.9667266293742,1565.5903747074685,-19.932736167522222,10.416666666666666,0.7205001039264988,0.1,0.01954483985900879,0.18764400482177734,0.051377293,0.12803032,102.15981404300265,0.1420313641577503,2.2002477372917397,10.416666666666666,1847,0.3329625129699707,0.1996910072533403,0.17046801261176514,9.402622416080728,0.0
161,1.8144385814666748,125.15055023699495,366.85001960251066,1833.9370369964752,-20.731118932256038,11.458333333333334,0.7958871899481678,0.1,0.06877398490905762,0.29004502296447754,0.051183708,0.14439967,104.45888766240188,0.17833223650521624,2.5218025859722197,11.458333333333334,1931,0.4142451286315918,0.23886626718275736,0.18733693780859983,9.456834557913249,0.0
162,1.5071678161621094,109.37563807924546,390.2162619199684,2447.151862360032,-18.854284807814945,9.375,0.69980903887618,0.1,0.00735163688659668,0.3485398292541504,0.049884353,0.16172169,104.95056270408624,0.10321681440573512,2.2057351577351167,9.375,1862,0.49052858352661133,0.15234045564193446,0.13735654170104458,10.13357289052285,0.0
163,1.9612913131713867,132.78353420697377,380.6680712419347,1725.6528766477331,-19.54178250301107,13.541666666666666,0.7460350902573467,0.1,0.008487701416015625,0.2802283763885498,0.050843067,0.13678926,107.733859854375,0.1077103139163958,2.673415299733944,13.541666666666666,1940,0.4077751636505127,0.12255928711370082,0.10366552472742736,10.230885334415618,0.0
164,1.6465446949005127,112.0074432515817,402.7627568333844,1971.129883908608,-20.462280844474524,9.375,0.800435918171328,0.1,0.018477678298950195,0.18316149711608887,0.049573373,0.1322792,108.16121819409567,0.062004552242381133,2.2601360633586007,9.375,1712,0.16978788375854492,0.19169103318355898,0.15203019301401033,10.061485380024795,0.0
165,1.720078468322754,87.72210930101346,302.10131960235236,1662.5710384887589,-18.97023042437666,8.333333333333334,0.7244107911285066,0.1,0.0272371768951416,0.15539336204528809,0.05057366,0.12980439,106.11730730478746,0.1234772470934471,1.7726513201327867,8.333333333333334,1843,0.28456616401672363,0.22967368948647526,0.12838505938541916,10.047102674185965,0.0
166,1.748340368270874,150.99151446023575,413.89306594064055,1932.9090187233373,-19.31225917173312,13.541666666666666,0.7800395062823491,0.1,0.012993574142456055,0.1910862922668457,0.049900416,0.113006935,110.60472802033229,0.18401457131977614,3.0382893363756533,13.541666666666666,2085,0.370471715927124,0.23033634654300522,0.21023564713942824,9.943788037937228,0.0
167,1.9052932262420654,168.92934861418328,428.7732159966784,1663.479310307086,-20.186742256588705,15.625,0.816671578773912,0.1,0.006364107131958008,0.13579344749450684,0.049997,0.11992627,116.43719007971738,0.14808486003123836,3.3966986176535876,15.625,1882,0.2713770866394043,0.2254857866509816,0.218455430419792,9.149481778857062,0.0
168,1.7199580669403076,141.80204320005188,440.75196240613025,1956.6376417611145,-19.789896770312087,10.416666666666666,0.7684779332633221,0.1,0.0061380863189697266,0.14795327186584473,0.049741134,0.13315211,118.97367539175083,0.0608239784491191,2.8557362459327957,10.416666666666666,1828,0.2734363079071045,0.12174450116654127,0.11391299074509607,9.18001896368107,0.0
169,1.7893221378326416,118.11000575587919,395.79712353929574,2128.563889826742,-19.453486752266407,8.333333333333334,0.7072989648437065,0.1,0.033043622970581055,0.18507695198059082,0.050196655,0.19591141,118.88730842816366,0.10609722765112517,2.381487998920373,8.333333333333334,1856,0.38761281967163086,0.10962838880156743,0.09685768696345774,9.181929199084237,0.0
170,1.67335844039917,86.15299235053487,295.9235039207973,1763.5883861601533,-19.48975912247053,8.333333333333334,0.747369664721118,0.1,0.008217811584472656,0.17487215995788574,0.050646387,0.113661975,115.61387682040079,0.2035346949245116,1.7419552516768355,8.333333333333334,1943,0.36615729331970215,0.3997497706339644,0.28261865815155457,9.128365715655635,0.0
171,1.8640666007995605,79.95887136821567,337.9117362924258,1924.6563699650774,-20.607951673038645,5.208333333333333,0.6979188920224453,0.1,0.025733232498168945,0.16726279258728027,0.049510606,0.17610216,112.04837627518228,0.14224895179120944,1.6180941651417475,5.208333333333333,1836,0.28268909454345703,0.15316903619392327,0.1041615736398102,9.076274028177636,0.0
172,1.8914661407470703,116.18654690159515,370.30350426406716,1896.5704123004127,-19.06305991089956,9.375,0.8074509137102903,0.1,0.016568660736083984,0.16536879539489746,0.050316427,0.12110982,112.46219333782356,0.11187168669188918,2.3425394262707875,9.375,1922,0.3073437213897705,0.28921039845708923,0.25402961834386684,9.773770581308966,0.0
173,1.6717488765716553,60.8603420109174,297.19198562573484,1945.7012658801184,-19.145424145126523,5.208333333333333,0.6639304529867187,0.1,0.006268024444580078,0.14118623733520508,0.048616216,0.18289672,107.30200820513295,0.0649389321648564,1.236044836928678,5.208333333333333,1802,0.2649819850921631,0.19298850334395184,0.1579280423119518,9.84049914556841,0.0
174,1.7062351703643799,109.17278701421391,366.75346508417005,2015.6617851116878,-19.891779758429806,7.291666666666667,0.7585617026155749,0.1,0.0064928531646728516,0.14462637901306152,0.049928725,0.15509517,107.48908608604106,0.16821436699107137,2.202306401561774,7.291666666666667,1893,0.2931804656982422,0.22080150277864022,0.20425466388559546,9.878429576491905,0.0
175,1.8726394176483154,283.2602210244811,577.425775646541,2083.749503200451,-18.64968155118371,21.875,0.8489357110607794,0.1,0.007017374038696289,0.14571237564086914,0.04966992,0.15432896,125.06619957988507,0.21093847976386504,5.6844800758214395,21.875,2282,0.31298375129699707,0.13063183480740181,0.08228522739087765,9.926059719467915,0.0
176,1.774610996246338,165.3245287630996,427.448148318059,1786.1428227227207,-18.72204134995618,13.541666666666666,0.8143223226540842,0.1,0.008026361465454102,0.1769094467163086,0.050438337,0.11230593,129.09203249820652,0.2282783494168595,3.32378105724078,13.541666666666666,2112,0.49747514724731445,0.13600258855375494,0.10294148221720179,9.949124524280066,0.0
177,2.0521199703216553,163.87603147909343,446.66895167553776,2066.239901082603,-19.598560295676755,12.5,0.7910290392005966,0.1,0.007275581359863281,0.15560126304626465,0.05017442,0.13108277,132.57043239629522,0.19135594908360276,3.2962366738479556,12.5,2064,0.3650643825531006,0.21488837951876794,0.2105322709551416,9.919638521848817,0.0
178,2.024711847305298,169.95473980099177,499.7703868796326,2086.3313063726346,-19.33071981598383,11.458333333333334,0.7809731874994607,0.1,0.03472423553466797,0.18886065483093262,0.050310526,0.15740973,136.30886313676487,0.16450909060102084,3.4154361163139626,11.458333333333334,2020,0.39213037490844727,0.15324591110137215,0.10884614392109918,13.687852232751979,0.0
179,1.7472553253173828,178.41169512512406,442.18019170932786,1906.1081681686308,-20.051745621477867,15.625,0.8242161961043154,0.1,0.011227607727050781,0.2990531921386719,0.050111204,0.1002105,140.5191463356008,0.2145098620259597,3.586064420702576,15.625,2025,0.5849297046661377,0.28685999071495977,0.24101759130986267,10.044878626639285,0.0
180,2.071909189224243,200.55305375520751,484.6919298962838,1954.8711415792284,-19.003736181063267,16.666666666666668,0.7686153186973474,0.1,0.006743669509887695,0.1939094066619873,0.050726034,0.13348025,146.52253707756148,0.1594709904326391,4.027215270769837,16.666666666666668,2062,0.4108545780181885,0.145635134736323,0.11465711940970685,13.758201589698508,0.0
181,2.185914993286133,83.34187576831052,325.97094912482976,2035.981651774026,-19.119700201349655,6.25,0.707174668461314,0.1,0.05847358703613281,0.24621152877807617,0.05098214,0.13196047,140.2044709466364,0.140393713795497,1.6850531969638223,6.25,1910,0.31308746337890625,0.2371006563083646,0.17943586566948858,13.65394117132362,0.0
182,1.9146947860717773,246.69030491327408,561.1548359316839,2377.760108530791,-20.16328267559291,17.708333333333332,0.8364585295634125,0.1,0.0241091251373291,0.2979896068572998,0.050519284,0.13268988,150.8530543433002,0.24673921776593108,4.951006590634307,17.708333333333332,2221,0.6108698844909668,0.13212834264508858,0.1124009552839899,13.58254453864927,0.0
183,1.767270565032959,201.87514374221396,492.25629837061325,2015.3704108721927,-18.92193907489694,14.583333333333334,0.810697484268788,0.1,0.007361412048339844,0.23736858367919922,0.050341003,0.1146377,155.95526328319156,0.20748785024494965,4.0566216294912865,14.583333333333334,2164,0.4294893741607666,0.17851377776135263,0.17368546623732237,14.204130040909059,0.0
184,1.849522590637207,147.86172495017917,419.4582085300048,1755.2143178472293,-17.676945630221837,12.5,0.7663749051640008,0.1,0.048628807067871094,0.20287346839904785,0.050057158,0.13385572,155.14590944989033,0.1191778399955244,2.976219189713021,12.5,1976,0.33443236351013184,0.21034186169974314,0.14901322354182298,14.180676225085374,0.0
185,1.4883620738983154,112.95445135171168,403.8101359206018,2146.251199200845,-20.67838762679374,8.333333333333334,0.7244384646418678,0.1,0.01011967658996582,0.44473719596862793,0.050785486,0.15753071,150.92676364007247,0.0652341617460619,2.278172116931301,8.333333333333334,1819,0.3502237796783447,0.11897228534466818,0.08598596292705574,14.86416907355991,0.0
186,1.9602229595184326,207.5543649303186,521.4350147038209,2096.3554866710165,-19.268511670734107,15.625,0.8602749025483596,0.1,0.0067310333251953125,0.1510617733001709,0.050242078,0.1129871,156.58952376909707,0.24522919874218865,4.165811936019764,15.625,2246,0.7769784927368164,0.15793876773513751,0.1267969835446697,14.821072277686062,0.0
187,1.9233598709106445,105.42104758039234,375.7757555072608,1966.2201821323256,-18.781968543512278,7.291666666666667,0.7645831312424417,0.1,0.009429216384887695,0.2607293128967285,0.049731694,0.15811835,151.47267615022662,0.11000158879850763,2.123937416154735,7.291666666666667,1927,0.474865198135376,0.2246101615086255,0.20734183105207227,14.885439738251227,0.0
188,1.7037897109985352,199.78247578296296,518.1749153694055,2366.9322695792566,-18.87251799712579,15.625,0.8189467389344162,0.1,0.017096519470214844,0.19138288497924805,0.050482273,0.13887367,156.30365611350027,0.18522169343252895,4.014310670738818,15.625,2145,0.4026072025299072,0.11980559151765867,0.10045123219808022,10.477053916681646,0.0
189,1.8885319232940674,195.9904137207428,480.3698845241095,2406.833368086893,-17.800615902908586,16.666666666666668,0.8296379615206572,0.1,0.04351329803466797,0.26120519638061523,0.05060803,0.107129425,160.27233187422453,0.15749287820701385,3.923931118371616,16.666666666666668,1957,0.36910557746887207,0.15220503893373286,0.12468663612122553,10.536948749889255,0.0
190,1.8213801383972168,149.16833326732828,445.2306005660317,2117.009815822786,-18.894490968071764,9.375,0.8637166729122857,0.1,0.04898548126220703,0.3527240753173828,0.0502769,0.11654985,159.1619320135349,0.18963984958104682,3.0014213415016577,9.375,1943,0.5447263717651367,0.27679529749948256,0.247007261512572,10.613651703126315,0.0
191,1.7019731998443604,126.82643745042041,401.8156451244185,1954.8223709738647,-19.028195422729315,11.458333333333334,0.6878773443126444,0.1,0.026828289031982422,0.22600984573364258,0.050971385,0.15290608,155.92838255722347,0.1250570232975993,2.5544415065612474,11.458333333333334,1819,0.44586181640625,0.15075483530625552,0.09993036287555418,15.633645628308324,0.0
192,1.5714187622070312,124.95630711394445,391.9681891750678,1915.3805609123888,-19.805400721932077,10.416666666666666,0.759619540431513,0.1,0.0370635986328125,0.2693195343017578,0.049709454,0.13732074,152.83117501289559,0.10489890337938147,2.515675751994273,10.416666666666666,1951,0.375380277633667,0.11931645765747162,0.09356428334133107,9.907255728378532,0.0
193,1.7399983406066895,114.76416337234038,381.1013809717202,2356.324938619345,-19.58736144390816,10.416666666666666,0.7706680668547663,0.1,0.0064280033111572266,0.14820313453674316,0.04999426,0.14192542,149.02447384884007,0.08134822714978969,2.313209208254545,10.416666666666666,1865,0.2943747043609619,0.22534226350226408,0.1643165629065826,9.846611358493657,0.0
194,1.676220178604126,71.25125855853638,244.95181342148345,1544.8139468151846,-19.86807873294803,8.333333333333334,0.7386992352317944,0.1,0.02868485450744629,0.13968205451965332,0.050405715,0.11861654,141.24715231980971,0.10502009134492847,1.4433444841025913,8.333333333333334,1736,0.24361848831176758,0.5228304512930133,0.348303871986152,9.801669590289638,0.0
195,1.8396813869476318,178.35323880095766,482.391852882815,2086.227524052946,-19.182100776825273,13.541666666666666,0.8340599128076124,0.1,0.006647586822509766,0.22401785850524902,0.049895953,0.1176053,144.95776096792451,0.17893231781188834,3.583442236401392,13.541666666666666,2068,0.4495255947113037,0.4225018728543218,0.2597971263213411,9.898900994523334,0.0
196,1.6259467601776123,170.25192626486617,409.7907542926663,1875.3764190434492,-18.86782944068319,16.666666666666668,0.7813453821680088,0.1,0.0047533512115478516,0.2532780170440674,0.05004208,0.12644973,147.4871774976187,0.1875941994193059,3.422885054075556,16.666666666666668,1903,0.1950216293334961,0.23346350393148282,0.19276241311893288,13.615544719986527,0.0
197,1.5400407314300537,138.22031044971666,389.9878478438703,2157.8202022037212,-17.470536855070556,14.583333333333334,0.7993767209725798,0.1,0.0068433284759521484,0.14690041542053223,0.050651263,0.11843499,146.5604907928285,0.1908427927603565,2.783025446707665,14.583333333333334,2041,0.45085668563842773,0.28525490160041633,0.26440245916992183,13.731935590816153,0.0
198,1.8325395584106445,88.18834073171054,319.58575488815353,1936.011521979661,-19.2916364648859,8.333333333333334,0.7251636937093087,0.1,0.006551265716552734,0.23995518684387207,0.050746124,0.13121441,140.7232757867167,0.031153924874225147,1.7814793229019272,8.333333333333334,1857,0.35103416442871094,0.27847071738194773,0.2317220919994429,13.761158456179114,0.0
199,1.815565824508667,209.99262674007673,440.14964804550567,1935.1773368146523,-18.82643688027524,19.791666666666668,0.7965154756192501,0.1,0.018682479858398438,0.1812577247619629,0.050797556,0.13102052,147.6502108820527,0.2499859249767097,4.218669534767385,19.791666666666668,2276,0.38688206672668457,0.1783948328237273,0.1176246681911964,15.027455112687647,0.0
200,2.124614953994751,212.30242963456104,467.41321332415936,2206.251051638897,-18.26175020230612,18.75,0.821858160872595,0.1,0.007437229156494141,0.16286373138427734,0.05039057,0.1234728,154.11543275730355,0.28014257073234233,4.26442749625537,18.75,2295,0.42055416107177734,0.19102307573421629,0.17189903275592727,13.710214704899652,0.0
201,1.8931002616882324,209.67571568341182,502.3514416406535,2407.4691743962144,-17.97213268409037,16.666666666666668,0.8565356679799175,0.1,0.019171476364135742,0.11146235466003418,0.05043548,0.11030848,159.6714610499144,0.17059838026490368,4.207664858213994,16.666666666666668,2230,0.208693265914917,0.17617083079364806,0.1616296574319404,14.262243706203012,0.0
202,1.6417722702026367,143.8632000550074,410.37439709912593,2202.9391854801997,-17.900672119463252,13.541666666666666,0.7839906455159363,0.1,0.01029348373413086,0.26721882820129395,0.050993443,0.15261918,158.09063495042372,0.04817505367821337,2.8968259369312084,13.541666666666666,1933,0.34247851371765137,0.13673507437523894,0.11193698982203316,11.115074036637456,0.0
203,1.891106128692627,198.95739438332967,482.7917948804614,2246.8242195334665,-19.372516176361152,17.708333333333332,0.8303355692685829,0.1,0.0066339969635009766,0.14310216903686523,0.050234843,0.12170662,162.17731089371432,0.09647570606714989,3.996301864249564,17.708333333333332,2134,0.30710744857788086,0.16688610512486954,0.15013446312182252,11.14681059561497,0.0
204,1.575000524520874,193.1664056768412,515.7704227505906,2276.922488682394,-19.592800681795396,14.583333333333334,0.8296952340012036,0.1,0.007673978805541992,0.1678609848022461,0.04938736,0.11189266,165.276220372027,0.09535548725983552,3.880882535237425,14.583333333333334,1962,0.3196399211883545,0.15482716555479079,0.14316899641468514,10.529678053742549,0.0
205,1.6928505897521973,224.59361900573467,578.6691699623118,2366.235321976932,-17.59216578304232,14.583333333333334,0.8048258807745802,0.1,0.009970664978027344,0.20489978790283203,0.050655887,0.1321221,171.2079602353978,0.1659896799621825,4.503855274727507,14.583333333333334,2007,0.45404887199401855,0.19517242007737395,0.12305186824667501,15.513044837483354,0.0
206,1.7858171463012695,192.96884218099987,548.1779692977497,2336.934712862086,-18.875923327935972,13.541666666666666,0.7718448538232446,0.1,0.017256975173950195,0.14182710647583008,0.05083031,0.13324164,173.384048429958,0.19161669105752033,3.874585997606664,13.541666666666666,2032,0.3001060485839844,0.08734163948651484,0.058397397270145514,14.2763662971947,0.0
207,1.8918898105621338,274.3540843917149,607.7979687162788,2827.5130100860897,-19.415866950101773,20.833333333333332,0.9250255085927795,0.1,0.020308256149291992,0.16883492469787598,0.049214397,0.09698674,183.48105202613368,0.19192213176896608,5.488338073179655,20.833333333333332,2276,0.33905935287475586,0.23099039263343765,0.19134132442943588,95.63815172873373,6.25
208,2.0946431159973145,181.20722678440134,523.3958550727326,2517.110416297682,-18.347806046201676,13.541666666666666,0.7219845349985485,0.1,0.01695418357849121,0.2504591941833496,0.048244655,0.12526529,183.25366950196045,0.12110186668697481,3.638826777887671,13.541666666666666,2043,0.2325153350830078,0.27879512682346735,0.23076139551156014,104.94229037650088,6.25
209,1.9333422183990479,247.13206608408566,573.7460945540199,2576.1038731931585,-18.090945770373846,18.75,0.8441575569794147,0.1,0.005137920379638672,0.13791728019714355,0.0487203,0.11434047,189.64150916017297,0.16618751668155995,4.960040232032902,18.75,2172,0.21999526023864746,0.20468905980762322,0.15189702234239755,107.49901482788079,6.25
210,1.6525819301605225,130.74646075865107,407.28300686760394,2705.6362238071138,-18.769150536017904,11.458333333333334,0.7380382647800703,0.1,0.005125999450683594,0.1107940673828125,0.048979092,0.12230817,183.75200432002077,0.16909827176455638,2.6341117598174777,11.458333333333334,2043,0.18604063987731934,0.4905101253297467,0.36847897237142796,101.84865473349215,6.25
211,1.7911603450775146,260.85285250030495,620.9886271992216,2727.5986654170306,-17.891192549339735,16.666666666666668,0.9064539467972056,0.1,0.005192995071411133,0.15855169296264648,0.05028486,0.11997702,191.4620891380492,0.1794182110624631,5.233228330223977,16.666666666666668,2201,0.26659607887268066,0.2431339980320382,0.12322680228157357,114.53299077620115,6.25
212,1.5394015312194824,203.54101347702206,517.8878924407569,2677.1607477004904,-18.337875759099276,16.666666666666668,0.754761823585827,0.1,0.06006169319152832,0.31189823150634766,0.050692733,0.12257956,192.6699815719465,0.13172903154151325,4.06208386716006,16.666666666666668,2062,0.3800351619720459,0.10398497477803452,0.08569871606236683,108.29787854529994,6.25
213,2.1362221240997314,223.9595341127737,592.8403901304496,2457.4282065838847,-19.135741387101685,15.625,0.8329869945758294,0.1,0.007118940353393555,0.14946603775024414,0.049955543,0.13611197,195.7989368260292,0.18150329982020427,4.491736299381286,15.625,2169,0.32163095474243164,0.12500015347454566,0.10014512789151947,15.806309029066,0.0
214,1.9702458381652832,263.9871185026352,596.4193793826695,2587.3866104883514,-19.192048032368486,21.875,0.9038103935850053,0.1,0.028382539749145508,0.33580470085144043,0.049661078,0.09878232,202.6177549936898,0.24348709935487775,5.293605508134362,21.875,2236,0.3229351043701172,0.22425586533053485,0.18081728065203503,11.40919008711645,0.0
215,1.9559826850891113,259.6434823477955,613.0515979034228,2296.4865708479347,-19.093855360660044,16.666666666666668,0.8622420363008846,0.1,0.00778651237487793,0.16990113258361816,0.049679384,0.12963244,208.32032772910037,0.1511077760454353,5.194434241133306,16.666666666666668,2052,0.35836052894592285,0.18948532594501194,0.1497678274004919,11.404069182043184,0.0
216,2.146362066268921,295.57624797757495,624.9269773640873,2526.8103230154543,-19.919968174694418,20.833333333333332,0.8719050860057054,0.1,0.007292509078979492,0.14539122581481934,0.048873138,0.12156096,217.04591975394783,0.21993529824919558,5.926952904167103,20.833333333333332,2277,0.3673851490020752,0.09468755910472491,0.07636619218891935,10.111476996042722,0.0
217,2.002119541168213,345.70588387741924,739.3073421434127,2726.7850891852454,-21.023277891821476,20.833333333333332,0.9259200645212898,0.1,0.01681351661682129,0.2602043151855469,0.049981434,0.10825351,229.911916166295,0.2092107279132079,6.9147514702609,20.833333333333332,2310,0.32056641578674316,0.19716581904215277,0.1809146308844612,9.980425138090386,0.0
218,2.286114454269409,232.7705920122216,536.3918366357351,2827.689475396086,-18.456422437310437,17.708333333333332,0.899906426958266,0.1,0.007822036743164062,0.17816972732543945,0.049144335,0.111640126,230.19778375088765,0.24784458181816846,4.669630271748283,17.708333333333332,2379,0.3828256130218506,0.2951175230233221,0.2273164997074389,9.934021046853143,0.0
219,1.7862317562103271,179.87563005211697,489.83090573572343,1996.4065110872389,-18.668900139938053,13.541666666666666,0.7404483707110352,0.1,0.010558366775512695,0.25957441329956055,0.049513206,0.14124179,225.1655683810106,0.07436594736941791,3.5983221614677485,13.541666666666666,1944,0.32935214042663574,0.1391248801789517,0.12085766377376887,13.078740121821095,0.0
220,2.0154190063476562,231.0197369080153,521.0695050999244,2587.2732001381623,-19.95925419525458,18.75,0.890873907264583,0.1,0.02831721305847168,0.23519206047058105,0.05008924,0.10421006,225.75098523371105,0.2787485638999267,4.636057799023063,18.75,2287,0.33400559425354004,0.300396881105938,0.2457785702256993,13.109476042482317,0.0
221,1.9613475799560547,285.4445250439826,608.5499223421999,2477.538158152286,-18.730337797785886,21.875,0.930007562245502,0.1,0.008083581924438477,0.24512577056884766,0.050265934,0.10746322,231.7203392147382,0.2588827228430523,5.722662446514753,21.875,2299,0.34197258949279785,0.21223022733298316,0.19919939415148313,9.744354756488807,0.0
222,2.1202070713043213,191.76751103894676,485.61861344317686,2346.2112321973636,-18.313617896421924,15.625,0.845445229485673,0.1,0.011742591857910156,0.16092395782470703,0.049830824,0.11124803,227.72505639715905,0.23543931452716824,3.8498553115403045,15.625,2133,0.3477327823638916,0.31431262457199993,0.2794243217907756,9.81575270414579,0.0
223,2.109365224838257,256.25096667555107,571.6737760554898,2155.4619119226186,-20.040622770390776,19.791666666666668,0.9424707502083921,0.1,0.0067327022552490234,0.1458878517150879,0.049959037,0.116673805,230.57764742499828,0.19817290082970648,5.108358759137999,19.791666666666668,2308,0.3333117961883545,0.20909005993236285,0.17183693478903736,9.743203851931757,0.0
224,1.8456835746765137,228.15566608825188,528.9116567489541,2647.165816257784,-18.84178329081712,17.708333333333332,0.912903502911547,0.1,0.005197286605834961,0.1608872413635254,0.050331574,0.1048592,230.33544929132364,0.11390036913952219,4.579071131629216,17.708333333333332,2194,0.2089247703552246,0.2619117199936226,0.22604309911654075,9.801387546466138,0.0
225,1.8505890369415283,139.19979584029815,408.0620186005332,2046.5059587527535,-18.39844203145603,11.458333333333334,0.9032537370459083,0.1,0.00696253776550293,0.2833719253540039,0.04969783,0.1275069,221.2218839462211,0.1910578781387174,2.802650217790523,11.458333333333334,2272,0.4199397563934326,0.34371876649315,0.29193690654225185,9.760300859477699,0.0
226,1.8151881694793701,99.06664088840277,395.1099920058733,2376.728258361273,-18.82632570386178,7.291666666666667,0.7321172980873587,0.1,0.016277551651000977,0.47060322761535645,0.04931028,0.13423426,209.00635964043929,-0.022175649514269192,1.996670323802805,7.291666666666667,1825,0.3553013801574707,0.30929618929265,0.27134059677450817,9.687045003403128,0.0
227,2.093942642211914,152.9648943814743,461.94602482539756,2356.748410164057,-18.724080225704427,11.458333333333334,0.8338844989539316,0.1,0.00659632682800293,0.2010512351989746,0.050291277,0.1291904,203.4022131145428,0.16412914397539216,3.0762187164553794,11.458333333333334,2086,0.3893105983734131,0.40351636977719674,0.3085305787074867,9.545757597687498,0.0
228,3.2186362743377686,334.5052634414358,734.5326159167455,2757.1501493489736,-18.98990338603295,18.75,0.8323555047761679,0.1,0.007035255432128906,0.21905183792114258,0.049794465,0.12384427,216.5125181472321,0.12408758193874732,6.693297109679926,18.75,2228,0.3818373680114746,0.3103504343830338,0.24119499044954779,9.554715490065444,0.0
229,1.9977359771728516,244.5682046201908,594.4979424144009,2276.9200817609244,-18.858756431779845,14.583333333333334,0.9178894993748379,0.1,0.03339552879333496,0.2656972408294678,0.049555533,0.11288047,219.31808679452797,0.17831090032292296,4.908552002386663,14.583333333333334,2183,0.30658769607543945,0.2985569654145792,0.27827106467351276,9.491516840909847,0.0
230,1.9508256912231445,214.40605580393571,568.9032269527639,2576.6815364987547,-20.179344341790177,14.583333333333334,0.8082114971665434,0.1,0.02563309669494629,0.17802762985229492,0.050235588,0.13862798,218.82688369546875,0.14748758820372684,4.2931615837509325,14.583333333333334,2093,0.31802821159362793,0.18514668942436158,0.16318594381018767,9.450724825547333,0.0
231,2.160022258758545,225.64517127060319,520.6652057744959,2376.279375894338,-20.268378625958146,18.75,0.8579601376186181,0.1,0.021731138229370117,0.20972371101379395,0.049840074,0.13499,219.5087124529822,0.18642480833726024,4.50283085158251,18.75,2280,0.3596196174621582,0.16601907884065845,0.13161694337427235,9.433986062829439,0.0
232,1.8194990158081055,213.64852209128546,565.9415768225359,2577.0970847838107,-18.164094583380525,13.541666666666666,0.8208138290240897,0.1,0.007634878158569336,0.2716994285583496,0.050163068,0.12287221,218.92269341681254,0.1481846324414531,4.26310371289156,13.541666666666666,2143,0.6723418235778809,0.1830428230317062,0.16080014907756127,9.470387687611337,0.0
233,1.8529045581817627,191.14412957056484,555.1606144741805,2466.7763368856586,-18.833384151041336,12.5,0.8497827466996056,0.1,0.01627969741821289,0.17024755477905273,0.049967293,0.1126563,216.14483703218778,0.12881519997400018,3.8408491500455217,12.5,2038,0.3399231433868408,0.22940187696714645,0.2091277981100927,9.530474561494772,0.0
234,1.8672988414764404,328.0158693650067,674.6974097122765,2726.4768269177434,-18.877718148205236,21.875,1.0109291525838402,0.1,0.031729698181152344,0.21104955673217773,0.05004876,0.098239906,227.33194026546968,0.229748748651746,6.563965552982474,21.875,2461,0.3541085720062256,0.27471215597247806,0.24612743610212304,9.499338896170608,0.0
235,2.1203153133392334,325.8607634231444,609.0185552711972,2205.2891100747897,-19.54774798728853,25.0,0.994299642737258,0.1,0.035059213638305664,0.17157745361328125,0.05062884,0.096436255,237.18482258123717,0.28619369899456887,6.50558324769798,25.0,2400,0.45998191833496094,0.35579704581746713,0.3169188901587776,12.748979981159977,0.0
236,1.807002067565918,210.08138333483612,578.790783215655,2596.604678985196,-19.89410004331407,14.583333333333334,0.8452391387960235,0.1,0.00802755355834961,0.17716240882873535,0.05006995,0.113458864,234.47447865659706,0.10705698535798729,4.2053102740698405,14.583333333333334,2078,0.46709346771240234,0.24217305269805334,0.2175858320965101,12.73096359291607,0.0
237,1.8553259372711182,256.71697661709806,600.7662592271672,2646.61284057942,-19.141113719505555,17.708333333333332,0.8409078258664396,0.1,0.007333278656005859,0.31032848358154297,0.050114322,0.1255785,236.69872845264715,0.1258371005583597,5.108475782349083,17.708333333333332,2073,0.5764706134796143,0.28275104476903895,0.2429900544369904,10.246793435594547,0.0
238,1.6107134819030762,326.08841895655627,702.1816449851827,2627.1345416026256,-19.866590722947656,19.791666666666668,0.938117213901747,0.1,0.006462574005126953,0.14677810668945312,0.04986909,0.10651784,245.63769750303805,0.1913498602325884,6.511681225488481,19.791666666666668,2253,0.3331272602081299,0.20809584746573584,0.1938721353917492,12.667572604782979,0.0
239,1.5437710285186768,162.22545417066337,543.1909711498636,2195.3790958370587,-19.051745990013714,9.375,0.7762194203737321,0.1,0.006251811981201172,0.14250588417053223,0.0502456,0.12702425,237.29647316980058,0.0009833426484615233,3.2498846626705635,9.375,1918,0.25745701789855957,0.2403905982760462,0.2149807098313304,12.657578798321211,0.0
240,2.012838125228882,272.7995053342633,598.2093758590158,2326.871363936888,-19.62022159131148,17.708333333333332,0.9495636663228038,0.1,0.023746252059936523,0.1606302261352539,0.048899997,0.1010945,240.84677638624686,0.1302253365710425,5.474111142859293,17.708333333333332,2309,0.33275818824768066,0.26947489789645296,0.21431006779539727,10.114701389729376,0.0
241,1.9688069820404053,399.88743315078483,754.8359592023069,2476.8476502725084,-19.024588047888734,23.958333333333332,0.9784381939484352,0.1,0.0068051815032958984,0.25934338569641113,0.049987007,0.104040906,256.75084206270066,0.27308086406233345,7.98387091391033,23.958333333333332,2510,0.35729026794433594,0.21288588969613934,0.1971202918944447,13.18919943717592,0.0
242,1.8931739330291748,299.37633509531776,655.7610410638983,2525.859710052716,-19.335421151395515,19.791666666666668,0.9517049342778638,0.1,0.0063092708587646484,0.16533398628234863,0.049060773,0.10029774,261.0133913659624,0.11466414029611326,6.004483674181387,19.791666666666668,2171,0.4539666175842285,0.2503607917075019,0.2015339498157567,13.180137517163683,0.0
243,1.696143627166748,316.77146672865825,643.278188631632,2315.2107250467834,-20.23683825539601,20.833333333333332,0.9134519379779117,0.1,0.006854057312011719,0.1502058506011963,0.050637215,0.10982605,266.58919890223194,0.22667418887581872,6.342188155717082,20.833333333333332,2422,0.32489442825317383,0.21281065014082284,0.1963648544598542,12.57425093061324,0.0
244,2.011544704437256,342.011454514615,687.3510985810748,2186.3768266455713,-19.812085962002893,20.833333333333332,1.0001431116653454,0.1,0.016825437545776367,0.14621400833129883,0.05019589,0.10538467,274.13142446347024,0.14090122169455085,6.840964960121327,20.833333333333332,2339,0.321087121963501,0.27021495375349747,0.23142471193190103,13.713102372502131,0.0
245,1.7629179954528809,278.52355242817345,611.994473851734,2676.7184497154067,-19.754440521498093,21.875,0.8413835141485931,0.1,0.016635417938232422,0.14517593383789062,0.050339133,0.121637665,274.57063725994055,0.1937334948723837,5.578619892729026,21.875,2255,0.3127429485321045,0.28360838214562434,0.2621844358074499,13.089137599070625,0.0
246,1.564164161682129,339.1623938501704,708.294874081869,2706.6142233744345,-19.449862101547282,19.791666666666668,0.9099813337392949,0.1,0.006669521331787109,0.1468055248260498,0.049843002,0.10472343,281.02981291896356,0.15461371960300793,6.801836988738728,19.791666666666668,2281,0.30241918563842773,0.28297294771538245,0.24328312881371453,13.095295714966266,0.0
247,1.61079740524292,205.20231439024462,531.7483100810426,2294.542588125318,-18.767712566630923,15.625,0.8768807503913979,0.1,0.00632786750793457,0.1820211410522461,0.04925041,0.10713278,273.4470630660917,0.08089213904637707,4.122177375617088,15.625,2119,0.3341178894042969,0.27262200477398696,0.22069826593279568,13.182023326438332,0.0
248,1.67563796043396,305.2717123778163,666.7235064660545,2776.6691356481915,-18.669655683240748,19.791666666666668,0.8873175587011204,0.1,0.006781816482543945,0.15458416938781738,0.050145242,0.13155614,276.6295279972642,0.1603385429855391,6.1169783113763385,19.791666666666668,2326,0.33113646507263184,0.21755235885136048,0.1915041507144466,13.184088915751332,0.0
249,1.6387810707092285,293.3192253583465,635.8670041861905,2476.760483125023,-19.370826260856973,20.833333333333332,0.9363471472382056,0.1,0.00641179084777832,0.14425253868103027,0.050040532,0.106065825,278.2984977333724,0.13656546207582917,5.871804728216115,20.833333333333332,2237,0.3030548095703125,0.29043405440526787,0.22888416404535755,13.235350951616116,0.0
250,1.6253790855407715,249.79262329628648,620.9294813896221,2576.8430615564675,-18.9356204138984,15.625,0.8914490353090826,0.1,0.006892681121826172,0.148606538772583,0.05046399,0.1059899,275.4479102896638,0.1101624339728408,4.9967806692508,15.625,2207,0.32033777236938477,0.2133736590307027,0.19073295908668744,13.311853181421753,0.0
251,1.6876506805419922,342.0351281646524,643.382123294898,2486.1707419522204,-18.337470945049922,21.875,0.9827399956162183,0.1,0.024603605270385742,0.25096964836120605,0.050278906,0.099612854,282.10663207716266,0.28965092938002646,6.843336370299355,21.875,2577,0.5721561908721924,0.29165840578616203,0.2698900284560387,13.232275504136366,0.0
252,1.9161546230316162,430.87240586767217,730.1340618685481,2426.8598895735354,-19.646741290805686,28.125,0.9635814761133156,0.1,0.007384777069091797,0.15804672241210938,0.05008447,0.102608636,296.9832094562136,0.20400032905580376,8.587715822619211,28.125,2503,0.33601999282836914,0.2700042771882418,0.21106823659307966,13.282208769016966,0.0
253,1.6410317420959473,280.98294345728345,632.6844646475174,2526.0885727284717,-21.8550253769481,18.75,0.8591289767944336,0.1,0.007828712463378906,0.22054362297058105,0.05002712,0.11039723,295.3831828563206,0.13649617479244092,5.637824852336735,18.75,2132,0.365814208984375,0.2737957199974245,0.22887929176138191,13.220808189056577,0.0
254,1.7296149730682373,249.78913105053107,625.9460875139278,2476.5429873109188,-21.679635694099233,15.625,0.9118491290760671,0.1,0.012574911117553711,0.24387621879577637,0.050232876,0.118039325,290.82377767574167,0.1409381024613892,5.000316392863872,15.625,2279,0.37525177001953125,0.22876286438439472,0.17936748541656922,13.157869095152925,0.0
255,1.9059057235717773,211.86596546304872,549.5223567454759,2477.151033891793,-19.694592252756166,14.583333333333334,0.8824836252109161,0.1,0.00623011589050293,0.14535307884216309,0.050387695,0.110295996,282.9279964544724,0.16252018464047835,4.242218784907493,14.583333333333334,2224,0.2734866142272949,0.36938403606173786,0.32306441244381096,13.175639081536163,0.0
256,1.6886041164398193,188.6886125322312,531.867124459486,2477.104653504969,-19.17604625494355,11.458333333333334,0.8257427652479128,0.1,0.006438732147216797,0.14559030532836914,0.050537255,0.11469838,273.5040580622483,0.19895825232213094,3.789743115211568,11.458333333333334,2226,0.2941586971282959,0.3726165686026472,0.3224407399238409,13.170485847038385,0.0
257,1.702843427658081,304.6555372847361,716.5697999048359,2566.379826787126,-19.154111982587477,16.666666666666668,0.8649836218766176,0.1,0.006259441375732422,0.1533195972442627,0.050276816,0.11978783,276.6192059844971,0.1261913405139344,6.029647780222394,16.666666666666668,2173,0.2890160083770752,0.2257192115885311,0.16633593038163974,13.165364626583106,0.0
258,1.635072946548462,262.8027045953384,681.0902149869925,2776.8356858961765,-19.548925123077538,15.625,0.8347875112158262,0.1,0.006619930267333984,0.14337611198425293,0.05006645,0.11522057,275.23755584558126,0.10193825881624102,5.258242152308483,15.625,2202,0.2897071838378906,0.17090065252845957,0.14871853216651554,13.068091810442287,0.0
259,1.5323741436004639,216.8433243301563,592.5609658925518,2466.608350187103,-19.314804560453165,12.5,0.881629951338437,0.1,0.006180524826049805,0.1388530731201172,0.050563537,0.107612476,269.39813269403874,0.11635950711596553,4.350943666604228,12.5,2250,0.2943575382232666,0.2900945780779861,0.24597758073041284,13.10380293462789,0.0
260,1.6664307117462158,190.25441730162618,490.154644067764,1915.051196780455,-19.207386046632777,12.5,0.8798373337034214,0.1,0.00815582275390625,0.2986452579498291,0.05049779,0.11434393,261.4837611547975,0.1759362165062818,3.8226112896943154,12.5,2311,0.7959818840026855,0.3808413284132841,0.2726515598792352,13.066056266939977,0.0
261,2.2385549545288086,242.23468788479013,606.7255559998201,2305.81946020037,-19.333091939074762,14.583333333333334,0.9190049765802216,0.1,0.008175849914550781,0.15643978118896484,0.04978469,0.10830815,259.5588538277968,0.12156954156046879,4.83469728275734,14.583333333333334,2127,0.33278942108154297,0.3713022544618432,0.2768114278948276,12.995405752981611,0.0
262,1.9857239723205566,277.4343478261299,612.9023250595833,2276.965265069557,-18.718505471390237,18.75,0.9398314798149807,0.1,0.0069887638092041016,0.15351653099060059,0.049236063,0.10202101,261.3464032276301,0.24105727770109406,5.55036405879963,18.75,2277,0.3451504707336426,0.2956987788033038,0.23635796787070967,12.959313343118545,0.0
263,1.8830006122589111,274.7284852917006,653.640434327128,2527.682275072993,-20.096355293643235,17.708333333333332,0.8971348118862834,0.1,0.007079124450683594,0.36062169075012207,0.050411407,0.1167136,262.68461143403715,0.16385365221440598,5.497415301476732,17.708333333333332,2294,0.6393537521362305,0.23850871416684774,0.1661448589462973,12.973234128956747,0.0
264,2.5340590476989746,313.9404450700109,654.5660119499344,2166.410894267561,-19.768978382643212,20.833333333333332,0.9170200930737427,0.1,0.0074307918548583984,0.2997612953186035,0.04967821,0.100334674,267.81019479763455,0.246337864226188,6.278985521238611,20.833333333333332,2402,0.4533047676086426,0.22013701342573191,0.18164434908287377,9.202397392609347,0.0
265,1.9364335536956787,255.24670165016187,608.1478263016785,2076.2942572277802,-18.99566424512887,16.666666666666668,0.8725858687882858,0.1,0.018363237380981445,0.25798869132995605,0.050311647,0.11522928,266.5538454828873,0.12824828399251964,5.095343447691372,16.666666666666668,2203,0.3878169059753418,0.2460896444969141,0.2235551853090894,9.161145556917482,0.0
266,2.059940814971924,262.72626712983873,633.1696142474242,2356.649889734029,-21.14692829396818,14.583333333333334,0.8839095411813304,0.1,0.032321929931640625,0.18583226203918457,0.05005238,0.12703435,266.17108764758245,0.11205122633577147,5.255363218763722,14.583333333333334,2269,0.5419480800628662,0.15382070561586267,0.10199147204835732,12.958398089326103,0.0
267,1.9570162296295166,356.702729294863,714.7917574468278,2577.1848870222816,-18.257324756918536,21.875,0.9550922829271008,0.1,0.016603469848632812,0.1628572940826416,0.049938455,0.10015573,275.2242518123105,0.24341422691007744,7.121003126455242,21.875,2466,0.6319026947021484,0.23172351357841534,0.2058947963166813,9.218307289214009,0.0
268,2.0385704040527344,326.6314080996207,708.0379946975418,2646.313433961255,-19.251143142352294,20.833333333333332,0.9278219462988846,0.1,0.02401256561279297,0.31482601165771484,0.050060198,0.11149785,280.36496744104153,0.09544932988615885,6.532525205985262,20.833333333333332,2257,0.44963717460632324,0.23091863736943768,0.20952740045662316,12.984275217656318,0.0
269,2.0627613067626953,372.8966160429227,770.9982463444478,2776.1111826000215,-18.46609392318308,20.833333333333332,0.8919328523710769,0.1,0.031900882720947266,0.15787172317504883,0.05042062,0.114779785,289.61813230122965,0.17680923473329033,7.434185790129526,20.833333333333332,2460,0.3249020576477051,0.17423771618778483,0.152986598385157,9.198635683898933,0.0
270,2.0377516746520996,397.8657467965927,753.1182716572973,2677.119093590121,-18.961400605467226,26.041666666666668,1.0207259296560822,0.1,0.01766180992126465,0.2983405590057373,0.050286617,0.09850774,300.44289375076596,0.18095754940725486,7.971275219998707,26.041666666666668,2410,0.5341050624847412,0.22755029465897622,0.1716952073542328,9.154114487967238,0.0
271,1.9518132209777832,354.9787660064408,717.1992194374495,2376.4937485466176,-19.730020779347107,21.875,0.9235139761826676,0.1,0.01793670654296875,0.16498374938964844,0.05025214,0.102975465,305.89648097633346,0.14329269488897833,7.113041137621333,21.875,2199,0.3323793411254883,0.18717092646805267,0.16631054917531415,9.179821245157877,0.0
272,2.0984275341033936,246.10507179258002,603.6357947753913,2447.048185392102,-19.1537648835981,14.583333333333334,0.8731951220154374,0.1,0.006525754928588867,0.14811229705810547,0.050286952,0.10954853,299.9173400579581,0.1796416258430302,4.906747943947473,14.583333333333334,2180,0.3000450134277344,0.3560172366416752,0.2648294597290888,9.175184234749162,0.0
273,2.143237590789795,321.932837913563,692.8024227498413,2636.22521659383,-19.33723102487639,19.791666666666668,0.9718925048626954,0.1,0.007332324981689453,0.1531665325164795,0.049968656,0.11077249,302.11888984351856,0.13969316290597475,6.44195195272327,19.791666666666668,2297,0.35762619972229004,0.22479324052459235,0.16174643655433857,9.176965078304928,0.0
274,1.9294865131378174,301.0749420381094,680.1601630084141,2537.2388128068496,-20.14801447411189,17.708333333333332,0.9273637973111135,0.1,0.0066814422607421875,0.16310429573059082,0.050462138,0.106917195,302.01449506297763,0.08942346299506843,6.03606988835741,17.708333333333332,2064,0.321277379989624,0.24359426743101928,0.19951563144153245,12.3573043845423,0.0
275,2.557842493057251,297.15239409729594,611.7552540103794,2199.925257425273,-19.69973408073398,20.833333333333332,0.8989689493364263,0.1,0.007730007171630859,0.22585344314575195,0.05011915,0.10885372,301.52828496640944,0.12800280334559808,5.9609319475125675,20.833333333333332,2089,0.503678560256958,0.3446482579678885,0.2558664000246933,12.321030860866486,0.0
276,2.0392000675201416,158.591394441689,505.43346667416256,2575.8116642767873,-18.414035404520906,10.416666666666666,0.8094418675740443,0.1,0.02333211898803711,0.3601646423339844,0.04960333,0.11968835,287.23459591393737,0.0984824168986299,3.1851590361096775,10.416666666666666,2083,0.40125298500061035,0.3137454083549914,0.2733607475171812,12.407781019870797,0.0
277,2.0785512924194336,323.51534113338965,664.0882240217655,2627.275022597845,-19.60117959379989,20.833333333333332,0.9433794278781656,0.1,0.01662588119506836,0.18033528327941895,0.050020754,0.10628105,290.8626704358826,0.22276336738796573,6.447575123473136,20.833333333333332,2452,0.4077012538909912,0.28973891895822323,0.27086343723479894,16.137124526824092,0.0
278,2.127267837524414,275.8538735273773,674.9127991726712,2576.057819817969,-18.30647858039451,14.583333333333334,0.888104571497054,0.1,0.01687002182006836,0.2585451602935791,0.049939055,0.11001138,289.36179074503207,0.12639695282351207,5.521821579150312,14.583333333333334,2324,0.36301612854003906,0.23778457627217475,0.17374996477114363,12.27488899636598,0.0
279,1.7959506511688232,449.2015273411169,819.3299346876421,3026.923371021949,-18.237746386686855,26.041666666666668,0.9218819647084321,0.1,0.007684230804443359,0.5217299461364746,0.05022349,0.1175731,305.3457644046406,0.22142972425357196,8.971436433883328,26.041666666666668,2361,0.4607369899749756,0.19450414207813255,0.17294152643410432,9.206834947790096,0.0
280,1.8863048553466797,267.9813386007293,649.2597170741527,2876.599187314497,-19.08184361530824,17.708333333333332,0.90421587923625,0.1,0.05414128303527832,0.15777587890625,0.05022222,0.103005245,301.6093218242495,0.17457110705035242,5.376338987524844,17.708333333333332,2256,0.3870980739593506,0.34814766240255546,0.23349384946401824,12.269691970805294,0.0
281,2.1969363689422607,248.64554125560676,557.6455338944443,2275.9354864029387,-18.846837093937165,18.75,0.9204420012561421,0.1,0.006536722183227539,0.35028958320617676,0.04971828,0.11550745,296.31294376738526,0.15028874251715366,4.9865087430485415,18.75,2276,0.44500160217285156,0.35418188406971723,0.2909505972116961,9.161035304368799,0.0
282,1.8466873168945312,162.91775519663477,483.7451246446658,2285.620900332126,-19.042303015093868,12.5,0.8430585973474753,0.1,0.005271196365356445,0.26505494117736816,0.049959145,0.123213604,282.9734249103102,0.07434474168408658,3.248515581044557,12.5,2121,0.3721628189086914,0.4107987087618232,0.37654024384192974,9.139819475996108,0.0
283,2.847990036010742,273.5961751960046,628.6635580236252,2676.5412197060596,-19.887614407761276,18.75,0.8854023742448869,0.1,0.0548090934753418,0.1894237995147705,0.04927979,0.114422746,282.03569993887965,0.08442580728520614,5.4642263939705105,18.75,2093,0.31439709663391113,0.27597155107637517,0.2294898177338495,9.131879952127132,0.0
284,2.1462011337280273,466.10004563833644,802.7873671581451,2636.889825458572,-19.446804874846798,29.166666666666668,0.9192526125449625,0.1,0.02530193328857422,0.2502472400665283,0.049237482,0.103878036,300.44213450882535,0.18748650193910846,9.291271387827797,29.166666666666668,2419,0.3697545528411865,0.1411071787246871,0.12633725575687033,9.098821151939072,0.0
285,2.0709850788116455,397.66673658278415,787.9281827277687,2876.4302233191547,-18.076085091402156,25.0,0.9536109354537948,0.1,0.015935182571411133,0.19769573211669922,0.050577443,0.10531874,310.16459471622125,0.2702373477154829,7.952583659705954,25.0,2416,0.38330674171447754,0.24290568722681555,0.18256976688575927,9.145560780501416,0.0
286,2.2665367126464844,455.2596883529615,795.5272735983528,2526.897856507282,-18.10399791208615,27.083333333333332,0.9997634832992581,0.1,0.05455660820007324,0.3829371929168701,0.05015455,0.10455861,324.6741040798953,0.2680865737102993,9.078967684557789,27.083333333333332,2684,0.45732617378234863,0.15396327585294564,0.1239656677193837,9.135863388440818,0.0
287,1.7683298587799072,185.42508521411392,483.4779926070039,2026.2667738186306,-19.216870037483726,13.541666666666666,0.8055447111421253,0.1,0.008511066436767578,0.32234883308410645,0.05007895,0.12567809,310.74920219331716,0.0718787828985009,3.7141683575159323,13.541666666666666,2020,0.4582095146179199,0.19546896407899736,0.1611022762446613,9.077899121964851,0.0
288,1.9070885181427002,213.1414290699564,544.8816993489907,2366.287482053724,-18.292376310588548,13.541666666666666,0.882345200196376,0.1,0.004935741424560547,0.13709115982055664,0.050660536,0.10222452,300.9884248809811,0.13711414089010399,4.257577355148071,13.541666666666666,2211,0.47627925872802734,0.30095230295233827,0.2721810434427702,9.036140826688326,0.0
289,2.0402212142944336,482.49640987084257,752.2993979866484,2555.501608338121,-18.322413338635045,32.291666666666664,1.0335381089093423,0.1,0.022362470626831055,0.40460991859436035,0.04968812,0.09344088,319.13922337996723,0.31846623117778655,9.66495999894772,32.291666666666664,2748,0.45769762992858887,0.23227002210536948,0.19736750369737222,8.994190810281466,0.0
290,1.9335336685180664,205.4703677246076,573.8614766113494,2466.511985568142,-19.747433372205776,13.541666666666666,0.8455490745510106,0.1,0.013793468475341797,0.3141639232635498,0.04927418,0.11799111,307.7723378144313,0.0599754808843739,4.1152339878398605,13.541666666666666,2085,0.5046210289001465,0.3007175745406237,0.23339518722600416,10.264723350052954,0.0
291,2.0828773975372314,403.7529883009883,760.2783029593195,2826.8066986500808,-18.721091410814807,23.958333333333332,0.9782306710153872,0.1,0.016941547393798828,0.20134687423706055,0.04961072,0.111584745,317.370402863087,0.2204452305133201,8.074971604727038,23.958333333333332,2632,0.4132423400878906,0.22077106651302186,0.1856771879847556,10.81061910164016,0.0
292,1.9078514575958252,292.50173476452073,676.8640995452623,2625.8545788865385,-18.658220753393614,17.708333333333332,0.8846456249729913,0.1,0.006716012954711914,0.14737749099731445,0.049962908,0.10852421,314.8835360532304,0.1664404037148093,5.8492791260083505,17.708333333333332,2306,0.36089372634887695,0.19320205831066992,0.17356986647275408,10.197023586870522,0.0
293,1.922692060470581,395.411065766012,746.5978010823706,2556.198082842987,-20.153820638926142,26.041666666666668,0.9898760465170254,0.1,0.057161569595336914,0.24480056762695312,0.049579006,0.1080157,322.93628902450854,0.22890183621532623,7.894652243038329,26.041666666666668,2604,0.4434652328491211,0.13425880767037435,0.0941493925509286,10.207135697855403,0.0
294,1.6202502250671387,287.65430859793054,650.8650828995947,2326.299541794113,-18.84244127454402,17.708333333333332,0.9142081970406268,0.1,0.02399730682373047,0.38937854766845703,0.050259463,0.109932505,319.40809098185076,0.18287632376293325,5.753832972992218,17.708333333333332,2441,0.6982495784759521,0.1902133495648102,0.15899553972696137,10.8092162156804,0.0
295,1.8844168186187744,434.73305301070627,762.1037158765234,2666.221957698505,-19.55249912246816,26.041666666666668,1.0094198944593402,0.1,0.029193639755249023,0.3520810604095459,0.050677303,0.09730104,330.94058718473633,0.22708386988779372,8.667491692282148,26.041666666666668,2523,0.6013748645782471,0.17875133317672245,0.16362067697123572,10.802748072981647,0.0
296,2.03478741645813,247.73607609907467,604.9388695373548,2576.8505811771684,-18.76735590107571,16.666666666666668,0.8628795941900547,0.1,0.029272079467773438,0.2910959720611572,0.050808407,0.10996285,322.6201360761702,0.13187975534757548,4.950535221943485,16.666666666666668,2410,0.5534572601318359,0.28390795402153113,0.22659821547395753,14.553995007206101,0.0
297,2.1091339588165283,345.55576826935476,741.745801849742,2777.0404374496575,-19.693829976859554,19.791666666666668,0.9723443848839861,0.1,0.006916999816894531,0.15169167518615723,0.049553387,0.10915228,324.91369929548864,0.1813682577142929,6.91220856837283,19.791666666666668,2438,0.3553955554962158,0.23120494828788965,0.11476776282455954,24.00147867874908,0.0
298,1.6896114349365234,432.8538229966636,806.1602413259797,2546.3929994785476,-19.61480888924972,25.0,0.982288302702224,0.1,0.06435513496398926,0.1530628204345703,0.05052435,0.094842196,335.70771166560615,0.2222884303562145,8.646593454202,25.0,2538,0.3761723041534424,0.16202367781832436,0.15175931986662308,10.866814802330031,0.0
299,1.8098750114440918,383.3031869147765,712.1323890187501,2646.602205383705,-19.843347185869007,25.0,1.010192303173727,0.1,0.006395816802978516,0.151580810546875,0.04991256,0.09177975,340.4672591905232,0.25760390740837646,7.654904164121718,25.0,2643,0.38617753982543945,0.2644489399933016,0.20459664859344245,10.865794340754098,0.0
300,2.259547233581543,442.55823098433547,770.9330530391161,2677.1584035916535,-19.298236502675522,27.083333333333332,1.0527443041432814,0.1,0.046098947525024414,0.2135910987854004,0.050411638,0.0992396,350.6763563699044,0.30845036452059715,8.83780199777384,27.083333333333332,2942,0.4964313507080078,0.19780543870307396,0.18947943808334639,10.217733809496538,0.0
301,1.9755680561065674,461.3577825000278,812.1924143697001,2445.9976747523087,-18.392132974634443,25.0,0.9528367781036587,0.1,0.04966163635253906,0.2840735912322998,0.05047978,0.1024419,361.74449898291675,0.291441545753448,9.22292079244466,25.0,2741,0.35300588607788086,0.12319205974735307,0.10450176340998987,10.234442560796076,0.0
302,1.648247241973877,435.7217785738257,840.8444336493282,2876.5489566468855,-19.018908848539233,23.958333333333332,0.9714733241103694,0.1,0.00671076774597168,0.14789271354675293,0.04944052,0.111204654,369.1422269420077,0.18680751304475152,8.690698808553421,23.958333333333332,2459,0.6780362129211426,0.10003338153342481,0.07573388656834018,10.258899269146408,0.0
303,2.8012208938598633,277.5572801777241,624.3957510829754,2526.245888340627,-19.81524091102719,18.75,0.9219698294545976,0.1,0.008209705352783203,0.19841504096984863,0.05003719,0.10455855,359.98373226557936,0.10733718988919762,5.5492160103065205,18.75,2389,0.4937753677368164,0.27832737257973333,0.19450697029271308,9.73900578159611,0.0
304,1.8944010734558105,386.51431166436896,785.3296855058196,2626.8641798664653,-19.48161814945056,20.833333333333332,1.0286264457021643,0.1,0.028104543685913086,0.26468777656555176,0.05048842,0.09630865,362.63679020545834,0.2290742205858313,7.715838629616524,20.833333333333332,2614,0.381091833114624,0.1904245850455198,0.15400768841771326,10.461002166934525,0.0
305,1.9386932849884033,381.57413777755056,729.6585680509069,3027.804705912162,-18.84623506664403,23.958333333333332,0.963120929731518,0.1,0.017766237258911133,0.2537679672241211,0.050774943,0.10361062,364.5305249626675,0.2169553450290492,7.620308059120827,23.958333333333332,2627,0.5973827838897705,0.1994480566363945,0.1798914968329359,9.740315585201799,0.0
306,1.9964725971221924,370.5300464994534,804.8438992574138,2777.885219060391,-20.020644610792733,18.75,0.8794262791696297,0.1,0.016675949096679688,0.6625616550445557,0.050167218,0.117707424,365.1304771163461,0.1045560731697421,7.397606823214492,18.75,2388,0.44310545921325684,0.20243884291563682,0.1768129491886412,9.758376351469625,0.0
307,2.118516445159912,490.1747759004006,825.6017248590321,2476.0481685721293,-19.607793138056998,27.083333333333332,1.0552480364142618,0.1,0.006788492202758789,0.1435868740081787,0.050659735,0.09264491,377.6349069947516,0.21518694784731232,9.780528789356593,27.083333333333332,2664,0.387225866317749,0.1576501972049164,0.13936955977133894,10.396365450852675,0.0
308,1.8737812042236328,339.31586514356906,669.4457242039068,2356.198629112658,-18.321158559603262,22.916666666666668,0.952434811332398,0.1,0.006664752960205078,0.14966416358947754,0.05031807,0.095469266,373.80300280963337,0.2568573169534715,6.784397169247538,22.916666666666668,2540,0.4914388656616211,0.262992489442865,0.24004844406434345,10.936532715245235,0.0
309,1.976243019104004,446.2395263914609,814.5901205740196,2827.3673352082938,-19.36805619084167,25.0,0.9351996391583945,0.1,0.018860578536987305,0.27713727951049805,0.049961124,0.12294552,381.0466551678161,0.2464287736293934,8.90730371622948,25.0,2673,0.38660454750061035,0.2137418687860827,0.19717157901122687,13.386930611132065,0.0
310,2.1848747730255127,240.35502546631642,564.092264965554,2245.951396053127,-19.89584513658883,16.666666666666668,0.9717868810290651,0.1,0.006578683853149414,0.1512916088104248,0.050380435,0.1000388,366.9774921976661,0.1123159393598389,4.808248403508838,16.666666666666668,2454,0.34870076179504395,0.3806632351683515,0.2898594523023689,8.974802892015393,0.0
311,1.75785493850708,393.6578018577023,772.6524135343525,2617.381252736486,-19.232756259093993,21.875,0.8566151316739855,0.1,0.0066089630126953125,0.1480085849761963,0.04949657,0.11883913,369.64552316366974,0.12353783652028344,7.826119285688498,21.875,2388,0.3655567169189453,0.20700570160559167,0.1447930442600498,8.933740357896337,0.0
312,2.118650197982788,293.37926156280685,711.0065664949317,2627.2105025277083,-18.763165485214348,16.666666666666668,0.9200606927605399,0.1,0.007306337356567383,0.1578691005706787,0.049874637,0.110647574,362.01889700358345,0.15054716199622586,5.87043587609038,16.666666666666668,2455,0.3417363166809082,0.2182570856971808,0.16543741983992133,13.31676134484509,0.0
313,2.2594056129455566,264.6392076681632,611.7624383584935,2826.812269909814,-19.449618824708487,18.75,0.9307956330670484,0.1,0.045823097229003906,0.1832256317138672,0.04992718,0.10469643,352.28092807004145,0.08947835285258497,5.294770542497707,18.75,2309,0.42890262603759766,0.32208825382886547,0.2885949402275287,12.056652221144528,0.0
314,2.066248893737793,364.24799026287064,749.5567088562667,2576.7332078527547,-19.23516284194172,21.875,0.8675637687071645,0.1,0.0242154598236084,0.3050100803375244,0.04934389,0.11022416,353.4776342893244,0.2110579329053186,7.279692079775859,21.875,2495,0.37714552879333496,0.16105219516145855,0.1349863422268963,12.020541528126357,0.0
315,2.1239144802093506,307.18732816235314,654.385375116094,2586.8490483713463,-19.564798298509018,20.833333333333332,0.938216018141332,0.1,0.020186662673950195,0.24328327178955078,0.048209652,0.10504673,348.8486036766273,0.1604451169935807,6.155294499671331,20.833333333333332,2445,0.44020533561706543,0.16491873078772462,0.1487557941035333,12.035674796853762,0.0
316,2.0700631141662598,376.51978755600476,763.5454284774037,2727.2009516089465,-19.715407466484454,20.833333333333332,0.9555870706904132,0.1,0.0190579891204834,0.33777284622192383,0.050323687,0.110771485,351.61572206456503,0.18508395546246517,7.524366693147793,20.833333333333332,2595,0.7533376216888428,0.14153641277934004,0.12964045577553324,12.047841349669227,0.0
317,2.1858856678009033,447.25508093421496,812.5001824768606,2577.05449105334,-19.000127095751974,25.0,1.0672114268779034,0.1,0.016907215118408203,0.16704511642456055,0.049164232,0.09844444,361.1796579515301,0.1989008211309414,8.905542868622655,25.0,2655,0.3509829044342041,0.10132915509443506,0.07845712613151204,8.898102282963253,0.0
318,2.1659865379333496,332.47712522235514,668.3980674099155,2526.1918232096587,-19.415800628841566,20.833333333333332,1.0731293715243837,0.1,0.03625178337097168,0.17990946769714355,0.05091858,0.08345511,358.3094046786126,0.16248824205587462,6.651714474851135,20.833333333333332,2536,0.38730621337890625,0.23967784755319246,0.2007541042032884,13.385996014438936,0.0
319,2.1810474395751953,350.30466118561645,735.5575940891143,2576.4225291313123,-19.15265922288705,19.791666666666668,1.012890484179114,0.1,0.026646137237548828,0.19041728973388672,0.05046053,0.09223141,357.50893032931305,0.11692329784412514,6.9896292500014505,19.791666666666668,2394,0.43968915939331055,0.12757522440547744,0.11193633401640546,15.923205411821968,0.0
320,2.2650911808013916,463.14762296834107,837.5364193500634,2826.9685912001787,-19.195343670371564,25.0,1.0068487358105362,0.1,0.02474379539489746,0.2996182441711426,0.049028557,0.08855393,368.07279959321585,0.21506386675575354,9.268059062162243,25.0,2614,0.41333603858947754,0.20474476278629072,0.17299527112651006,9.650993757900652,0.0
321,2.1144163608551025,525.9534205142762,858.8403614515731,2827.166430997699,-19.183552323398402,29.166666666666668,1.0319124944822011,0.1,0.009480714797973633,0.42989158630371094,0.05083576,0.09837656,383.8608616853219,0.21887578429857943,10.518570731761274,29.166666666666668,2614,0.3675081729888916,0.14557773223857956,0.10715854417690994,17.811380097480317,0.0
322,2.3534395694732666,314.4091894071452,643.2168542270891,2477.4373505167514,-19.38362555355115,20.833333333333332,0.9813356595626695,0.1,0.017298460006713867,0.16486215591430664,0.050293013,0.10186945,376.91569445750423,0.1938404929259148,6.2871939112774315,20.833333333333332,2758,0.438129186630249,0.18753806445651305,0.15884796478538996,16.535529762449492,0.0
323,2.189148187637329,321.5058289916165,737.8239996760053,2827.49313251395,-19.812755221289578,15.625,1.0631718193627002,0.1,0.029751300811767578,0.17468023300170898,0.05006622,0.09495428,371.37470791091545,0.21986001675335132,6.42155331814854,15.625,2554,0.3797292709350586,0.17730203664386254,0.15438112467689283,17.157733399069,0.0
324,1.6497340202331543,324.2284432244666,761.8271176376072,2927.922264073564,-19.41800970110606,16.666666666666668,0.9569403924027005,0.1,0.007187604904174805,0.15937232971191406,0.050381888,0.09779269,366.6600814422706,0.1844739729676954,6.502624606725232,16.666666666666668,2474,0.35021519660949707,0.14411670633033813,0.11436039350455705,18.333144720793918,0.0
325,1.680816888809204,338.18975736321676,729.8216180298144,2627.2123891140195,-18.296663373845135,19.791666666666668,0.8865151923084656,0.1,0.016805171966552734,0.15917086601257324,0.050350163,0.0997249,363.81304903436524,0.1686554146445258,6.7667553865635,19.791666666666668,2501,0.3534238338470459,0.17536791658126685,0.12318034935748538,18.27668850812205,0.0
326,1.794445276260376,441.96881148903253,810.8097419514244,3027.641581297725,-18.86137522320071,25.0,0.9307485914798983,0.1,0.00681757926940918,0.14664602279663086,0.050390027,0.10259094,371.628625279832,0.20253269566190238,8.821744228778195,25.0,2653,0.40473270416259766,0.18828400620094357,0.15466888843650065,19.010193317916237,0.0
327,2.050568103790283,543.2313245383148,885.8466278938749,2827.2622455560154,-20.060036604579345,29.166666666666668,0.9668750841010485,0.1,0.006884574890136719,0.15759587287902832,0.049349703,0.10957405,388.7888952056803,0.21337430595818505,10.796298954757694,29.166666666666668,2725,0.3803694248199463,0.10183937301138062,0.07472526611498098,19.013225451651863,0.0
328,1.7464497089385986,393.85738753244794,803.787274947288,2927.5075941313416,-19.267000056868216,19.791666666666668,1.0079089078855588,0.1,0.029821395874023438,0.15145206451416016,0.05069556,0.09830487,389.29574443835713,0.17472927720683704,7.85962145320006,19.791666666666668,2620,0.6790554523468018,0.15225095267383668,0.12207181085926344,18.962028458564404,0.0
329,2.421121597290039,505.4928096558173,873.100629780604,2777.3599126879117,-21.133837924158442,25.0,0.9461665266715735,0.1,0.01981663703918457,0.26515913009643555,0.049546547,0.09565864,400.91545096010316,0.2173642217760486,10.083713658405516,25.0,2730,0.49421167373657227,0.14480967713553924,0.13021352511692974,18.386107728096448,0.0
330,1.746185064315796,422.3644371479233,800.67486280153,2827.1020717185093,-20.136364103884993,22.916666666666668,0.9129634527327001,0.1,0.006868839263916016,0.1535189151763916,0.050407585,0.101313405,403.06034957888517,0.19848526271322262,8.423739077733034,22.916666666666668,2579,0.34181666374206543,0.1593411267921426,0.14039154137757792,17.80907973340544,0.0
331,1.6950597763061523,419.1321020761893,822.4437140225367,2877.0772923452564,-18.225622307435746,21.875,0.8894172215614948,0.1,0.016956090927124023,0.15884804725646973,0.04788005,0.102001086,404.66752482861557,0.19581892842608595,8.369320847733194,21.875,2595,0.3535287380218506,0.15803142639804377,0.14185108373081556,17.86573019312998,0.0
332,1.791261911392212,553.8031497615826,884.7264517636389,2677.5560708309617,-18.130300253610685,29.166666666666668,1.0673425381756518,0.1,0.04825782775878906,0.3993544578552246,0.049731385,0.089185886,419.5810873219123,0.27866090383291436,11.052239491743444,29.166666666666668,2846,0.7357254028320312,0.14693600478057484,0.13261009220007589,17.8948355661738,0.0
333,1.9363505840301514,368.89011400459793,724.6698066394896,2476.502848540136,-19.22814128826087,21.875,1.0073564299286213,0.1,0.0283050537109375,0.17845964431762695,0.05010497,0.0949043,414.51198999018084,0.20969915671359937,7.354696168584197,21.875,2625,0.4423105716705322,0.2719770846234787,0.2439486374867513,15.975067203669784,0.0
334,2.082285165786743,285.0674546457913,709.8222614876801,2516.941840897129,-20.076629299582827,14.583333333333334,0.8576782382510671,0.1,0.03452301025390625,0.20157575607299805,0.049362876,0.116318166,401.5675364557419,0.1148006079271629,5.685658563280565,14.583333333333334,2418,0.3880913257598877,0.22794506259777791,0.17716533060384715,15.946794562027335,0.0
335,1.8751654624938965,310.8759784888998,699.3027837526769,2577.2251305283053,-20.76223089274797,17.708333333333332,0.9888873083457245,0.1,0.029417753219604492,0.3033289909362793,0.049714647,0.09898509,392.4983806590577,0.16257485867098542,6.207402071888173,17.708333333333332,2534,0.5455405712127686,0.27279451466560006,0.1674336200064638,12.077243100313105,0.0
336,1.8025174140930176,417.6187643035076,803.1307645568439,2727.7586174595244,-19.902459191324876,21.875,0.9257735405075568,0.1,0.05794358253479004,0.2778322696685791,0.05079287,0.11134176,395.0104190235027,0.17019935968742828,8.340061986965607,21.875,2541,0.2761571407318115,0.1395054093829838,0.10590885787968367,8.946192090873607,0.0
337,1.9822680950164795,516.2905482175225,918.3574755916032,2877.5764795765153,-19.945560882048557,27.083333333333332,0.9810834024746921,0.1,0.005278825759887695,0.1384716033935547,0.049716022,0.10035153,407.13843194290473,0.27616038292006406,10.292261594255828,27.083333333333332,2747,0.2584807872772217,0.12972431252748814,0.11684847514187544,12.767532046508414,0.0
338,1.8591790199279785,448.3176890300421,806.7110141044474,2827.8863660328225,-18.83927759054923,26.041666666666668,1.0377558188565321,0.1,0.0298001766204834,0.1343979835510254,0.05020871,0.0921533,411.2563576516185,0.24089098349509377,8.908553613197238,26.041666666666668,2805,0.5060956478118896,0.15392169119035293,0.13244042985013194,15.866863908658493,0.0
