iteration,time_sampling,stoc_pol_mean,stoc_pol_std,stoc_pol_max,stoc_pol_min,rollout_success,alpha,delta,time_vpg,time_npg,kl_dist,surr_improvement,running_score,rwd_sparse,rwd_dense,success_percentage,num_samples,time_VF,VF_error_before,VF_error_after,env_samples,eval_score,eval_success
0,1.3656911849975586,-48.4859931992317,5.003528875736494,-27.670742648733253,-51.98456680159821,0.0,0.24621556570632105,0.1,0.01450037956237793,0.11269640922546387,0.05210408,0.6134935,-48.4859931992317,-0.38622971331530803,-0.40704659270062543,0.0,491,0.0642857551574707,0.9988964867389101,0.9892132026583653,491,-48.405997989038205,0.0
1,1.1513097286224365,-49.24831798018303,3.7028507116444924,-31.511706510440536,-51.71051446449609,0.0,0.3391650387718432,0.1,0.0047037601470947266,0.09962677955627441,0.053468946,0.4061261,-48.562225677326836,-0.3860842402790427,-0.4146753020782204,0.0,442,0.035841941833496094,0.9893984541896506,0.9758678006555774,933,-48.2768267771836,0.0
2,1.17661714553833,-48.22279540080734,4.88732826572741,-31.358332339770186,-51.85819592082933,0.0,0.3914421279543969,0.1,0.005168914794921875,0.09963870048522949,0.05360623,0.31588152,-48.52828264967489,-0.3378196814288447,-0.40441869816892245,0.0,546,0.04751896858215332,0.9752391167425916,0.9304224933576524,1479,-47.480224590734764,0.0
3,1.2747254371643066,-49.2902914847267,3.876804473843011,-35.21913458620007,-51.78442813755478,0.0,0.40070172476367016,0.1,0.005317211151123047,0.11003518104553223,0.0570443,0.30182552,-48.60448353318008,-0.31559679628152815,-0.4150911244065975,0.0,553,0.049170732498168945,0.9316433900789228,0.833525829191938,2032,-45.04674728482135,0.0
4,1.3014657497406006,-49.51114782785263,3.2172449380691543,-35.52095812254748,-51.813606346121745,0.0,0.3679360010056402,0.1,0.01003265380859375,0.12033677101135254,0.051071964,0.3395411,-48.695149962647335,-0.3005759139279375,-0.417304843788641,0.0,536,0.04454970359802246,0.8338980497347143,0.6534940427821238,2568,-45.27703640144058,0.0
5,1.3438830375671387,-48.525120248413266,4.720783240884289,-35.23728781268129,-52.27150712777652,0.0,0.4063087799841297,0.1,0.004662752151489258,0.09881329536437988,0.051707868,0.2973506,-48.678146991223926,-0.29345704592065786,-0.4074418321954685,0.0,608,0.06060934066772461,0.6444190559053098,0.3382382942455839,3176,-44.3335131536445,0.0
6,1.3514556884765625,-47.978222627722346,5.472028084170252,-31.680435941937045,-52.452054659972276,0.0,0.41151088429819216,0.1,0.005433082580566406,0.1070261001586914,0.05210628,0.29783756,-48.60815455487377,-0.2805318416171962,-0.40197777622561315,0.0,636,0.06077003479003906,0.3342387723176299,0.07581663686503566,3812,-43.33174928208577,0.0
7,1.3524532318115234,-47.76118835908084,5.768030530795496,-27.980938935047423,-51.94491506663072,0.0,0.4564069489126369,0.1,0.0050814151763916016,0.1129608154296875,0.05048239,0.2532058,-48.52345793529448,-0.3171196685680014,-0.39980828210765124,0.0,682,0.05992436408996582,0.07206610275207266,0.03591950111620836,4494,-43.61402388784218,0.0
8,1.384993314743042,-47.59078738343169,6.306735070723334,-23.36641150540438,-51.866101052442154,0.0,0.49775964862419336,0.1,0.0059392452239990234,0.11458778381347656,0.050217997,0.2046683,-48.430190880108206,-0.2515265709263576,-0.3981066627866854,0.0,657,0.060030460357666016,0.03855364152183389,0.032318497850119886,5151,-42.93220914450947,0.0
9,1.3917450904846191,-48.57089287811889,4.8386990036190385,-31.70101552644705,-51.94452570075861,0.0,0.4669575114242867,0.1,0.005601406097412109,0.11286711692810059,0.048680365,0.1895277,-48.444261079909275,-0.28850990700508605,-0.40790352407356406,0.0,696,0.0608973503112793,0.023698640343202446,0.022026652976760035,5847,-43.11613696772619,0.0
10,1.3158502578735352,-48.95651801058253,4.096175559061942,-31.55199106183429,-51.9447137209844,0.0,0.4445206166826574,0.1,0.005461454391479492,0.10930061340332031,0.050651163,0.20627531,-48.495486772976605,-0.25536730855113043,-0.4117594135410491,0.0,643,0.07295346260070801,0.02281828074916855,0.020538926560445106,6490,-43.34232914765191,0.0
11,1.448061466217041,-46.92804410968581,6.43379560298976,-24.070204133354,-52.11820127217838,0.0,0.42948518429811083,0.1,0.005146026611328125,0.10606241226196289,0.050568715,0.2559407,-48.33874250664752,-0.35714819124308933,-0.39147017473797385,0.0,690,0.05866122245788574,0.028010308360000864,0.024712982168078906,7180,-42.84566503161534,0.0
12,1.3561902046203613,-48.635704589963915,4.804257367239862,-27.621834178006107,-51.88405145832739,0.0,0.44800180004991125,0.1,0.01149749755859375,0.22089719772338867,0.052513573,0.20026278,-48.36843871497916,-0.2750782095867868,-0.4085541780977405,0.0,678,0.06246542930603027,0.020853584316138943,0.018685122658004153,7858,-43.7359687949923,0.0
13,1.3762755393981934,-48.12113742095661,5.693354418077501,-23.944247775430302,-52.050714609408246,0.0,0.4592466220568735,0.1,0.00577998161315918,0.1171715259552002,0.051049307,0.22548807,-48.34370858557691,-0.26853522019825365,-0.40340969102176394,0.0,671,0.060270071029663086,0.020949163061209877,0.01909245336548679,8529,-43.947808001547855,0.0
14,1.3700692653656006,-47.98975879341,5.174772005992186,-31.810908516701044,-53.64109626364563,0.0,0.4689412702915917,0.1,0.005259037017822266,0.10361957550048828,0.050603908,0.21415022,-48.30831360636022,-0.2925666315838129,-0.40209721806160453,0.0,671,0.06213116645812988,0.01714020508368087,0.015422413012429916,9200,-43.705895504376656,0.0
15,1.4004552364349365,-47.61701015649393,6.294791450548742,-27.76879846067342,-52.20139341704098,0.0,0.4884496197174991,0.1,0.005247831344604492,0.13064265251159668,0.050011944,0.22898208,-48.2391832613736,-0.30182734723144256,-0.39836324685106894,0.0,734,0.0692899227142334,0.016915767376051584,0.015511131419474583,9934,-43.52886324080363,0.0
16,1.41312837600708,-47.39382311709765,6.223310902252806,-27.805250962093105,-51.706302985667634,0.0,0.5122551906612,0.1,0.005228519439697266,0.10829639434814453,0.04968534,0.23214117,-48.154647246946,-0.3010009289220886,-0.3961334102925321,0.0,721,0.06683659553527832,0.018126929659579464,0.016987798029476937,10655,-43.32402407205683,0.0
17,1.5417702198028564,-46.19542194378284,7.398931454890291,-20.816592480362765,-51.99777087008521,0.0,0.44727977039567623,0.1,0.00549626350402832,0.11933350563049316,0.04935723,0.2732119,-47.95872471662968,-0.24763990919719028,-0.38415061338025475,0.0,762,0.0671694278717041,0.024620831335964818,0.023204587034582908,11417,-43.284662230442656,0.0
18,1.3099570274353027,-47.80095369851178,5.739905802587206,-31.602770488404044,-52.20747153206209,0.0,0.4533374976159722,0.1,0.005278348922729492,0.11525750160217285,0.052974038,0.26060736,-47.942947614817896,-0.24511926415311133,-0.4002051940046491,0.0,715,0.06828689575195312,0.013222318665131514,0.011265731195122761,12132,-43.6389025195865,0.0
19,1.3704607486724854,-47.71585487403045,5.947803908409769,-27.700562516686485,-52.095632580543565,0.0,0.4263491972730959,0.1,0.005425691604614258,0.11676216125488281,0.051094208,0.28527147,-47.920238340739154,-0.253137474774811,-0.39935919970736017,0.0,745,0.06704902648925781,0.012498807306773888,0.01181607654575607,12877,-43.444400685339275,0.0
20,1.392826795578003,-47.45024454476331,6.505208069889951,-19.805683929202832,-52.14822626875364,0.0,0.4398836566574768,0.1,0.005174875259399414,0.10407733917236328,0.050471883,0.31564307,-47.87323896114157,-0.2873279655105092,-0.3966987477961735,0.0,731,0.13031435012817383,0.015419435777592184,0.014922753220422589,13608,-43.1616693091493,0.0
21,1.5104880332946777,-46.55293914573199,7.4461235580498215,-12.267035174042896,-52.00958776542206,0.0,0.4364159223021825,0.1,0.03898024559020996,0.13326334953308105,0.049744323,0.3070808,-47.741208979600614,-0.2620871423450977,-0.3877229016439747,0.0,808,0.06938338279724121,0.01891794848357614,0.01832064723267947,14416,-41.52016064574668,0.0
22,1.459411382675171,-46.64946698531142,7.619775446588367,-15.792253478564739,-52.873761394948396,0.0,0.44664780437235185,0.1,0.02763199806213379,0.3348724842071533,0.050147623,0.29786077,-47.63203478017169,-0.2448641423646427,-0.38869059720857346,0.0,789,0.141495943069458,0.01763507254380001,0.01711868344072849,15205,-41.102348762066505,0.0
23,1.4652323722839355,-46.492626571228364,6.780164097688403,-27.953540811019696,-52.451502472069116,0.0,0.4665313434899455,0.1,0.005697727203369141,0.11767339706420898,0.050973464,0.27135473,-47.518093959277365,-0.23820959024117258,-0.3871230649892623,0.0,820,0.07364082336425781,0.013911139325839384,0.013605650881359801,16025,-40.59584267023598,0.0
24,1.4639878273010254,-45.80332211244325,7.316546179921214,-23.717133027074098,-52.26253424510685,0.0,0.4526507947396368,0.1,0.005423069000244141,0.21170711517333984,0.049241573,0.26282796,-47.346616774593954,-0.2444669322177655,-0.3802281073754223,0.0,814,0.07131361961364746,0.015726618555254025,0.015313250060225454,16839,-39.61536519191674,0.0
25,1.4784643650054932,-45.00226833681813,7.1666107890240625,-23.734876897572484,-51.79864063941689,0.0,0.4434636656160633,0.1,0.00611567497253418,0.11307168006896973,0.049709283,0.25542602,-47.11218193081638,-0.24964304769418347,-0.3722199980148389,0.0,783,0.07392072677612305,0.016816025389621028,0.016278587719317752,17622,-40.644265783157344,0.0
26,1.5131504535675049,-44.56351314196553,8.600335951205867,-19.620917311029004,-51.82303487967722,0.0,0.4655956163245223,0.1,0.03805899620056152,0.49407267570495605,0.050442584,0.24475108,-46.857315051931295,-0.2560532185444456,-0.3678319118557227,0.0,825,0.07158112525939941,0.02459631788676792,0.023719409469381586,18447,-40.40174802639292,0.0
27,1.500774621963501,-45.06505239551722,7.79340914969757,-24.033235087640854,-52.28064581262644,0.0,0.4881048520156841,0.1,0.005501747131347656,0.1138162612915039,0.049620762,0.24454539,-46.67808878628989,-0.25348339651082175,-0.3728452227259112,0.0,850,0.07870769500732422,0.01771716362542478,0.01748908095029137,19297,-39.92959215786097,0.0
28,1.5573651790618896,-46.186610864082496,7.947476932495154,-23.822755011816454,-52.539516144823146,0.0,0.4886617867969226,0.1,0.006017208099365234,0.12528753280639648,0.052327782,0.23802765,-46.628940994069154,-0.25150937235215737,-0.38406404727215687,0.0,901,0.06678080558776855,0.016410691337231033,0.015989239189668474,20198,-38.105666854919626,0.0
29,1.491093397140503,-44.873049812719074,8.658243477554532,-8.674000360947943,-52.84104094303577,0.0,0.44755702685566284,0.1,0.0364537239074707,0.12082481384277344,0.04981821,0.32318443,-46.453351875934146,-0.29805544752877955,-0.37092620912162566,0.0,807,0.07359790802001953,0.023873694787437425,0.023571315720739474,21005,-37.86675223359229,0.0
30,1.6118221282958984,-44.18845713390971,8.690504451721296,-23.84703671328819,-52.76958514925526,0.0,0.5334197303714608,0.1,0.026667118072509766,0.9002017974853516,0.05078316,0.22618455,-46.22686240173171,-0.27635381088623545,-0.3640861718570008,0.0,940,0.2008066177368164,0.02185323650879438,0.02125285134277366,21945,-37.76441731385388,0.0
31,1.7219417095184326,-45.50961356469133,8.523172839286373,-12.916969712741292,-53.07700988803065,0.0,0.461831094618186,0.1,0.005338907241821289,0.11519265174865723,0.05043429,0.28525826,-46.15513751802767,-0.2909324190104973,-0.37729207406327553,0.0,899,0.08372902870178223,0.02005834462200863,0.01975590449576588,22844,-38.66314576626536,0.0
32,1.5850083827972412,-43.80860584100319,9.031735886461227,-21.026132618022583,-52.46030683578135,0.0,0.4877568362670727,0.1,0.004996061325073242,0.1382887363433838,0.05231859,0.23949993,-45.920484350325225,-0.2594082008405416,-0.3602856368292051,0.0,940,0.08309388160705566,0.023554711619080203,0.023223308344201353,23784,-38.052834395970336,0.0
33,1.561128854751587,-43.42838740220176,9.814395336017357,-12.301771030763788,-52.517853320134655,0.0,0.5068923202923135,0.1,0.0054662227630615234,0.11698722839355469,0.050303206,0.23300388,-45.671274655512875,-0.2434095420377057,-0.35647871032116396,0.0,1018,0.09256339073181152,0.02789424887325561,0.026955395179468263,24802,-35.78544210949039,0.0
34,1.699002742767334,-41.18246798460738,11.221030002348698,-5.016665462271767,-53.576383780286044,0.0,0.5319621833625812,0.1,0.03171062469482422,0.23613262176513672,0.050689366,0.210905,-45.222393988422326,-0.26992271285245306,-0.33402451215703827,0.0,1060,0.1891324520111084,0.03686022757252951,0.03429832109249576,25862,-36.95895440997049,0.0
35,1.5716030597686768,-41.88710312353302,10.494537174482113,-15.734384456168478,-53.73071803060471,0.0,0.5349837579571937,0.1,0.005811214447021484,0.23682856559753418,0.051684257,0.20137523,-44.888864901933395,-0.24420327533139607,-0.34106801635919176,0.0,1031,0.10804009437561035,0.027386854568598625,0.02665396153756513,26893,-36.99925359229067,0.0
36,1.7646989822387695,-40.85994915202095,12.046326804701874,-5.059312799078569,-53.05073697116954,0.0,0.5703891235520185,0.1,0.03265810012817383,0.5782325267791748,0.051117916,0.19091314,-44.48597332694215,-0.2382164141716967,-0.33080103034103053,0.0,1158,0.10933327674865723,0.0408038598071961,0.039596388665383134,28051,-23.882745097873944,0.0
37,1.8706483840942383,-39.19100105530456,12.009650995469658,-8.472316582566584,-54.38469478606308,0.0,0.5760313053253968,0.1,0.016942262649536133,0.2617969512939453,0.0508466,0.20033596,-43.95647609977839,-0.19809906389198395,-0.3141120449486045,0.0,1358,0.28017687797546387,0.031996160457049616,0.031015857515632676,29409,-21.81983689248512,0.0
38,1.9215798377990723,-37.58212627244377,14.034721969160971,5.070904595258014,-55.08234968515567,0.0,0.6100761669944214,0.1,0.0207216739654541,0.22198128700256348,0.049739584,0.1851102,-43.31904111704493,-0.2286489219065897,-0.29801996247910273,0.0,1379,0.1309058666229248,0.0588132048760394,0.05632944707941218,30788,-7.165359549315577,0.0
39,1.8725883960723877,-36.20126231932576,15.007743212505916,6.142952741210827,-53.8321402775918,0.0,0.594194975246387,0.1,0.05798459053039551,0.14446711540222168,0.050928336,0.1913378,-42.60726323727302,-0.24578452262080316,-0.2842126214010942,0.0,1381,0.12628436088562012,0.060337108088111414,0.05884857703319295,32169,31.760566461253326,0.0
40,1.9165494441986084,-35.75483788583053,14.601357735086538,-1.082593464672449,-53.443434362655324,0.0,0.6000223243774441,0.1,0.0060160160064697266,0.1295633316040039,0.051062725,0.21795696,-41.922020702128776,-0.2744152090610349,-0.2797511033181814,0.0,1475,0.1269969940185547,0.05113906603014428,0.04956382140730231,33644,73.8314968872854,0.0
41,1.8829293251037598,-31.882138748703113,15.569283042238096,6.896493049184301,-53.19583417970067,0.0,0.6210950303462339,0.1,0.03667783737182617,0.3146953582763672,0.050412163,0.18437062,-40.91803250678621,-0.17819048437250928,-0.24102514604738437,0.0,1619,0.15208649635314941,0.06613061911914819,0.06261279421869323,35263,61.694193196182084,0.0
42,2.310029983520508,-33.42556518138437,16.41430644288153,5.26696440144007,-54.57985903866778,0.0,0.6572438685396438,0.1,0.005932807922363281,0.1771249771118164,0.050483163,0.16119216,-40.168785774246025,-0.20657907380939178,-0.2564582369462015,0.0,1798,0.15592432022094727,0.05824348678210248,0.055727965780328126,37061,51.872410282911254,0.0
43,2.1977438926696777,-33.80738781808145,14.873091597392175,-2.869851282849382,-56.13284561874843,0.0,0.665994272017488,0.1,0.0060307979583740234,0.6032958030700684,0.05017741,0.14813134,-39.532645978629574,-0.236678287762122,-0.2602743774371463,0.0,1823,0.262531042098999,0.050023844569131316,0.04933896439255648,38884,73.19731615166927,0.0
44,2.3954145908355713,-28.89328370564566,18.646817981849274,10.707310445404744,-55.1239698619099,0.0,0.6998502553331833,0.1,0.06854414939880371,2.1128990650177,0.050240684,0.1529967,-38.46870975133119,-0.2200508836761158,-0.21113670340740165,0.0,1967,0.2055346965789795,0.07962856820321891,0.07238772835324071,40851,56.66383268872294,0.0
45,2.5024375915527344,-29.73022797993875,17.32459591618634,19.078506777279188,-60.660135720361154,0.0,0.7398372122054346,0.1,0.04960012435913086,0.43099403381347656,0.050613225,0.15651086,-37.59486157419195,-0.20230461855599943,-0.21950646320334247,0.0,1986,0.18741726875305176,0.06141682786836419,0.05950627083930009,42837,69.06496474141423,0.0
46,2.6887941360473633,-21.338431362479245,19.628957571883006,22.061770093071765,-54.10109199104845,0.0,0.7999706665914478,0.1,0.04921674728393555,0.39483165740966797,0.049364164,0.13999821,-35.96921855302068,-0.1616818809795889,-0.13558870635968365,0.0,2388,0.2482433319091797,0.10289975000879663,0.0891074797924083,45225,31.505814352332067,0.0
47,2.734839916229248,-22.015081369990394,24.234453271508972,85.61730711337714,-55.12662884629487,0.0,0.8512965746201491,0.1,0.0859522819519043,0.4656949043273926,0.04788037,0.115661055,-34.573804834717656,-0.17855565037650234,-0.14235160788487353,0.0,2526,0.2626199722290039,0.1629605748809817,0.15700406194643546,47751,31.218294463156433,0.0
48,2.9066226482391357,-16.89050412976351,27.103760873493208,61.607133970341046,-60.29900774520422,0.0,0.8696249537982959,0.1,0.0734398365020752,0.6699485778808594,0.050164476,0.11793192,-32.80547476422224,-0.17578883922056687,-0.09110899574217163,0.0,2702,0.3092484474182129,0.16888142732912534,0.16278331274702307,50453,33.73357024478791,0.0
49,2.9138734340667725,-22.917995831607147,22.622770942962184,29.126832305984372,-56.832821269088605,0.0,0.84616969943404,0.1,0.006509542465209961,0.14800477027893066,0.0507809,0.116146155,-31.81672687096073,-0.1768390785464128,-0.15138477890982052,0.0,2663,0.3276536464691162,0.1109192929478999,0.10565623900331818,53116,26.323878349554917,0.0
50,3.506788969039917,-12.523906365596517,31.48462342133828,88.50119123716429,-55.592273511711056,0.0,0.8826222178532243,0.1,0.09827399253845215,1.7536916732788086,0.0486121,0.1306132,-29.88744482042431,-0.15496047406266192,-0.047444520443923076,0.0,3384,0.4384479522705078,0.23956234099632182,0.19424340417231054,56500,-6.605313276868672,0.0
51,3.174450159072876,-7.639462183659955,27.748592928179267,110.98052232790826,-57.4902112469695,0.0,0.9375638171368255,0.1,0.08342719078063965,0.3052027225494385,0.050202638,0.124603145,-27.662646556747873,-0.15328266515588254,-0.0038087372561368404,0.0,3529,0.5614922046661377,0.21589332950968068,0.19519817454287314,60029,-16.455466924117296,0.0
52,3.5426034927368164,-3.1788477749254618,32.804916797384664,94.6003533289433,-57.188239404480086,0.0,0.9896698283699826,0.1,0.07053637504577637,0.8922092914581299,0.04861985,0.10342664,-25.214266678565636,-0.187920636657406,0.04600701688250308,0.0,3791,0.6758949756622314,0.26177061228203025,0.24570119038907626,63820,-16.55685572790826,0.0
53,4.340278387069702,7.100907545972933,54.34030934586043,247.62924573738462,-62.25910168806142,0.0,1.0508714121731866,0.1,0.11230731010437012,1.900484323501587,0.049828008,0.098141916,-21.98274925611178,-0.15191232329746085,0.1331729726456716,0.0,4944,0.8086910247802734,0.6774106385046897,0.5887707806694313,68764,-16.574115662188902,0.0
54,4.961416244506836,61.170992050253574,104.29232189165018,376.4154899499925,-54.39271875910684,0.0,1.373481937182591,0.1,0.08036112785339355,2.000277519226074,0.050177585,0.07281456,-13.667375125475246,-0.1449484363746918,0.6521873998376385,0.0,6655,1.164721965789795,0.9148731675882134,0.6846186569898415,75419,-15.8444345739735,0.0
55,4.918097734451294,58.886627950553454,94.81336564424808,368.5430779011846,-51.718944203405684,0.0,1.3876853329317753,0.1,0.07782936096191406,2.1057026386260986,0.04716873,0.06969549,-6.411974817872375,-0.1645117844612893,0.6028674981631594,0.0,7303,1.50386381149292,0.7025443362754149,0.6681839554465454,82722,-15.559528107688099,0.0
56,6.531532526016235,127.22725234874663,132.34497099514334,380.80844878187634,-54.97863748632011,0.0,1.472605744032382,0.1,0.06787872314453125,1.9721448421478271,0.049791217,0.068194434,6.951947898789527,-0.15679913232566525,1.2745858408884831,0.0,8220,1.5038790702819824,0.6759120060062587,0.5435792724518065,90942,-15.405284587890714,0.0
57,6.885795593261719,141.72333794977433,133.7072461412296,397.9239348012557,-52.29486716912513,1.0416666666666667,1.5598687911137892,0.1,0.08923602104187012,0.5384111404418945,0.047581553,0.061499037,20.429086903888006,-0.1354817402180091,1.408283867496455,1.0416666666666667,8872,1.393578052520752,0.5836688598601529,0.5567970404225087,99814,-13.049305533787443,0.0
58,6.885056495666504,145.63582885406183,131.78794345920795,381.1452206753364,-54.32465493322807,0.0,1.5386584734439648,0.1,0.08698534965515137,2.027988910675049,0.049106307,0.066791736,32.94976109890539,-0.13483677714455625,1.459089212585799,0.0,8894,1.8110597133636475,0.5532205991257868,0.53354045702855,108708,-15.548357592689808,0.0
59,6.609973669052124,151.4291424534007,137.43664756005157,381.9664962899747,-50.38222422500707,0.0,1.672151816306597,0.1,0.09278726577758789,2.0397446155548096,0.05030285,0.060635313,44.79769923435492,-0.1342109631432233,1.5165992868306173,0.0,8778,1.7748656272888184,0.5231055623362432,0.5003162431531399,117486,-16.514118535386295,0.0
60,6.943328142166138,144.4918459588139,139.64002553197517,397.7920592327169,-52.60054127857174,1.0416666666666667,1.7198715965602773,0.1,0.08390545845031738,2.2118406295776367,0.049508657,0.058420233,54.76711390680082,-0.15347413617792482,1.452021359166264,1.0416666666666667,8569,2.2624330520629883,0.48365863581191676,0.45926712986220186,126055,-16.473998311874098,0.0
61,6.917449474334717,159.689844488177,144.00106858999948,385.12553190519856,-50.394871510178284,0.0,1.6036524528084017,0.1,0.08399128913879395,1.273833990097046,0.050121162,0.060146578,65.25938696493844,-0.13938478284784064,1.5979532531659515,0.0,8600,1.4945793151855469,0.46945750573752515,0.43768421481097397,134655,-19.29807836079506,0.0
62,6.317077875137329,171.38227918876206,139.5310062672198,377.7780969769007,-52.538410144954426,0.0,1.6590147539431364,0.1,0.07536911964416504,1.920654058456421,0.05031691,0.059015922,75.8716761873208,-0.15150887027644863,1.7100826819805615,0.0,8831,1.7126965522766113,0.44296800173441364,0.4208348628076873,143486,-19.185477070635233,0.0
63,6.4732911586761475,163.082018655124,132.01019515875012,382.3853312455838,-51.82447589457484,0.0,1.544679385777134,0.1,0.07653355598449707,1.4908628463745117,0.05068279,0.065178014,84.59271043410112,-0.16794058729284658,1.627075140717892,0.0,8884,1.3002147674560547,0.4147323138013155,0.38477020650692123,152370,-23.210456069710407,0.0
64,6.736622095108032,179.26160877657207,129.5325491009395,385.35093665536806,-50.38533898963109,0.0,1.6369592913369742,0.1,0.03426098823547363,0.43466973304748535,0.048785638,0.060862035,94.05960026834822,-0.14894522871206137,1.788877634949363,0.0,9203,1.6280438899993896,0.3868987219840572,0.36425383637602043,161573,-22.7336848225302,0.0
65,6.901352167129517,206.1079440570132,138.99671902107315,381.91103824552243,-50.41217082147245,0.0,1.6716622496929119,0.1,0.01106405258178711,0.2925739288330078,0.050344683,0.060309917,105.26443464721473,-0.16316154244950068,2.051705993281596,0.0,9306,2.142599582672119,0.3438276311663813,0.31592754879452273,170879,-19.237450421484183,0.0
66,7.557571172714233,202.32906240743205,136.76685841763145,382.4805028292783,-50.372797654596596,0.0,1.6345649874215997,0.1,0.01444864273071289,0.34259772300720215,0.048893698,0.060082097,114.97089742323647,-0.14629594491425227,2.0178703679195182,0.0,9235,1.6815192699432373,0.32379871111861264,0.29125077454091103,180114,-16.587854207662673,0.0
67,7.540156602859497,204.0251826225714,130.98697726840373,398.49552494448807,-29.952867838775017,0.0,1.5561120515947322,0.1,0.016985654830932617,0.2987053394317627,0.050202776,0.0649824,123.87632594316997,-0.12978083376508584,2.0300466949365017,0.0,9334,1.655463695526123,0.33011006935444104,0.28820096420445407,189448,-7.302383766014113,0.0
68,6.878999948501587,179.00410494634218,132.8690693642905,381.17296737300114,-50.39442974056099,0.0,1.6510294791666669,0.1,0.10510659217834473,0.7679262161254883,0.049299434,0.0610256,129.3891038434872,-0.13092638484454924,1.7850460087485374,0.0,8961,1.7328228950500488,0.3288638774724832,0.29487165576749713,198409,-1.9865805056312769,0.0
69,7.043712139129639,200.3448961059856,133.08082161330984,382.7664424213118,-50.39415880892043,0.0,1.5906054730817132,0.1,0.07055902481079102,1.4997539520263672,0.049964186,0.05918348,136.48468306973703,-0.12947247828485056,2.0001219160313704,0.0,8980,2.184070348739624,0.30648844164978756,0.26160284234201703,207389,-1.5904443652013847,0.0
70,7.758710861206055,216.40284099734967,132.32075925786415,385.2633694073487,-42.57976376484433,0.0,1.68625801960963,0.1,0.01276850700378418,0.3929173946380615,0.049162176,0.0575879,144.47649886249832,-0.12666183682407936,2.1611241877252207,0.0,9430,2.4840734004974365,0.30153815940791806,0.2689012280805892,216819,-2.2415821656915638,0.0
71,6.225155353546143,199.76304077745166,132.60002875234045,385.0484655201987,-50.390064367862614,0.0,1.7407556361159626,0.1,0.011686086654663086,0.2967190742492676,0.05013737,0.055476874,150.00515305399367,-0.12997969108382806,1.9926412396459448,0.0,9341,1.7209498882293701,0.3189221905018602,0.2867807275350465,226160,-3.217220903592275,0.0
72,7.363623142242432,177.89870394175213,133.6679406689057,382.5851612911251,-54.570075135544045,0.0,1.5637374773702641,0.1,0.08902955055236816,2.2525384426116943,0.050479803,0.06329453,152.7945081427695,-0.1309370305674645,1.7756672465549357,0.0,9062,2.228381633758545,0.3260839795509344,0.2994809006592556,235222,-0.17527321728745093,0.0
73,7.201319694519043,200.01710918572178,145.5630669795567,397.97422220042847,-50.39010973449368,1.0416666666666667,1.5924524250539531,0.1,0.08497762680053711,1.586341381072998,0.04997124,0.05773082,157.51676824706473,-0.14626992321146548,1.9916339690647333,1.0416666666666667,8999,1.914515495300293,0.2967063426411232,0.27011279440275954,244221,-0.6692733758272249,0.0
74,7.478594541549683,239.72142771294966,122.54978660735625,409.90895945953895,-45.21814497558269,1.0416666666666667,1.7513626573872425,0.1,0.012892484664916992,0.31204986572265625,0.049645804,0.055210598,165.73723419365325,-0.1237615755793436,2.3878452024783976,1.0416666666666667,9484,1.5413720607757568,0.2382864383078752,0.2135710917998451,253705,6.435199760044243,0.0
75,6.9894700050354,239.9826553114609,130.01156947763803,414.8451000518528,-50.38977983118844,2.0833333333333335,1.6355011898571332,0.1,0.014459848403930664,0.3919520378112793,0.04997226,0.062116116,173.16177630543405,-0.16042407951006984,2.395251366873038,2.0833333333333335,9164,1.5106759071350098,0.20776783174875932,0.18400947848293778,262869,7.363579989745492,0.0
76,7.136622905731201,262.73812445170466,122.43334997895477,402.73744157252486,-51.59863907902252,3.125,1.6673587265987835,0.1,0.012931585311889648,0.30567288398742676,0.049397413,0.059086144,182.11941112006113,-0.12117814731247385,2.6175869450589513,3.125,9510,1.6609954833984375,0.17868248822219224,0.1647966208558842,272379,12.91216564105461,0.0
77,6.918700456619263,250.18465042458843,127.87275910631242,454.14666163548304,-50.39958677293341,3.125,1.4784693953051176,0.1,0.019403457641601562,0.415433406829834,0.051892925,0.06242588,188.92593505051386,-0.14055188385903908,2.4937340534604444,3.125,9176,1.4830338954925537,0.21279038557325575,0.18630248676885494,281555,16.521860516981533,0.0
78,7.503021955490112,255.61845230853217,124.48428954780532,419.1586812910065,-50.39534070775742,2.0833333333333335,1.7294687834581175,0.1,0.013191938400268555,0.29059505462646484,0.049596142,0.058551088,195.59518677631567,-0.12117037365365331,2.5572405618015135,2.0833333333333335,9355,1.6799595355987549,0.18122180729432993,0.16386736792170856,290910,23.722956564677972,0.0
79,7.820089101791382,274.81919270689826,122.2342582282825,418.7881055074014,-50.39415372826873,3.125,1.601229595892595,0.1,0.014842987060546875,0.3444509506225586,0.048977796,0.05992267,203.51758736937393,-0.1195967400105838,2.73798116383751,3.125,9404,1.6444635391235352,0.16296386573967775,0.1490704932381123,300314,24.416842076261794,0.0
80,7.137211561203003,255.66705188878151,126.99780731847824,439.256051207819,-51.67504663247826,5.208333333333333,1.546178012556175,0.1,0.014251232147216797,0.4994184970855713,0.050549492,0.057980444,208.7325338213147,-0.14221220983342703,2.552926027216969,5.208333333333333,9137,1.174295425415039,0.20175154286748323,0.17831636821359528,309451,30.78712874712608,0.0
81,7.351451873779297,282.2900478744195,100.40448336483702,455.2274724483083,-50.38815582745571,2.0833333333333335,1.6660075793460183,0.1,0.01616835594177246,0.32576537132263184,0.051185396,0.05541247,216.0882852266252,-0.11970643349175127,2.814365702970307,2.0833333333333335,9429,1.467172384262085,0.12246600481720123,0.11052383969077077,318880,65.34942445494542,0.0
82,6.405596017837524,260.99815899800757,119.72196974472044,385.90486688922834,-50.37750264629183,0.0,1.5896210657983607,0.1,0.028329133987426758,0.3755619525909424,0.049486678,0.05617627,220.57927260376346,-0.11977491142616066,2.6062335482803873,0.0,9394,2.2780275344848633,0.18039550432706947,0.15417880912334445,328274,73.0332560927261,0.0
83,7.268895387649536,292.1677596527179,120.45359423709853,483.83454094821076,-50.40150698277791,6.25,1.6389397097637914,0.1,0.016522884368896484,0.43332958221435547,0.049954455,0.054893218,227.7381213086589,-0.1172631110434888,2.911044812897998,6.25,9289,1.412837266921997,0.11707479904748888,0.10580186628441675,337563,74.26275956772498,0.0
84,6.880949974060059,307.4961219153515,103.74882273982583,431.14494532814456,-50.38654801203148,2.0833333333333335,1.5990931787390543,0.1,0.018240928649902344,0.5269732475280762,0.050675236,0.059148367,235.71392136932818,-0.115587839220193,3.0699656676220193,2.0833333333333335,9404,1.438941240310669,0.09312062700869764,0.08217518089718553,346967,79.17589973816246,0.0
85,7.723602294921875,327.51402353493063,80.45870210836955,435.8255756468431,30.802707751900712,4.166666666666667,1.6207895191878021,0.1,0.01832413673400879,0.44649696350097656,0.050819505,0.060225848,244.89393158588842,-0.11257595525648169,3.2640907114101854,4.166666666666667,9600,1.7101631164550781,0.07476442836509986,0.06677780220118325,356567,107.78763210262144,0.0
86,7.758456468582153,336.2916565159896,72.99964798884788,406.6626427777483,55.12470058962772,2.0833333333333335,1.5628192933766092,0.1,0.01805901527404785,0.43872499465942383,0.050663657,0.062132012,254.03370407889855,-0.11106120824034726,3.351438791759653,2.0833333333333335,9600,1.6588332653045654,0.07298687272425995,0.0633011736306498,366167,223.99610628115502,0.0
87,7.552951812744141,335.9600904124782,84.29152637599204,435.64590580890234,-50.38185999233587,3.125,1.5889610512099395,0.1,0.014559268951416016,0.3999755382537842,0.049338434,0.057498373,262.22634271225655,-0.10986040854096506,3.3489654462497964,3.125,9502,1.980738878250122,0.06481575596551648,0.06071563473870515,375669,377.14004063126674,6.25
88,7.894678592681885,348.814039899079,79.07176645394209,500.87423853008903,14.240888652527909,7.291666666666667,1.7613439268261515,0.1,0.016417980194091797,0.3587169647216797,0.047865573,0.05480004,270.8851124309388,-0.10918134318689791,3.4762353234797687,7.291666666666667,9600,1.5576066970825195,0.0664818966896992,0.057127698825864125,385269,375.5064686239138,0.0
89,7.654583692550659,331.861826355668,87.78606458532659,499.8049784346688,-50.388056381945376,2.0833333333333335,1.6086374045509568,0.1,0.018282175064086914,0.36324071884155273,0.04870085,0.044977125,276.98278382341175,-0.11174497930310451,3.319236302345557,2.0833333333333335,9404,1.4703090190887451,0.06644694692023947,0.05593814495187292,394673,371.89715456387216,6.25
90,7.744657039642334,358.4936516308032,56.284568044792934,440.37162443195433,90.22984074670357,6.25,1.6386867952859587,0.1,0.014467716217041016,0.47309422492980957,0.049995173,0.06969735,285.1338706041509,-0.10447766774288503,3.5730223322571146,6.25,9600,1.552685022354126,0.034369154110750054,0.03045536492068086,404273,376.7462091891167,0.0
91,7.582705497741699,348.60489318186063,76.58948424297058,423.61380227319637,-50.83187167090799,2.0833333333333335,1.5956897061936617,0.1,0.01750493049621582,0.3874218463897705,0.049626816,0.050569627,291.4809728619219,-0.10798912626785283,3.4741540831767086,2.0833333333333335,9505,1.4525372982025146,0.04143242891799628,0.037330877532515884,413778,307.95736153296264,0.0
92,7.563433885574341,354.26970283155975,87.0102322636406,537.2644849176228,-50.392166957788554,8.333333333333334,1.5395764374513083,0.1,0.01190328598022461,0.28471994400024414,0.05019119,0.05204642,297.7598458588857,-0.10695828775582568,3.53601159832512,8.333333333333334,9404,1.5957777500152588,0.04282672038917894,0.03789562248722794,423182,330.4809032949124,0.0
93,7.400548458099365,341.29904598809844,97.14855584000264,444.50026521274094,-50.379273867143475,7.291666666666667,1.4452989787251214,0.1,0.017513513565063477,0.3371250629425049,0.048154287,0.047970127,302.11376587180695,-0.10738797193374994,3.4010865312855927,7.291666666666667,9306,1.9145748615264893,0.04416341224313813,0.03994851720427638,432488,349.4586482736686,0.0
94,7.627445459365845,350.6260939563283,98.47735852976743,617.5536621580967,-50.383345980420124,6.25,1.6636623617762198,0.1,0.0196225643157959,0.41643452644348145,0.050782498,0.052171633,306.9649986802591,-0.1070660101680309,3.4995688377611103,6.25,9502,1.5252959728240967,0.06568453203152173,0.059795545821711246,441990,380.7404215740057,6.25
95,7.366420269012451,343.2390862660198,92.9243879893481,427.24671945699237,-50.67407959095472,3.125,1.4645196812376777,0.1,0.015224695205688477,0.5191316604614258,0.05020686,0.042606648,310.59240743883515,-0.10873450014627761,3.4213309312683644,3.125,9406,2.2924644947052,0.04968334097695734,0.044604085042564454,451396,381.4851709437466,0.0
96,7.876250982284546,359.44542388855353,79.3135850216008,722.0268437995863,98.50934139817961,4.166666666666667,1.7740617956215212,0.1,0.014437198638916016,0.4770028591156006,0.04859098,0.055846233,315.477709083807,-0.10786425128595695,3.5825524153807096,4.166666666666667,9600,1.6647655963897705,0.045836258848644916,0.041624232262570574,460996,382.48276402472425,0.0
97,7.173327922821045,337.61751909797835,90.56736723100337,485.1078798799639,-50.389261197909335,5.208333333333333,1.480490033732956,0.1,0.027243614196777344,0.3879523277282715,0.05066479,0.050245438,317.69169008522414,-0.12802444055789633,3.3651173656250752,5.208333333333333,9404,1.5383217334747314,0.042992369430995284,0.042569149391936185,470400,382.396227546954,0.0
98,7.810793161392212,368.6258294721256,62.386185537791874,549.147677891308,-50.37834847432042,6.25,1.5458097926816745,0.1,0.02097344398498535,0.6689670085906982,0.048756786,0.05447198,322.7851040239143,-0.10621375852089832,3.6743570575120486,6.25,9502,1.266146183013916,0.03452566329682496,0.01963000840112406,479902,383.7713132797701,0.0
99,7.2503814697265625,340.5088974357023,88.49362301565091,468.791510887305,-50.37437576477307,3.125,1.5532395067566258,0.1,0.017227888107299805,0.43710899353027344,0.048454564,0.042770676,324.5574833650931,-0.10959796015366711,3.40050624780981,3.125,9404,1.559035062789917,0.04873845129453478,0.04385299314927317,489306,384.88080148600034,0.0
100,7.892009735107422,353.41053904074835,61.406735904125846,411.4301278621843,71.43461354375779,4.166666666666667,1.710885032857592,0.1,0.01432490348815918,0.4246392250061035,0.049951974,0.053873368,327.44278893265863,-0.10697513067584408,3.5221915359908222,4.166666666666667,9600,1.6418309211730957,0.03371171373552501,0.031821920058732446,498906,385.6564952732733,6.25
101,7.596174240112305,370.2494273907319,58.19913071745323,480.99663554352355,-50.39118687421682,8.333333333333334,1.5227412905980204,0.1,0.013782978057861328,0.30206966400146484,0.05042177,0.04830864,331.72345277846597,-0.10487979439653909,3.6901764062856484,8.333333333333334,9502,1.6938276290893555,0.017850415641141294,0.015968493344868714,508408,387.77409961835144,6.25
102,7.497725009918213,358.38153530471226,94.65740962433289,653.5513849954673,-50.3835858774322,7.291666666666667,1.4895120958973147,0.1,0.017029762268066406,0.5124998092651367,0.04999089,0.05324938,334.3892610310906,-0.12240023700418652,3.5719162698802758,7.291666666666667,9404,1.6074104309082031,0.04173042830012426,0.038690834247352784,517812,382.75186268453854,0.0
103,7.620077848434448,368.3495066734258,83.62405994990704,682.1687237120074,-51.41969891101356,12.5,1.572255573813689,0.1,0.02427220344543457,0.4022367000579834,0.05012743,0.055920713,337.7852855953241,-0.10287349690922316,3.6763708712690932,12.5,9499,1.6886982917785645,0.03971450541621322,0.035884226407405205,527311,367.443872378607,0.0
104,6.219022989273071,369.2174638727936,68.18769317258541,621.4398073330342,135.71439791969883,11.458333333333334,1.8815504938181387,0.1,0.014830589294433594,0.43822741508483887,0.049223065,0.050279073,340.9285034230711,-0.10266141133250566,3.680671922000828,11.458333333333334,9600,1.5491721630096436,0.038091321893976,0.03454762227500332,536911,367.6342545453107,0.0
105,6.757856130599976,364.27995815365256,78.46701411256934,536.8891848162489,-50.38981354641408,10.416666666666666,1.610651851395594,0.1,0.019469738006591797,0.4692976474761963,0.049335007,0.05157209,343.26364889612927,-0.1038354664676256,3.6304743664198624,10.416666666666666,9502,1.379650592803955,0.039688663611390784,0.032367600981815806,546413,302.4008701571297,0.0
106,8.120295286178589,374.2579592111097,55.590732601971695,637.6497131702267,127.40290757068045,6.25,1.8499592624417023,0.1,0.021211862564086914,0.4656860828399658,0.047118813,0.053577695,346.3630799276273,-0.10183523475418658,3.730248098579146,6.25,9600,2.361285924911499,0.023378643474185598,0.02057032510856655,556013,358.40059475941746,0.0
107,7.883998155593872,389.8030507681819,52.155612523058096,714.1306895772387,275.625769956896,14.583333333333334,1.8580965978788526,0.1,0.019788026809692383,0.45831871032714844,0.04938324,0.058389276,350.70707701168277,-0.0997251874365583,3.885691479230108,14.583333333333334,9600,1.6028974056243896,0.02099148903904467,0.018786920914999814,565613,378.3568216060935,0.0
108,7.761503219604492,369.75215279563736,37.86402277559739,440.97216799940526,223.6711866084358,4.166666666666667,1.7782111686009061,0.1,0.021284818649291992,0.4244208335876465,0.048624862,0.052785873,352.6115845900782,-0.1031466416062834,3.6851866917270506,4.166666666666667,9600,2.353102207183838,0.012548045879496218,0.009974647643939528,575213,384.54645609944805,0.0
109,7.321907043457031,354.21190244799396,105.50719549323246,673.9183548651038,-50.401622080638305,10.416666666666666,1.155779604286098,0.1,0.013072729110717773,0.4096810817718506,0.05041805,0.0414208,352.7716163758698,-0.12206354173670723,3.5410659466626755,10.416666666666666,9182,2.3493263721466064,0.03540939904032048,0.03398689778796585,584395,385.1945853636655,0.0
110,7.680941820144653,369.5554324411767,73.06851766911,645.5404146277523,-50.386438471388814,7.291666666666667,1.687171245663354,0.1,0.016932010650634766,0.40057992935180664,0.04975699,0.04418227,354.44999798240053,-0.10385235507959038,3.689271980682026,7.291666666666667,9502,1.5392119884490967,0.028725054503261238,0.02491324740425861,593897,384.49821287194584,0.0
111,7.416258811950684,365.83809840844646,80.41069439952925,492.7481911084504,-50.395379594927626,10.416666666666666,1.460385056040279,0.1,0.014789342880249023,0.3165748119354248,0.050213262,0.04285754,355.58880802500516,-0.12157178303198964,3.646051285694886,10.416666666666666,9404,1.59065842628479,0.024355001060632486,0.021811023519030998,603301,363.93348227762823,0.0
112,7.898420572280884,375.3658282438751,40.932176583035876,589.2341972038903,150.85595953167845,6.25,1.8508272917787567,0.1,0.012027263641357422,0.2846059799194336,0.049192216,0.06342878,357.5665100468922,-0.10159478043174397,3.741738552901589,6.25,9600,1.5510954856872559,0.014743436129593137,0.015899338085563618,612901,360.3170878961697,0.0
113,6.731190204620361,370.75561232741046,95.27462846342088,633.9304617792715,-50.384496348538725,15.625,1.2736045807579068,0.1,0.019089937210083008,0.37484097480773926,0.050480593,0.06566467,358.885420274944,-0.10107367956397763,3.706902184519093,15.625,9306,1.622870683670044,0.028198967531024997,0.02385524025880052,622207,322.77698908245975,0.0
114,7.134314775466919,355.1098837430981,110.02090579677395,605.3301066136024,-50.39968893456548,6.25,1.0337162400164186,0.1,0.014361858367919922,0.2872908115386963,0.04933754,0.045495365,358.50786662175943,-0.1385479973427887,3.5504512613281776,6.25,9110,1.6331205368041992,0.021330419281248746,0.019899161665573283,631317,336.02321064113755,0.0
115,7.443759202957153,391.1694909992102,55.9059606851545,661.6550988786764,260.5545534239577,15.625,1.803348311015454,0.1,0.01212453842163086,0.34459900856018066,0.050783508,0.06384109,361.7740290595045,-0.09939030392927013,3.89935969607073,15.625,9600,1.7724015712738037,0.02341685073320611,0.02097618563803861,640917,365.02197408823304,0.0
116,6.100614070892334,371.17499909647086,80.31232544493162,641.7072167816062,-50.389232047680984,8.333333333333334,1.535381249080506,0.1,0.014138221740722656,0.3401179313659668,0.049564578,0.047091827,362.7141260632012,-0.12124661239751468,3.6998359817831776,8.333333333333334,9404,1.5586271286010742,0.024174132065668666,0.021800316579822475,650321,363.0318307763255,0.0
117,7.785232067108154,371.2831881300394,73.17940340933544,629.5776751850614,-50.387289316470785,6.25,1.5781759583912849,0.1,0.013339996337890625,0.41202831268310547,0.049626123,0.051353518,363.57103226988505,-0.10503156904367532,3.7005074753537124,6.25,9502,1.6402580738067627,0.02689525450290571,0.02546795157136486,659823,383.5674509273652,0.0
118,8.083213806152344,375.00618150025093,39.682605227581384,492.00436625270885,151.31393185617682,8.333333333333334,1.734012455413693,0.1,0.02722620964050293,0.4104268550872803,0.050293457,0.058209337,364.71454719292166,-0.10309879249285281,3.73773454084048,8.333333333333334,9600,2.4666731357574463,0.014786057328936059,0.012799939043066963,669423,381.12518476703184,0.0
119,7.62711238861084,375.62268683322804,54.10860561830984,537.2192707237201,-50.391696886557405,6.25,1.421149138800773,0.1,0.01752328872680664,0.38901686668395996,0.04948595,0.042603843,365.8053611569523,-0.11900092368336719,3.744310323023216,6.25,9502,2.4091196060180664,0.009117328570425581,0.00723857286345701,678925,385.3179675248938,0.0
120,7.693711042404175,380.2222364863995,62.236941065257696,609.5738525819826,-50.38238574766774,9.375,1.520020908701296,0.1,0.02660346031188965,0.5461156368255615,0.050198756,0.046646036,367.24704868989704,-0.10192766817243452,3.7898900281429015,9.375,9502,1.1974129676818848,0.013772558433681893,0.013168678272449306,688427,385.243283746051,0.0
121,7.944066047668457,377.3236975570324,46.681692791954035,565.3948947052288,91.23248414103806,8.333333333333334,1.8065090114604074,0.1,0.012556076049804688,0.3143601417541504,0.049856126,0.05343287,368.2547135766106,-0.10200988141265561,3.7609067852540115,8.333333333333334,9600,1.6043622493743896,0.014640105969161493,0.013617113950140619,698027,384.76191492779856,0.0
122,7.726669073104858,376.3214684013469,65.52971019540927,581.3096675271398,-50.38284524159415,8.333333333333334,1.6545105617723987,0.1,0.03656578063964844,0.5367403030395508,0.049560484,0.051546443,369.0613890590842,-0.10133332605924698,3.7508775522077493,8.333333333333334,9502,1.955385446548462,0.016330100715174333,0.01516858405654945,707529,386.2523238838287,0.0
123,6.2408294677734375,365.4919701753388,82.7551091907566,601.3752409524141,-50.39842436143558,8.333333333333334,1.536860049309545,0.1,0.015205621719360352,0.39781641960144043,0.050117906,0.039671708,368.70444717070967,-0.10472658200906333,3.64259065522738,8.333333333333334,9404,1.6846723556518555,0.024222717978657674,0.022543182317990938,716933,384.7273811159972,0.0
124,8.085680484771729,375.98583256080445,56.78857610128298,545.2052866765832,95.2246416395152,14.583333333333334,1.8513659173307149,0.1,0.03482556343078613,0.5143799781799316,0.049941823,0.054646295,369.4325857097192,-0.09955456741650466,3.7479454325834958,14.583333333333334,9600,2.579336643218994,0.019568242708873872,0.01692266438644441,726533,385.28724898222134,6.25
125,7.885742425918579,367.2935499298442,84.22868453001416,681.700576349972,-50.38475630504017,8.333333333333334,1.3893697628736341,0.1,0.01729583740234375,0.3411250114440918,0.04918064,0.04462223,369.2186821317317,-0.1022242230803776,3.66060575030812,8.333333333333334,9404,1.6141576766967773,0.025323732412872585,0.023733211938355724,735937,385.3017410480966,0.0
126,7.816918611526489,397.63833090494376,62.731657084726145,649.725800713101,215.68318946240197,17.708333333333332,1.882690769075141,0.1,0.01186370849609375,0.3269493579864502,0.05067042,0.055342313,372.0606470090529,-0.09637556436554136,3.9640411023011253,17.708333333333332,9600,1.727670669555664,0.02774645860157739,0.02446676810494927,745537,384.7056911988293,0.0
127,7.994629383087158,385.2692930199676,58.404669961655415,629.3809001058544,134.94219326292975,12.5,1.7081809017585918,0.1,0.015508890151977539,0.4154980182647705,0.04898726,0.06233325,373.38151161014434,-0.0996443927999242,3.839938940533409,12.5,9600,1.6584193706512451,0.02911274691995561,0.023954415842559452,755137,382.833559350837,0.0
128,7.514205455780029,387.1340011603625,74.03367699524206,750.5389739652717,-50.39461090000528,16.666666666666668,1.5793114931881185,0.1,0.021283626556396484,0.3730189800262451,0.05023578,0.04595937,374.7567605651662,-0.0990576909033948,3.8594206294367126,16.666666666666668,9502,1.5301721096038818,0.02071912292271931,0.019323934337315846,764639,382.53128936536086,0.0
129,8.017562627792358,387.5177768623726,74.94110153790142,742.6317682471495,18.815202074462167,13.541666666666666,1.8483409997797735,0.1,0.011663675308227539,0.43756580352783203,0.050403934,0.056466162,376.0328621948869,-0.10006648629682284,3.8636835137031773,13.541666666666666,9600,1.364380121231079,0.032154097152962524,0.03010050343546273,774239,385.33895824062245,0.0
130,8.016725540161133,399.03383842304,58.08987510910376,645.7631338678332,312.51497781630616,18.75,1.7592781748642166,0.1,0.012765884399414062,0.2988133430480957,0.050584543,0.06247804,378.3329598177022,-0.0990829156663222,3.9780004176670114,18.75,9600,1.4754221439361572,0.023719777974901702,0.019577952455236396,783839,383.9944939637783,0.0
131,7.762871026992798,381.13169103210606,64.49636871629538,625.7274944858959,-50.38689063362398,12.5,1.5546804031261543,0.1,0.01885676383972168,0.4915766716003418,0.050624188,0.04784227,378.6128329391426,-0.100651754324292,3.7989857085785714,12.5,9502,1.491102695465088,0.017473001990257652,0.012606596561779962,793341,388.763727784034,12.5
132,7.163638353347778,373.40528855829035,77.08268908247113,621.517646369999,-50.38230974867033,16.666666666666668,1.4924020517143735,0.1,0.02762007713317871,0.399843692779541,0.04880496,0.04765614,378.09207850105736,-0.11806451063531441,3.7217254153599018,16.666666666666668,9499,1.5838932991027832,0.03134091296744708,0.02687839758095846,802840,387.0669370853566,6.25
133,8.081400156021118,386.48862312835905,53.22836836215972,677.9515786391418,147.07963067291857,14.583333333333334,1.7805218672846956,0.1,0.019794702529907227,0.3951709270477295,0.049012765,0.059683792,378.9317329637875,-0.09993960996780721,3.853393723365526,14.583333333333334,9600,1.4838626384735107,0.020900995043609687,0.018908168914128887,812440,388.39418439178996,6.25
134,7.900667428970337,384.7911796855474,64.15474751671861,625.4451294706619,-50.3757244491673,17.708333333333332,1.5306089259081173,0.1,0.016285181045532227,0.32087016105651855,0.05019585,0.04068489,379.51767763596354,-0.09936084849326988,3.8351586146663053,17.708333333333332,9502,1.5884525775909424,0.016050250221653215,0.014034232684704464,821942,388.92009713666005,12.5
135,7.985625743865967,393.7566209360087,84.80558035183033,697.681678943125,-50.36921590911371,20.833333333333332,1.530391364767596,0.1,0.01491403579711914,0.36629390716552734,0.048850536,0.053861324,380.941571965968,-0.09858193210565792,3.9260763813462014,20.833333333333332,9502,1.4413971900939941,0.028536619671765812,0.02562257456542905,831444,386.61549601186493,6.25
136,8.085668563842773,384.13147192994364,49.752603143431685,581.5790301093525,123.10685239342364,13.541666666666666,1.6914994256891438,0.1,0.016431331634521484,0.37607550621032715,0.049454287,0.061929476,381.2605619623656,-0.09933864584353018,3.82941135415647,13.541666666666666,9600,1.6348729133605957,0.018781678807449378,0.01573806256769854,841044,387.82435499711784,6.25
137,8.126358985900879,381.9352455364971,63.98574570829967,665.7230527662347,46.28317083846382,16.666666666666668,1.7454774375277304,0.1,0.013215303421020508,0.47719812393188477,0.049139068,0.05576372,381.32803031977875,-0.09923345212853187,3.8065998812048014,16.666666666666668,9600,1.821777582168579,0.022228064023505367,0.01928413729925571,850644,387.0781105941379,0.0
138,7.7830517292022705,374.02966093512447,63.012459271165426,577.3629934943614,-50.37881486167796,9.375,1.409246703914476,0.1,0.020331621170043945,0.47739219665527344,0.04877221,0.045171198,380.5981933813133,-0.10166512241224478,3.727960987186906,9.375,9502,1.5331990718841553,0.01415722853216723,0.0128941283665649,860146,386.2567068310502,0.0
139,7.735275745391846,390.82309374299433,80.9676150764406,710.044071572797,-50.40012190857561,15.625,1.5374318371214242,0.1,0.01694512367248535,0.40013885498046875,0.050056834,0.0602036,381.6206834174814,-0.0984424236444718,3.8975680567370454,15.625,9502,1.7780706882476807,0.028051906169472264,0.023819083769159775,869648,385.31914652700374,0.0
140,7.541578054428101,369.5146873015433,80.99378016074037,693.750427363749,-50.396544308589334,6.25,1.3318202066026583,0.1,0.01742696762084961,0.3372786045074463,0.05083322,0.04012478,380.4100838058876,-0.1205722981168748,3.682818401398937,6.25,9404,1.4608697891235352,0.024441267727238633,0.02074625069397567,879052,388.48692551352644,0.0
141,7.67792272567749,373.53709728220474,60.4398284317841,500.63904703194015,-50.39491884440698,10.416666666666666,1.421628351429448,0.1,0.01978158950805664,0.4439432621002197,0.05123151,0.046149045,379.7227851535193,-0.10270291184878234,3.728249880500327,10.416666666666666,9502,1.892519235610962,0.012921786228690616,0.011903516802992266,888554,390.18820941928755,12.5
142,7.520322799682617,374.6064193837706,81.08708516272124,597.8593786209047,-50.40811626026845,11.458333333333334,1.2839380210603086,0.1,0.0175018310546875,0.4208409786224365,0.0507923,0.047300756,379.2111485765444,-0.10172583409832031,3.7341583466660957,11.458333333333334,9404,1.3947277069091797,0.0212263436810093,0.018239895649822715,897958,391.6134175568302,18.75
143,7.92366886138916,387.45044131569966,42.31572441507247,589.4529304773231,299.8286841550184,11.458333333333334,1.6505340210333204,0.1,0.017023086547851562,0.3509833812713623,0.048637707,0.06613049,380.0350778504599,-0.10075036550738298,3.862166301159284,11.458333333333334,9600,1.9959256649017334,0.010641327057787114,0.00923854836590175,907558,392.20812307516917,18.75
144,7.873767852783203,382.0766557929558,84.19830004150606,730.282260697168,-50.39120699804305,13.541666666666666,1.7214817171070458,0.1,0.013834238052368164,0.3088994026184082,0.049237218,0.0493789,380.2392356447095,-0.10169831501990707,3.8080211693749404,13.541666666666666,9502,2.1169886589050293,0.030152966610340556,0.028234809834643965,917060,392.05289776558214,18.75
145,8.25150442123413,380.21116394722986,55.74509859527852,645.5391853864129,187.48292800616068,9.375,1.7441736627146318,0.1,0.02778148651123047,0.5676295757293701,0.05023312,0.05954381,380.23642847496154,-0.10147046213648558,3.790196204530181,9.375,9600,1.8409883975982666,0.023243924169845685,0.016494422884714283,926660,400.43601187571517,37.5
146,7.597537279129028,377.2054283390624,78.78483773782006,601.4724627631731,-50.37754589488493,13.541666666666666,1.4912760005118202,0.1,0.051709651947021484,0.5770514011383057,0.050905284,0.06003119,379.9333284613716,-0.11727685677318123,3.7597234749289483,13.541666666666666,9502,1.815455436706543,0.026981851626626693,0.024861744933414157,936162,406.76767764977166,43.75
147,7.520638942718506,373.8768458152377,96.8967447936263,681.7960720617734,-50.37320289235665,16.666666666666668,1.4169988143384717,0.1,0.016508817672729492,0.31596803665161133,0.051177733,0.0497424,379.32768019675825,-0.10159582624654029,3.732922056410396,16.666666666666668,9404,1.6719846725463867,0.03742012552674728,0.03473774590081427,945566,391.04603576385443,18.75
148,7.289515733718872,392.1683338953291,82.60488593275663,697.7456544045741,-50.38746397401973,18.75,1.6384304750902576,0.1,0.022397518157958984,0.3327300548553467,0.049400266,0.043284427,380.61174556661535,-0.09836395772330005,3.9093390767998506,18.75,9502,1.5160095691680908,0.027905010262947463,0.02531447099015936,955068,387.14980976523043,6.25
149,7.993655681610107,395.98666686144287,69.88980953902363,742.6909033195143,146.8157842288753,15.625,1.7371590800092753,0.1,0.02973484992980957,0.5342133045196533,0.05072462,0.06171271,382.1492376960981,-0.09788789181577355,3.9475287748508934,15.625,9600,1.9834601879119873,0.02864825978034195,0.026592980933972072,964668,385.54749272967194,0.0
150,8.041568994522095,387.19932131729064,54.11403079642854,577.2109466201817,119.44184167805524,20.833333333333332,1.8101148098066875,0.1,0.020035743713378906,0.48932552337646484,0.04901427,0.055691946,382.6542460582174,-0.0970060295899839,3.859660637076683,20.833333333333332,9600,1.6779258251190186,0.022403180467997216,0.018254756385128818,974268,385.4166667028037,0.0
151,7.595990180969238,386.33227161209066,92.51422641006596,641.6652443560035,-50.37915895312252,13.541666666666666,1.404236036098721,0.1,0.015561819076538086,0.3941810131072998,0.04953887,0.040290862,383.0220486136047,-0.09851266737361235,3.850989890514001,13.541666666666666,9404,1.483271598815918,0.028911118467943357,0.026657417796242925,983672,394.87692049668584,25.0
152,8.048601388931274,388.73723066385304,79.67646724165401,742.2394452462227,37.56539828302579,15.625,1.795365893863151,0.1,0.02664804458618164,0.5104987621307373,0.04874981,0.05515967,383.59356681862954,-0.097464404696824,3.875035595303176,15.625,9600,1.671494722366333,0.03728168536686221,0.03187377660584299,993272,396.67177531886637,25.0
153,8.180644989013672,400.4662941275456,66.04896342270406,605.6916635789736,139.1782507295938,22.916666666666668,1.7074561029607995,0.1,0.013983726501464844,0.32866930961608887,0.04895972,0.059962373,385.28083954952115,-0.09559869218913104,3.9923179744775354,22.916666666666668,9600,1.8934381008148193,0.025968390637138645,0.022253652596902932,1002872,398.29357165705926,37.5
154,6.5934977531433105,389.88701069395773,73.72562566895515,714.8492993866951,58.20460519845021,13.541666666666666,1.733558038318336,0.1,0.01839137077331543,0.6019048690795898,0.048967045,0.061774813,385.74145666396487,-0.0955491437047163,3.88611752296195,13.541666666666666,9600,1.4581897258758545,0.025896941710535262,0.021817406866988267,1012472,403.72157325183645,37.5
155,7.468900680541992,378.2445361352582,91.00115232406468,613.433560984879,-50.39275016733619,13.541666666666666,1.501812432401545,0.1,0.012888193130493164,0.3216738700866699,0.04952303,0.052917473,384.9917646110942,-0.11631344885752602,3.7709520413198114,13.541666666666666,9404,1.6778500080108643,0.02895281064973395,0.027732617712249295,1021876,404.0716468655115,37.5
156,8.156790971755981,390.0062664896769,69.39530935391602,730.1944388070797,115.44577966599957,15.625,1.8494013620934486,0.1,0.01392364501953125,0.33853793144226074,0.049920116,0.053451933,385.49321479895247,-0.09684714890462476,3.888569517762042,15.625,9600,1.5643601417541504,0.028977858292302025,0.02611530915387654,1031476,405.7632588754028,37.5
157,7.8998048305511475,385.78727105913566,80.3945648747392,718.5944462573447,-50.37869983274449,11.458333333333334,1.498605148565578,0.1,0.016036510467529297,0.3984687328338623,0.050556004,0.049216777,385.5226204249708,-0.09898686806960404,3.845122411626793,11.458333333333334,9502,1.5958163738250732,0.029564848730257838,0.02548591051786048,1040978,400.66119368708894,37.5
158,7.542147159576416,373.4398242501705,109.55618629962032,710.5625387773771,-50.39079396831539,13.541666666666666,1.4885723049594233,0.1,0.011540412902832031,0.321195125579834,0.049919292,0.04174845,384.31434080749074,-0.11750104825687964,3.722051552604937,13.541666666666666,9306,1.6686997413635254,0.0418647665346628,0.038333289060171576,1050284,395.0427017865503,25.0
159,7.724682807922363,394.6842107195541,81.81885481375403,726.1804622270506,-50.38042514959071,17.708333333333332,1.5700300094057962,0.1,0.014287710189819336,0.35138511657714844,0.048979737,0.047887076,385.35132779869707,-0.11627363378438171,3.9345003224141255,17.708333333333332,9502,1.3911924362182617,0.031300320498363496,0.02453900579861391,1059786,399.9163740102779,43.75
160,7.840119361877441,393.74730107333244,71.81917848043422,637.5159967373992,-50.38812889844042,14.583333333333334,1.64509011941334,0.1,0.020042896270751953,0.5260496139526367,0.049370665,0.04548126,386.19092512616066,-0.09615693928025404,3.925140061865484,14.583333333333334,9502,2.04012131690979,0.02116987016419176,0.016829074929819613,1069288,402.0844873415175,37.5
161,8.083538293838501,394.0075152487313,52.095813186045746,641.5478415412495,183.4926184946068,15.625,1.7038046229186863,0.1,0.01650214195251465,0.5109894275665283,0.049989004,0.06520014,386.9725841384177,-0.09517449981043169,3.9273255001895677,15.625,9600,1.5960500240325928,0.015790839787595917,0.014029449762401109,1078888,411.3013726499752,43.75
162,8.227154731750488,389.1642218678547,77.84499973937604,685.903145378356,54.79990432976208,11.458333333333334,1.9321386141634158,0.1,0.018027067184448242,0.4515650272369385,0.049906414,0.056359585,387.1917479113614,-0.09695696703026617,3.879293032969733,11.458333333333334,9600,1.5981085300445557,0.035339704454163165,0.03652022894186337,1088488,406.7614324176362,37.5
163,8.259395837783813,389.49243536399007,69.68496707248717,714.0215529954903,62.588191801172364,17.708333333333332,1.8407493404760302,0.1,0.026529312133789062,0.4395875930786133,0.050363813,0.056961376,387.4218166566243,-0.09533541849512962,3.8821645815048704,17.708333333333332,9600,1.7710070610046387,0.03765061072586244,0.027847612816705624,1098088,406.55312445681875,31.25
164,8.419885158538818,396.65102079536297,72.52572609660147,666.3557831395624,-5.777588271411821,18.75,1.7341048192534918,0.1,0.0209963321685791,0.4826841354370117,0.048020747,0.05194884,388.3447370704981,-0.09458494789326866,3.954165052106731,18.75,9600,1.573725938796997,0.027038352475265356,0.026912614463439156,1107688,406.526511091756,37.5
165,7.564799547195435,390.67996262211165,120.81005799983727,750.6573068293206,-50.40811689715625,16.666666666666668,1.3773599759674489,0.1,0.0174252986907959,0.34929323196411133,0.049278237,0.044391323,388.5782596256595,-0.11356680742703512,3.898834590307358,16.666666666666668,9208,1.643380880355835,0.038013375617575416,0.03131692855867506,1116896,410.1884656134562,50.0
166,7.689504146575928,402.24079004220926,70.50850623893471,766.8635109165409,284.17746570607807,17.708333333333332,1.7000095249022849,0.1,0.01746344566345215,0.508232831954956,0.049229324,0.07657941,389.9445126673145,-0.09576503494148307,4.009651631725183,17.708333333333332,9600,1.7162671089172363,0.026721915771596643,0.023720109645154492,1126496,400.7424745501709,37.5
167,8.111380815505981,399.4651171775513,67.76479676404081,685.731124286123,111.31411142049404,18.75,1.8708714380592977,0.1,0.017217636108398438,0.4228818416595459,0.049494665,0.05667018,390.89657311833815,-0.09518666057920817,3.9823133394207915,18.75,9600,1.629420518875122,0.026593500408467,0.023508404607273672,1136096,398.635990311047,37.5
168,7.58770751953125,376.56923057508993,68.53119031041638,472.81693367955023,-50.40198005362329,9.375,1.40630375066461,0.1,0.012535572052001953,0.2719001770019531,0.050249424,0.033371046,389.4638388640133,-0.09856461255227718,3.758984530489053,9.375,9404,1.5808427333831787,0.012689955342707606,0.007629493666038907,1145500,409.9446366910014,43.75
169,7.49713921546936,397.2996549090401,89.4978865841697,701.9861970578396,-50.3961095728028,21.875,1.5021599398650933,0.1,0.031102895736694336,0.7374718189239502,0.05051446,0.052810162,390.247420468516,-0.09650985496136115,3.9606539145093698,21.875,9502,1.603740930557251,0.03727584585321003,0.029873616603296144,1155002,432.0060829750654,43.75
170,8.264360189437866,403.6788504821399,80.64626390330527,738.697205301781,171.9302578560519,25.0,1.8208962963509407,0.1,0.018991708755493164,0.5045638084411621,0.05015615,0.05502341,391.59056346987836,-0.09596014936022919,4.024456517306437,25.0,9600,1.5089783668518066,0.033895469189291115,0.03157056580596365,1164602,415.8261495274812,43.75
171,7.925745964050293,406.00436696363977,88.18255080576652,755.3296811670099,-50.37273431242624,27.083333333333332,1.525651650845429,0.1,0.014928340911865234,0.43552541732788086,0.049416073,0.053736404,393.03194381925454,-0.09492858506996665,4.047698681913452,27.083333333333332,9502,1.5256717205047607,0.03353040300960941,0.028085510610848623,1174104,414.8642620616474,43.75
172,8.483919858932495,408.0721786609203,94.05507376050673,714.5013708376396,58.82263076855461,19.791666666666668,1.9476047208359228,0.1,0.01930975914001465,0.536569356918335,0.049626824,0.053612415,394.5359673034211,-0.0957821174029821,4.068384549263684,19.791666666666668,9600,2.4212794303894043,0.03941926777769123,0.03453376895071518,1183704,420.44854016498886,43.75
173,7.668506145477295,396.2364715730898,107.04874325417666,770.8027523389314,-50.386127561362166,16.666666666666668,1.4764890824706507,0.1,0.014049053192138672,0.29932284355163574,0.049041748,0.049179014,394.706017730388,-0.0967053637491501,3.9491880191105566,16.666666666666668,9404,1.5895209312438965,0.03460295553092038,0.03213366408902925,1193108,414.48393589471164,37.5
174,8.107882261276245,401.29816515676083,62.07116828920024,713.8736999035235,231.92587700049089,15.625,1.7294705178269747,0.1,0.015249013900756836,0.42952394485473633,0.05101828,0.06386016,395.36523247302534,-0.09353955004689744,4.0006271166197696,15.625,9600,1.5528233051300049,0.027668406063372696,0.022518715250966277,1202708,413.68677320066274,37.5
175,7.709036350250244,402.1724367067306,111.74674485085502,734.618474142603,-50.382380154064826,25.0,1.3432451493139599,0.1,0.0128326416015625,0.31290698051452637,0.04900929,0.05145194,396.0459528963959,-0.1122015318005352,4.009810644677472,25.0,9404,1.42976975440979,0.03756345459261091,0.03314278091651461,1212112,411.82868037857213,37.5
176,7.890220880508423,401.1569240109522,93.40423569427298,750.5057974367984,-50.39274063830404,16.666666666666668,1.6257611994064698,0.1,0.014058589935302734,0.40169358253479004,0.04903648,0.053919703,396.5570500078515,-0.11284840801754588,3.9983917055603517,16.666666666666668,9502,1.5610005855560303,0.0393899143851414,0.03457852546733133,1221614,413.55096465955603,37.5
177,7.705785274505615,388.5558453249036,89.69485778766673,657.8078030124717,-50.389716866276395,20.833333333333332,1.3588672977811778,0.1,0.016314983367919922,0.3519778251647949,0.048689347,0.048010807,395.7569295395567,-0.09488384943185807,3.8788367412488376,20.833333333333332,9404,1.5801918506622314,0.030408435257056908,0.028106103052526255,1231018,408.6051341890344,43.75
178,7.87053370475769,409.623474167864,94.95390088243836,751.3146360840631,-50.379515996593064,21.875,1.696559662497529,0.1,0.017992496490478516,0.526491641998291,0.050020147,0.05795886,397.14358400238746,-0.09398035746980414,4.082629910230562,21.875,9502,1.4473216533660889,0.03451912691138079,0.031282586209491564,1240520,400.6272489778555,43.75
179,6.494927406311035,400.8807420662095,94.09615518695,718.1113180027028,-50.38586627387627,19.791666666666668,1.662462650284487,0.1,0.023104429244995117,0.5114831924438477,0.04966576,0.049915705,397.5172998087697,-0.09450481721021298,3.996464130202701,19.791666666666668,9502,1.8648974895477295,0.034262820127226166,0.031168388195250658,1250022,422.5683124004504,43.75
180,8.16665244102478,384.96238736259494,63.94599329376417,637.7059485683671,17.904314972213164,13.541666666666666,1.8103476172197566,0.1,0.016109704971313477,0.42655420303344727,0.04981823,0.05113866,396.2618085641522,-0.0972863115047043,3.837713688495296,13.541666666666666,9600,1.6485414505004883,0.02342953398929057,0.02047953389146968,1259622,411.6668919565652,37.5
181,8.007093667984009,392.4649158794047,97.9577507971536,738.9842371171285,-50.39803284471475,19.791666666666668,1.312407391766867,0.1,0.02382969856262207,0.4361751079559326,0.049943067,0.047887415,395.88211929567746,-0.0946920613877113,3.912319534530266,19.791666666666668,9404,2.485658645629883,0.026476165616631707,0.024727662015802187,1269026,392.6429365695602,43.75
182,8.395649433135986,404.87991901723325,88.29609991183351,710.1570516687661,91.21202462898435,22.916666666666668,1.8256749451404577,0.1,0.01444697380065918,0.3666384220123291,0.050285242,0.054495987,396.781899267833,-0.0947812399510111,4.036468760048989,22.916666666666668,9600,1.6726973056793213,0.03769367883251021,0.03494880562600206,1278626,385.6930132347514,31.25
183,8.206873655319214,404.15352892032234,60.87488738808113,698.0938747816009,332.5051582966015,15.625,1.7035532624812502,0.1,0.011464357376098633,0.4297187328338623,0.049902562,0.060358666,397.5190622330819,-0.09455282347912208,4.029197176520878,15.625,9600,2.2375218868255615,0.023714058597740627,0.019063363167394032,1288226,401.32284440560886,43.75
184,7.705188035964966,387.5880969683523,88.49617410637558,693.793282497736,-50.38523949681213,17.708333333333332,1.4375354832341078,0.1,0.01743936538696289,0.3334834575653076,0.049267393,0.040847447,396.52596570660893,-0.11401146000560373,3.863551963935761,17.708333333333332,9404,1.714034080505371,0.027191891161275395,0.024340780496855383,1297630,391.7349870288225,37.5
185,8.172126770019531,400.0790311286799,74.18996921775454,719.0091035993901,118.9842414949113,17.708333333333332,1.705540005524823,0.1,0.017327070236206055,0.46036696434020996,0.0486892,0.060574587,396.88127224881606,-0.09529699366856444,3.989286339664769,17.708333333333332,9600,1.4920918941497803,0.029334375590769995,0.024990984716199236,1307230,395.6614136917989,50.0
186,7.699146270751953,394.5066939341403,70.56138408080835,702.4362582767862,131.18658957787218,14.583333333333334,1.7064902125546304,0.1,0.012170076370239258,0.4199819564819336,0.049464084,0.0558528,396.6438144173485,-0.09602057941806803,3.932729420581932,14.583333333333334,9600,1.4578378200531006,0.024268710277397586,0.022060451988586315,1316830,392.4344353671155,31.25
187,7.941969633102417,397.7790915781936,85.69270488371833,742.7910599432703,-50.39013943936716,15.625,1.5515535534751184,0.1,0.011818170547485352,0.4541499614715576,0.049264032,0.05507697,396.757342133433,-0.09468945941896871,3.96544942818446,15.625,9502,1.264061450958252,0.025936545079562518,0.024266762733588073,1326332,376.7041031739731,50.0
188,7.258540391921997,410.1621832949084,114.76157544899361,730.0108680661998,-50.406689188017474,22.916666666666668,1.568427963329623,0.1,0.011829137802124023,0.3429088592529297,0.049894866,0.04876363,398.0978262495805,-0.09248350901987971,4.088442142072091,22.916666666666668,9404,1.5498061180114746,0.03966644991874071,0.03934019983787928,1335736,372.43898988767035,31.25
189,7.8431642055511475,411.45867765652287,77.23819527561929,766.7961349443713,255.97151840329488,23.958333333333332,1.95786864201947,0.1,0.012456893920898438,0.41793346405029297,0.05046358,0.056196816,399.4339113902748,-0.0927555516846933,4.10182778164864,23.958333333333332,9600,1.7999968528747559,0.0353754834826603,0.031098315382379133,1345336,374.98757326994206,31.25
190,8.166610479354858,417.32658452308897,77.35125438121223,722.3610641555072,272.09560849434644,28.125,1.8734871250939926,0.1,0.018073558807373047,0.5869700908660889,0.049858727,0.05607998,401.2231787035562,-0.09157639497578718,4.160923605024212,28.125,9600,1.8435239791870117,0.03014349120655364,0.027845301626662145,1354936,373.7533099577039,25.0
191,8.284269571304321,405.9330493152855,83.93686680655796,677.8587518667497,-50.37205053639898,20.833333333333332,1.5759367853873147,0.1,0.01459050178527832,0.42470288276672363,0.050059963,0.05824071,401.6941657647291,-0.11166209838369417,4.046993846177949,20.833333333333332,9502,1.4442274570465088,0.026907118761474162,0.02537070482074821,1364438,360.23707683222585,37.5
192,8.097885131835938,408.56724368135065,74.92659368279148,722.846473625474,119.27150452492893,23.958333333333332,1.7237282191836858,0.1,0.033945322036743164,0.6046326160430908,0.04968476,0.067294195,402.3814735563913,-0.09167597825864467,4.0729073550746895,23.958333333333332,9600,1.7625277042388916,0.03143228889478458,0.025938727240448576,1374038,320.45148381499024,18.75
193,7.697489023208618,408.8403635313541,104.90722153981741,762.7650266841056,-50.38024139311706,27.083333333333332,1.5560716960071985,0.1,0.024067401885986328,0.41738271713256836,0.049658448,0.047316387,403.0273625538876,-0.0935848969491135,4.081265073257458,27.083333333333332,9404,1.7780754566192627,0.03194636557925935,0.029405078659873293,1383442,338.77563801161244,6.25
194,7.831441640853882,398.316176242807,102.57362257835516,685.9076096648363,-50.40082663393547,26.041666666666668,1.579629145321741,0.1,0.017554759979248047,0.4724886417388916,0.05036669,0.046309255,402.5562439227795,-0.09305080817661415,3.970395890110421,26.041666666666668,9502,1.6444923877716064,0.04817274901483801,0.04093565074937407,1392944,334.46831479758885,18.75
195,8.177208423614502,409.73677990672877,73.21589238290758,654.1175424823492,301.0074023402054,23.958333333333332,1.7031557709398975,0.1,0.028223276138305664,0.513221263885498,0.050070733,0.05726441,403.2742975211745,-0.09414627426635809,4.084187059066974,23.958333333333332,9600,2.2452075481414795,0.03530250685928262,0.025010894641757764,1402544,368.16122516218525,12.5
196,7.719292402267456,408.04333047410796,105.59907519702757,706.6612017187792,-50.38643570736825,20.833333333333332,1.5957450304288208,0.1,0.015883445739746094,0.3745417594909668,0.049002707,0.043028273,403.7512008164679,-0.11061308537827473,4.067680194833131,20.833333333333332,9404,1.8075494766235352,0.03181421296197191,0.0312011850215257,1411948,362.3398467546448,18.75
197,7.5419089794158936,417.2987937175553,84.857662509526,762.6105238564312,356.92968973189124,18.75,1.9392919623231544,0.1,0.01926732063293457,0.4513840675354004,0.04961638,0.053756732,405.1059601065766,-0.09184976606260642,4.160233567270727,18.75,9600,1.5447406768798828,0.03827376130366091,0.03369949494384227,1421548,338.0096301682805,18.75
198,7.422955274581909,416.82116936591245,81.68900234479496,754.426130069151,240.033202786026,25.0,1.8239731362297753,0.1,0.0151824951171875,0.40948963165283203,0.049976904,0.059460253,406.2774810325102,-0.09329131341999729,4.15587535324667,25.0,9600,1.5241649150848389,0.03039914176109122,0.027463832294302777,1431148,371.8543897247535,31.25
199,7.507820129394531,411.2653924345993,81.94427322004488,742.1914766676463,239.827104580058,21.875,1.7966464916448004,0.1,0.026063919067382812,0.6727199554443359,0.0489277,0.06018313,406.77627217271913,-0.09259730435828538,4.1003193623083805,21.875,9600,1.4741322994232178,0.03454742144104724,0.031657326912805116,1440748,384.97812387370374,37.5
200,7.988166809082031,419.8574559557317,90.01820399314558,763.0923754477184,332.48462309964214,22.916666666666668,1.9568569169070202,0.1,0.011024236679077148,0.3581845760345459,0.04947466,0.05560306,408.0843905510204,-0.09252305272200233,4.185810280611331,22.916666666666668,9600,1.4628589153289795,0.03694866227112761,0.035630701197256046,1450348,302.0360733750507,31.25
201,7.665643692016602,385.4695815188752,93.99696401426843,710.3839247871882,-50.39390675129697,13.541666666666666,1.3912228176026782,0.1,0.012547492980957031,0.2705354690551758,0.04950422,0.046373706,405.8229096478059,-0.11313403051837123,3.8427781637017735,13.541666666666666,9404,1.4354419708251953,0.028459363753182042,0.02636176686684383,1459752,356.2684319101734,37.5
202,8.16846489906311,406.09232797761683,81.37689579617484,763.5907755651735,255.78713643753304,15.625,1.8637141468757303,0.1,0.013334274291992188,0.5889291763305664,0.050165404,0.058542695,405.84985148078704,-0.09474998924157291,4.048583344091761,15.625,9600,2.456454038619995,0.03724801033541779,0.03263034533117846,1469352,358.617266457271,43.75
203,8.11015272140503,400.9113996938654,62.8238461308402,705.8714979131577,276.4387021404646,18.75,1.7057986256639843,0.1,0.0206449031829834,0.49915313720703125,0.050193205,0.064811796,405.3560063020949,-0.09363584233952384,3.9971974909938095,18.75,9600,2.10202693939209,0.02669301172037111,0.021816660203808215,1478952,376.6437058863698,50.0
204,7.748400688171387,405.2938161762434,106.40721210113593,762.3162532922588,-50.416751969680014,19.791666666666668,1.669051513180226,0.1,0.02253556251525879,0.45006251335144043,0.04941246,0.04713912,405.3497872895097,-0.09382976433912088,4.046230002328442,19.791666666666668,9404,2.0102150440216064,0.03903665702969889,0.035994676206486345,1488356,361.6045963092546,37.5
205,7.659592390060425,410.7032739460096,72.1311400695573,751.3483612646316,272.11328808124125,22.916666666666668,1.7562587118697437,0.1,0.024024009704589844,0.5132231712341309,0.048948776,0.064307325,405.8851359551597,-0.09323141437225413,4.094685252294412,22.916666666666668,9600,1.6371822357177734,0.026806342572924764,0.024079397451899864,1497956,361.5252048940669,50.0
206,7.983872175216675,413.047032709811,93.433080647498,726.1428568248447,-50.38234290077883,26.041666666666668,1.6420643320509203,0.1,0.013510465621948242,0.30793261528015137,0.049634803,0.05436705,406.60132563062484,-0.09233689346688556,4.1177082909326,26.041666666666668,9502,1.5131661891937256,0.032025808912235346,0.02917249737270171,1507458,335.29108317774404,25.0
207,7.41493558883667,400.38868776901774,75.12486613802466,701.6861102843347,-50.3865615427044,20.833333333333332,1.4212743110000774,0.1,0.012734413146972656,0.34572744369506836,0.050543655,0.049297877,405.98006184446416,-0.09322041884245386,3.9911212124894404,20.833333333333332,9502,1.5114364624023438,0.026718016814800512,0.01985072369474886,1516960,273.08189019340057,18.75
208,8.024040460586548,411.3988323370122,86.94523149926762,702.2284925724709,-50.38524105132554,27.083333333333332,1.6566777292865258,0.1,0.022184133529663086,0.6308653354644775,0.050458036,0.053911693,406.5219388937189,-0.09301792629946258,4.101223949467664,27.083333333333332,9502,2.387641191482544,0.02994187889175526,0.027010932505487965,1526462,227.0988699306394,50.0
209,8.45635724067688,397.3904456891116,42.60035728663209,641.4783551464226,363.09281359184166,15.625,1.7062046321375015,0.1,0.01843094825744629,0.42456674575805664,0.04921874,0.06657091,405.6087895732582,-0.09302050021047185,3.9611461664561944,15.625,9600,1.2330551147460938,0.01875231069261379,0.012545200657303504,1536062,245.87558585146604,43.75
210,7.927753448486328,415.15307305353826,106.66189704734164,759.4506991570225,-50.38856791247551,26.041666666666668,1.6742873739496544,0.1,0.01456141471862793,0.4724080562591553,0.04946348,0.048194513,406.5632179212862,-0.09399206785501475,4.138763933334411,26.041666666666668,9502,1.4329094886779785,0.04878169095424182,0.03721968306056114,1545564,274.14859880000483,43.75
211,7.9944562911987305,404.8790635946907,93.2446056756152,710.012321564269,-50.934849779646015,22.916666666666668,1.561039630603299,0.1,0.038979291915893555,0.47364187240600586,0.050131258,0.047423054,406.3948024886267,-0.09301974651051899,4.03645849944334,22.916666666666668,9506,1.4461338520050049,0.03962928249002115,0.034437467038727444,1555070,345.6741659677449,50.0
212,8.162288427352905,415.4114396079688,89.3751519250519,746.8415240744949,155.54676622861734,23.958333333333332,1.8962094252656634,0.1,0.011322498321533203,0.3833653926849365,0.04989402,0.05737579,407.29646620056093,-0.0919732172480332,4.1413601160853,23.958333333333332,9600,1.4598946571350098,0.037016224425070965,0.03471556668488809,1564670,350.75457423081076,50.0
213,7.93718147277832,414.3510613290614,82.17862728413093,762.9502758490471,332.2313355768473,22.916666666666668,1.9495773844236874,0.1,0.017534971237182617,0.665945291519165,0.050454583,0.05146794,408.00192571341097,-0.09050159481577452,4.131165071850892,22.916666666666668,9600,1.5838251113891602,0.038481287571477445,0.035089194553815796,1574270,332.3299199464735,43.75
214,8.303157806396484,422.82237212811697,86.5949767990422,758.2814582921067,373.4311121514401,22.916666666666668,1.8364510831523746,0.1,0.012305259704589844,0.3604435920715332,0.04833822,0.05641269,409.4839703548816,-0.09079495555737101,4.215455044442629,22.916666666666668,9600,1.3835718631744385,0.03561472275475631,0.03328730265447704,1583870,312.03093328697645,43.75
215,7.262710332870483,434.47653307871855,116.1856529651789,762.4718772235004,-50.38599067761949,33.333333333333336,1.6295183168563987,0.1,0.009035348892211914,0.301485538482666,0.049356394,0.05111139,411.9832266272653,-0.08975052511225518,4.3324262409727545,33.333333333333336,9502,1.8214223384857178,0.04619813072769656,0.04086493507679684,1593372,321.9771239884229,31.25
216,8.273933410644531,425.11627310178363,86.60854658666005,706.298900517248,353.01239303940105,27.083333333333332,1.87653523339277,0.1,0.012919902801513672,0.34591126441955566,0.04822801,0.05361613,413.29653127471715,-0.09035052248511248,4.238816144181555,27.083333333333332,9600,1.8043944835662842,0.03568528980637756,0.03232859936290761,1602972,309.36985506340136,31.25
217,7.933157920837402,421.0224691218741,103.18580573756508,726.2016221942736,-50.39486888721577,23.958333333333332,1.6488246724254918,0.1,0.016314983367919922,0.4352753162384033,0.049946576,0.054261148,414.06912505943285,-0.08917113320788383,4.196619232838615,23.958333333333332,9502,1.9329326152801514,0.03841257658622513,0.0365977217298113,1612474,308.5688951815323,31.25
218,7.586239337921143,413.41798502831216,109.61585554342606,742.4765736545778,-50.38697074919922,27.083333333333332,1.4929553735744792,0.1,0.013226985931396484,0.30538296699523926,0.049476683,0.05007779,414.0040110563208,-0.09270483466689262,4.126634053198075,27.083333333333332,9404,1.5815472602844238,0.036716166667444324,0.033350517207629826,1621878,320.4550146046718,31.25
219,7.73247218132019,423.02354573655134,122.88957786808491,771.1066148717497,-50.39721498037786,27.083333333333332,1.464784911839364,0.1,0.019914627075195312,0.3855736255645752,0.04928326,0.040594935,414.90596452434386,-0.1079239804397848,4.217470769656138,27.083333333333332,9404,1.745605707168579,0.04498247669023682,0.04241399315297233,1631282,323.216312170537,31.25
220,8.209887981414795,404.1971392587534,72.05263508422848,747.2791674542083,191.8697481357704,22.916666666666668,1.8450384936051634,0.1,0.018590211868286133,0.6519935131072998,0.049141347,0.05506706,413.8350819977848,-0.09245575977086673,4.029627573562467,22.916666666666668,9600,2.1662726402282715,0.03427841202535402,0.026234338537601234,1640882,305.7800446683819,31.25
221,8.743483304977417,414.46104508706077,72.55145934239769,717.9891402735396,223.62973481935276,26.041666666666668,1.7632159959205322,0.1,0.014885187149047852,0.6130154132843018,0.050357882,0.058918558,413.8976783067124,-0.08983072684206754,4.131835939824599,26.041666666666668,9600,1.4452929496765137,0.027419336832323983,0.025476563286821588,1650482,283.2496759817086,12.5
222,9.01910948753357,411.82779328374227,77.15032080797262,722.4772406163671,360.7477446781385,19.791666666666668,1.8113629864200362,0.1,0.017601490020751953,0.3944118022918701,0.04910945,0.056374405,413.6906898044154,-0.09114960530163145,4.105100394698368,19.791666666666668,9600,1.5752317905426025,0.029701194389335734,0.027721550292302402,1660082,271.82904983066317,6.25
223,8.313752174377441,421.04070070722724,91.95384273991517,734.6506284938974,348.79015765465266,21.875,1.7891058011451384,0.1,0.016889572143554688,0.46651673316955566,0.050202645,0.05816754,414.42569089469663,-0.09152951396896786,4.197220486031032,21.875,9600,1.463291883468628,0.0315319710565528,0.027913877683209992,1669682,314.62462877933604,25.0
224,8.209883213043213,405.0583638271969,80.39839960457354,754.6441412198061,131.04738844631578,19.791666666666668,1.9433331235016411,0.1,0.012094736099243164,0.35111308097839355,0.050121535,0.054466553,413.48895818794665,-0.09217614339737414,4.038240523269292,19.791666666666668,9600,1.573352336883545,0.03604636710573382,0.032512247428135604,1679282,219.8411598676014,31.25
225,8.245033025741577,412.0608228259892,76.49765712131266,742.089330753837,320.67618936069056,21.875,1.8427870078855864,0.1,0.01569366455078125,0.4092130661010742,0.049811278,0.05745917,413.34614465175093,-0.09298649965467322,4.1074301670119935,21.875,9600,1.7308545112609863,0.02996754945856126,0.027612002431843374,1688882,260.6765594204377,25.0
226,8.462568998336792,422.3659075740132,96.6142083727618,717.8177669953242,208.11634296043172,26.041666666666668,1.920446259051127,0.1,0.01604485511779785,0.3463265895843506,0.05001009,0.051636722,414.24812094397714,-0.09118881604529154,4.210894517288042,26.041666666666668,9600,1.6922636032104492,0.040719022961537864,0.03570552576252399,1698482,268.5306149765469,18.75
227,7.63254976272583,424.8839740602695,93.27249609093086,734.6217274038146,184.38933108450425,27.083333333333332,1.9361527035229704,0.1,0.02897477149963379,0.5903224945068359,0.049462564,0.058630567,415.3117062556064,-0.08893631371091537,4.2356470196224185,27.083333333333332,9600,1.8086707592010498,0.043319559179553276,0.03899298020742143,1708082,263.030973257916,18.75
228,7.861368656158447,400.9916045599232,69.63814474458428,751.0677338611118,228.14416102637693,14.583333333333334,1.8507521295304439,0.1,0.01469874382019043,0.40661025047302246,0.049602125,0.05505839,413.8796960860381,-0.09284785240986294,3.9975688142568035,14.583333333333334,9600,1.7106192111968994,0.032275561930818084,0.02654455058219636,1717682,271.8573088898293,6.25
229,7.81178879737854,408.5048090553685,106.67468660240267,734.3607061568171,-50.38556160294455,30.208333333333332,1.4578765722951552,0.1,0.010958194732666016,0.2765519618988037,0.050022453,0.052719034,413.3422073829712,-0.1085235240117991,4.072286650272905,30.208333333333332,9404,1.8259093761444092,0.03691115952847479,0.03402659083230657,1727086,254.23715775647463,6.25
230,8.000197172164917,425.1049281055184,97.93292981906974,742.2451669876383,-50.388793279595596,31.25,1.5978886318142624,0.1,0.0179901123046875,0.40552186965942383,0.049635142,0.05132009,414.51847945522593,-0.08753356537862127,4.238279076503004,31.25,9502,1.5937185287475586,0.033140371339771414,0.030797342491814664,1736588,238.99867810220198,6.25
231,8.213866472244263,421.6932843751872,95.74302836093229,755.1814821542006,187.5150756847538,23.958333333333332,1.8681446171529443,0.1,0.019552946090698242,0.47528624534606934,0.05038571,0.054904148,415.2359599472221,-0.09083364707794557,4.202499686255388,23.958333333333332,9600,3.3483498096466064,0.037922836149162885,0.035621225893890635,1746188,210.93971701368918,6.25
232,8.112245798110962,407.09764985564215,96.36818795316374,742.5793233336868,-50.37811188300676,20.833333333333332,1.5818814623453707,0.1,0.017769336700439453,0.5492653846740723,0.049487337,0.05244433,414.42212893806413,-0.09263848093482446,4.058635885405384,20.833333333333332,9502,2.5690436363220215,0.035331237766753974,0.032775365245584616,1755690,217.81485498073914,12.5
233,8.220879793167114,415.06282784439037,80.4008247010598,758.8108787603508,344.88617482466447,22.916666666666668,1.8428089218598294,0.1,0.015771865844726562,0.41464996337890625,0.049635295,0.061925795,414.48619882869673,-0.09087598656466143,4.137874013435339,22.916666666666668,9600,1.7343268394470215,0.02773854412520077,0.025773770490933132,1765290,245.37160677887468,6.25
234,8.300804138183594,401.16435482853154,68.95398560100655,746.4527710849547,261.14924942994884,14.583333333333334,1.864246787231776,0.1,0.014167547225952148,0.41554856300354004,0.049280446,0.056907367,413.1540144286802,-0.09361748507853386,3.998882514921466,14.583333333333334,9600,1.521514654159546,0.034526461787680464,0.0290655678053494,1774890,254.21862139548023,6.25
235,8.102816820144653,431.74366657550036,92.11512510975648,746.6074948700278,348.9802413755408,34.375,1.7277129100820379,0.1,0.019742488861083984,0.4402046203613281,0.04983322,0.061542142,415.01297964336226,-0.08866222775844242,4.304671105574891,34.375,9600,1.6745150089263916,0.03831197471233859,0.032765796146671154,1784490,257.9844599724795,6.25
236,8.043227672576904,394.60833522762033,108.29028221408666,726.1440781861419,-50.38904106243444,20.833333333333332,1.3215930790868775,0.1,0.014356851577758789,0.37163662910461426,0.05035855,0.053211406,412.97251520178804,-0.11215203430654552,3.934581813616321,20.833333333333332,9404,1.6892075538635254,0.04223263889700128,0.036569267693794046,1793894,266.82216386290287,6.25
237,8.013477563858032,417.0411627818505,110.59150810140183,766.8738502266275,-50.39554274142999,21.875,1.5902314900266064,0.1,0.015074491500854492,0.436816930770874,0.049620774,0.057616334,413.3793799597943,-0.09214048230553377,4.158071240412733,21.875,9502,1.6073691844940186,0.04449021048687887,0.0375119206628927,1803396,283.0092954678914,12.5
238,8.221017122268677,408.6476639657764,77.92844752550137,677.9346514187632,70.94346944783473,21.875,1.7268836408200505,0.1,0.015138864517211914,0.4758439064025879,0.049885754,0.06246469,412.9062083603925,-0.09253698821911498,4.073713011780885,21.875,9600,1.7009243965148926,0.031487327447025454,0.02710811332104014,1812996,304.03944205776395,12.5
239,8.237204313278198,406.5593698762471,66.15215728774861,702.109715237881,358.67380595220015,17.708333333333332,1.9083368639039309,0.1,0.014372110366821289,0.36797595024108887,0.049974844,0.054999623,412.271524511978,-0.0930005600771416,4.053249439922858,17.708333333333332,9600,1.4741342067718506,0.025212373123899484,0.02121237745522679,1822596,316.9239512196367,31.25
240,8.278733015060425,419.32879028225125,81.11761075655998,730.0241554237756,355.8069832334227,22.916666666666668,1.9405398614575762,0.1,0.02386784553527832,0.5251836776733398,0.04956657,0.055222772,412.97725108900534,-0.09114767053620938,4.18010232946379,22.916666666666668,9600,1.9380059242248535,0.03162500420354516,0.029397611874613,1832196,321.9920090479477,18.75
241,8.217639446258545,418.739600159154,93.87362063954855,730.8459052458676,66.80029780652049,25.0,2.023130755060079,0.1,0.012709617614746094,0.3318357467651367,0.049827006,0.050505858,413.5534859960202,-0.08995795795561297,4.17462537537772,25.0,9600,1.6137323379516602,0.036761033224206124,0.03614601588930252,1841796,312.0951957632724,31.25
242,7.521250247955322,396.59852455601214,80.44268563300707,677.8854033919162,-50.38321520090411,16.666666666666668,1.376128980129841,0.1,0.01963019371032715,0.44719505310058594,0.05027888,0.03900757,411.8579898520194,-0.09479479565152864,3.953651233819,16.666666666666668,9502,2.0117783546447754,0.024126576390903594,0.021680175720355185,1851298,287.7488686968755,31.25
243,7.8469109535217285,413.07837072822895,81.00751875632622,718.3029669413222,332.44541906928555,20.833333333333332,1.7522696003951446,0.1,0.027758121490478516,0.4278256893157959,0.04925512,0.059835814,411.98002793964037,-0.09281470055403444,4.118018632779299,20.833333333333332,9600,2.2779769897460938,0.03071126060993346,0.028292667571833297,1860898,301.4583551092853,31.25
244,8.175272703170776,408.82405897742393,77.41567979719665,754.5912437521278,204.00965197074365,23.958333333333332,1.73771328377372,0.1,0.017807483673095703,0.3793456554412842,0.049443495,0.05888229,411.66443104341874,-0.09244655195668276,4.075470114709984,23.958333333333332,9600,1.9805612564086914,0.03027075071511839,0.027353845649578455,1870498,288.50620052702476,31.25
245,8.557546615600586,424.5709849147781,95.96641359581052,770.6612167008785,207.67008815404117,29.166666666666668,1.7385171517827227,0.1,0.02140069007873535,0.4407613277435303,0.048999425,0.05962711,412.95508643055473,-0.09039328391363399,4.232106716086366,29.166666666666668,9600,1.6459295749664307,0.03572742810228512,0.03211936286042997,1880098,288.23270143601746,37.5
246,8.277128458023071,419.67357531678795,85.11983016660999,751.0779650631994,256.30384515087536,27.083333333333332,1.828873639955066,0.1,0.011895418167114258,0.38280391693115234,0.048852004,0.054901764,413.6269353191781,-0.09018981671212574,4.184393516621207,27.083333333333332,9600,1.7396214008331299,0.03672451269290489,0.03232824749147138,1889698,269.32571228403805,31.25
247,8.324010848999023,414.94874562789346,82.03110034902285,750.8222561377601,268.099600508798,25.0,1.7513577544917251,0.1,0.020198345184326172,0.4269835948944092,0.049220674,0.060359813,413.7591163500496,-0.09203062637074588,4.136719373629254,25.0,9600,1.7063534259796143,0.03401228511337555,0.029294177865231395,1899298,247.6794766049653,18.75
248,8.286795377731323,421.431394137031,98.11744778755042,750.1689811557749,111.39235915255719,21.875,1.8325709371107382,0.1,0.034117937088012695,0.4650731086730957,0.04749694,0.052158426,414.5263441287478,-0.0901191068287287,4.201964226504605,21.875,9600,2.121284008026123,0.04486979064485988,0.04017477037149463,1908898,283.2228996947224,31.25
249,8.072183609008789,408.8867295184671,103.87355039549314,725.9072764472164,-50.400023860527945,28.125,1.6054885467275293,0.1,0.014661312103271484,0.35849857330322266,0.049599502,0.055533648,413.96238266771974,-0.09143306618830072,4.076942693375841,28.125,9502,1.5452513694763184,0.045080408179960514,0.03968673703481281,1918400,301.9594026182855,31.25
250,8.327945232391357,408.376372865931,76.15756493907995,726.3790663783582,195.68962005917382,19.791666666666668,1.6878728361784132,0.1,0.0143890380859375,0.38831233978271484,0.04938393,0.06739196,413.4037816875409,-0.09149486793913304,4.0718384653942,19.791666666666668,9600,1.570530652999878,0.027831018590939362,0.025346528213452093,1928000,303.74767374688554,31.25
251,7.9862775802612305,417.9591881029796,109.91640516711782,746.5334242587666,-50.39628646787605,27.083333333333332,1.643390997720775,0.1,0.011154413223266602,0.3834567070007324,0.05053216,0.05085919,413.8593223290848,-0.09189970071297998,4.17205230231214,27.083333333333332,9502,1.6558759212493896,0.039564400993474906,0.033785152067185735,1937502,304.9596479683204,37.5
252,7.871170997619629,419.7101447313109,84.64452059466221,738.5714802964251,228.02427633205915,28.125,1.6960916989891424,0.1,0.013936281204223633,0.34241700172424316,0.049825635,0.06519814,414.44440456930744,-0.09190397744159866,4.184346022558401,28.125,9600,1.5970547199249268,0.03299425506971084,0.029763496968932487,1947102,314.87471943185426,37.5
253,8.346533060073853,431.84918731128187,93.67892950530184,738.3119419173094,232.0274112783313,37.5,1.9657382192879929,0.1,0.021017789840698242,0.4094274044036865,0.049756102,0.053264488,416.18488284350485,-0.0876102076210613,4.306556459045606,37.5,9600,1.5821406841278076,0.039366087931677264,0.036663781498983056,1956702,314.15982400908456,37.5
254,8.26047658920288,415.88506589668685,86.90326163219318,754.3110995068379,328.99974372718947,17.708333333333332,1.9928524733641109,0.1,0.014353275299072266,0.4202849864959717,0.04975235,0.05136748,416.15490114882306,-0.09100106095163807,4.1456656057150285,17.708333333333332,9600,1.8226678371429443,0.03955493714789358,0.03632048108663345,1966302,317.42469051934836,37.5
255,8.323043584823608,428.86327567993357,90.79625787492331,762.9560232257934,272.14425089640565,32.291666666666664,1.7567927217782544,0.1,0.014404773712158203,0.45856738090515137,0.049578756,0.06154138,417.42573860193414,-0.0891358657604695,4.276280800906197,32.291666666666664,9600,2.066554307937622,0.03575293202305838,0.03247360488090706,1975902,308.0366392495167,37.5
256,8.249253988265991,429.80314994641503,100.19991310957194,771.7623571368988,365.0179553720104,26.041666666666668,1.9451169966209827,0.1,0.013204813003540039,0.3824312686920166,0.04988283,0.05181729,418.6634797363822,-0.0901413138157599,4.285692019517573,26.041666666666668,9600,1.6278133392333984,0.039227178577717264,0.03760860605470611,1985502,316.4340760351254,25.0
257,7.923879384994507,414.52342311564894,90.33435305930345,758.7385741475432,-50.38337817640691,26.041666666666668,1.6572698768150798,0.1,0.014911413192749023,0.4122159481048584,0.050252445,0.045896485,418.2494740743089,-0.08922402865084593,4.132471397330011,26.041666666666668,9502,1.7317795753479004,0.04175856126270954,0.03084992562604181,1995004,333.88255821049324,37.5
258,8.318262338638306,419.83945768982494,87.68549980992323,763.4761749333558,263.71356297072344,23.958333333333332,1.7983271532198124,0.1,0.013755321502685547,0.39493727684020996,0.049887702,0.0592414,418.4084724358605,-0.08936718247232227,4.186049484194345,23.958333333333332,9600,1.6375555992126465,0.03512481831248859,0.03378627474083646,2004604,322.7782508508293,31.25
259,8.28268313407898,415.5337920178619,97.7396299663616,762.5679876482515,147.9204453748186,22.916666666666668,1.8370915698251427,0.1,0.018395662307739258,0.38744211196899414,0.04941643,0.053747725,418.12100439406066,-0.09201385001300733,4.14215281665366,22.916666666666668,9600,1.9329721927642822,0.04276811835288387,0.03357239388066552,2014204,314.1955486142055,37.5
260,8.299385070800781,414.73869888205945,70.45462380102353,730.2279785817892,366.0380042641068,26.041666666666668,1.7499370509964725,0.1,0.012733936309814453,0.37612438201904297,0.049765367,0.061428122,417.7827738428606,-0.08996494165894363,4.134201725007723,26.041666666666668,9600,1.8045012950897217,0.026983520144403007,0.022253500748467516,2023804,308.3711180619996,37.5
261,8.013372898101807,403.49521246593275,82.60621680103077,746.3948750916499,-50.37843028350249,25.0,1.567858591236649,0.1,0.016260862350463867,0.46140360832214355,0.049729634,0.052199043,416.3540177051678,-0.09052835129519325,4.022174003235432,25.0,9502,1.8736152648925781,0.023953340949760888,0.022044453719061025,2033306,306.8579136461916,37.5
262,7.579024314880371,418.2005431820776,92.47943761092259,766.6504459951443,276.0891633559632,18.75,1.743999052105265,0.1,0.012563705444335938,0.34288907051086426,0.050208982,0.059833195,416.5386702528588,-0.09075755136002846,4.170075781973305,18.75,9600,1.8404407501220703,0.036001556121819864,0.032771414317774,2042906,283.02561655837417,31.25
263,8.569586992263794,420.4891035014589,107.94142532560657,766.3380881045232,-50.38497449999299,28.125,1.5745568658579496,0.1,0.010263442993164062,0.6360924243927002,0.049415786,0.048406154,416.93371357771883,-0.08956626723811434,4.192552817977891,28.125,9502,1.7235567569732666,0.0412472571255111,0.038056430681691025,2052408,262.00123570601215,31.25
264,8.418251752853394,443.5860214266789,118.49091417839846,759.1644237491873,-50.38330816867151,33.333333333333336,1.6891235988180546,0.1,0.014857053756713867,0.41992902755737305,0.05106367,0.0471002,419.5989443626149,-0.08708275342321632,4.4218326268909065,33.333333333333336,9502,1.7259979248046875,0.04018593351896046,0.03700898240098006,2061910,265.1729675467734,25.0
265,8.337691307067871,433.59596662675386,96.33204568519871,754.3570186343829,372.48973762346645,33.333333333333336,1.7123176656294854,0.1,0.021322965621948242,0.6033127307891846,0.049435526,0.06479242,420.9986465890288,-0.08723019717307662,4.322353136160257,33.333333333333336,9600,1.6064281463623047,0.03947285615302879,0.036872382164162415,2071510,222.22857343739992,25.0
266,8.006641149520874,417.878822434607,102.67003501708196,767.3536547914038,-50.39638662432079,22.916666666666668,1.6549927235660207,0.1,0.012116432189941406,0.3582606315612793,0.04980295,0.05023623,420.6866641735867,-0.10731272659139579,4.166022105153916,22.916666666666668,9502,1.6541533470153809,0.03371047640324275,0.03152555080116001,2081012,232.09873843167514,18.75
267,8.29564380645752,419.8301109065779,84.55296667868822,763.1388640194662,361.61299478113295,25.0,1.809301297371825,0.1,0.015072345733642578,0.3694469928741455,0.049326748,0.056949817,420.6010088468858,-0.08988975914278331,4.1846935741905495,25.0,9600,1.765404462814331,0.02782444075763911,0.02593934694924309,2090612,246.28127748605482,25.0
268,8.472047567367554,439.49296370535194,108.8357635162459,771.3266877844437,336.6235580115372,31.25,1.7861206370743699,0.1,0.012086868286132812,0.35500645637512207,0.050064553,0.062546656,422.49020433273245,-0.08785045760798264,4.380899542392018,31.25,9600,1.7116913795471191,0.038347025869814436,0.03633667253058172,2100212,210.87511795823497,18.75
269,8.3120698928833,433.305907102508,102.84946545563551,746.132899473119,280.80183362685807,27.083333333333332,1.8646693761143283,0.1,0.018126249313354492,0.5355095863342285,0.05021519,0.055384275,423.57177460971,-0.08804135464524958,4.32070864535475,27.083333333333332,9600,1.7409627437591553,0.04083993992205498,0.03794847684747442,2109812,223.51644123550884,25.0
270,8.204316139221191,438.82491776095094,125.65953295624233,771.0190301824355,-50.38359493548709,29.166666666666668,1.8401488335021685,0.1,0.020030498504638672,0.4822206497192383,0.049740776,0.049810465,425.0970889248341,-0.08749771073728731,4.380692997500383,29.166666666666668,9502,1.6372392177581787,0.04986864564315565,0.041278813316792534,2119314,198.25356474311627,18.75
271,7.636749029159546,410.7168945799081,105.4440602675693,767.6306691154662,-50.38736219039296,22.916666666666668,1.8012795993970188,0.1,0.011205911636352539,0.35402894020080566,0.049818076,0.058359835,423.65906949034155,-0.10849646686003257,4.0943921200104825,22.916666666666668,9502,1.6280467510223389,0.04609138631047366,0.04067341924713006,2128816,253.15823710493385,31.25
272,8.299603700637817,417.86684140244006,118.82482645122386,746.725632177512,-50.38074744665859,25.0,1.577931405999324,0.1,0.016927480697631836,0.44671010971069336,0.050487503,0.05079801,423.07984668155143,-0.10697944067296689,4.164223280620651,25.0,9502,1.6825284957885742,0.05489421550751458,0.05237208285645622,2138318,261.741521346779,25.0
273,8.244455814361572,417.62547612464306,86.55808401706814,758.8327096810427,216.58721864673595,30.208333333333332,1.7170367188112574,0.1,0.014754772186279297,0.4344639778137207,0.0501894,0.06295882,422.5344096258606,-0.08942365522484282,4.164326344775158,30.208333333333332,9600,1.6709136962890625,0.04398404922159567,0.03132585925257523,2147918,246.16708474506422,31.25
274,8.32026481628418,419.0892163754915,88.37107544253655,746.8337424001134,236.23499957091465,25.0,1.8523545411357376,0.1,0.011808633804321289,0.5214369297027588,0.05012607,0.057976816,422.18989030082366,-0.09062550744230576,4.178541159224362,25.0,9600,1.8628175258636475,0.03362826181725078,0.03108128816547201,2157518,246.73158428727095,31.25
275,7.444820404052734,406.08113040507277,90.2735844731967,710.055860271337,-50.380619647904105,27.083333333333332,1.6415366079847071,0.1,0.016186952590942383,0.3768298625946045,0.050049286,0.049512047,420.57901431124856,-0.09103902141434796,4.048472694310778,27.083333333333332,9502,1.7716739177703857,0.030633433297383827,0.02707978663481892,2167020,248.77493973436933,25.0
276,8.306422710418701,421.7911005689357,88.15148026265646,730.1844436113519,304.3194891273069,25.0,2.011111687281058,0.1,0.014452457427978516,0.35379862785339355,0.05027105,0.056008786,420.7002229370173,-0.08944833157611627,4.204301668423883,25.0,9600,1.6265513896942139,0.0322245595968623,0.027892576810255008,2176620,228.2721242381868,25.0
277,7.833293914794922,435.5860641658929,96.4849062446302,745.9940180322983,377.43387671157524,32.291666666666664,1.899157506714246,0.1,0.022454023361206055,0.4872243404388428,0.048593365,0.056284014,422.1888070599049,-0.08773631281824172,4.342680353848426,32.291666666666664,9600,1.5140440464019775,0.03559967097209161,0.03141084533165676,2186220,240.91786416817922,25.0
278,8.026195287704468,441.48495916377686,121.59868221410703,758.4187917909699,-50.37856308301955,34.375,1.5906806612091904,0.1,0.03333878517150879,0.4743764400482178,0.05000361,0.05310747,424.11842227029206,-0.0871355778967516,4.40123755827621,34.375,9502,2.4366323947906494,0.03686175848306592,0.03379992065909054,2195722,222.60021401073254,25.0
279,8.285129070281982,414.0228326608414,101.39583239857731,722.105063056444,54.06039069901651,23.958333333333332,1.786373612766073,0.1,0.016369342803955078,0.5058143138885498,0.04935212,0.055303268,423.10886330934704,-0.09085910283631736,4.127890897163683,23.958333333333332,9600,1.507767915725708,0.04649154500947221,0.042511554664631065,2205322,195.3537399669492,25.0
280,8.09212589263916,420.98421709457506,114.0146311399828,766.4216721160731,-50.37940388346258,30.208333333333332,1.6405854028619102,0.1,0.017895936965942383,0.4091064929962158,0.049834784,0.05471416,422.89639868786986,-0.08997983620495496,4.1962344646262375,30.208333333333332,9502,2.597616195678711,0.04323894326539139,0.04126091873040703,2214824,203.1745002247502,25.0
281,7.315339803695679,434.84148195564165,101.3887838316424,771.561515759778,336.6946577125551,28.125,1.9182310049353688,0.1,0.01867222785949707,0.5372698307037354,0.049523193,0.052165408,424.09090701464703,-0.08769493546251916,4.335638397870814,28.125,9600,1.8750059604644775,0.03766419837403409,0.03349078676557235,2224424,227.6936018213542,25.0
282,7.733099699020386,427.0158612421148,119.47703390916378,762.3919447800447,-50.3821451901919,34.375,1.5020943456176277,0.1,0.012033700942993164,0.2890753746032715,0.049797382,0.053214394,424.3834024373938,-0.10543454043355534,4.257372955919988,34.375,9404,1.770233154296875,0.035645759455622435,0.03279445521543064,2233828,198.55526224219088,18.75
283,8.390295267105103,416.7958593404533,75.50577838855192,726.1681236242813,353.61790483259466,25.0,1.9142779351508696,0.1,0.015141725540161133,0.5449965000152588,0.050190073,0.054564897,423.62464812769974,-0.08980750030352995,4.155609166363136,25.0,9600,1.5619354248046875,0.02860144357534951,0.024094659707798435,2243428,170.64102342496483,18.75
284,7.925269365310669,418.32554701536264,71.0776298518279,750.9434867183696,219.9739071592246,31.25,2.0586670035838748,0.1,0.012009859085083008,0.41731715202331543,0.050415207,0.048385486,423.094738016466,-0.08785634516266176,4.169226988170672,31.25,9600,1.5874502658843994,0.02550447419800642,0.023691424031453256,2253028,160.70863672261314,6.25
285,7.553605079650879,421.67573158382044,91.87578866760758,746.2350634289699,244.63283215005453,25.0,1.82931463835866,0.1,0.017140865325927734,0.4181642532348633,0.05018309,0.05655262,422.9528373732014,-0.08975699732650244,4.204409669340165,25.0,9600,2.093961715698242,0.040265662320940664,0.035156637280016834,2262628,160.8878710598916,18.75
286,7.894465446472168,443.61911844392125,110.28952497104495,742.123300001156,243.8826295964305,32.291666666666664,1.8723201398880889,0.1,0.016719818115234375,0.5146174430847168,0.049821015,0.05605544,425.0194654802734,-0.08616772486883895,4.4221656084644945,32.291666666666664,9600,2.450136184692383,0.04423643025701224,0.040659901921093256,2272228,154.12437258340105,12.5
287,7.574376344680786,418.8086671883654,98.79333886137161,746.2812972867249,-50.377100782239786,27.083333333333332,1.6477499915706033,0.1,0.01324319839477539,0.42640233039855957,0.049838863,0.051202245,424.39838565108266,-0.10587299562961615,4.1748943248342725,27.083333333333332,9502,1.4637484550476074,0.03962453212771715,0.03538511536368668,2281730,153.68426544361984,12.5
288,8.364454746246338,430.56371204287666,96.53911766825172,758.8151998338266,268.90015558503035,31.25,1.854639954743515,0.1,0.015091180801391602,0.3888254165649414,0.04971777,0.053806357,425.01491829026213,-0.0871391871433345,4.2924441461899985,31.25,9600,1.4530651569366455,0.03310697462127644,0.031408006230643465,2291330,179.2420436822239,6.25
289,8.317265033721924,415.30225346896015,76.0574377174587,730.8351146379858,329.2286055599336,21.875,1.9176420193875858,0.1,0.015714406967163086,0.48724365234375,0.047854025,0.05031097,424.043651808132,-0.08850208273203368,4.139831250601301,21.875,9600,1.5226552486419678,0.02861299642346605,0.020446141878158422,2300930,158.63592440643703,0.0
290,8.567995071411133,413.07147827423887,68.6170120408661,770.6111463435107,374.5147136038797,21.875,1.6994009224165934,0.1,0.011033296585083008,0.47902655601501465,0.050044056,0.060783885,422.94643445474264,-0.08955368310548138,4.1179463168945185,21.875,9600,1.567859172821045,0.022352533526459058,0.022967247613541054,2310530,175.4692082822269,0.0
291,7.763582944869995,422.6675720557725,107.22448651992701,767.1632271978846,-50.3900212911247,26.041666666666668,1.770110218123137,0.1,0.016001462936401367,0.47997450828552246,0.049743243,0.05380168,422.9185482148456,-0.1052507666870044,4.213484447019984,26.041666666666668,9502,1.5997283458709717,0.03500381960432637,0.03213049641424396,2320032,260.4070032756989,0.0
292,8.40869688987732,431.1760609865558,93.91457925732149,742.4262567815845,308.1279802306826,34.375,1.9980352602176152,0.1,0.015514612197875977,0.44023990631103516,0.049572702,0.05296903,423.74429949201664,-0.08768150534767083,4.298568494652329,34.375,9600,1.6394531726837158,0.037316442587469724,0.034171834377966934,2329632,269.6928156738882,0.0
293,7.832928419113159,423.0131846470231,85.82540712859401,754.7130100103211,372.66979505354135,25.0,1.8664544050842629,0.1,0.015099763870239258,0.4669923782348633,0.049458515,0.05557636,423.6711880075173,-0.0880561012947636,4.216943898705236,25.0,9600,1.78501558303833,0.039955680069830225,0.035190290737335664,2339232,257.7445608439274,0.0
294,8.326313734054565,421.97600961606094,87.50244441804968,730.1351702366986,341.6239096372369,27.083333333333332,1.9364764328203032,0.1,0.023563385009765625,0.6201388835906982,0.050336886,0.055545863,423.5016701683717,-0.08842380358172723,4.207409529751606,27.083333333333332,9600,1.563640832901001,0.03779474461543241,0.03276412198619689,2348832,260.1277922401216,0.0
295,8.32241678237915,432.221640770721,95.17240270716975,734.7112587848413,316.7657355360234,31.25,1.850662867805601,0.1,0.017700910568237305,0.516730785369873,0.049984507,0.060585484,424.3736672286067,-0.0868042170930272,4.309445782906972,31.25,9600,2.5709402561187744,0.03382215635717815,0.02922349160728069,2358432,255.50793609944412,0.0
296,8.383903980255127,429.4116530853726,90.70039003094745,730.4484542848782,369.34843139005665,29.166666666666668,1.7886181499520075,0.1,0.019772052764892578,0.42800402641296387,0.050309483,0.057859547,424.8774658142833,-0.08866079044273921,4.280505876223927,29.166666666666668,9600,1.8461332321166992,0.03210300962084579,0.029653575067630424,2368032,220.36382145476688,0.0
297,8.358349800109863,435.0854988383328,109.21512916568427,759.0246264683996,147.69535913224328,25.0,1.8471331819694454,0.1,0.017453432083129883,0.4278850555419922,0.050041202,0.056547716,425.89826911668825,-0.0881730503273684,4.337243616339298,25.0,9600,1.5780973434448242,0.042670794424965866,0.03941780077712239,2377632,262.521219486333,0.0
298,7.689175844192505,420.1980508509268,97.83904527073616,771.4598647242094,-50.39308543176491,27.083333333333332,1.8611737682303144,0.1,0.012931585311889648,0.49309873580932617,0.050289005,0.048978534,425.32824729011213,-0.08793896491328745,4.1940076750205035,27.083333333333332,9502,1.66453218460083,0.03805009667483086,0.031404161140513115,2387134,279.7185241542421,0.0
299,8.057857751846313,431.2886537933337,112.46629301520852,759.3415918674424,-50.378807057945636,33.333333333333336,1.6693628560520144,0.1,0.013637542724609375,0.36130619049072266,0.049678568,0.05153935,425.9242879404343,-0.10440256791128429,4.300535666988837,33.333333333333336,9502,1.970365285873413,0.030302832968119954,0.026251152397633235,2396636,233.8694412315122,0.0
300,8.41646122932434,417.1065108495709,109.54256253139006,754.8875637942331,-50.379341518593776,19.791666666666668,1.677475641806965,0.1,0.03845071792602539,0.6487603187561035,0.051262636,0.04721614,425.04251023134793,-0.0893135864083943,4.157457796647858,19.791666666666668,9502,1.5502259731292725,0.039376190273886724,0.03726151211805116,2406138,257.8685284756622,0.0
301,8.405100107192993,428.9828701741153,91.60588957217176,758.963322156278,365.228108119755,29.166666666666668,2.015995970938287,0.1,0.02612900733947754,0.6363940238952637,0.050325688,0.052155633,425.4365462256247,-0.08752232003834548,4.2762276799616545,29.166666666666668,9600,2.651376485824585,0.026619949880061222,0.025248897250308565,2415738,253.8290156330162,0.0
302,7.909794330596924,406.79033555656434,118.07749367043584,726.2001748302024,-50.40962707414152,26.041666666666668,1.4511803787643984,0.1,0.020073890686035156,0.4030160903930664,0.050029106,0.044034414,423.5719251587186,-0.09168887938151656,4.060348543923204,26.041666666666668,9306,1.6405665874481201,0.032693745450160724,0.03055331990350596,2425044,230.79475542418083,0.0
303,8.122341871261597,418.2792307122972,98.4146653654828,766.9308008310479,-50.393972656429604,22.916666666666668,1.7183857210733149,0.1,0.015472412109375,0.4359719753265381,0.05023345,0.046530034,423.04265571407643,-0.10788796324183735,4.169608913039728,22.916666666666668,9502,1.7300848960876465,0.029276555257060966,0.02715956337087733,2434546,229.33004258208456,0.0
304,8.390686273574829,435.7204530440929,101.61218579104109,742.3877854892378,207.6832372730376,29.166666666666668,1.8597658627748828,0.1,0.021485328674316406,0.43465447425842285,0.05011869,0.053972486,424.3104354470781,-0.08848040470184489,4.3448529286314885,29.166666666666668,9600,1.6661577224731445,0.03941720320993264,0.03586667743653242,2444146,236.49162389660188,0.0
305,8.60876750946045,426.8919657057784,91.66340870215471,754.9054939879668,369.7778034214303,27.083333333333332,1.9062799005435522,0.1,0.017552852630615234,0.5191535949707031,0.05020693,0.05550858,424.56858847294814,-0.08718467570166182,4.256148657631671,27.083333333333332,9600,1.5635559558868408,0.035059561898077976,0.0328140024793718,2453746,204.07057970361453,0.0
306,7.8569653034210205,432.3845252758886,90.56476426459048,750.3467217575899,308.4202569418847,32.291666666666664,1.8204903505978192,0.1,0.018163204193115234,0.5147871971130371,0.048043326,0.055352516,425.35018215324214,-0.08936031852852917,4.310223014804804,32.291666666666664,9600,1.6418678760528564,0.028420017211297742,0.026350940297183458,2463346,220.0843012760757,0.0
307,8.402940273284912,427.0925306060955,95.81079804594944,746.5945083727767,365.3328498880162,23.958333333333332,1.9180358647235403,0.1,0.014199256896972656,0.4752190113067627,0.049657755,0.056162417,425.5244169985275,-0.0880963296894876,4.258570336977179,23.958333333333332,9600,1.5663201808929443,0.041742125359690525,0.03631284894431896,2472946,242.25842997815408,0.0
308,8.478636980056763,441.20530131416166,98.9885237196431,738.3370617961862,284.4959857056397,35.416666666666664,1.9044643382202395,0.1,0.012601375579833984,0.42777371406555176,0.049818248,0.05537699,427.0925054300909,-0.08738076767020643,4.398869232329794,35.416666666666664,9600,1.8167035579681396,0.04160000545159787,0.03556385400905781,2482546,282.8832010029782,0.0
309,8.697903394699097,429.12090756793026,90.02467321773283,754.6013880723747,356.2227894941647,31.25,1.8092717869124144,0.1,0.017008543014526367,0.42773985862731934,0.050521284,0.058061097,427.29534564387484,-0.08823846962637505,4.277594863706958,31.25,9600,1.7843992710113525,0.03040109168399184,0.024468423685345124,2492146,243.89041755657905,0.0
310,8.185884714126587,415.0945159189353,97.51633062476799,767.1476545103402,-50.385941863270624,22.916666666666668,1.5693015059120918,0.1,0.02241992950439453,0.40757012367248535,0.04953009,0.041197974,426.0752626713809,-0.10804337533210251,4.137341347701721,22.916666666666668,9502,1.6405916213989258,0.03628632538550849,0.034924608605012925,2501648,297.2239744095887,0.0
311,8.406299829483032,416.2907024478597,77.37601616756403,738.3542687287966,374.12284017521324,28.125,1.836809333772895,0.1,0.013271570205688477,0.32047533988952637,0.049558,0.055180065,425.0968066490288,-0.08777588606399118,4.150140780602675,28.125,9600,1.5261969566345215,0.028577989667991608,0.023897624954421697,2511248,292.11763156624903,0.0
312,7.965182781219482,423.53404732790887,121.02847238367049,754.6015045509628,-50.393947551411244,27.083333333333332,1.6711064377064775,0.1,0.015918731689453125,0.3208017349243164,0.049673136,0.044114605,424.9405307169168,-0.0888567255250763,4.226526589898622,27.083333333333332,9404,1.6051652431488037,0.04273362591313989,0.03622557470870083,2520652,297.41269241146586,0.0
313,8.366886138916016,415.2583033084846,78.59459985052086,758.4189024128412,324.96741553394475,26.041666666666668,1.9339879376355338,0.1,0.01922464370727539,0.439791202545166,0.049759064,0.05525919,423.9723079760736,-0.09018460831021403,4.139815391689786,26.041666666666668,9600,1.6361057758331299,0.025297137298670988,0.022116865896311372,2530252,247.9738323813733,0.0
314,7.951658725738525,448.19803408635926,110.9253072908985,767.1740318965542,377.3862264906054,33.333333333333336,1.923425115095098,0.1,0.01780104637145996,0.4620847702026367,0.05022835,0.05525877,426.3948805871022,-0.0874621964978175,4.468371136835516,33.333333333333336,9600,2.213658571243286,0.036074202050870426,0.03152304327042527,2539852,248.78917736042058,0.0
315,8.546184062957764,435.13339735397267,106.09941203417485,774.4902754072316,340.5927755309007,27.083333333333332,1.751421995693619,0.1,0.015689611434936523,0.37334346771240234,0.05056739,0.05635023,427.2687322637893,-0.0872651227027587,4.337734877297241,27.083333333333332,9600,1.7494125366210938,0.04379119392997799,0.04080281794267454,2549452,247.60010933996256,0.0
316,8.39742374420166,428.25753227245985,82.96557848515307,734.5824423104544,360.7810957394749,34.375,1.8973787394562838,0.1,0.016988754272460938,0.4239487648010254,0.05090839,0.05394701,427.3676122646563,-0.08727931717089643,4.269804016162436,34.375,9600,1.6232500076293945,0.02435892968341416,0.022565910466886628,2559052,221.8406816222954,0.0
317,7.6498682498931885,417.61595461025473,83.80793421414488,754.8184665768933,357.54624464594986,25.0,1.8663508641078148,0.1,0.012217998504638672,0.3380420207977295,0.049823992,0.05466123,426.3924464992162,-0.08952060714428993,4.16297939285571,25.0,9600,1.5989196300506592,0.0361271832429091,0.03255426269975238,2568652,230.5388918774617,0.0
318,8.734392642974854,432.022780961835,96.85943918168029,771.4666709891872,374.06277639468414,33.333333333333336,1.7686576477627276,0.1,0.016132116317749023,0.47541093826293945,0.049273353,0.06618784,426.95547994547803,-0.08670803896335459,4.307041961036645,33.333333333333336,9600,1.6020517349243164,0.038610676708492345,0.035322689011102575,2578252,215.76110577652872,0.0
319,8.072550296783447,429.29422247785845,91.32386238232255,750.4957395379288,356.9870537213481,28.125,1.8786718547538694,0.1,0.02085113525390625,0.4573099613189697,0.05078148,0.055346347,427.1893541987161,-0.08857411413572892,4.280175885864271,28.125,9600,1.6878798007965088,0.0276396452028049,0.025151749183890994,2587852,220.313364640773,0.0
320,8.325741291046143,407.5973027062393,59.586205312886484,746.5867748272468,340.1713103248881,22.916666666666668,1.7960845473731357,0.1,0.014713048934936523,0.37796902656555176,0.049997646,0.053303298,425.2301490494684,-0.08887859318565805,4.063621406814342,22.916666666666668,9600,1.7661080360412598,0.03363865146010583,0.020401855648966172,2597452,210.68093528281463,0.0
321,8.362835168838501,439.22282798838324,109.38659447855972,738.5813080891609,316.9738302100127,32.291666666666664,1.8759577455200667,0.1,0.014325141906738281,0.4190950393676758,0.050174054,0.055282835,426.62941694335996,-0.08762912424795359,4.379037542418713,32.291666666666664,9600,1.7087409496307373,0.06225000426226525,0.05288697514449406,2607052,209.4527334916492,0.0
322,8.416255235671997,436.1839913622791,94.23144215883909,762.8687563216121,328.70646072336825,33.333333333333336,1.8684817042471136,0.1,0.0158843994140625,0.39455318450927734,0.04985164,0.05709723,427.58487438525185,-0.08676924385533924,4.349064089477994,33.333333333333336,9600,1.8868892192840576,0.039805781577138044,0.03953600001485121,2616652,217.86318616913417,6.25
323,8.445038080215454,446.00280663975656,110.90185175818469,763.2456268715453,372.83510778184433,36.458333333333336,1.8102912578737238,0.1,0.01823711395263672,0.44948339462280273,0.04977841,0.058165602,429.42666761070234,-0.08484074066879138,4.445992592664542,36.458333333333336,9600,1.8788039684295654,0.056699075544207736,0.046000319315134014,2626252,186.5170072500469,0.0
324,7.578566312789917,446.75709356950256,110.62500719584918,763.1816740630138,368.8426535963148,29.166666666666668,1.9488594403343342,0.1,0.018720626831054688,0.5580904483795166,0.050040238,0.053979866,431.1597102065824,-0.08688200295466435,4.453117997045335,29.166666666666668,9600,2.2695517539978027,0.03616191884875561,0.028606853670334668,2635852,179.7215050144385,0.0
325,8.338732242584229,423.0713534814574,88.13848694106676,766.6035189328555,369.1632213699723,23.958333333333332,1.7647679953583166,0.1,0.015807390213012695,0.42353105545043945,0.049722336,0.059505213,430.35087453406993,-0.0870543303307426,4.21752900300259,23.958333333333332,9600,1.7190518379211426,0.03781073777330135,0.029502929693506017,2645452,167.98761257855276,0.0
326,8.427366256713867,427.1639008200876,95.43256605624686,759.4033015286191,340.7504079879923,26.041666666666668,1.7999075567416258,0.1,0.014962196350097656,0.4537379741668701,0.04986464,0.05575917,430.0321771626717,-0.08780143649169286,4.258448563508307,26.041666666666668,9600,1.861915111541748,0.03535497764289706,0.031019482593162333,2655052,139.39420776621512,0.0
327,8.447246551513672,433.86968086165604,113.72013498817752,766.6793532968794,-50.38698437868427,30.208333333333332,1.707539187167028,0.1,0.016199827194213867,0.37959933280944824,0.050176617,0.047881182,430.41592753257015,-0.08656348455519003,4.32508367004685,30.208333333333332,9502,1.7793972492218018,0.03531371109733004,0.032179892064262666,2664554,160.5591822813637,0.0
328,6.707434177398682,426.7247479919682,92.02135436521212,774.8160412476713,353.4066446571341,26.041666666666668,1.6949429365582234,0.1,0.015740633010864258,0.34087228775024414,0.0483797,0.060940325,430.04680957850996,-0.08802054354654114,4.254062789786793,26.041666666666668,9600,1.800846815109253,0.03932953434702368,0.030542365651917695,2674154,157.1407398597654,0.0
329,8.376568078994751,417.43107848942327,77.83020584684238,726.3864072506891,336.5079908533205,22.916666666666668,1.8348935837135418,0.1,0.011945009231567383,0.340313196182251,0.05066559,0.05834082,428.7852364696013,-0.08762466091532943,4.161125339084671,22.916666666666668,9600,1.7867398262023926,0.027765063863144167,0.02567934127813638,2683754,185.6905353333216,12.5
330,8.452349185943604,443.56873059138184,102.5175556074562,742.5672459622607,365.7960518617462,33.333333333333336,1.7996173051401905,0.1,0.012840509414672852,0.47242093086242676,0.0491712,0.05865612,430.26358588177936,-0.08624022910753555,4.422509770892465,33.333333333333336,9600,2.176680088043213,0.04321566904045779,0.03756844812808312,2693354,207.45212460660176,12.5
331,8.389649868011475,432.13024787708787,100.1051338004097,759.0884101553747,244.38388239592982,28.125,1.9416095682707668,0.1,0.01548147201538086,0.4217190742492676,0.04960185,0.054712284,430.4502520813102,-0.08689230899715761,4.308107691002843,28.125,9600,1.802652359008789,0.04493817476845975,0.03912692698374151,2702954,202.3636110643322,0.0
