iteration,time_sampling,stoc_pol_mean,stoc_pol_std,stoc_pol_max,stoc_pol_min,rollout_success,alpha,delta,time_vpg,time_npg,kl_dist,surr_improvement,running_score,rwd_sparse,rwd_dense,success_percentage,num_samples,time_VF,VF_error_before,VF_error_after,eval_score,eval_success
0,1.380110502243042,-21.773890813297523,4.825080425508011,-4.526839756148293,-27.43240185798027,0.0,2.7860341833249582,0.1,0.051221370697021484,0.1906144618988037,0.049379665,0.036727168,-21.773890813297523,-0.22648977253193156,-0.21732310586526485,0.0,9600,0.9018361568450928,1.0141994410666686,0.15704440761966387,-17.218844997161373,0.0
1,1.1870732307434082,-4.269646803835503,17.455876466084394,70.03603591382482,-26.928770204369375,0.0,3.069370445106921,0.1,0.009365320205688477,0.18776941299438477,0.053817794,0.03674409,-20.02346641235132,-0.12662330152209542,-0.04245663485542877,0.0,9600,0.8695647716522217,1.841114278586657,0.7963181488496772,-17.84744797100761,0.0
2,1.1693284511566162,6.185614153692285,17.511155090956102,46.631164489571674,-25.844286553980798,0.0,2.892138214792408,0.1,0.008605003356933594,0.1868910789489746,0.077638924,0.038631167,-17.402558355746958,-0.09089509209086706,0.0616049079091329,0.0,9600,0.880845308303833,0.9801936697214193,0.7457429758999922,-15.574647434576129,0.0
3,1.1651785373687744,14.818933496844485,22.581284583177396,83.34354750861155,-24.49218703798729,0.0,3.2027593021503997,0.1,0.009240388870239258,0.18655753135681152,0.061275024,0.032455485,-14.180409170487815,-0.09413899251138913,0.14752767415527754,0.0,9600,0.8908965587615967,0.7209868502635662,0.6594416451144048,-7.246146645668128,0.0
4,1.197732925415039,26.65806043631889,26.63190076136754,107.01926965345365,-19.449756454363573,0.0,3.4864708275832355,0.1,0.018924951553344727,0.18337678909301758,0.057985917,0.031714782,-10.096562209807145,-0.07830836290913296,0.2662749704242004,0.0,9600,1.0139870643615723,0.6289932629597614,0.5167251330067857,-6.715771322552915,0.0
5,1.1803083419799805,41.17533933925505,34.18329183660423,127.85709095521179,-19.054592356733597,4.166666666666667,3.2126444369351415,0.1,0.01328277587890625,0.18572235107421875,0.064225316,0.032346923,-4.969372054900925,-0.09388899890559736,0.41111100109440263,4.166666666666667,9600,1.211944341659546,0.5357068404129978,0.439332657678304,-6.311108470637947,0.0
6,1.1932311058044434,60.79914370810295,38.44711856791102,164.0338949414878,-18.072640525326754,12.5,2.918876524111782,0.1,0.00863504409790039,0.18554973602294922,0.059245273,0.03703036,1.6074795213994637,-0.06691790323019113,0.608082096769809,12.5,9600,1.2756707668304443,0.40279284947171434,0.3394735642379799,-5.631073010285926,0.0
7,1.3715946674346924,83.1298455131025,41.90414366334868,168.26549638468936,-18.95847635463718,23.958333333333332,2.749772059450825,0.1,0.008979320526123047,0.18819284439086914,0.056770973,0.03697192,9.759716120569767,-0.06028365862692855,0.8292996747064048,23.958333333333332,9600,1.301222324371338,0.30416370005400156,0.22871157600027875,-5.448221973313847,0.0
8,1.1847693920135498,113.08454041987238,46.69615956910821,208.78690743504347,-2.3986526612722003,41.666666666666664,2.5893465483453615,0.1,0.008926630020141602,0.18638038635253906,0.058109716,0.040195994,20.09219855050003,-0.04825881582436823,1.1296578508422985,41.666666666666664,9600,1.2771751880645752,0.2398398019086945,0.18106550100967755,-5.053402889321037,0.0
9,1.1965136528015137,146.21669065009374,43.42460618596925,252.99011724043382,47.08119099268621,67.70833333333333,2.627882298042827,0.1,0.009433507919311523,0.18484210968017578,0.05891358,0.040068552,32.7046477604594,-0.038241748418310184,1.4592582515816896,67.70833333333333,9600,1.2808010578155518,0.15860837518339502,0.11904655306060577,173.0032995014922,0.0
10,1.1889841556549072,199.87760478138662,45.54293212269935,345.4826346382393,96.17808074449891,90.625,1.9560176349556984,0.1,0.008939266204833984,0.18467473983764648,0.06128713,0.053856056,49.42194346255212,-0.0328866997631336,1.9975299669035331,90.625,9600,1.3055553436279297,0.1431095105584625,0.0728141470890555,654.2963369187569,100.0
11,1.2155144214630127,272.4776795957788,43.809272136273435,377.72011743565224,172.74587806711634,98.95833333333333,2.005451055443542,0.1,0.008336305618286133,0.18343043327331543,0.060350012,0.05178381,71.72751707587479,-0.028154902505887053,2.719761764160779,98.95833333333333,9600,1.311051845550537,0.09795348847630023,0.0355990055220812,686.509474773763,100.0
12,1.207200288772583,345.862265972828,35.23662395503119,450.0490998651903,261.0104798677499,100.0,2.0559390459644247,0.1,0.00853872299194336,0.18364310264587402,0.057917867,0.0488357,99.14099196557011,-0.02473116213311249,3.4515188378668875,100.0,9600,1.3127715587615967,0.05624316417444251,0.017066372143219335,710.6201802373322,100.0
13,1.2038795948028564,414.72014691988755,29.359358993533625,485.9200302964845,341.5910894707327,100.0,2.323306789174316,0.1,0.00912165641784668,0.18692445755004883,0.056559555,0.042066086,130.69890746100185,-0.021993725072709414,4.137589608260623,100.0,9600,1.3254666328430176,0.033825660627860986,0.008912159939544495,718.7094341278828,100.0
14,1.1762828826904297,467.19543199462214,35.82878806020174,546.3450552497097,397.6078347617947,100.0,2.1349176703027024,0.1,0.008824586868286133,0.18312907218933105,0.057129327,0.047196332,164.34855991436388,-0.02015903090737656,4.6623409690926225,100.0,9600,1.3372745513916016,0.01990926614720114,0.008327830207902382,714.8061521274338,100.0
15,1.3672244548797607,509.780081630538,33.403050013014365,574.3492551238601,433.96381587290614,100.0,1.9066718850148923,0.1,0.008591651916503906,0.18577814102172852,0.057171334,0.05122863,198.89171208598128,-0.018475172335827825,5.089024827664172,100.0,9600,1.325355052947998,0.011450461954688157,0.006236659076517394,755.0602337790875,100.0
16,1.2034566402435303,550.5093737259463,29.109914263721397,634.4896375074558,474.0674929784778,100.0,2.0820013441892846,0.1,0.008800268173217773,0.18497681617736816,0.057225768,0.04700651,234.0534782499778,-0.01701874294291821,5.495897923723748,100.0,9600,1.3161914348602295,0.009570531675355083,0.004339713720280123,759.0137564845288,100.0
17,1.2454559803009033,584.996080333345,26.978224253854528,658.5576283478529,514.2242461655395,100.0,2.3919573607853177,0.1,0.008250951766967773,0.17980456352233887,0.057090282,0.040214572,269.1477384583145,-0.015908410389719838,5.838674922943614,100.0,9600,1.293025016784668,0.004848915427682928,0.0029998925379928192,759.0081081222785,100.0
18,1.1889452934265137,621.6602102155006,22.66651589753538,674.6497047305962,562.2745681627727,100.0,2.4272174408937714,0.1,0.008575201034545898,0.19101357460021973,0.0564192,0.04190083,304.3989856340331,-0.014684816448442212,6.205315183551558,100.0,9600,1.311819076538086,0.004745696519095253,0.002158118679096773,755.0067214849054,100.0
19,1.232940912246704,646.2007239291115,22.752474458167352,694.7815026162598,594.484013318146,100.0,2.569882873549982,0.1,0.008708477020263672,0.1844794750213623,0.055819206,0.03567719,338.579159463541,-0.013860702883133685,6.449889297116866,100.0,9600,1.313094139099121,0.0031442865995365663,0.001836927447134419,755.0943993530167,100.0
20,1.193352222442627,663.4801961731489,22.522700819450648,706.7919590279048,598.5671454677582,100.0,2.5462543196601537,0.1,0.008851289749145508,0.18373680114746094,0.050858725,0.035606317,371.0692631345018,-0.01315592639358971,6.621844073606411,100.0,9600,1.273343801498413,0.0017515887651183108,0.001413622950747945,759.1659235551612,100.0
21,1.2275607585906982,682.1715009328253,19.730935746507843,730.9135630919279,634.653088781708,100.0,2.479442280667916,0.1,0.00869607925415039,0.1889955997467041,0.047937416,0.039022412,402.1794869143342,-0.012490222922643046,6.8091764437440245,100.0,9600,1.2810955047607422,0.002150728455891644,0.0011190302557319513,751.1415483183044,100.0
22,1.2152080535888672,699.7184972947666,15.066250789579481,734.9270362238747,662.7069588163027,100.0,2.5592695315159855,0.1,0.00857996940612793,0.1853797435760498,0.029502586,0.023595475,431.9333879523774,-0.012020282205831645,6.985063051127502,100.0,9600,1.2827517986297607,0.0011642350122221018,0.0006885746339037931,759.1490182004601,100.0
23,1.2624118328094482,705.1619363977933,14.894323995146783,742.9485670434997,662.7317476122719,100.0,2.8407794506741886,0.1,0.008458614349365234,0.18537139892578125,0.023198716,0.01746345,459.256242796919,-0.011751476848279546,7.040331856485054,100.0,9600,1.2786366939544678,0.0006967110016366402,0.0006562211055551921,759.1146244230514,100.0
24,1.221843957901001,705.6642730439095,18.019473406927354,738.9382124867035,654.7324429207979,100.0,2.7744108231949145,0.1,0.008876800537109375,0.1873478889465332,0.025607023,0.017288119,483.8970458216181,-0.01172883330601715,7.044104500027316,100.0,9600,1.258702039718628,0.0008639081487859079,0.0008599303898635786,759.0991659724679,100.0
25,1.2089056968688965,709.4230757155043,14.084491523755242,742.9143627544446,674.7613712651174,100.0,2.636494121707318,0.1,0.009589910507202148,0.1840071678161621,0.024008144,0.017320152,506.44964881100674,-0.011645563663963236,7.080854436336037,100.0,9600,1.2478883266448975,0.0006546680101708999,0.000673748228866241,751.1410934442704,100.0
26,1.2031114101409912,713.8184070261894,13.959099158611657,742.9421817914438,674.7241294407812,100.0,2.9407720132105957,0.1,0.008260250091552734,0.18215322494506836,0.026776765,0.01782879,527.186524632525,-0.011440437753737391,7.124809562246263,100.0,9600,1.2282252311706543,0.0007698937616524736,0.0006995168961647606,759.1294700858864,100.0
27,1.2086050510406494,715.9088504218786,12.622809564059526,746.9556442678767,678.7341170590051,100.0,2.9702195494415413,0.1,0.008129119873046875,0.1822214126586914,0.025583593,0.019253446,546.0587572114604,-0.011368394570972948,7.146964938762362,100.0,9600,1.2433111667633057,0.0005162994956269725,0.0005096041678070964,759.109725351273,100.0
28,1.2593410015106201,715.9888764297845,16.172610146328378,746.9419285080006,662.771882547832,100.0,2.781665741323932,0.1,0.008797645568847656,0.18269586563110352,0.017900852,0.014213589,563.0517691332927,-0.011400292893290281,7.147766373773376,100.0,9600,1.2585880756378174,0.0007210612827892801,0.0006962910641250446,759.1233040767715,100.0
29,1.203444480895996,721.6263536455849,13.593688769784572,750.8191025481434,686.7715116660925,100.0,3.47754414315221,0.1,0.00917959213256836,0.1850283145904541,0.020168604,0.014497915,578.909227584522,-0.011277760797942162,7.2028889058687255,100.0,9600,1.2634131908416748,0.000540413095065592,0.0005449638934250461,759.1569927125875,100.0
30,1.3650147914886475,720.5013513171398,13.553130378097316,750.9659119984913,678.814595834325,100.0,3.1358162543669494,0.1,0.00883793830871582,0.18062829971313477,0.018458223,0.012974927,593.0684399577838,-0.011279443387323625,7.1916372232793435,100.0,9600,1.2426950931549072,0.0005113119331321785,0.0004888411359066522,755.1064607630973,100.0
31,1.2021818161010742,723.1803539420031,12.645370846068218,746.9845149181208,682.8309789991889,100.0,2.962254667479713,0.1,0.009171485900878906,0.1878063678741455,0.019916063,0.013972491,606.0796313562057,-0.01115417567979639,7.218429157653538,100.0,9600,1.258535385131836,0.0004890020251699815,0.0005057401056170517,755.1938360247217,100.0
32,1.183666706085205,726.1052897736616,12.558675668309743,750.9416187137125,678.7378125998558,100.0,2.925868583633885,0.1,0.008655548095703125,0.1801462173461914,0.025716137,0.01661167,618.0821971979512,-0.011071627829369065,7.247678372170632,100.0,9600,1.2663977146148682,0.0005376475648054005,0.000417574951064953,759.1930139802869,100.0
33,1.1956872940063477,727.3235629852717,13.771756883689367,751.0071549910417,686.8239444066643,100.0,3.035186060387431,0.1,0.008348703384399414,0.186784029006958,0.026663596,0.016380373,629.0063337766833,-0.010973181803165562,7.260276818196833,100.0,9600,1.2898271083831787,0.0005218657247488085,0.0005032582953945236,759.1512101322065,100.0
34,1.207409143447876,726.6136089075575,11.451901060008781,750.9843927682972,698.7801724540399,100.0,2.895479306513835,0.1,0.009129762649536133,0.18787336349487305,0.027287353,0.019047434,638.7670612897707,-0.010987467422942555,7.253595865910391,100.0,9600,1.2820978164672852,0.00040192345526079976,0.0003825277735727499,755.1558453408819,100.0
35,1.1708543300628662,729.1755336668178,11.450187083510986,759.0204947940343,690.8666126473132,100.0,3.2641209923986096,0.1,0.008812189102172852,0.18343377113342285,0.028949525,0.018397784,647.8079085274754,-0.010782282216231615,7.279634384450436,100.0,9600,1.2904384136199951,0.0003875992874511494,0.00037548647609293414,759.1754962430504,100.0
36,1.1874895095825195,730.8094611997485,12.228006466310838,759.0056735595969,698.8227210639951,100.0,3.1916090472935665,0.1,0.009211301803588867,0.1865220069885254,0.026684195,0.016927907,656.1080637947028,-0.010699025932182847,7.294717640734483,100.0,9600,1.314955472946167,0.000395593314671863,0.00040389898627571927,759.2552872507566,100.0
37,1.1971957683563232,731.23322218062,12.868377360524736,754.9612018368637,694.886666856758,100.0,2.851915044997331,0.1,0.008344650268554688,0.1911756992340088,0.026629249,0.017895196,663.6205796332945,-0.010624730314399566,7.299791936352267,100.0,9600,1.3268399238586426,0.0004504546707023358,0.00048620439423379834,759.2114528521568,100.0
38,1.2793099880218506,732.4917136611544,11.718721818260889,754.9514777818599,694.848674236633,100.0,3.079647562739657,0.1,0.008460044860839844,0.18050694465637207,0.026966989,0.015046773,670.5076930360805,-0.010539708602623711,7.3119602913973765,100.0,9600,1.3127455711364746,0.00033294673878699613,0.0003174543400510115,759.2002819373078,100.0
39,1.2253673076629639,735.3694077557693,9.912450147461211,758.9796062189852,706.9105325688099,100.0,3.0904639546141666,0.1,0.009052038192749023,0.18269896507263184,0.025675995,0.01554219,676.9938645080493,-0.010514057967560315,7.340319275365772,100.0,9600,1.3233141899108887,0.00024966886645062114,0.00024350666342394026,759.2006937539229,100.0
40,1.1966004371643066,733.5315000676379,10.578158541347209,755.1112414805632,706.8448571148406,100.0,2.7508183974922997,0.1,0.008570194244384766,0.18816280364990234,0.030861009,0.021801671,682.6476280640082,-0.010560569303150608,7.3223560973635164,100.0,9600,1.3271965980529785,0.00030752195451395485,0.0003106020086538318,759.2482863032753,100.0
41,1.1854937076568604,735.3334610315418,11.152225421595627,759.0484527981449,698.8029660647499,100.0,2.9491059077310897,0.1,0.008394479751586914,0.18361234664916992,0.022166977,0.013115908,687.9162113607616,-0.010456539810861469,7.34079346018914,100.0,9600,1.3302476406097412,0.0003308420738971551,0.0003001505155303077,759.2454937622329,100.0
42,1.202850103378296,736.9566648730524,9.778650918477185,755.0335640947341,710.8868572198755,100.0,3.5616894758472886,0.1,0.00833439826965332,0.1824195384979248,0.02432803,0.011621081,692.8202567119907,-0.010476680701930524,7.356606652631403,100.0,9600,1.301330804824829,0.00030547245411063597,0.0002988223940121217,759.2699936766253,100.0
43,1.242628812789917,736.8350317916396,10.526945498896609,755.0405404601524,710.8542497375449,100.0,3.0886449141330505,0.1,0.008301019668579102,0.17386198043823242,0.0340971,0.019756895,697.2217342199556,-0.010442076924855334,7.354974589741811,100.0,9600,1.3360333442687988,0.0002750822008996921,0.00028252485478739764,759.2855534931574,100.0
44,1.2321791648864746,736.3865006745949,10.732913740624127,759.0391448779878,706.9488748902362,100.0,2.6786308466960813,0.1,0.008140087127685547,0.17325139045715332,0.013860321,0.010753171,701.1382108654195,-0.01034462192754292,7.350488711405791,100.0,9600,1.351696491241455,0.0003214263876601488,0.0003157100937175652,759.2884147185079,100.0
45,1.2839417457580566,740.2298419966827,9.947664900213418,755.0828150739812,698.8906855583895,100.0,3.2323456224104588,0.1,0.009003400802612305,0.18377184867858887,0.032259032,0.015547009,705.0473739785458,-0.010243830607025897,7.389339502726307,100.0,9600,1.338731288909912,0.00022382605470335976,0.00022357359610043724,759.2693243353837,100.0
46,1.2163736820220947,738.4713309134246,10.700473980003016,755.0092891896697,694.850458401014,100.0,2.6396760416168767,0.1,0.008229732513427734,0.18074607849121094,0.023821646,0.017249096,708.3897696720337,-0.010329126485809989,7.371754206847523,100.0,9600,1.3204295635223389,0.0002938544006697476,0.0002505472395303194,759.284692039837,100.0
47,1.21779203414917,741.7660961650727,11.006412291638503,759.0874834731701,694.8234604145359,100.0,2.9420682346170337,0.1,0.008323907852172852,0.18473100662231445,0.023474185,0.01461297,711.7274023213375,-0.010297381210451097,7.4042859521228825,100.0,9600,1.3432505130767822,0.00031340164026801834,0.0003092131125070844,759.3015753092805,100.0
48,1.2149147987365723,741.6088594238181,8.8777719609142,759.0394981610658,710.9036403805663,100.0,3.6601841831912916,0.1,0.014200925827026367,0.18789076805114746,0.032571916,0.01725116,714.7155480315856,-0.010205732311121228,7.402710934355547,100.0,9600,1.3484208583831787,0.00019034338705930232,0.00018639194096015577,759.2904659706079,100.0
49,1.222787618637085,739.7719668827743,9.381371225511582,759.040443779443,710.8943418780188,100.0,2.863318275971231,0.1,0.009109020233154297,0.18907999992370605,0.027802818,0.018562548,717.2211899167045,-0.010239581914621354,7.384343751418712,100.0,9600,1.3337664604187012,0.00023585169851108044,0.0002267440539631354,759.2921383186817,100.0
50,1.1870641708374023,739.5269161073442,10.608031222464351,759.0906640447243,714.8738051827686,100.0,2.7877272839919343,0.1,0.009768247604370117,0.21438097953796387,0.023746764,0.017084375,719.4517625357685,-0.010190180346601331,7.382309819653398,100.0,9600,1.6520304679870605,0.0002611669955276217,0.0002584665562007741,759.2969225329776,100.0
51,1.229475498199463,741.494181306532,9.500850237332973,759.0570992945865,714.9237580275179,100.0,2.997987944071017,0.1,0.008601188659667969,0.1831052303314209,0.025227502,0.014454954,721.6560044128448,-0.010101290371840212,7.401565376294827,100.0,9600,1.2939143180847168,0.00021105081627542554,0.00021332204288164894,759.2896445640557,100.0
52,1.20855712890625,741.911487700338,9.863208898566626,759.0541694735107,714.8707083560163,100.0,2.9957103968278136,0.1,0.00871896743774414,0.18054866790771484,0.03749814,0.020852905,723.6815527415941,-0.010093602953026939,7.4065730637136395,100.0,9600,1.2871456146240234,0.00023200788891533007,0.00022566884150854435,759.2829045321101,100.0
53,1.1720504760742188,741.6155733602449,9.040262193527344,755.1081182049919,702.8866440026408,100.0,3.1032770141428565,0.1,0.010042905807495117,0.21462202072143555,0.02845034,0.016366515,725.4749548034592,-0.01013732149356191,7.403196011839772,100.0,9600,1.6530351638793945,0.00021446762829341234,0.00021533092387823752,759.2854229399309,100.0
54,1.2497470378875732,742.9600982083281,7.947003278504159,759.0658883899729,718.9701718804552,100.0,3.4729328241632103,0.1,0.008753299713134766,0.18303966522216797,0.03222994,0.016673967,727.2234691439462,-0.010022918970664783,7.4166437476960025,100.0,9600,1.3069474697113037,0.00020064627197501837,0.00018919482635650986,759.2669920821426,100.0
55,1.1927158832550049,742.0830776823665,9.666838033229702,755.0890947916336,702.8637531036575,100.0,3.334265463432772,0.1,0.008817434310913086,0.19024443626403809,0.025466101,0.012776596,728.7094299977882,-0.01004436694648284,7.407872299720185,100.0,9600,1.3114874362945557,0.00023678642880692557,0.00024677460321463423,759.2947772617578,100.0
56,1.188202142715454,742.540106966167,9.045749208629177,759.0456957335595,718.909560963029,100.0,3.0414766033208878,0.1,0.008862972259521484,0.18262124061584473,0.026306998,0.017059335,730.0924976946261,-0.010059529012906795,7.412023804320427,100.0,9600,1.3128430843353271,0.00019841115652070117,0.00019237986434298313,759.2948890851029,100.0
57,1.2187573909759521,743.3289813012174,8.376342485732769,759.0541875954927,722.9479976263935,100.0,2.4282046111016182,0.1,0.008648157119750977,0.18426299095153809,0.020762883,0.016137103,731.4161460552853,-0.010084288663036158,7.4207490446702975,100.0,9600,1.320305347442627,0.0001807974186137148,0.00018994829234862207,759.2866716798422,100.0
58,1.1914646625518799,743.6303871541462,8.504587646769341,759.1371565296665,714.8915322674012,100.0,3.266241465960347,0.1,0.008663415908813477,0.1838970184326172,0.029743353,0.016570298,732.6375701651714,-0.009987588125179471,7.423345745208152,100.0,9600,1.3189470767974854,0.0002299091075910677,0.00020469029420097122,759.266437333256,100.0
59,1.1879982948303223,745.1786790698083,8.645910378072877,759.0739118797868,718.9370722088148,100.0,3.220437050169749,0.1,0.008704185485839844,0.18300175666809082,0.0202059,0.011188522,733.891681055635,-0.009923333410939586,7.438826666589061,100.0,9600,1.3104221820831299,0.0001972749633622114,0.0002132670879228333,759.2657135042999,100.0
60,1.2030799388885498,745.7152233868787,7.9745019677660505,759.0706787289101,722.8913820326081,100.0,2.786246281735966,0.1,0.008670568466186523,0.18175697326660156,0.028556926,0.015999068,735.0740352887593,-0.009975478689703145,7.443774521310298,100.0,9600,1.3249802589416504,0.00017678353820987903,0.00014534363282715305,759.2551916425012,100.0
61,1.3811984062194824,744.2114794490864,8.826408313008159,759.0054982154435,718.9280575495135,100.0,3.1332521703200515,0.1,0.008443117141723633,0.18233323097229004,0.035623107,0.019781306,735.987779704792,-0.010011290024871422,7.429155376641795,100.0,9600,1.3260653018951416,0.0002448067706461582,0.0001942040595547051,759.2862727501977,100.0
62,1.2353036403656006,745.9345617595876,9.87342131415028,759.1096047814435,682.7589098351746,100.0,2.8573881653204345,0.1,0.008291482925415039,0.1818370819091797,0.029812645,0.019334989,736.9824579102716,-0.00986419011948874,7.446802476547178,100.0,9600,1.3065636157989502,0.0002432455096159479,0.0002450745444093412,759.2529427063249,100.0
63,1.1970887184143066,743.628123542625,8.881752032143265,759.0178292606215,710.946796794407,100.0,3.182776472887328,0.1,0.008848905563354492,0.18145227432250977,0.021332432,0.012445285,737.6470244735069,-0.010012991040407931,7.422903675626259,100.0,9600,1.3115756511688232,0.00018949002465649587,0.0001852138037704168,759.2366675065555,100.0
64,1.1919279098510742,746.8989572757342,7.472547231851914,759.078373690398,722.8862268582021,100.0,3.68691859004967,0.1,0.008370637893676758,0.18280601501464844,0.02859346,0.0146969,738.5722177537297,-0.009802511420088533,7.455614155246579,100.0,9600,1.320420265197754,0.00016473070584917712,0.00015299968036529185,759.246897437186,100.0
65,1.1938016414642334,744.2629672777912,8.889648751026774,759.1272043755545,714.9044476546017,100.0,3.3466691800393717,0.1,0.008607149124145508,0.18248414993286133,0.031408247,0.017273895,739.1412927061358,-0.009910350933367106,7.429256315733299,100.0,9600,1.3221468925476074,0.0002511185688693522,0.00021094853653218714,759.2708420831963,100.0
66,1.2186222076416016,744.6018357666925,9.068587056808127,759.083314226963,714.9467871567737,100.0,3.061213844318844,0.1,0.008661508560180664,0.18240118026733398,0.033274468,0.019888595,739.6873470121915,-0.00985546067274138,7.434311205993926,100.0,9600,1.331834077835083,0.0002278492403973421,0.00023139444128912235,759.2278169961176,100.0
67,1.1881046295166016,746.7708520109728,9.458415592492225,759.1044695745962,706.8841954826268,100.0,3.2287950035330804,0.1,0.009231328964233398,0.18161463737487793,0.037619058,0.013998396,740.3956975120697,-0.009834438980030835,7.454748894353304,100.0,9600,1.3292148113250732,0.00020685014939355125,0.0001818542859901455,759.2667723031499,100.0
68,1.1925861835479736,747.2295483589751,7.626115882228025,759.0884899603413,722.9686988726563,100.0,3.914655327021524,0.1,0.008286714553833008,0.16962027549743652,0.034580823,0.017596116,741.0790825967603,-0.009831396519840656,7.45891860348016,100.0,9600,1.3230619430541992,0.00017438528243921765,0.00021553397135622428,759.2512894803771,100.0
69,1.1801815032958984,744.6289158957178,8.469237520574008,759.0597364547881,718.8662653922111,100.0,2.813594585711008,0.1,0.0088043212890625,0.18182063102722168,0.034516603,0.02240406,741.434065926656,-0.010004482771958999,7.432912183894707,100.0,9600,1.3409531116485596,0.00019743758385314626,0.0002754509651157719,759.2450388187664,100.0
70,1.1891300678253174,747.4402757308208,7.3799208398501195,759.0715662566594,726.9315301747293,100.0,3.1896642447131356,0.1,0.009009122848510742,0.18351316452026367,0.039086696,0.023428423,742.0346869070726,-0.00980646548035613,7.461443534519645,100.0,9600,1.3471789360046387,0.00018242995723728972,0.00017184140680221696,759.2266772522295,100.0
71,1.191478967666626,748.0296697764464,7.34022502683182,759.0666891068445,726.9518722396435,100.0,3.6869942069985453,0.1,0.009870052337646484,0.1857595443725586,0.039470196,0.02030899,742.6341851940099,-0.009745862034907318,7.467337471298426,100.0,9600,1.3582806587219238,0.00020445867604187032,0.00014625799714422475,759.2449059367115,100.0
72,1.183194637298584,748.5712392327633,7.669371591755601,759.0934077665812,718.9733612379482,100.0,3.2324929868851235,0.1,0.008591890335083008,0.1815013885498047,0.031914093,0.014465709,743.2278905978853,-0.009745516204256083,7.472337817129078,100.0,9600,1.351623773574829,0.00014799547336920724,0.00014568734719368212,759.2778160482883,100.0
73,1.2072944641113281,746.8249326243217,8.024516914373717,759.0821031894757,722.9646124684187,100.0,2.7924341032700415,0.1,0.008527994155883789,0.18299365043640137,0.0319273,0.018325774,743.587594800529,-0.009710520416767924,7.455289479583232,100.0,9600,1.3409335613250732,0.00018165952469915837,0.0001760604028314127,759.2497375092097,100.0
74,1.1961915493011475,747.441786906656,7.869385499196786,759.1099836758616,730.9227037637582,100.0,2.594927404630116,0.1,0.009049654006958008,0.18312454223632812,0.03162728,0.020344965,743.9730140111418,-0.009792028088635314,7.461041305244699,100.0,9600,1.329179048538208,0.000158056776271578,0.00014494317194455847,759.2894953086733,100.0
75,1.198993444442749,747.7793152782515,7.954441780192922,759.1021881903526,718.8610168761347,100.0,2.93160456267714,0.1,0.008668899536132812,0.1836080551147461,0.029261786,0.01877272,744.3536441378527,-0.009748451970717567,7.464418214695949,100.0,9600,1.3263449668884277,0.0001478989698774598,0.00016430442716107373,759.2713698346091,100.0
76,1.2191681861877441,748.9113056201608,7.3269789013037245,759.1252693315672,714.8623942129284,100.0,3.3784728932960393,0.1,0.008716583251953125,0.18463993072509766,0.02549133,0.012205459,744.8094102860836,-0.009680874588372202,7.475735792078294,100.0,9600,1.3518030643463135,0.0001524712720915042,0.00011372849734115084,759.2624840704073,100.0
77,1.398879051208496,748.8330336801837,7.01478852286274,759.1074703532137,726.9660833597584,100.0,2.801750610254802,0.1,0.008435726165771484,0.18063068389892578,0.035356905,0.024662605,745.2117726254936,-0.009630226123877436,7.474953107209456,100.0,9600,1.322997808456421,0.00013004813937881812,0.0001337172484181975,759.2506989867941,100.0
78,1.2447912693023682,750.1639553650936,6.853786019977869,759.0975432973289,731.0030356885364,100.0,3.1537338101607117,0.1,0.008612394332885742,0.1917712688446045,0.033126898,0.019438246,745.7069908994536,-0.009655171440901831,7.488261495225765,100.0,9600,1.3313899040222168,0.00011311271156499364,0.00011143692453374104,759.2814002355661,100.0
79,1.212705373764038,750.7897463616933,6.49426039984072,759.1082920203871,730.9877885834168,100.0,3.3714075289964103,0.1,0.00848841667175293,0.18222641944885254,0.037157387,0.020923989,746.2152664456776,-0.009645108372460185,7.494521558294206,100.0,9600,1.30393385887146,0.00011303574326049897,0.00010963375268764401,759.2304918621074,100.0
80,1.202911138534546,749.7441040105845,7.515506217256265,759.112188332507,718.9801548065705,100.0,3.742561580283074,0.1,0.008492231369018555,0.1839430332183838,0.031963095,0.0141717475,746.5681502021682,-0.009687411666498467,7.484062588333501,100.0,9600,1.2996070384979248,0.0001659318335019223,0.00017561238496173958,759.2657182153431,100.0
81,1.1922576427459717,750.628328013696,6.567651925413437,759.1229992391048,730.9342379529128,100.0,3.909576703244703,0.1,0.008622169494628906,0.18741178512573242,0.037171293,0.01683228,746.9741679833211,-0.009593892983912859,7.492906107016086,100.0,9600,1.2772314548492432,9.556100857203143e-05,9.87832135438302e-05,759.2779498702064,100.0
82,1.1776463985443115,752.0879786112633,6.296149223747574,759.1049743636238,731.0084417524878,100.0,3.0411781933191375,0.1,0.008303642272949219,0.18114376068115234,0.038716674,0.020408513,747.4855490461152,-0.009582047698066804,7.507501285635267,100.0,9600,1.2793986797332764,0.00011847007099047108,0.00012119973378396641,759.2421244299229,100.0
83,1.2079367637634277,751.1272841752153,6.376262971607788,759.1122622777699,722.8781206356318,100.0,2.770493350384576,0.1,0.008539199829101562,0.18153595924377441,0.030255519,0.01773456,747.8497225590253,-0.009604776055656126,7.497895223944345,100.0,9600,1.2685761451721191,0.00010043336704460893,9.837621420250829e-05,759.2133045438665,100.0
84,1.1936676502227783,751.2173824058224,6.069655120632076,759.1176661293782,738.9960190034216,100.0,3.1286304081909666,0.1,0.008502960205078125,0.18552064895629883,0.027346706,0.014140962,748.186488543705,-0.009536021378073722,7.4987973119552604,100.0,9600,1.299903154373169,0.00010137119625137676,9.064054797814767e-05,759.2481973535544,100.0
85,1.3961865901947021,749.9180360670415,6.945311621218486,759.1143810763175,726.9103381290411,100.0,3.718760607546667,0.1,0.008512258529663086,0.18334078788757324,0.03326155,0.016725784,748.3596432960386,-0.009613182114320138,7.486220151219013,100.0,9600,1.2913191318511963,0.00012452105458272316,0.00016032269372360513,759.234182246646,100.0
86,1.245922565460205,752.6341757030665,5.479299868693578,759.1234970629793,738.974977749639,100.0,3.4170924972396297,0.1,0.027778148651123047,0.18395400047302246,0.03363432,0.017717034,748.7870965367414,-0.009535592882732829,7.512964407117266,100.0,9600,1.294368028640747,0.0001711680314285762,8.275636335398754e-05,759.2163597269428,100.0
87,1.203291893005371,749.9978373015738,6.348905331507275,759.1096878720791,726.9233551094974,100.0,3.6656543945797324,0.1,0.009206056594848633,0.18322014808654785,0.037586536,0.017822009,748.9081706132246,-0.00964844697918144,7.487018219687485,100.0,9600,1.2873778343200684,0.0001232485373153744,0.00011069989478264618,759.2044011488072,100.0
88,1.1731116771697998,751.3803776421527,6.089875326310069,759.1215284030391,730.9622746215889,100.0,3.5329508393474924,0.1,0.008235931396484375,0.18095827102661133,0.04215423,0.01947876,749.1553913161174,-0.009573289350709073,7.500426710649291,100.0,9600,1.3007924556732178,8.902086092673225e-05,8.234992460566068e-05,759.2020013840478,100.0
89,1.227109432220459,750.5477422945856,6.27163339098026,759.123419555307,734.9753434497109,100.0,3.1820449560417097,0.1,0.00797581672668457,0.16866326332092285,0.029210806,0.0168659,749.2946264139642,-0.009565652740465988,7.4921010139262,100.0,9600,1.3027820587158203,0.00011772901348879982,0.00011788890205375861,759.1578783700521,100.0
90,1.2214603424072266,751.6345317907238,6.900575369425808,759.1120889070304,722.9239708178872,100.0,3.382536678238873,0.1,0.008622884750366211,0.18775105476379395,0.029626036,0.014144151,749.5286169516402,-0.009530883452135687,7.502969116547864,100.0,9600,1.320425271987915,0.00011434806276294915,0.0001144001342023255,759.1718124639384,100.0
91,1.195322036743164,751.630487430593,6.391196142140845,759.1233731982098,730.954807972469,100.0,3.5250335782481166,0.1,0.008214473724365234,0.1820213794708252,0.04207517,0.01987295,749.7388039995355,-0.009571139995983113,7.503345526670684,100.0,9600,1.3283050060272217,0.00010247774677290603,0.00010199759358192961,759.2053664822351,100.0
92,1.2203903198242188,751.8832292458995,5.269723789099822,759.1334833950197,738.9995312349663,100.0,3.8289326208129717,0.1,0.008504390716552734,0.18468379974365234,0.029109841,0.013956435,749.9532465241721,-0.009545364286512316,7.505454635713488,100.0,9600,1.3024170398712158,8.29523612699153e-05,8.650307382424259e-05,759.212919097255,100.0
93,1.3910505771636963,751.88290917355,6.150187012598464,759.1162562025979,734.9921380193224,100.0,3.7879749662472797,0.1,0.008315086364746094,0.18158531188964844,0.038403295,0.017119704,750.14621278911,-0.009546852041879323,7.5054531479581215,100.0,9600,1.2936441898345947,9.110164204542242e-05,9.192758831352751e-05,759.1425261804094,100.0
94,1.2188725471496582,750.7966296574132,6.493181822225806,759.1090925568299,727.0131425145837,100.0,2.9423913123247862,0.1,0.008557796478271484,0.18114709854125977,0.027604554,0.013903053,750.2112544759403,-0.009578579817681718,7.494588086848985,100.0,9600,1.2828903198242188,0.00010367529190483178,0.00010079296667662811,759.1923438115547,100.0
95,1.1854681968688965,750.9971724404523,6.542687368612765,759.1337983860066,726.9325876610517,100.0,3.079309495725852,0.1,0.008687257766723633,0.18439960479736328,0.030657126,0.014902201,750.2898462723915,-0.00965504860915616,7.496594951390843,100.0,9600,1.27927827835083,0.00011951571779141841,0.0001279472075673114,759.2244361436868,100.0
96,1.2119553089141846,752.4289881684748,6.521321412258976,759.1268726386236,722.9333641756003,100.0,3.3329061136447384,0.1,0.008448600769042969,0.18095135688781738,0.03209087,0.019088035,750.503760462,-0.00950499097352805,7.510911675693138,100.0,9600,1.284064531326294,0.00013210002808820915,0.00010158007190404136,759.2037985009194,100.0
97,1.188995599746704,751.5545313014608,6.560624903084661,759.107646140118,722.9111781905644,100.0,3.5560908014980064,0.1,0.00850224494934082,0.18619489669799805,0.033153266,0.016277388,750.608837545946,-0.009499215344839568,7.502167451321827,100.0,9600,1.3277769088745117,9.01332426675253e-05,8.920437039776737e-05,759.1953777036505,100.0
98,1.2366530895233154,751.8822645955146,6.258007194057853,759.1070767744641,735.0621333177313,100.0,3.2297782387717704,0.1,0.008480548858642578,0.18274521827697754,0.042831965,0.023109278,750.7361802509029,-0.009555691133675196,7.505860975532991,100.0,9600,1.3119087219238281,9.724722320489741e-05,9.493857502029613e-05,759.2015575281678,100.0
99,1.2024242877960205,751.1758742424078,5.56378739179053,759.1150971778252,735.0558269355317,100.0,3.088432677850505,0.1,0.008508682250976562,0.18225526809692383,0.032258682,0.019656295,750.7801496500534,-0.009535042490700711,7.498381624175966,100.0,9600,1.3109350204467773,8.991075353978989e-05,9.275629426362215e-05,759.2023892957038,100.0
100,1.2085597515106201,751.8462414696069,6.146486502702592,759.1151896331503,735.0114170462668,100.0,3.1225952151523635,0.1,0.008442401885986328,0.1838665008544922,0.02752722,0.016231628,750.8867588320088,-0.00949807923043059,7.5050852541029025,100.0,9600,1.2999553680419922,9.96846129142195e-05,0.0001141259302909314,759.2209765717905,100.0
101,1.3988723754882812,751.8470095771718,5.837438049803477,759.1258446155989,731.0362521454165,100.0,3.4995615221460734,0.1,0.00849604606628418,0.18400216102600098,0.033259064,0.015582957,750.9827839065251,-0.009487993543782101,7.505095339789551,100.0,9600,1.305128812789917,0.00011809348085586777,9.556356964353184e-05,759.1907378441524,100.0
102,1.1774308681488037,752.3907916898174,5.634165075805007,759.1200947641174,735.0081796126817,100.0,3.1300909863616524,0.1,0.008956670761108398,0.18204474449157715,0.037928663,0.023164267,751.1235846848544,-0.009468820886244997,7.510531179113755,100.0,9600,1.315824270248413,0.00010385154825899298,0.00010550920380886372,759.1814188288146,100.0
103,1.1899690628051758,752.976731212605,5.140482334473973,759.1314484916909,739.0176143463426,100.0,3.7893708223396234,0.1,0.008560657501220703,0.1831526756286621,0.027512599,0.013524048,751.3088993376294,-0.009442630130349532,7.516390703202984,100.0,9600,1.31968355178833,7.394740721830012e-05,7.818922041344396e-05,759.1820220489262,100.0
104,1.210343599319458,752.1020029073369,6.5522514870691895,759.1228717306249,726.9871608828487,100.0,2.9628966425990897,0.1,0.009279966354370117,0.1849977970123291,0.024550607,0.014874174,751.3882096946003,-0.009440349390122392,7.50764298394321,100.0,9600,1.323960542678833,0.0001232045057288581,0.00011109568884539372,759.2143137059427,100.0
105,1.2203800678253174,753.3079055666891,5.571751420985956,759.126131480677,735.0504113529161,100.0,3.2370515624817267,0.1,0.008209228515625,0.1762099266052246,0.030808162,0.015491958,751.5801792818093,-0.009464062109291868,7.519702604557374,100.0,9600,1.3347461223602295,9.164312922765787e-05,9.606652740607262e-05,759.2038349551227,100.0
106,1.1803479194641113,753.1036756396888,5.499389673599717,759.1351700989807,738.9885704303803,100.0,3.7561821941309663,0.1,0.008602380752563477,0.1845569610595703,0.033373404,0.016588459,751.7325289175972,-0.009424867245669264,7.518075132754331,100.0,9600,1.3277702331542969,9.785029833988359e-05,8.16440469549151e-05,759.2195388073808,100.0
107,1.2106997966766357,753.6013102437182,5.340872371464501,759.138708953181,730.9495026393068,100.0,3.6963375425046285,0.1,0.008626461029052734,0.1841428279876709,0.0321349,0.017334975,751.9194070502093,-0.0094447253644641,7.523055274635536,100.0,9600,1.3110003471374512,7.508893131051107e-05,9.157312554216771e-05,759.1965340796592,100.0
108,1.2026870250701904,752.5952484840003,6.082301101031675,759.1053479893891,730.9649640785063,100.0,3.9651008722735863,0.1,0.008583307266235352,0.18707489967346191,0.042369697,0.018995613,751.9869911935884,-0.009506045274781853,7.5125772880585515,100.0,9600,1.3063697814941406,0.0001202233127438335,0.00011210607013795176,759.1902748505735,100.0
109,1.3589987754821777,754.1064397183794,4.936845280657325,759.1311481033788,743.0113395164641,100.0,3.9830403562218883,0.1,0.008642911911010742,0.18538236618041992,0.042807497,0.01772694,752.1989360460675,-0.009396210941724588,7.527687122391609,100.0,9600,1.3061282634735107,7.76076972598245e-05,6.808566299345438e-05,759.2269544475366,100.0
110,1.1820399761199951,753.3919158107678,5.102246344498528,759.1157443963447,738.9934931701686,100.0,3.794099485227776,0.1,0.008754968643188477,0.18557095527648926,0.032963082,0.016082989,752.3182340225376,-0.009455770974415299,7.520544229025584,100.0,9600,1.3114051818847656,7.119062621983749e-05,6.785308645533236e-05,759.2318701737123,100.0
111,1.190260410308838,753.2641789796231,4.943061146594095,759.1160441184255,738.9927805059956,100.0,3.599548933210067,0.1,0.008791446685791016,0.18088102340698242,0.04197141,0.021799954,752.4128285182461,-0.009485657518140433,7.5196810091485276,100.0,9600,1.2799310684204102,6.926984402462694e-05,7.024404738556447e-05,759.2069270457354,100.0
112,1.1880605220794678,753.4837154480119,4.96209374276437,759.131534801017,738.9810768013324,100.0,3.510078162074899,0.1,0.008430242538452148,0.18267107009887695,0.03734185,0.017779479,752.5199172112227,-0.009372998618601249,7.521460334714732,100.0,9600,1.2946422100067139,5.980100644609764e-05,6.0586609052121805e-05,759.1881026142153,100.0
113,1.1996138095855713,753.3136470281275,5.238833239914962,759.1255018698939,734.9878446380501,100.0,3.9676866949232887,0.1,0.008485794067382812,0.18288564682006836,0.036639266,0.014785313,752.5992901929131,-0.009407139453015823,7.519759527213651,100.0,9600,1.318105936050415,8.089954143925262e-05,8.837442548017707e-05,759.203084090801,100.0
114,1.216294288635254,754.0642837977372,4.410484800890474,759.1550695426072,739.0152726404476,100.0,4.1078848074045755,0.1,0.009105682373046875,0.1869490146636963,0.04325331,0.01923243,752.7457895533955,-0.009401529086147829,7.527265137580518,100.0,9600,1.3238189220428467,5.791488581489236e-05,5.376923197565541e-05,759.2154504092183,100.0
115,1.223151445388794,754.5657621183086,4.569225962507046,759.1373846283612,739.009663174431,100.0,3.6158854443745367,0.1,0.008980274200439453,0.18305039405822754,0.039993644,0.01753787,752.9277868098869,-0.009386605000993305,7.5322800616656735,100.0,9600,1.3168330192565918,6.262476677827875e-05,6.442719841040671e-05,759.223502792843,100.0
116,1.3242387771606445,753.7764231586544,5.066602151686022,759.1228381784325,735.0249628249018,100.0,3.5492344244013974,0.1,0.009003877639770508,0.18172645568847656,0.034933742,0.016609391,753.0126504447637,-0.009361022650539744,7.524805644016126,100.0,9600,1.3159236907958984,6.642441381029022e-05,6.495252850760443e-05,759.2547463699908,100.0
117,1.3577966690063477,754.0186289471452,5.676692693075216,759.1144736642638,727.0099924698104,100.0,3.6599047289968603,0.1,0.00828099250793457,0.1883409023284912,0.040337764,0.018998755,753.1132482950019,-0.009440095503130151,7.527226571163536,100.0,9600,1.3151957988739014,7.612617847570973e-05,7.668649156437375e-05,759.2119779057226,100.0
118,1.220104694366455,752.6826045982201,5.660284802735814,759.1241631866269,734.9905314232157,100.0,3.1837156968947604,0.1,0.009875774383544922,0.21604442596435547,0.04138569,0.023275414,753.0701839253237,-0.00946741083468801,7.513449255831979,100.0,9600,1.6479616165161133,7.444375403839149e-05,7.318409846253959e-05,759.245597693416,100.0
119,1.19704270362854,754.3608402145234,4.372149178846035,759.1346265660276,738.9968562503228,100.0,3.637165170434966,0.1,0.008584737777709961,0.18322157859802246,0.02502091,0.011279375,753.1992495542437,-0.009352771208503837,7.530230562124829,100.0,9600,1.3078935146331787,5.3312743857664904e-05,5.017783082811175e-05,759.2171164856702,100.0
120,1.2331652641296387,753.1066263406979,5.522986417140413,759.1145019776076,730.9361247471787,100.0,4.467319476313392,0.1,0.008516788482666016,0.18186640739440918,0.039233867,0.0141709,753.1899872328892,-0.009392927478435231,7.517690405854897,100.0,9600,1.3058156967163086,8.5601911208461e-05,8.584155627884306e-05,759.2229744769055,100.0
121,1.201242208480835,754.563646280284,4.675660439008266,759.1256692018866,739.0465127658239,100.0,3.6679791410454214,0.1,0.008851289749145508,0.1811225414276123,0.036728617,0.019173088,753.3273531376286,-0.009409307212221938,7.532257359454444,100.0,9600,1.297224521636963,6.109507879712586e-05,5.310692502562648e-05,759.228725702004,100.0
122,1.2258312702178955,753.9398318797794,5.6009228227686725,759.1356471151621,731.0022959061798,100.0,3.275361449623397,0.1,0.00849151611328125,0.18661713600158691,0.034534782,0.017666655,753.3886010118437,-0.00939704466871441,7.5260196219979525,100.0,9600,1.3265833854675293,6.320619753851803e-05,6.29075677602244e-05,759.198162295317,100.0
123,1.2049341201782227,753.436962620253,5.1637344500058475,759.1146680779781,739.0522423829715,100.0,3.8534873478039375,0.1,0.00855398178100586,0.18267226219177246,0.041971028,0.018804818,753.3934371726847,-0.009424600972635372,7.520992065694031,100.0,9600,1.3017017841339111,6.39845345845253e-05,7.046057601741749e-05,759.224717482227,100.0
124,1.1799588203430176,754.3629903838533,4.975564574111727,759.1607373897353,739.0227799708564,100.0,4.022934746915697,0.1,0.008900165557861328,0.18030214309692383,0.046871632,0.022850746,753.4903924938016,-0.009330312298702874,7.530253021034629,100.0,9600,1.297473430633545,7.693033587638096e-05,6.860007040807938e-05,759.2075720125607,100.0
125,1.4138598442077637,754.8203344794136,5.235032735193337,759.1251973901069,727.0079230467298,100.0,3.38902511889771,0.1,0.013232707977294922,0.1838369369506836,0.04118698,0.020936107,753.6233866923628,-0.009340597459669123,7.534826069206997,100.0,9600,1.2869691848754883,7.807028000727429e-05,7.487028402321969e-05,759.222421515716,100.0
126,1.1889498233795166,754.1091439574049,5.726189735183437,759.1451136259888,730.9598489839499,100.0,3.272951308345446,0.1,0.010127544403076172,0.22423720359802246,0.03478957,0.016941763,753.6719624188671,-0.009369276392581297,7.527714056940752,100.0,9600,1.6287791728973389,8.047739061565374e-05,8.47155785665071e-05,759.2009184592139,100.0
127,1.2333602905273438,753.6880153422122,5.037979110927649,759.127544278558,739.0146483286318,100.0,3.683172747531056,0.1,0.010303735733032227,0.215789794921875,0.036545254,0.019388037,753.6735677112016,-0.00941352098825072,7.523503145678416,100.0,9600,1.6207010746002197,7.211181029342357e-05,6.920346974433048e-05,759.2090433662173,100.0
128,1.2065908908843994,754.3189546617306,5.380220131524388,759.1310746182738,739.0008766682735,100.0,3.769551846034544,0.1,0.008581399917602539,0.18320274353027344,0.039146915,0.023132958,753.7381064062545,-0.00935584244337419,7.5298108242232935,100.0,9600,1.3123040199279785,7.107274716714014e-05,6.742939448637765e-05,759.1745849340728,100.0
129,1.2168841361999512,753.3155703292474,5.044000612884382,759.1223254579909,739.003412991265,100.0,3.441998387243672,0.1,0.008285999298095703,0.17352628707885742,0.03592715,0.017954426,753.6958527985538,-0.009387713063895088,7.5197789536027715,100.0,9600,1.3139686584472656,7.977103510147035e-05,7.530624134094408e-05,759.181623668594,100.0
130,1.194979190826416,754.7676860370387,4.565895225185872,759.1132453058431,738.9767991377222,100.0,4.005455398706627,0.1,0.008484125137329102,0.17536425590515137,0.040836453,0.016496552,753.8030361224023,-0.009449502510603959,7.534300497489396,100.0,9600,1.3244071006774902,5.3140980055706033e-05,5.0525666949523036e-05,759.1578420160786,100.0
131,1.2109787464141846,754.1354147022621,4.997067662011511,759.1460094731566,735.0201326048132,100.0,3.529663147064987,0.1,0.008251667022705078,0.17359685897827148,0.03218466,0.014204378,753.8362739803882,-0.009523892532378028,7.527976107467622,100.0,9600,1.3353493213653564,6.349025218977226e-05,6.351298812078642e-05,759.1553505490692,100.0
132,1.3297200202941895,754.1878938204268,5.1886031569203634,759.1347893486451,734.9746049136429,100.0,3.5506243299172184,0.1,0.008646488189697266,0.18213820457458496,0.030282822,0.016540257,753.871435964392,-0.009414527495935328,7.5285021391707305,100.0,9600,1.3065946102142334,6.677068020726741e-05,6.484118794629557e-05,759.1951448258088,100.0
133,1.3807127475738525,754.3168764367689,4.417387511529635,759.1255206147432,739.0717190115208,100.0,4.308792113813326,0.1,0.008501768112182617,0.18128180503845215,0.039948996,0.015814673,753.9159800116298,-0.009374761938418163,7.529791904728249,100.0,9600,1.3237664699554443,5.7709759169231324e-05,6.311174487173015e-05,759.2083596824118,100.0
134,1.185967206954956,754.1035787742734,5.389611285884448,759.1545451464706,734.9938429353665,100.0,2.997091445735264,0.1,0.00894021987915039,0.18372154235839844,0.03753818,0.01945976,753.9347398878942,-0.0094243494372,7.527658983896134,100.0,9600,1.300827980041504,8.108215627805093e-05,7.898634573471587e-05,759.1827619755543,100.0
135,1.2285990715026855,754.6079773952606,4.326675307139029,759.1340551760943,739.0437692917034,100.0,3.760350574920817,0.1,0.008569717407226562,0.18306446075439453,0.036373235,0.015400341,754.0020636386308,-0.009380789709205556,7.533119210290795,100.0,9600,1.3226561546325684,5.372976395103968e-05,5.189216744720839e-05,759.1877209673387,100.0
136,1.2232871055603027,754.8630047597908,4.270937568955972,759.1285009647618,743.0162965239547,100.0,3.797891744038799,0.1,0.008229732513427734,0.17756915092468262,0.033907924,0.017239965,754.0881577507469,-0.009330086748381572,7.535253246584951,100.0,9600,1.3352906703948975,5.055681201550485e-05,4.998708145836069e-05,759.2154635389485,100.0
137,1.215881109237671,754.7350910535297,4.656166085361299,759.1358165368282,734.9944184409987,100.0,4.146762550355991,0.1,0.019138336181640625,0.18532800674438477,0.026884412,0.009763805,754.1528510810251,-0.009360356937652107,7.533972976395681,100.0,9600,1.3332257270812988,6.067962335972665e-05,6.0775333834378056e-05,759.1699045767825,100.0
138,1.200277328491211,753.9394959470461,5.102255114936407,759.1358430667298,735.0447435144329,100.0,3.6252121891949183,0.1,0.009452342987060547,0.18515753746032715,0.035226237,0.01577825,754.1315155676273,-0.009399955522446761,7.52601671114422,100.0,9600,1.3133628368377686,7.663515915609375e-05,6.398435834063961e-05,759.201013909469,100.0
139,1.2184972763061523,755.1147319748947,4.031037629398355,759.1216968458394,743.0221869275567,100.0,3.3563768838969,0.1,0.00882577896118164,0.18400049209594727,0.037697896,0.019468185,754.229837208354,-0.009312819331995062,7.537770514001338,100.0,9600,1.3136334419250488,4.356474613584236e-05,5.1342978994939665e-05,759.1742652644142,100.0
140,1.219533920288086,754.4387835971023,4.609934493451849,759.1381006011062,735.0028207810237,100.0,3.276989415462479,0.1,0.008455991744995117,0.18299388885498047,0.042130157,0.020634715,754.2507318472287,-0.009405643582832218,7.531011023083835,100.0,9600,1.3129239082336426,6.305968520697526e-05,7.269995560693771e-05,759.1832301898273,100.0
141,1.3675408363342285,753.8999029793408,5.045110716507825,759.1372200602564,734.9773833785187,100.0,3.7800596052697752,0.1,0.008427619934082031,0.18300414085388184,0.032029722,0.015190664,754.21564896044,-0.009376119536676738,7.52604054712999,100.0,9600,1.3121845722198486,0.00010953492810629234,7.269455225396689e-05,759.1851126392565,100.0
142,1.2039191722869873,754.1577822056526,4.278768600872055,759.1402823511085,743.0069375232576,100.0,3.195247273143826,0.1,0.008516788482666016,0.1918938159942627,0.02908664,0.015265649,754.2098622849613,-0.009299696775487665,7.528200303224513,100.0,9600,1.3008954524993896,5.335151715741634e-05,5.819795580806255e-05,759.2046682252604,100.0
143,1.2193233966827393,754.861119238843,4.724381870889102,759.140231617966,738.9731385596174,100.0,4.569981853347939,0.1,0.008303642272949219,0.17487883567810059,0.039094076,0.014762942,754.2749879803496,-0.00935114041736636,7.535232192915967,100.0,9600,1.3239214420318604,6.613959357816267e-05,5.944777247012669e-05,759.2106577675911,100.0
144,1.1790721416473389,754.7441275703823,4.356928766342613,759.1346179569257,743.0128892260989,100.0,3.1814494891018397,0.1,0.008817195892333984,0.18416857719421387,0.037497617,0.017993918,754.3219019393529,-0.009269587404584846,7.534063745928749,100.0,9600,1.284402847290039,5.1961953637639064e-05,5.356139036099615e-05,759.1992887434033,100.0
145,1.1871790885925293,754.4965388963492,4.482520390443625,759.1341968176994,739.0042047415627,100.0,4.004340730425797,0.1,0.008450508117675781,0.18445253372192383,0.035901092,0.0142276,754.3393656350524,-0.009246495488269104,7.531586837845064,100.0,9600,1.2583951950073242,5.799999951011609e-05,6.064130122064602e-05,759.1704505599655,100.0
146,1.170886754989624,754.2853532287853,4.359226232489452,759.1520539818913,734.9535869464661,100.0,4.187246367384011,0.1,0.008983373641967773,0.18331670761108398,0.04079218,0.016736936,754.3339643944257,-0.009274621135390973,7.529475378864608,100.0,9600,1.271810531616211,6.861901678904632e-05,6.1301095258509e-05,759.191190623337,100.0
147,1.1916985511779785,755.3659715984809,4.266451983860783,759.1160901887715,743.00580632892,100.0,4.146962788312991,0.1,0.008727073669433594,0.188399076461792,0.043897543,0.019221285,754.4371651148313,-0.009301005076014711,7.5402823282573195,100.0,9600,1.2563319206237793,5.110723370855089e-05,5.118222804390531e-05,759.1756488621266,100.0
148,1.1878561973571777,754.576216717191,4.345073113605993,759.1332756887673,739.0097419588469,100.0,3.3362842651387887,0.1,0.008707046508789062,0.18220806121826172,0.03716912,0.019264119,754.4510702750672,-0.00928120866798785,7.532385457998679,100.0,9600,1.2548694610595703,5.320344338914274e-05,5.0244806919179805e-05,759.1811006652001,100.0
149,1.3916747570037842,755.114348086925,4.192369694054714,759.1316910492797,739.0544848060047,100.0,3.142556898642513,0.1,0.008716106414794922,0.18214178085327148,0.04040736,0.018915053,754.517398056253,-0.009316856274438325,7.537766477058895,100.0,9600,1.2658538818359375,4.86789306645662e-05,4.276831373399451e-05,759.1880694921922,100.0
150,1.208859920501709,753.985862181395,4.928797156259399,759.1378671932673,739.0272475657905,100.0,4.244455252984594,0.1,0.00863027572631836,0.1827855110168457,0.04086049,0.017525733,754.4642444687672,-0.009351521610094433,7.5268984783899056,100.0,9600,1.2798078060150146,5.8602426161030136e-05,6.044383946425808e-05,759.1925478475217,100.0
151,1.2519702911376953,755.4903539703299,3.4506358237073576,759.1326842148115,743.0097147959833,100.0,3.6411716525805073,0.1,0.008931875228881836,0.1850588321685791,0.034462284,0.015336967,754.5668554189235,-0.00930658252432953,7.541943417475671,100.0,9600,1.3040063381195068,4.255875878101087e-05,4.289726391059508e-05,759.1815479013484,100.0
152,1.2381033897399902,754.9482644811337,4.149540190459257,759.1562762744848,739.059369796811,100.0,3.7311401571252376,0.1,0.008665084838867188,0.18541288375854492,0.037449,0.018547865,754.6049963251446,-0.009312545637779243,7.536104121028887,100.0,9600,1.3568954467773438,5.3763670249794806e-05,5.218657679501152e-05,759.1882582461539,100.0
153,1.190669298171997,754.8211070259146,5.142339270269603,759.128009696982,730.9689906566829,100.0,4.563531372410372,0.1,0.008477210998535156,0.18368005752563477,0.043822624,0.014240409,754.6266073952215,-0.009332658680062765,7.534834007986603,100.0,9600,1.338895320892334,7.307339016168769e-05,7.024110988609379e-05,759.1952550026293,100.0
154,1.2083778381347656,754.613842094053,4.978906469804661,759.1360996670697,738.997790007782,100.0,4.185120556372774,0.1,0.008565664291381836,0.18232011795043945,0.03185891,0.014042757,754.6253308651047,-0.00932203180804512,7.532761301525288,100.0,9600,1.3443121910095215,6.617861968333414e-05,6.455711289434512e-05,759.216406350236,100.0
155,1.195272445678711,754.2835635156052,4.79310179739301,759.1282380756103,735.0449451390493,100.0,3.6412831578056393,0.1,0.008608102798461914,0.1820065975189209,0.03270662,0.015240708,754.5911541301548,-0.009291851779142024,7.529458148220858,100.0,9600,1.34037446975708,5.790186638981639e-05,6.846149829149042e-05,759.2219358717452,100.0
156,1.273148775100708,753.6955636910576,5.3312109409130235,759.1402306334885,735.0854001730202,100.0,3.900802289194026,0.1,0.010778665542602539,0.1871650218963623,0.041987546,0.017232662,754.5015950862452,-0.009340226234112155,7.523576440432554,100.0,9600,1.3351881504058838,7.198262849294793e-05,6.8357646062369e-05,759.2112255545654,100.0
157,1.1869628429412842,754.9933202227429,4.445865095512839,759.1438741925814,739.0219189339898,100.0,3.7574866124094934,0.1,0.008881092071533203,0.18201923370361328,0.04305074,0.01998199,754.5507675998949,-0.009278459124866469,7.536554874208467,100.0,9600,1.3442094326019287,5.8346004129786153e-05,5.3294476581539866e-05,759.1919963993754,100.0
158,1.227112054824829,754.9561883591817,4.463006007700567,759.1474166204805,739.0629993740757,100.0,3.4962026890263336,0.1,0.008556127548217773,0.1825580596923828,0.047370087,0.03139023,754.5913096758237,-0.009233727404191224,7.536182939262475,100.0,9600,1.358875036239624,5.4807772958878495e-05,5.56603942970642e-05,759.1828309898291,100.0
159,1.228006362915039,756.0835072341948,3.7049511235426884,759.1377274802882,743.0532707684401,100.0,4.238767264449199,0.1,0.008567571640014648,0.19916248321533203,0.041365515,0.017371682,754.7405294316608,-0.009209041480791132,7.547457625185875,100.0,9600,1.3566083908081055,3.355569634621575e-05,3.299543538582961e-05,759.1922689388402,100.0
160,1.1931540966033936,755.1548175564873,4.410743321486124,759.1238703258248,739.0309710404158,100.0,3.865365134736806,0.1,0.008694887161254883,0.18537688255310059,0.04056045,0.017588556,754.7819582441434,-0.009328205559692474,7.538171794440307,100.0,9600,1.3755197525024414,5.0294999416025364e-05,4.922861369092555e-05,759.2014259272038,100.0
161,1.2229220867156982,755.3672115636091,4.4219270663893635,759.1340979167883,739.0448355049408,100.0,4.335186151653228,0.1,0.009217023849487305,0.18229174613952637,0.033913996,0.013465994,754.84048357609,-0.009289151281668268,7.540710848718331,100.0,9600,1.3674590587615967,5.6400553316724784e-05,6.078168320433262e-05,759.201142262938,100.0
162,1.2136836051940918,753.9545583175728,4.869336867937365,759.1691344483336,738.993035475857,100.0,3.312886193232248,0.1,0.008450984954833984,0.18178606033325195,0.038963385,0.018159201,754.7518910502383,-0.009250839429100191,7.526165827237566,100.0,9600,1.3544199466705322,6.517569606607343e-05,5.392067703207366e-05,759.2056961821141,100.0
163,1.160646915435791,755.0696297249688,4.013460844378656,759.1481191932713,742.9835017895967,100.0,3.5378787188657808,0.1,0.009270429611206055,0.18487286567687988,0.043034256,0.018513173,754.7836649177115,-0.009347179412935122,7.537319487253732,100.0,9600,1.3582446575164795,5.0054249234275456e-05,4.8199998276017294e-05,759.2148542292217,100.0
164,1.167494773864746,754.4486741079309,4.711436427521383,759.1358688567799,739.015188981377,100.0,3.1418540582500305,0.1,0.008684396743774414,0.18387889862060547,0.044041645,0.024077052,754.7501658367335,-0.009306272415139066,7.531110394251527,100.0,9600,1.3519995212554932,5.187377299968838e-05,5.008248485093084e-05,759.179886475101,100.0
165,1.4227428436279297,754.8262434650454,3.604000676919085,759.1241231161819,743.0101304141093,100.0,4.338500943401427,0.1,0.008653402328491211,0.18198919296264648,0.039764427,0.015597515,754.7577735995646,-0.009279688311786006,7.535303645021547,100.0,9600,1.3142549991607666,4.050192374310373e-05,4.095582580386687e-05,759.1887222879704,100.0
166,1.1983437538146973,755.3281813233476,3.8753405117170816,759.1305283852153,742.954834949978,100.0,4.058009711215767,0.1,0.008788585662841797,0.19094204902648926,0.035800707,0.014198791,754.814814371943,-0.009262587181010093,7.539904079485656,100.0,9600,1.3408393859863281,4.7939238510964806e-05,5.3516733091419106e-05,759.2418247235945,100.0
167,1.2143187522888184,755.6963019625855,3.8130902325177427,759.1391178554019,747.0178077956109,100.0,3.7434155082733174,0.1,0.008983373641967773,0.19303607940673828,0.043362584,0.018939327,754.9029631310074,-0.009331075529026773,7.5435855911376395,100.0,9600,1.336329698562622,4.3921122976711884e-05,4.280302943151613e-05,759.2071661324082,100.0
168,1.206578254699707,755.6576980005001,3.7539304901918134,759.1224894182744,746.9802391544988,100.0,3.6106161921268063,0.1,0.008746623992919922,0.18590855598449707,0.032680877,0.016625334,754.9784366179566,-0.009299733777187699,7.5432002662228115,100.0,9600,1.3041846752166748,4.143158813849819e-05,3.555458301169446e-05,759.2463055239767,100.0
169,1.2268953323364258,755.6611187882127,3.8378496531991986,759.1270145529966,743.0475615167079,100.0,3.8491525748827735,0.1,0.008506059646606445,0.1864633560180664,0.04666324,0.020900222,755.0467048349823,-0.009266829677716358,7.543233170322284,100.0,9600,1.3267416954040527,4.3447418415275774e-05,4.652941955649813e-05,759.2503714663726,100.0
170,1.2015767097473145,754.993253962949,3.659739702045583,759.1347719325722,743.0525685511116,100.0,3.8476345929215277,0.1,0.008707284927368164,0.18685245513916016,0.047056053,0.022645188,755.041359747779,-0.009277507255278707,7.536555826078055,100.0,9600,1.3101468086242676,4.23725740862544e-05,4.065910263541002e-05,759.2317150586135,100.0
171,1.1951713562011719,755.8288752664985,4.062481847805447,759.1443259103202,739.0269027065068,100.0,3.9449968863214466,0.1,0.008516788482666016,0.1828157901763916,0.039220467,0.01690162,755.120111299651,-0.00925555989407933,7.545327773439255,100.0,9600,1.2786972522735596,4.637725016337623e-05,5.0767734879449926e-05,759.2154061469813,100.0
172,1.2384428977966309,754.2861802466105,3.91280578401438,759.1426084037703,743.0210160435397,100.0,3.254463647545697,0.1,0.008742332458496094,0.18518304824829102,0.026626984,0.01378234,755.0367181943469,-0.009265544862212042,7.529484455137788,100.0,9600,1.3221282958984375,4.550967190077486e-05,4.5072202377392654e-05,759.2094011840685,100.0
173,1.3618443012237549,755.0755180975742,4.01141494693188,759.1342548957608,747.0194365772429,100.0,3.6847214303791866,0.1,0.009809255599975586,0.2225184440612793,0.038812455,0.018550457,755.0405981846696,-0.009288702985035617,7.537377963681631,100.0,9600,1.6503076553344727,4.7796356099084506e-05,4.994426047233523e-05,759.2026190317395,100.0
174,1.215320110321045,755.9536527087403,3.5335684032411745,759.146838147778,739.0266561359254,100.0,4.438115484066025,0.1,0.008669614791870117,0.18784499168395996,0.042244095,0.015333503,755.1319036370767,-0.009257001035302028,7.5461596656313645,100.0,9600,1.3356244564056396,4.620868597478846e-05,3.8244601846751935e-05,759.1880611755982,100.0
175,1.1865582466125488,754.6169049125823,4.839074952523018,759.158303617289,739.0274049299848,100.0,3.8016927103605953,0.1,0.008806705474853516,0.18301129341125488,0.043443024,0.02024862,755.0804037646272,-0.009292075866050025,7.5327912574672835,100.0,9600,1.3200914859771729,5.707999904566838e-05,5.695008942818952e-05,759.2221704000891,100.0
176,1.1946098804473877,755.4092466574645,4.471196204648826,759.1394906467726,743.0000812036546,100.0,3.7761030613096995,0.1,0.008764505386352539,0.1873781681060791,0.042352732,0.018413264,755.113288053911,-0.00928519579894376,7.540714804201056,100.0,9600,1.3115341663360596,5.2769262942726995e-05,4.993319773191205e-05,759.1959637775583,100.0
177,1.200835943222046,754.8683744158915,4.57363547977481,759.1511465034997,739.0444324754825,100.0,3.525087426770109,0.1,0.008144617080688477,0.1717205047607422,0.03426102,0.016742663,755.0887966901091,-0.009278629843531625,7.535304703489802,100.0,9600,1.3197689056396484,6.240044046860094e-05,5.997606177276659e-05,759.2041602085069,100.0
178,1.1832268238067627,755.4481769080057,4.594169500392318,759.1304254258031,731.026200470106,100.0,3.435946072970563,0.1,0.008684873580932617,0.18388700485229492,0.037886016,0.017597955,755.1247347118988,-0.009312189807763561,7.541521143525569,100.0,9600,1.3257126808166504,4.6755417852297795e-05,4.1869966129302084e-05,759.1936146822245,100.0
179,1.1882591247558594,755.8246014582595,3.5840503858758006,759.1302507559083,743.0395278099794,100.0,3.6839008647915166,0.1,0.00896763801574707,0.181532621383667,0.03780999,0.017774459,755.1947213865349,-0.009299479016491844,7.544867187650175,100.0,9600,1.3305070400238037,3.7167988329098546e-05,3.88518661771394e-05,759.2146776847251,100.0
180,1.19590425491333,756.460702244119,3.161992881241715,759.1587812829655,743.0320737798552,100.0,3.81539490708273,0.1,0.008492469787597656,0.1815037727355957,0.0361801,0.016466783,755.3213194722933,-0.009186593878376262,7.55123007278829,100.0,9600,1.346278190612793,3.4071931613849974e-05,3.1556854957935645e-05,759.1936838618348,100.0
181,1.252622365951538,756.2461620731146,3.4723895391769064,759.1314014044754,747.0089712528866,100.0,4.175959656931571,0.1,0.008298635482788086,0.1816844940185547,0.04032298,0.019690895,755.4138037323754,-0.009250635823289872,7.549082697510044,100.0,9600,1.3297357559204102,3.2293731052078706e-05,3.163210655468637e-05,759.2277953344164,100.0
182,1.1909964084625244,756.118012579359,3.7173382130978982,759.1420724700001,743.0200988426442,100.0,5.1665368739582656,0.1,0.008553028106689453,0.18992114067077637,0.044286452,0.014812509,755.4842246170738,-0.00927988118468726,7.547803452148647,100.0,9600,1.3363630771636963,3.8776471249713076e-05,5.1208087567822387e-05,759.2138219528832,100.0
183,1.2291364669799805,755.9948137320856,4.069917478319879,759.1337219959931,743.0468560889304,100.0,3.6606176464634723,0.1,0.008415460586547852,0.18131041526794434,0.040149357,0.021132795,755.5352835285751,-0.009261752668501863,7.546988247331498,100.0,9600,1.351621150970459,5.457936392979319e-05,4.19961204083253e-05,759.177471491769,100.0
184,1.1859636306762695,755.6578597176045,3.795440198176544,759.149280006643,747.0199461724857,100.0,4.3352595667520495,0.1,0.008558988571166992,0.18587923049926758,0.042515896,0.018892178,755.547541147478,-0.009298083032146682,7.5432019169678535,100.0,9600,1.385589599609375,3.817205360336794e-05,4.539921098296256e-05,759.2025241664417,100.0
185,1.1831088066101074,755.8256329577694,4.226113869987,759.1298660323545,739.0128831784726,100.0,3.757693523203444,0.1,0.008733987808227539,0.1890714168548584,0.045425244,0.019907916,755.5753503285072,-0.009286891501355546,7.544879775165312,100.0,9600,1.3839573860168457,5.001631010159211e-05,4.122114438740335e-05,759.1999123267146,100.0
186,1.1932048797607422,756.3275746515525,3.340409486683885,759.1595669250531,747.0554984294371,100.0,3.3819082537319427,0.1,0.008610248565673828,0.1852729320526123,0.0399109,0.018537382,755.6505727608117,-0.00926848474104549,7.54989818192562,100.0,9600,1.398592472076416,2.9540083497939084e-05,2.9490223417569364e-05,759.2045553750382,100.0
187,1.214355707168579,755.3720232288961,4.225698034858573,759.1537708966549,735.0192838773493,100.0,4.292665183596225,0.1,0.008353471755981445,0.18291521072387695,0.041083243,0.01637985,755.6227178076201,-0.009240190796373197,7.540759809203627,100.0,9600,1.3784360885620117,4.827780386663474e-05,5.287364194735475e-05,759.1785831402162,100.0
188,1.3160643577575684,756.245671690774,3.3747441118439094,759.1388917077309,743.0250252041748,100.0,3.8774784424143562,0.1,0.009867191314697266,0.21839642524719238,0.03532771,0.016406188,755.6850131959355,-0.009255176010399295,7.549078157322934,100.0,9600,1.7262089252471924,3.950217508369809e-05,2.9154228226289324e-05,759.1544996874158,100.0
189,1.3610224723815918,756.4153281935974,3.999110866182404,759.1351976029139,739.0415635021783,100.0,4.099060065787489,0.1,0.008531332015991211,0.1855316162109375,0.043514505,0.016215406,755.7580446957018,-0.0092238426449291,7.550776157355071,100.0,9600,1.3948676586151123,3.779817802793882e-05,4.6748820915715044e-05,759.192286313809,100.0
190,1.2459635734558105,755.7463983868129,3.9541586614773667,759.1434427405178,739.0672285242897,100.0,3.844556907264151,0.1,0.009961128234863281,0.21615147590637207,0.04404528,0.018884618,755.7568800648129,-0.009247540480690868,7.544085792852644,100.0,9600,1.7302320003509521,6.250333933501103e-05,5.102426577977366e-05,755.1665218270828,100.0
191,1.232379674911499,756.1995703983633,3.207741774498263,759.1683930367907,747.041565567251,100.0,3.9738509495652097,0.1,0.008782625198364258,0.1813371181488037,0.04190588,0.017878503,755.8011490981679,-0.00929777567461592,7.54861889099205,100.0,9600,1.3559539318084717,3.467188005998727e-05,3.109331063225179e-05,759.18790623617,100.0
192,1.1838250160217285,756.3247839069617,3.5809104729463113,759.1334621087148,747.0422446051539,100.0,3.367300110333617,0.1,0.008677244186401367,0.1815633773803711,0.042029742,0.017918414,755.8535125790473,-0.00929514486764834,7.5498715217990195,100.0,9600,1.3398480415344238,3.8768121635626876e-05,5.7601072382357526e-05,759.1884812348391,100.0
193,1.170182704925537,755.5784815777273,3.888886492048765,759.1331090330142,743.0619527837605,100.0,3.9293824524749263,0.1,0.010250568389892578,0.2168264389038086,0.045666438,0.020247491,755.8260094789154,-0.009258404582412302,7.542408262084254,100.0,9600,1.7126023769378662,6.876704374913623e-05,5.226103228486433e-05,759.173102873762,100.0
194,1.2135396003723145,755.9171411289768,4.050247489165706,759.1433704186464,739.0304937047389,100.0,4.110869378517454,0.1,0.007907390594482422,0.17365646362304688,0.03681725,0.014304002,755.8351226439215,-0.009205040968306282,7.546211625698361,100.0,9600,1.372868299484253,4.468420566245677e-05,5.624878779872578e-05,759.1784426722369,100.0
195,1.2320737838745117,755.7817518315636,4.051696982367119,759.1292514609717,743.0003534041692,100.0,4.053592909996939,0.1,0.009247541427612305,0.18110013008117676,0.038616862,0.014872672,755.8297855626859,-0.009310007324711198,7.544439992675289,100.0,9600,1.3637418746948242,5.494763639568151e-05,4.7884934296951854e-05,759.2115870206283,100.0
196,1.2508900165557861,755.8712183828703,3.3058943722404686,759.1424911459485,743.065971162959,100.0,3.6808563992430723,0.1,0.009156942367553711,0.18150901794433594,0.046629075,0.022338526,755.8339288447044,-0.009249198915116122,7.5453341344182165,100.0,9600,1.367910385131836,4.068949278643643e-05,3.515150861237576e-05,759.1771421506129,100.0
197,1.2067537307739258,755.6221043733998,3.692784844467247,759.1482516069432,747.0163257667451,100.0,4.000217097789287,0.1,0.010031700134277344,0.21512269973754883,0.042594776,0.016686482,755.812746397574,-0.009240571726444475,7.542842761606889,100.0,9600,1.7185721397399902,4.235925196474447e-05,5.9001506163484356e-05,759.1803026289303,100.0
198,1.1823182106018066,755.9968765763946,4.073042919081714,759.1504895961633,743.0374970183872,100.0,3.919899072265475,0.1,0.008638143539428711,0.18439722061157227,0.03890695,0.01553427,755.8311594154561,-0.009241003330606613,7.546592330002727,100.0,9600,1.4281401634216309,5.554407806984963e-05,4.101635349566769e-05,759.1854613275098,100.0
199,1.2006034851074219,756.3770935851843,3.0312876816130006,759.1467464120317,747.0555903376757,100.0,4.003949852349184,0.1,0.008290767669677734,0.1826035976409912,0.04540007,0.01922051,755.885752832429,-0.00919016616031495,7.550393167173019,100.0,9600,1.380023717880249,3.153702201537122e-05,4.70079706524236e-05,759.195877376614,100.0
200,1.229060173034668,755.7845087875809,4.058366933462508,759.1594764127515,739.019385899395,100.0,4.246494691545125,0.1,0.00858616828918457,0.18325543403625488,0.04292358,0.016923806,755.8756284279442,-0.009282675956496162,7.544467324043505,100.0,9600,1.3923168182373047,6.437678535777073e-05,5.104020819160192e-05,759.2193514896768,100.0
201,1.23124098777771,755.8721083056236,3.82266893257562,759.1382738999785,747.0211752808025,100.0,3.527073181373157,0.1,0.008486032485961914,0.1828327178955078,0.041779384,0.019387566,755.875276415712,-0.009237017893413415,7.545346315439921,100.0,9600,1.398176908493042,3.819047087806179e-05,4.0401029211869484e-05,759.1950983214741,100.0
202,1.1734473705291748,756.1700714412779,3.9485727874985486,759.1363485576685,738.9845274818274,100.0,3.415568860954188,0.1,0.008461475372314453,0.1917743682861328,0.042603914,0.017246027,755.9047559182686,-0.009179228797967795,7.548320771202032,100.0,9600,1.4062309265136719,4.52180637029422e-05,4.432704518901082e-05,759.170214672755,100.0
203,1.2908565998077393,755.4520228769225,4.138435474924851,759.1382974000471,735.0036046194948,100.0,3.2576743053059856,0.1,0.00891876220703125,0.18564271926879883,0.042875506,0.02412694,755.8594826141341,-0.009273975733350228,7.541142690933317,100.0,9600,1.382171869277954,4.767679188226448e-05,4.3855417186182e-05,759.1872449375697,100.0
204,1.2078912258148193,755.1219826532298,3.942663270910529,759.1369501300098,743.0595806478526,100.0,3.9529892108991014,0.1,0.009308338165283203,0.18857884407043457,0.03933867,0.019235415,755.7857326180438,-0.009240106189041152,7.537843227144293,100.0,9600,1.386808156967163,4.413724535752869e-05,4.8951275814550574e-05,759.2172417438994,100.0
205,1.20609450340271,756.0764750639119,3.8871568441033384,759.1440526777044,743.039817862773,100.0,4.310742777205167,0.1,0.008428812026977539,0.18410444259643555,0.04444627,0.019596424,755.8148068626307,-0.00927910994468383,7.547387556721984,100.0,9600,1.3737318515777588,4.310159162124714e-05,4.3064679160180405e-05,755.1975851524517,100.0
206,1.1822888851165771,756.372224366185,3.2974774115107537,759.1487644874487,747.0300697380889,100.0,4.349677647461369,0.1,0.008607625961303711,0.18382501602172852,0.047900356,0.019365925,755.8705486129861,-0.009238200064147018,7.550345133269187,100.0,9600,1.3699359893798828,3.302256703127628e-05,2.928291540755555e-05,759.19737204306,100.0
207,1.2191507816314697,756.2870181544275,3.433615543271206,759.1386809204779,747.0271802330568,100.0,4.170706617406802,0.1,0.008308649063110352,0.1834566593170166,0.048481967,0.01915876,755.9121955671303,-0.009257035661686805,7.549492964338313,100.0,9600,1.3645360469818115,3.039765840342915e-05,3.0163742843773082e-05,759.1931453938901,100.0
208,1.1919147968292236,755.9980212454101,3.904566000490907,759.1543937769311,743.0287626110742,100.0,4.033906188948266,0.1,0.00924229621887207,0.1883988380432129,0.037279155,0.015386511,755.9207781349584,-0.009227959919852325,7.547022040080147,100.0,9600,1.394007682800293,4.2014401890508924e-05,4.198615109546502e-05,759.2121602880478,100.0
209,1.212322473526001,755.7467490797331,3.997395787730446,759.1322962934909,747.0224751665088,100.0,3.767321974823837,0.1,0.009126663208007812,0.19070100784301758,0.041362878,0.01834673,755.9033752294358,-0.00924270688128582,7.544507293118715,100.0,9600,1.4168577194213867,4.579684765939384e-05,4.738859332878027e-05,759.2041345567991,100.0
210,1.1915137767791748,756.3329996103633,3.238288488118323,759.1428848871519,747.038330479868,100.0,3.844347616513975,0.1,0.009155511856079102,0.18675756454467773,0.03434677,0.014894112,755.9463376675286,-0.009213483766823157,7.549953182899842,100.0,9600,1.4308371543884277,3.245065952374017e-05,2.635534189730865e-05,759.151684920022,100.0
211,1.3499550819396973,755.6628312947793,4.5234758049385215,759.1375410216007,739.0416236226131,100.0,4.037278549825469,0.1,0.008882761001586914,0.18685007095336914,0.038358748,0.016990012,755.9179870302537,-0.009249642716422935,7.5432503572835765,100.0,9600,1.449509620666504,6.125864048894686e-05,7.633643081142792e-05,759.1921649427314,100.0
212,1.2392315864562988,756.1266753435871,4.102680895687892,759.1397075256912,739.0195365270323,100.0,3.1556772429982254,0.1,0.008637666702270508,0.18500375747680664,0.045517813,0.023341326,755.9388558615871,-0.009196003366867564,7.547887329966467,100.0,9600,1.4262516498565674,5.905980463745668e-05,5.4362008819052644e-05,759.1654659928153,100.0
213,1.2114300727844238,756.0773146093146,3.570456564526033,759.151170769938,743.0225907239867,100.0,3.723859013206099,0.1,0.008694648742675781,0.1829836368560791,0.036726188,0.016272418,755.9527017363598,-0.009269459376991557,7.5473972072896744,100.0,9600,1.423619031906128,4.398848624416459e-05,3.7340214384762694e-05,759.1792728754,100.0
214,1.193474531173706,756.0407440654435,3.5558391406607637,759.1345061384584,743.0759649951844,100.0,4.0198897428783145,0.1,0.008382081985473633,0.18814730644226074,0.044176873,0.018666806,755.9615059692682,-0.00921973149683941,7.54703026850316,100.0,9600,1.410670518875122,3.492404893105589e-05,3.305349509634743e-05,759.1336748268945,100.0
215,1.2340519428253174,755.1222632806312,4.3546376569074505,759.1396670003455,739.0457642340698,100.0,3.5359209862206065,0.1,0.008370637893676758,0.18318819999694824,0.03921725,0.017636806,755.8775817004044,-0.009239359976885485,7.5378439733564475,100.0,9600,1.4280824661254883,5.1842745411562244e-05,5.175718955429093e-05,759.1996155085805,100.0
216,1.2184662818908691,755.8731322156113,4.2000635111049185,759.1399969573248,739.0621074964929,100.0,3.9814689697761243,0.1,0.008560419082641602,0.18302702903747559,0.04072149,0.017578375,755.8771367519251,-0.009227145431857764,7.545356187901476,100.0,9600,1.386963129043579,3.867258113433677e-05,4.103740590069466e-05,759.1568469252877,100.0
217,1.203545331954956,755.7072427303641,4.225889997892334,759.1275027394088,743.0596950782252,100.0,4.60913133400318,0.1,0.008632421493530273,0.18836140632629395,0.04170593,0.016172016,755.860147349769,-0.009221501580781196,7.543695165085886,100.0,9600,1.4031152725219727,5.894397780278652e-05,5.415220790682553e-05,759.1704890607176,100.0
218,1.1913249492645264,756.3308392102208,3.5385320887881067,759.160645264151,747.0283530336272,100.0,4.255391172531886,0.1,0.008699178695678711,0.18768072128295898,0.04551276,0.021549279,755.9072165358142,-0.009236273345626806,7.549930393321039,100.0,9600,1.4231772422790527,3.3780623084907914e-05,3.721620526661695e-05,759.1500210014719,100.0
219,1.3836069107055664,755.6218008626678,3.733948297298193,759.1498753990188,747.0421332057232,100.0,4.215931792686886,0.1,0.00849604606628418,0.1847701072692871,0.048521142,0.018755239,755.8786749684996,-0.009243515606693517,7.54283981772664,100.0,9600,1.4155058860778809,4.105242963261653e-05,4.0433654014667046e-05,759.1607857609815,100.0
220,1.177011489868164,755.7437777411702,4.119933644382008,759.143924599147,747.0003616484865,100.0,4.636990778726611,0.1,0.008222103118896484,0.17456603050231934,0.04561122,0.016648708,755.8651852457666,-0.009271782970489945,7.544061550362843,100.0,9600,1.404036521911621,4.890539047726337e-05,4.760882486060557e-05,759.1607987356227,100.0
221,1.1780118942260742,755.2872164438604,4.455387973095758,759.1380693443983,743.0125567065788,100.0,4.00150703082173,0.1,0.009061098098754883,0.18469524383544922,0.044509206,0.019260602,755.807388365576,-0.009254587802103234,7.539495412197897,100.0,9600,1.4178435802459717,5.413588636698303e-05,5.719548528636605e-05,759.1989544099284,100.0
222,1.1738460063934326,755.8664165669462,3.2526723075239685,759.1179259714011,747.045576422255,100.0,3.0655154498683705,0.1,0.008466005325317383,0.18404221534729004,0.045195892,0.025275534,755.8132911857131,-0.009294293883383013,7.545705706116617,100.0,9600,1.4100158214569092,3.9125948773738396e-05,3.503597067489213e-05,759.1881361423498,100.0
223,1.1835989952087402,755.5419077862674,3.9684474891331494,759.1542861677252,743.041852536826,100.0,3.7422418434729647,0.1,0.009049415588378906,0.18927288055419922,0.044979896,0.019894177,755.7861528457686,-0.009208222424029529,7.54204177757597,100.0,9600,1.4365582466125488,4.373994687982703e-05,4.318014046536483e-05,759.1799568640847,100.0
224,1.2073302268981934,756.6643095560227,2.8679186465263475,759.1493126663863,747.023723603901,100.0,4.219705406117117,0.1,0.0087890625,0.18899273872375488,0.042484533,0.019697288,755.8739685167941,-0.00923452091441325,7.554098812418921,100.0,9600,1.4093751907348633,2.9347476544714594e-05,2.283490327148715e-05,759.1707920860806,100.0
225,1.2229704856872559,756.9112249390431,2.7106890403405752,759.1327898946494,751.0302014225645,100.0,4.277140036247417,0.1,0.008608102798461914,0.18974661827087402,0.04468723,0.014982831,755.977694159019,-0.009264802647757637,7.555735197352242,100.0,9600,1.413543462753296,2.2161189838473415e-05,1.9023597526239087e-05,759.1734466766944,100.0
226,1.2423336505889893,755.7421527651394,3.694249742599227,759.1319816405075,743.0498113772439,100.0,4.537093941443815,0.1,0.00897359848022461,0.18307971954345703,0.04676537,0.019242208,755.954140019631,-0.009289626565046687,7.544043706768286,100.0,9600,1.4217925071716309,4.3101125775382804e-05,5.401618734328646e-05,755.1677335303785,100.0
227,1.2064893245697021,754.8197718812024,4.126543474509041,759.1540041618072,743.0293210364424,100.0,4.023230682259347,0.1,0.008687019348144531,0.1846466064453125,0.03742131,0.016847173,755.8407032057883,-0.00934253381142819,7.535240799521905,100.0,9600,1.4231841564178467,7.286279458277143e-05,4.8856864826043204e-05,759.1327138000443,100.0
228,1.2122893333435059,755.8685514078111,3.9078580030288674,759.13474776034,739.0304200174988,100.0,3.416870119099746,0.1,0.008774042129516602,0.19783449172973633,0.04888251,0.024210991,755.8434880259906,-0.009277625287054425,7.545305708046278,100.0,9600,1.4050283432006836,5.3233795372825216e-05,3.873900441533457e-05,759.2166621678314,100.0
229,1.2025063037872314,755.8302448628959,3.2908048996554675,759.1431974914236,743.0360292747615,100.0,3.675115914101692,0.1,0.008536577224731445,0.18594837188720703,0.035150234,0.016197255,755.8421637096811,-0.009240730004994433,7.545342603328339,100.0,9600,1.4086449146270752,3.935312917043611e-05,3.638513496873545e-05,759.1843631724504,100.0
230,1.2433972358703613,756.5006270258497,2.82863834195589,759.126533747151,747.055400697255,100.0,4.666113607404555,0.1,0.008389949798583984,0.18662071228027344,0.046523962,0.018542703,755.908010041298,-0.009203903053199932,7.5516294302801334,100.0,9600,1.4420380592346191,2.7588004310687336e-05,2.8936534172521065e-05,759.1811964963106,100.0
231,1.2038366794586182,755.7052121249945,4.1877673991023885,759.1450334299809,743.0375379223971,100.0,3.666702806932035,0.1,0.018233060836791992,0.18665790557861328,0.046766452,0.022085477,755.8877302496677,-0.009240937448255432,7.543675729218411,100.0,9600,1.4485843181610107,5.6416116104285315e-05,4.994489415273541e-05,759.246839583508,100.0
232,1.19301438331604,755.7900710768614,3.9692672651394045,759.1429746678972,743.053567774912,100.0,4.213076179458386,0.1,0.009177207946777344,0.18927216529846191,0.04236541,0.016079478,755.8779643323871,-0.009226549458482653,7.544523450541518,100.0,9600,1.4445958137512207,5.124648987279087e-05,5.35064027217765e-05,759.2154597750487,100.0
233,1.2148921489715576,756.1241436195027,4.143313523308704,759.1415680388887,735.072588639171,100.0,4.155176222103745,0.1,0.009771585464477539,0.21921658515930176,0.039197788,0.0148794465,755.9025822610987,-0.009217103426387421,7.548282896573613,100.0,9600,1.7592377662658691,5.199957757749583e-05,4.6678951899910637e-05,759.2074654121789,100.0
234,1.1834638118743896,756.0451228966886,4.366949033019942,759.150648880751,731.0062574648172,100.0,3.5404214893972203,0.1,0.010051488876342773,0.21825385093688965,0.045837045,0.022875724,755.9168363246577,-0.009177344928895105,7.547072655071105,100.0,9600,1.7491567134857178,4.409356715272254e-05,5.620189277253851e-05,759.1762070600574,100.0
235,1.3002214431762695,756.3444734963377,3.286005988359634,759.1640249698884,747.0450651828907,100.0,3.924687131711352,0.1,0.008472681045532227,0.1845998764038086,0.039673652,0.020175455,755.9596000418256,-0.009100323132671844,7.550066343533994,100.0,9600,1.4147841930389404,4.833085340306269e-05,3.1362445246107055e-05,759.1922861526367,100.0
236,1.3527939319610596,756.8404733376683,3.8796831349947105,759.1369137803798,734.986211453803,100.0,4.336638262457039,0.1,0.008687496185302734,0.18915414810180664,0.04719698,0.018101431,756.0476873714099,-0.00913916860620257,7.555027498060464,100.0,9600,1.4414966106414795,3.621481644675625e-05,3.572047155575963e-05,759.1694648394233,100.0
237,1.208951473236084,755.6262202175325,3.82203373875898,759.1290464011403,743.0240504914256,100.0,3.4299779984860526,0.1,0.008620738983154297,0.18558740615844727,0.040425614,0.018250838,756.0055406560222,-0.00919714328769871,7.5428861900456345,100.0,9600,1.457554817199707,4.6425744180887456e-05,4.792747851159439e-05,759.1709720688218,100.0
238,1.2287826538085938,756.0910711124989,3.4720495429673854,759.1446503804426,743.0884200962231,100.0,4.183039390828338,0.1,0.008636236190795898,0.1895763874053955,0.04515298,0.015989287,756.0140937016698,-0.009134455779537176,7.5475322108871294,100.0,9600,1.4530704021453857,4.623561972532643e-05,3.8216954881023544e-05,759.181408330011,100.0
239,1.2239103317260742,755.5497655831987,3.791066710275817,759.1627708029309,739.0842204851914,100.0,4.040756001910662,0.1,0.008774518966674805,0.18982982635498047,0.04309665,0.018653767,755.9676608898227,-0.009132045217871218,7.542117954782128,100.0,9600,1.437171459197998,4.2199349842532134e-05,4.99841815724506e-05,759.2219026621956,100.0
240,1.2169842720031738,756.5027353624778,3.5224077998001895,759.1439084485095,739.0237694866623,100.0,3.6879883956221162,0.1,0.008448123931884766,0.18406343460083008,0.03353493,0.016164638,756.0211683370883,-0.009183385080013205,7.551649948253321,100.0,9600,1.441835880279541,3.7547930786641716e-05,4.486094247492122e-05,759.2238710159737,100.0
241,1.229374647140503,755.8750528235933,4.037624298733657,759.1363096114334,739.0217905342903,100.0,3.6823909998027804,0.1,0.008709430694580078,0.18236351013183594,0.042282898,0.022098176,756.0065567857388,-0.009209702951778672,7.545373630381555,100.0,9600,1.450866460800171,6.455836995871923e-05,5.9555720909680694e-05,759.1532919846096,100.0
242,1.2055001258850098,756.3394079054324,3.4849057354503374,759.1390806011512,743.0806370468822,100.0,4.109007459376723,0.1,0.009355306625366211,0.18648409843444824,0.041762926,0.016543832,756.0398418977081,-0.009149342555699297,7.550017324110967,100.0,9600,1.474393606185913,3.694239420899594e-05,3.0163422479882268e-05,759.1394247203855,100.0
243,1.2056512832641602,755.3742710746683,4.528528925033797,759.1439083107553,743.0412755977303,100.0,4.01619145459389,0.1,0.008576631546020508,0.1825108528137207,0.03759899,0.015361539,755.9732848154041,-0.009217500192425572,7.540365833140908,100.0,9600,1.4664092063903809,5.279650714702916e-05,5.2817158382474324e-05,759.1645370701478,100.0
244,1.3577239513397217,756.6224874976818,3.2438969208749664,759.1472325135819,747.0245376482401,100.0,4.911570769127758,0.1,0.008866071701049805,0.18211698532104492,0.04653374,0.01651928,756.0382050836319,-0.009235694022100867,7.552847639311232,100.0,9600,1.4532897472381592,3.8299805972638544e-05,3.488304622375827e-05,759.1972020463814,100.0
245,1.175969123840332,755.3312662732163,4.20543777410187,759.1436639442804,743.037849974058,100.0,3.684755676194034,0.1,0.00917816162109375,0.18830370903015137,0.045594092,0.021024274,755.9675112025903,-0.009231347269130176,7.539935319397536,100.0,9600,1.4745852947235107,4.798397527391245e-05,4.81917926526553e-05,759.2158298022171,100.0
246,1.1909451484680176,756.1243062532832,3.3379745447626723,759.1417443020058,743.0496312082622,100.0,3.637250987439139,0.1,0.008551359176635742,0.18656301498413086,0.041421533,0.020783681,755.9831907076597,-0.009218119050176192,7.547865214283156,100.0,9600,1.4738991260528564,3.4191899487152715e-05,3.1483954555776135e-05,759.2035695019166,100.0
247,1.2146005630493164,755.9168385555414,3.790488627489615,759.1641435310975,743.062401228898,100.0,4.606256003079696,0.1,0.008887290954589844,0.18589138984680176,0.042808,0.016266577,755.9765554924479,-0.009209269686859893,7.546207396979806,100.0,9600,1.4832127094268799,4.264265890357804e-05,5.119749427441999e-05,759.1476564140468,100.0
248,1.2108955383300781,755.9630376213477,3.896350640892117,759.146867214244,742.9961670034525,100.0,3.558176851323306,0.1,0.008611679077148438,0.18199753761291504,0.04094998,0.01765007,755.9752037053379,-0.009161650572536846,7.546255016094129,100.0,9600,1.4534659385681152,4.999949004294941e-05,4.4440175333947815e-05,759.1946798873694,100.0
249,1.2083780765533447,757.3788547719714,2.877885957337562,759.1422000668445,747.0526559993735,100.0,4.158609374671559,0.1,0.008443355560302734,0.18221306800842285,0.04730119,0.020775167,756.1155688120012,-0.009172845193048463,7.560410488140285,100.0,9600,1.455127239227295,3.50998817884101e-05,2.4076725810414383e-05,759.210153847737,100.0
250,1.1932933330535889,755.7463691235629,3.9116069617734364,759.1427723594592,743.0341932786945,100.0,3.6177828486657777,0.1,0.008866071701049805,0.18971657752990723,0.039628252,0.018340733,756.0786488431573,-0.00924764789645068,7.544085685436883,100.0,9600,1.4705514907836914,4.855962386259725e-05,6.207218192866443e-05,759.2027150313428,100.0
251,1.2172369956970215,756.3775257437592,3.7735641220777105,759.1406375093442,743.0440943111407,100.0,3.734455991005895,0.1,0.0105133056640625,0.22044587135314941,0.04613642,0.019811522,756.1085365332175,-0.009186005455048269,7.550397327878286,100.0,9600,1.8174140453338623,4.954436933223889e-05,3.6650195351728246e-05,759.1844394409471,100.0
252,1.3750824928283691,756.1294651611385,4.105928354929107,759.1521815004816,739.0410684687154,100.0,4.455441252454413,0.1,0.010198831558227539,0.2202625274658203,0.047766503,0.019549394,756.1106293960096,-0.00916819692338289,7.547915136409951,100.0,9600,1.809260368347168,4.7713372401835317e-05,4.7128653452844684e-05,759.1716632437948,100.0
253,1.2103984355926514,756.2977977081283,3.3793076888964175,759.1433175963978,747.0625297195314,100.0,3.3093640176014345,0.1,0.008982658386230469,0.1863851547241211,0.03640632,0.0180872,756.1293462272215,-0.009149202683688087,7.549600797316312,100.0,9600,1.4839105606079102,3.3288270335338686e-05,3.150921826700354e-05,759.1593661495792,100.0
254,1.2188606262207031,756.2071546563399,3.5068731167219243,759.1346872557713,743.0359924290224,100.0,3.6966124888617284,0.1,0.00986170768737793,0.21629667282104492,0.046700314,0.022779042,756.1371270701334,-0.009222232685764517,7.548694433980903,100.0,9600,1.822993516921997,3.630073658103628e-05,3.5611569848662095e-05,759.1846621422629,100.0
255,1.2070322036743164,756.6651641043969,3.4004382841694265,759.138254305979,747.0354449700815,100.0,3.6988929785717266,0.1,0.010044097900390625,0.217634916305542,0.047155153,0.021639878,756.1899307735598,-0.009227138511929996,7.553272861488069,100.0,9600,1.8089370727539062,2.840895450930345e-05,3.120188553813822e-05,759.2220366369352,100.0
256,1.1922376155853271,756.7571565290705,3.0978650354144515,759.1371238885021,747.0422111052876,100.0,4.2360258920226,0.1,0.00858163833618164,0.1846764087677002,0.046588637,0.019072559,756.2466533491108,-0.009137929377114414,7.554195403956219,100.0,9600,1.4843430519104004,2.955656194138889e-05,2.59022371323402e-05,759.1923690821305,100.0
257,1.199315071105957,756.248389412463,4.052169209571385,759.1742787977091,743.0321312414445,100.0,3.737395436188737,0.1,0.008704662322998047,0.18484854698181152,0.045547295,0.017899036,756.2468269554461,-0.009227337480868524,7.5491059958524644,100.0,9600,1.4694113731384277,4.122793475550647e-05,4.211329180353862e-05,759.1947951613536,100.0
258,1.1991748809814453,756.6725924501903,3.0899634751975262,759.1493457158119,747.0251831784175,100.0,4.4172581725013895,0.1,0.009272098541259766,0.1851968765258789,0.03951488,0.014423035,756.2894035049205,-0.009153270165621863,7.553346729834378,100.0,9600,1.4080510139465332,2.8722531497248777e-05,3.31028816402831e-05,759.1961484301543,100.0
259,1.2860562801361084,756.1644524331747,3.495929063970092,759.1655615576645,743.0246919690851,100.0,4.540922328539502,0.1,0.009041070938110352,0.19276738166809082,0.043865412,0.020908339,756.276908397746,-0.009235042643731992,7.548264957356268,100.0,9600,1.4202055931091309,5.200586989134526e-05,4.623815100391245e-05,759.2018082324787,100.0
260,1.1850438117980957,756.1290850047541,3.8052664962425227,759.1463590591542,743.0646024487809,100.0,3.6691436341851453,0.1,0.008711814880371094,0.1829681396484375,0.039890517,0.019746108,756.2621260584468,-0.009169464904347705,7.547913868428986,100.0,9600,1.412773609161377,4.109164309514802e-05,4.377878778001868e-05,759.2033567515526,100.0
261,1.2012169361114502,755.7516034252172,3.410649033598068,759.1561406429288,743.0140252990712,100.0,3.659017931609689,0.1,0.008659601211547852,0.17113423347473145,0.043034863,0.019976161,756.2110737951239,-0.009193566267729636,7.544139767065604,100.0,9600,1.3917608261108398,3.755289756366467e-05,3.822933880893918e-05,759.209068887938,100.0
262,1.2261607646942139,756.0054822669126,3.9050874351347105,759.1425732974596,743.0052390397872,100.0,4.100224125414525,0.1,0.008529424667358398,0.1830127239227295,0.03902636,0.016664945,756.1905146423027,-0.009156375317510847,7.546676958015823,100.0,9600,1.3880062103271484,4.365180009815431e-05,3.8432729471681106e-05,759.2029578876284,100.0
263,1.2420625686645508,756.419823884098,3.155867414210449,759.1568125040226,743.0114310039057,100.0,4.183252600309943,0.1,0.008840084075927734,0.18116998672485352,0.03670232,0.016069954,756.2134455664823,-0.009179098204225083,7.550820901795774,100.0,9600,1.3902409076690674,3.1899022184070845e-05,4.358869332175744e-05,759.2071353477204,100.0
264,1.192350149154663,756.540124423425,3.230344115385557,759.150102881759,747.0549022647808,100.0,3.7084940110650204,0.1,0.008485794067382812,0.18116974830627441,0.04349352,0.020020725,756.2461134521766,-0.009225462079146011,7.552441204587521,100.0,9600,1.3884353637695312,4.472964070066465e-05,2.9961056900071982e-05,759.1702657439788,100.0
265,1.2117633819580078,755.997352935566,3.4492460763238095,759.1476307886066,747.0437937179166,100.0,3.678428872932177,0.1,0.00903177261352539,0.18405818939208984,0.03962548,0.017414477,756.2212374005155,-0.009237989132268726,7.546595344201065,100.0,9600,1.3901751041412354,3.941458761297935e-05,4.713046217641387e-05,759.1755751326837,100.0
266,1.2069368362426758,756.1301289186314,3.6716952058657415,759.1533273808146,743.0476668958015,100.0,3.5713907922354102,0.1,0.00888824462890625,0.18672633171081543,0.045467377,0.02128344,756.2121265523272,-0.009160725019301694,7.547922608314032,100.0,9600,1.44004225730896,4.6830693587373486e-05,3.9258690208495354e-05,759.2049473479955,100.0
267,1.379277229309082,756.3825772169497,3.817411169823343,759.1444950954159,743.0380066780577,100.0,3.579334395025474,0.1,0.009030580520629883,0.18538928031921387,0.04597022,0.02254178,756.2291716187895,-0.009134480070905197,7.550865519929094,100.0,9600,1.4306116104125977,4.2505997257558366e-05,4.767447398490525e-05,759.1863195867124,100.0
268,1.2036213874816895,756.46211433799,3.6542583425852366,759.1529551653653,747.038573581726,100.0,4.119328679188193,0.1,0.009707450866699219,0.18650293350219727,0.042489912,0.017508825,756.2524658907095,-0.009173336893787529,7.5512433297728805,100.0,9600,1.4489169120788574,4.1900680081919045e-05,3.471311668737778e-05,759.1678277701591,100.0
269,1.1760773658752441,756.3443829357811,3.2918236470485605,759.1573256325457,747.0317027576405,100.0,4.276841474594875,0.1,0.008703947067260742,0.18124628067016602,0.0409911,0.0154880425,756.2616575952167,-0.009100849075758184,7.550065817590909,100.0,9600,1.3833966255187988,3.3138547311892286e-05,3.575029562486892e-05,759.172130404433,100.0
270,1.2146985530853271,756.9697759427221,3.6141744347931413,759.1668535018657,747.0260087115558,100.0,4.151638592678491,0.1,0.010028600692749023,0.21569514274597168,0.044823434,0.017438248,756.3324694299672,-0.009095947921565302,7.556320718745101,100.0,9600,1.7311420440673828,4.074749023465944e-05,3.327975492633932e-05,759.2167373879456,100.0
271,1.218198537826538,756.761175040765,3.047181443468299,759.1435347784125,747.0390128404587,100.0,4.705969183770675,0.1,0.00854945182800293,0.1902613639831543,0.043590214,0.016595889,756.375339991047,-0.009099812216963972,7.55423352111637,100.0,9600,1.3843555450439453,2.647329765508926e-05,2.860571997439756e-05,759.2004184023223,100.0
272,1.2822012901306152,756.669096791485,3.1962856239682558,759.140099988812,747.0736229310884,100.0,4.4638619249593905,0.1,0.008591413497924805,0.1845531463623047,0.04529768,0.016845874,756.4047156710908,-0.009186559703876567,7.553313440296122,100.0,9600,1.4104528427124023,2.998814026696687e-05,3.081225784228309e-05,759.1913392898442,100.0
273,1.1890876293182373,756.50424665298,3.418716874398924,759.1490425825315,747.0538128169599,100.0,4.367733643655021,0.1,0.008494853973388672,0.18283605575561523,0.04662897,0.020449946,756.4146687692797,-0.00916723879382742,7.551666094539506,100.0,9600,1.4018840789794922,3.312993344731215e-05,2.9687749840351044e-05,759.1883370322954,100.0
274,1.2691919803619385,756.2972903669612,2.9043455493422883,759.1563737656857,747.0388130498332,100.0,4.042170598609867,0.1,0.008789777755737305,0.1918621063232422,0.04505403,0.019353205,756.4029309290479,-0.00915401269956856,7.549595987300432,100.0,9600,1.4082226753234863,2.7011799472734897e-05,3.5338211649266234e-05,759.2058351959461,100.0
275,1.199688196182251,756.5967943143423,4.143055789795011,759.1496376360834,731.0033138352533,100.0,4.117789932196193,0.1,0.008453130722045898,0.1880321502685547,0.04463157,0.017833186,756.4223172675773,-0.009076520704283414,7.552590145962383,100.0,9600,1.4149041175842285,5.41844915900122e-05,5.490512753632344e-05,759.2221001871998,100.0
276,1.1832637786865234,756.5945749902229,2.96636872780997,759.1527485967016,747.017094535536,100.0,4.778028975075738,0.1,0.008514881134033203,0.1815321445465088,0.044734657,0.016813977,756.439543039842,-0.009097442953846844,7.55256922371282,100.0,9600,1.4205093383789062,4.129093118045094e-05,2.7790022484258033e-05,759.2067640962708,100.0
277,1.1868531703948975,756.8457919518256,3.0530108379281224,759.1744453253657,747.0472846414131,100.0,3.7745819407578165,0.1,0.008725166320800781,0.18797945976257324,0.04498905,0.020050682,756.4801679310403,-0.00908519115231609,7.55508147551435,100.0,9600,1.4300079345703125,2.4998390554759703e-05,2.3963107553144783e-05,759.1958887832566,100.0
278,1.1902813911437988,756.3433715592945,2.9646707578931166,759.1434920314974,747.0591717315152,100.0,4.550096580765009,0.1,0.00902414321899414,0.18584585189819336,0.046400905,0.017190486,756.4664882938657,-0.009111574859350527,7.550055091807316,100.0,9600,1.4430160522460938,2.687670667731714e-05,2.665843529524628e-05,759.1643810463928,100.0
279,1.19940185546875,756.259115281738,3.657821478262358,759.159851727346,743.0625671758079,100.0,4.09735587294203,0.1,0.007896661758422852,0.1747453212738037,0.044995856,0.019496625,756.445750992653,-0.009119030018806401,7.549630969981192,100.0,9600,1.4309988021850586,3.4515352385316135e-05,3.6137521158379056e-05,759.1831100316242,100.0
280,1.1968491077423096,756.4255443966621,3.4562169929680766,759.1487519628175,743.0748361489057,100.0,4.531786011276713,0.1,0.00867009162902832,0.18272924423217773,0.041780166,0.013792642,756.443730333054,-0.009125048307272182,7.550874951692729,100.0,9600,1.4434137344360352,3.540512843660966e-05,4.164514668805808e-05,759.192116475465,100.0
281,1.3211402893066406,756.3007729664026,3.4311529817533923,759.144781216018,747.0158336687155,100.0,4.365231991084462,0.1,0.008580207824707031,0.18252086639404297,0.04474559,0.017540753,756.4294345963889,-0.009119806814901812,7.549630193185098,100.0,9600,1.455615758895874,4.1020358198983716e-05,3.932661285312113e-05,759.229423819825,100.0
282,1.3796000480651855,756.7173739800716,3.1990896442499346,759.147912048788,747.0498729415966,100.0,3.6477085981359982,0.1,0.008547067642211914,0.18259978294372559,0.046000514,0.018980177,756.4582285347572,-0.009119429634268043,7.5537972370323985,100.0,9600,1.4323010444641113,3.8871442255679155e-05,5.004016827121728e-05,759.1983308688342,100.0
283,1.2034270763397217,756.5131760374347,3.326582325397393,759.1517519161463,743.0627815440221,100.0,3.708811588817786,0.1,0.008504867553710938,0.18309330940246582,0.04481906,0.020553682,756.4637232850249,-0.009078021685578324,7.552171978314422,100.0,9600,1.414842128753662,5.0006428444059394e-05,3.1273637602336485e-05,759.2139437759997,100.0
284,1.2091574668884277,756.340460701691,3.6757378864250283,759.1509385029283,743.0605622461434,100.0,3.6997802031960534,0.1,0.008829116821289062,0.18553471565246582,0.04779782,0.022161722,756.4513970266916,-0.009142433648498854,7.550024233018168,100.0,9600,1.3993897438049316,3.8918627965091957e-05,3.7079152586540817e-05,759.1819226902661,100.0
285,1.1914093494415283,756.5104929919186,3.324879174007031,759.1474226995871,747.0383782706853,100.0,4.491183185242485,0.1,0.008463144302368164,0.18189311027526855,0.045995925,0.0190414,756.4573066232143,-0.009108464300994634,7.551724869032339,100.0,9600,1.4002318382263184,3.084255664783609e-05,2.699767573783954e-05,759.1766602825401,100.0
286,1.1844193935394287,756.2154251584651,3.503729799741009,759.1445244891908,743.1242541945841,100.0,4.662352194379301,0.1,0.00858759880065918,0.18375563621520996,0.04741936,0.018381812,756.4331184767394,-0.009139845355869147,7.548776821310798,100.0,9600,1.4091606140136719,2.8514447088188857e-05,2.7970814265714732e-05,759.1794211794355,100.0
287,1.2023439407348633,756.423638120732,3.2056102659022017,759.1407260199993,747.0617211872332,100.0,3.973155802656253,0.1,0.008873701095581055,0.186309814453125,0.04387025,0.018709207,756.4321704411387,-0.009141260481405924,7.550858739518593,100.0,9600,1.4394128322601318,2.948432461863879e-05,3.128528654552066e-05,759.175634171141,100.0
288,1.2208638191223145,756.3393181245373,3.812134101083246,759.1408343012429,735.0160466696484,100.0,4.557199796275625,0.1,0.010115861892700195,0.1925504207611084,0.044833448,0.016494859,756.4228852094786,-0.009151952827295995,7.550014713839371,100.0,9600,1.4338645935058594,4.5335746263559614e-05,5.101410382623999e-05,759.1621259876484,100.0
289,1.1974132061004639,756.1285352907415,3.938228983025729,759.1513052089072,743.0789309933975,100.0,3.8933351087024257,0.1,0.008836746215820312,0.18544840812683105,0.041756395,0.01820603,756.3934502176049,-0.009175716296526311,7.548324283703473,100.0,9600,1.4391615390777588,4.750841681867671e-05,3.920839097052023e-05,759.1628281789049,100.0
290,1.3417620658874512,756.0454784898569,3.6978711106428617,759.1473118094899,743.081109030226,100.0,3.9990744823704114,0.1,0.008942127227783203,0.18388581275939941,0.048334017,0.022181487,756.3586530448301,-0.009170550067939159,7.547496116598729,100.0,9600,1.423417568206787,3.7871513966469614e-05,3.722434217749434e-05,759.1739738298808,100.0
291,1.1888642311096191,756.3414027973494,3.5879373849329435,759.1663453261267,743.0504561436917,100.0,4.481321398608933,0.1,0.008310317993164062,0.18404793739318848,0.043812722,0.01532574,756.356928020082,-0.009131255866303797,7.550035410800363,100.0,9600,1.4249086380004883,3.5941380860948174e-05,4.145957510991579e-05,759.1310212982567,100.0
292,1.2062904834747314,756.0497200644769,3.5123355301157297,759.1767564553364,747.0316094044595,100.0,3.7095133044249646,0.1,0.008882284164428711,0.18842148780822754,0.040854637,0.018338287,756.3262072245216,-0.00913154087054164,7.547118459129458,100.0,9600,1.4412193298339844,3.758716208488661e-05,3.54386832648839e-05,759.1523822156488,100.0
293,1.1767117977142334,756.0087817354912,3.545455590577526,759.1512216784329,747.0471279248698,100.0,3.902543367776534,0.1,0.008759021759033203,0.18479204177856445,0.041848626,0.017606363,756.2944646756187,-0.009122748693427178,7.546710584639906,100.0,9600,1.4604344367980957,3.361347608661585e-05,3.2284917134044786e-05,759.1422958323164,100.0
294,1.1839816570281982,756.5061041261112,3.5158882066462183,759.1278716788192,739.0749516356085,100.0,4.098732972849594,0.1,0.008605718612670898,0.18330097198486328,0.046758115,0.02030463,756.3156286206679,-0.009149942909409932,7.551683390423924,100.0,9600,1.4530835151672363,3.144459629104837e-05,3.285612332880728e-05,759.1870037061441,100.0
295,1.2172033786773682,756.5528030408959,3.575527957579894,759.1503980998481,743.0493536811879,100.0,3.962948380335435,0.1,0.008502721786499023,0.18722176551818848,0.04141444,0.013640328,756.3393460626908,-0.009099962276468433,7.552566704390198,100.0,9600,1.4563095569610596,3.24726663109131e-05,3.322217535064683e-05,759.1745118265636,100.0
296,1.2266263961791992,756.9686169930413,2.9480419348528684,759.1438207272055,747.0231718716552,100.0,4.688140584900039,0.1,0.008721113204956055,0.18577003479003906,0.044451147,0.017055312,756.4022731557259,-0.009108531143449039,7.556308135523218,100.0,9600,1.4514849185943604,2.5096866685863157e-05,2.4705500604308757e-05,759.1979265631098,100.0
297,1.249302864074707,756.2976365610056,3.6722109756680745,759.1586500286868,743.0322126095509,100.0,4.744530570195932,0.1,0.009031057357788086,0.18231582641601562,0.0430195,0.016374223,756.3918094962538,-0.009150355845768397,7.549599644154231,100.0,9600,1.4347870349884033,3.654472155291761e-05,4.216229409681392e-05,759.1348776358078,100.0
298,1.2280559539794922,756.5497417781467,3.278635485556639,759.1558766994383,747.0723221774742,100.0,5.0998234886266784,0.1,0.008749008178710938,0.18464183807373047,0.043781966,0.0164096,756.4076027244431,-0.009130555250171124,7.552119444749828,100.0,9600,1.4356606006622314,3.9502352501692524e-05,3.773359154953192e-05,759.2338152317736,100.0
299,1.370588779449463,756.0432270457222,3.7406659574398,759.1635124348729,747.0248082132678,100.0,3.1913020712482094,0.1,0.008710145950317383,0.16977953910827637,0.047671914,0.026108531,756.3711651565711,-0.009195963311275342,7.547054036688725,100.0,9600,1.4110805988311768,4.447143254657281e-05,4.113734400160552e-05,759.1679881114974,100.0
300,1.2025718688964844,756.1653453961177,3.9511306318165893,759.1492533760423,743.040404486927,100.0,4.30436070112586,0.1,0.008797883987426758,0.18117213249206543,0.045819387,0.01717747,756.3505831805257,-0.009224364787349787,7.548275635212651,100.0,9600,1.3865351676940918,3.9936037272227295e-05,3.585249910241033e-05,759.1718807049243,100.0
301,1.2189371585845947,756.7562105072199,3.3583713401825754,759.1453984957207,743.1142995526031,100.0,4.448901449972218,0.1,0.008812904357910156,0.18378186225891113,0.041244343,0.017040472,756.3911459131953,-0.0091484080107508,7.554184925322583,100.0,9600,1.4030649662017822,3.298727025195357e-05,3.676037354960552e-05,759.1640300704275,100.0
302,1.1800177097320557,755.9200210037685,3.2771810128313685,759.1391617604609,742.9762389599639,100.0,3.453939570889912,0.1,0.01029205322265625,0.18642520904541016,0.04843187,0.025125017,756.3440334222526,-0.009177004038622623,7.545822995961378,100.0,9600,1.4129910469055176,4.335030333583351e-05,3.431952283643957e-05,759.1848938902853,100.0
303,1.1896681785583496,756.0845212911187,3.877471436357222,759.1440650663671,735.0520091446556,100.0,3.949366356795128,0.1,0.008116960525512695,0.17026376724243164,0.042384643,0.015530392,756.3180822091392,-0.009197843303395247,7.547468823363271,100.0,9600,1.4129207134246826,3.8428845989174824e-05,3.794568723250225e-05,759.1572756965538,100.0
304,1.2168471813201904,756.5416426738608,3.3306496253555444,759.1389756900954,747.0392729468299,100.0,4.033973131527671,0.1,0.00929713249206543,0.18979096412658691,0.046430815,0.020270117,756.3404382556114,-0.009210409758295875,7.552039590241704,100.0,9600,1.4198784828186035,2.9383372805561358e-05,3.9222792415470784e-05,759.2004005606348,100.0
305,1.2154600620269775,755.744801336008,4.5880854810761935,759.1381731584474,739.0001797798989,100.0,4.426707805249805,0.1,0.008800983428955078,0.18587779998779297,0.04316403,0.018416222,756.2808745636511,-0.009263288601983803,7.544486711398018,100.0,9600,1.4245951175689697,6.217109891752573e-05,6.109872443166715e-05,759.1840145002724,100.0
306,1.2434585094451904,755.7459277479169,3.5025565252911117,759.1387690153692,747.0381838842594,100.0,3.8070764020105643,0.1,0.009157180786132812,0.18588781356811523,0.04656291,0.02060913,756.2273798820777,-0.009252982828961203,7.544080350504372,100.0,9600,1.4193408489227295,3.0862091140560014e-05,2.82234939543529e-05,759.1616394180627,100.0
307,1.2113871574401855,756.6200196848118,3.193922093708351,759.1280534239953,747.0414662438823,100.0,4.265500333740336,0.1,0.009156227111816406,0.18741059303283691,0.03682079,0.014563658,756.2666438623511,-0.009257895638203319,7.552825437695129,100.0,9600,1.423177719116211,3.1745166293450705e-05,3.205514720326975e-05,759.1721878530576,100.0
308,1.2054338455200195,756.4189219786227,3.203748033126066,759.1469981198629,747.0178148728342,100.0,3.661281842776646,0.1,0.008534908294677734,0.18608307838439941,0.03932718,0.017803568,756.2818716739782,-0.00918848564322814,7.550811514356771,100.0,9600,1.4455275535583496,3.0113168317844063e-05,3.421046339291506e-05,759.1563324510627,100.0
309,1.2115187644958496,757.1243557985741,3.1693366832600356,759.1287307077743,747.0320082776441,100.0,4.379706510500698,0.1,0.009032011032104492,0.1827991008758545,0.04710204,0.019318447,756.3661200864378,-0.00921845188324853,7.557864881450084,100.0,9600,1.433673620223999,2.6000409525582223e-05,2.474355601169317e-05,759.1471137768724,100.0
310,1.233849287033081,756.5481824786388,3.43067906258966,759.1686701290004,743.0512823287654,100.0,4.470427251783733,0.1,0.008708715438842773,0.18626642227172852,0.0468791,0.018887633,756.384326325658,-0.009145389967881482,7.552104610032118,100.0,9600,1.4274702072143555,3.3529209421508737e-05,3.370484503455017e-05,759.1480631265492,100.0
311,1.2021503448486328,756.6295234899699,3.1372357784010236,759.1365902580337,747.0390913133446,100.0,3.6395375682720514,0.1,0.00899958610534668,0.18594980239868164,0.0337642,0.013063879,756.4088460420892,-0.009165013869342147,7.553334986130658,100.0,9600,1.4471549987792969,2.9140212334002823e-05,2.8575069268735587e-05,759.1848719411369,100.0
312,1.2374153137207031,756.4580124802834,3.4172408393496307,759.1508795377447,742.9818004888702,100.0,3.710532011367862,0.1,0.008760213851928711,0.18883156776428223,0.046212927,0.021691658,756.4137626859086,-0.009216146420666139,7.5512005202460015,100.0,9600,1.4512066841125488,3.124095651284099e-05,3.232683909423927e-05,759.1578627480413,100.0
313,1.2737433910369873,756.7130795637446,3.50620370782325,759.1631260874001,743.0247540885158,100.0,4.02766569831107,0.1,0.00850677490234375,0.18726563453674316,0.044107925,0.018658992,756.4436943736922,-0.009163428120660632,7.5537532385460056,100.0,9600,1.4548163414001465,3.569800402165838e-05,3.528828454516106e-05,759.1649160488718,100.0
314,1.2204222679138184,756.2448605008154,4.047006084486899,759.1346334333819,743.0309175813759,100.0,3.5234058259458245,0.1,0.008857488632202148,0.18341279029846191,0.04565583,0.020140724,756.4238109864045,-0.009261871507838892,7.549071461825495,100.0,9600,1.4392924308776855,3.797149427191013e-05,3.737731172716471e-05,759.1806854041125,100.0
315,1.226053237915039,756.7912721661406,2.997316248938221,759.1450844674725,747.005363658097,100.0,3.859613718620196,0.1,0.009675025939941406,0.18840384483337402,0.04649935,0.01774599,756.4605571043783,-0.0092138934561057,7.554536106543895,100.0,9600,1.4322707653045654,2.4050988572550113e-05,3.124885276519742e-05,759.1843267034112,100.0
316,1.2057244777679443,756.2527073951879,3.8818561581259026,759.1582596711826,739.0393256900416,100.0,4.221097734341421,0.1,0.008960485458374023,0.18561959266662598,0.04789001,0.01953426,756.4397721334592,-0.009184067234849354,7.5491492660984845,100.0,9600,1.4433000087738037,4.119724715218179e-05,3.7047289485223986e-05,759.1725433839262,100.0
317,1.2137949466705322,757.0015170163437,2.946393009530514,759.151237112692,747.0512027951831,100.0,3.6702178358200537,0.1,0.008414745330810547,0.18584418296813965,0.046560537,0.020261953,756.4959466217476,-0.009194767782671089,7.556638565550661,100.0,9600,1.4205455780029297,2.3154769723399262e-05,2.7535982621428093e-05,759.1658891285824,100.0
318,1.2041747570037842,756.753609892818,3.1008162204279657,759.1334856215271,747.057917643558,100.0,3.6061250125248403,0.1,0.008501052856445312,0.18391728401184082,0.04110019,0.018724887,756.5217129488547,-0.009175047182392274,7.554158286150941,100.0,9600,1.4397544860839844,3.42900587529269e-05,3.493654786373959e-05,759.1821555986204,100.0
319,1.1890709400177002,757.384188772469,2.7625234729269144,759.1669807977942,751.0338538583178,100.0,3.854556563518193,0.1,0.008894920349121094,0.18407487869262695,0.0476121,0.022299182,756.6079605312161,-0.009118750235537374,7.5608812497644635,100.0,9600,1.4431633949279785,3.12827931947487e-05,1.9347734830382384e-05,759.1678224589074,100.0
320,1.2195179462432861,756.3774764923302,3.543063433400544,759.1381323502555,743.0250653835091,100.0,4.489470211348816,0.1,0.008800983428955078,0.18928289413452148,0.04416507,0.01819017,756.5849121273276,-0.009186189125453617,7.550397144207879,100.0,9600,1.4574954509735107,3.752508301428235e-05,3.659701760596284e-05,759.1657886243972,100.0
321,1.234339952468872,757.1331136294835,2.893597757229211,759.1364569853023,747.0563199549039,100.0,4.877478104057619,0.1,0.008915185928344727,0.18623614311218262,0.049016375,0.020721853,756.6397322775432,-0.009130327821422866,7.5579530055119095,100.0,9600,1.4509644508361816,2.5390255650343034e-05,2.362500000104712e-05,759.178780681707,100.0
322,1.2651011943817139,756.6708939082733,3.546215141122326,759.1557656897819,743.0199400081791,100.0,3.683622809656118,0.1,0.008333206176757812,0.1820390224456787,0.047015715,0.019704763,756.6428484406161,-0.009165945531694955,7.553334054468305,100.0,9600,1.4291625022888184,2.6237771618567916e-05,3.3272871546593375e-05,759.215635689753,100.0
323,1.1928114891052246,756.5481923481171,3.2790269669478933,759.1381687782753,743.0606392272578,100.0,3.9678991843647506,0.1,0.008816003799438477,0.18762779235839844,0.047226794,0.025074108,756.6333828313662,-0.009145238724378274,7.552104761275622,100.0,9600,1.4511401653289795,4.305358502186937e-05,3.775952658546303e-05,759.1391316154464,100.0
324,1.2082312107086182,756.8763952502254,3.3240936493313433,759.1501817900153,747.0051973276694,100.0,4.214184689473794,0.1,0.008928298950195312,0.18897175788879395,0.046412993,0.020578142,756.6576840732522,-0.009196445220492963,7.55538688811284,100.0,9600,1.4565696716308594,3.7020771875266416e-05,3.13678865567705e-05,759.1853139502742,100.0
325,1.2014272212982178,756.4220883345537,3.69160958604476,759.1442646754322,739.0548276537825,100.0,4.249217866637087,0.1,0.008704900741577148,0.184556245803833,0.04511898,0.019186815,756.6341244993823,-0.009157316137391564,7.550842683862609,100.0,9600,1.441014051437378,4.272541382794111e-05,4.0782725555565556e-05,759.1998036792074,100.0
326,1.2097928524017334,756.2945713115336,3.71226343344126,759.155834652205,743.0486735322843,100.0,3.3209057655660112,0.1,0.008792400360107422,0.1832261085510254,0.046656847,0.021448594,756.6001691805975,-0.009179405394752404,7.549987261271913,100.0,9600,1.4340784549713135,3.5645657443520714e-05,3.244646207827398e-05,759.1975613164642,100.0
327,1.1953177452087402,756.4599735084627,3.82962854663508,759.1393518533496,739.0250623510346,100.0,4.396679125542987,0.1,0.010265588760375977,0.21918892860412598,0.048120994,0.01817279,756.5861496133841,-0.009194968621946763,7.55122169804472,100.0,9600,1.7852284908294678,4.0401097017332375e-05,3.961276208689671e-05,759.1744359116675,100.0
328,1.1863579750061035,756.8387959941748,3.461320989368738,759.1403256829759,743.0300069442,100.0,4.969688758671218,0.1,0.009873628616333008,0.21689581871032715,0.047012843,0.017903175,756.6114142514632,-0.009157339027213851,7.555009327639453,100.0,9600,1.7627947330474854,3.154286686746396e-05,3.933631198824449e-05,759.1917906695678,100.0
329,1.1891772747039795,757.0055685492398,3.519724414854385,759.1442555742047,743.0574829666449,100.0,5.272571323625736,0.1,0.008507728576660156,0.1840517520904541,0.046663113,0.016372254,756.6508296812409,-0.009155023054949302,7.556678310278383,100.0,9600,1.4422402381896973,4.176770836674544e-05,3.53143110320823e-05,759.1778503220744,100.0
330,1.2455475330352783,756.2071794010734,3.504298930711951,759.1407486728743,743.056494633789,100.0,4.218783430186214,0.1,0.008857965469360352,0.18584942817687988,0.04641157,0.019566348,756.6064646532241,-0.009222789700307129,7.548693876966361,100.0,9600,1.4389598369598389,4.177703311638104e-05,3.61963988367618e-05,759.1974108013861,100.0
331,1.179126501083374,756.4133531016114,3.4584906685570287,759.1370029008883,746.9993081219561,100.0,4.052361347432661,0.1,0.008727788925170898,0.18529915809631348,0.049147706,0.022045415,756.5871534980628,-0.009244093668038291,7.550755906331962,100.0,9600,1.4714851379394531,3.201276988386579e-05,3.6102322150180915e-05,759.1803420272515,100.0
332,1.199615478515625,756.4185993236648,3.688838813888876,759.1464045541013,743.0907338589241,100.0,3.3877400139280307,0.1,0.008889198303222656,0.1821894645690918,0.047089394,0.020490028,756.570298080623,-0.009193426381327563,7.550806573618672,100.0,9600,1.4437823295593262,3.622153530333856e-05,3.150573442138637e-05,759.190237358925,100.0
333,1.173595666885376,756.4593503013912,3.9634710708087786,759.1570769390918,739.0156462173517,100.0,4.528445242808386,0.1,0.00854182243347168,0.18211698532104492,0.0461987,0.018254329,756.5592033026999,-0.009199858074623599,7.551216808592042,100.0,9600,1.4452240467071533,4.287516432942e-05,4.2714389734253426e-05,759.1582865270223,100.0
334,1.210646629333496,756.7105281150178,3.147709774108782,759.1391537778306,747.0399254567727,100.0,3.939525920627334,0.1,0.008662700653076172,0.18279409408569336,0.04492774,0.01846188,756.5743357839317,-0.009188476044380745,7.554144857288954,100.0,9600,1.436577320098877,2.7229521005962453e-05,2.6201894874161757e-05,759.1538688523641,100.0
335,1.2311055660247803,756.3785881123514,3.818558261668818,759.1535840856266,739.0515917889131,100.0,4.005658451379256,0.1,0.008497238159179688,0.1832115650177002,0.044976283,0.018055938,756.5547610167737,-0.009173548832121315,7.550409784501213,100.0,9600,1.4356403350830078,3.752381907515065e-05,4.26268492700737e-05,759.1666849083349,100.0
336,1.1861276626586914,756.9651302437572,3.6576623441854115,759.1576422000838,735.0391058486706,100.0,3.5849401197751862,0.1,0.00843954086303711,0.18255972862243652,0.045188952,0.021284787,756.595797939472,-0.009141949315105626,7.556691384018227,100.0,9600,1.40977144241333,3.633150403167904e-05,3.6424523574306105e-05,759.1346579272014,100.0
337,1.2043616771697998,756.6681554902085,3.0326777733095187,759.1308469220213,747.0815625328346,100.0,3.911907171836403,0.1,0.008739709854125977,0.18590950965881348,0.04192235,0.017277416,756.6030336945457,-0.00919711692057569,7.553302883079424,100.0,9600,1.431145429611206,2.972911670628504e-05,3.337688134105619e-05,759.1922126093441,100.0
338,1.305410623550415,756.3300289903991,4.026242313932704,759.1357244039556,735.0058605444791,100.0,4.036224678071714,0.1,0.008995532989501953,0.18603301048278809,0.045862112,0.016926937,756.575733224131,-0.00924172275697514,7.549924943909692,100.0,9600,1.4058985710144043,3.950995479014983e-05,3.6107945464924116e-05,759.196254665801,100.0
339,1.3553895950317383,756.8742943297017,3.2222427856176274,759.1498872064384,747.0014311771322,100.0,3.7482146571940373,0.1,0.008690357208251953,0.18537664413452148,0.044982795,0.023104219,756.605589334688,-0.009218173191865959,7.555365160141467,100.0,9600,1.3736157417297363,2.5838196731304355e-05,2.6304636243549342e-05,759.1786782977039,100.0
340,1.2193832397460938,757.336886151688,2.7035711426177254,759.1760703789681,747.0423504081032,100.0,3.8479543888669063,0.1,0.008910894393920898,0.18442177772521973,0.035914317,0.017401718,756.6787190163881,-0.009173956851142395,7.560409376482191,100.0,9600,1.3725526332855225,2.5028219784674098e-05,2.4652143287063892e-05,759.1578374293254,100.0
341,1.1977519989013672,757.0838974168149,3.008316452383257,759.146316518041,747.0318861976326,100.0,3.948005104797953,0.1,0.008426427841186523,0.17193841934204102,0.048621327,0.020319227,756.7192368564307,-0.009204798204053516,7.557461868462613,100.0,9600,1.3513212203979492,2.4364132580367995e-05,2.197775224418779e-05,759.1825900377696,100.0
342,1.2014997005462646,756.9620428097072,2.649293505119469,759.145761261213,751.0342487896721,100.0,4.0651782957039115,0.1,0.008722066879272461,0.18196845054626465,0.049581423,0.025495337,756.7435174517584,-0.009174324761439562,7.556242341905228,100.0,9600,1.3568975925445557,2.12643122076736e-05,2.1569355293899142e-05,759.175235603495,100.0
343,1.2198011875152588,756.1623848671139,3.947583273332645,759.1355290059784,739.0427771674382,100.0,3.524654056960503,0.1,0.00907444953918457,0.1865983009338379,0.047730304,0.023200221,756.685404193294,-0.009252368504142454,7.5486642981625245,100.0,9600,1.3857758045196533,3.5207916001988626e-05,3.561999519303915e-05,759.1798109800075,100.0
344,1.2014968395233154,756.7504201947658,3.2587837163302145,759.1419567100615,747.044365080155,100.0,5.187362396393641,0.1,0.008619546890258789,0.1842026710510254,0.04803358,0.01805974,756.6919057934412,-0.009207260396977718,7.554126072936356,100.0,9600,1.370985984802246,2.896489767883987e-05,2.7879598328920824e-05,759.1741696645361,100.0
345,1.2108962535858154,756.7001773817343,3.4060554097193734,759.140402147888,747.0191431097627,100.0,4.524773180001865,0.1,0.00881195068359375,0.18276548385620117,0.04875174,0.018596012,756.6927329522705,-0.009292306638613884,7.553624360028053,100.0,9600,1.3713152408599854,2.7912552036947587e-05,2.8234164235838516e-05,759.1617313464484,100.0
346,1.2729215621948242,756.4145113179579,3.6415848975885297,759.1363611000725,743.0522405229193,100.0,3.55609352377624,0.1,0.00854039192199707,0.18340229988098145,0.045932546,0.021625469,756.6649107888392,-0.009234070071743391,7.550765929928256,100.0,9600,1.378352165222168,3.51613382525616e-05,4.229639013785201e-05,759.2007828765267,100.0
347,1.2399218082427979,756.7106474960395,3.5975834094821715,759.1601676964922,747.0277673489458,100.0,4.709356160879487,0.1,0.008910417556762695,0.18326783180236816,0.044046413,0.0154651,756.6694844595592,-0.009187998867702498,7.553728667798964,100.0,9600,1.3731160163879395,4.4754722130122937e-05,3.4127721777466015e-05,759.1786092609491,100.0
