Iter | Sampling Pol | Evaluation Pol | Best (Sampled) 
   0 -48.68 -48.41 -100000000.00 
   1 -49.23 -48.01 -48.68 
   2 -48.52 -47.76 -48.68 
   3 -49.45 -44.97 -48.52 
   4 -49.48 -44.43 -48.52 
   5 -48.78 -44.00 -48.52 
   6 -48.26 -43.78 -48.52 
   7 -47.41 -43.29 -48.26 
   8 -47.96 -42.85 -47.41 
   9 -48.78 -43.74 -47.41 
  10 -48.76 -43.00 -47.41 
  11 -46.99 -42.54 -47.41 
  12 -48.78 -43.70 -46.99 
  13 -48.27 -43.41 -46.99 
  14 -47.59 -43.47 -46.99 
  15 -47.82 -43.22 -46.99 
  16 -47.55 -43.00 -46.99 
  17 -46.44 -42.52 -46.99 
  18 -47.75 -43.26 -46.44 
  19 -47.90 -43.33 -46.44 
  20 -47.92 -43.58 -46.44 
  21 -46.86 -42.13 -46.44 
  22 -47.48 -41.65 -46.44 
  23 -47.49 -41.70 -46.44 
  24 -45.80 -40.95 -46.44 
  25 -45.26 -41.91 -45.80 
  26 -45.49 -41.72 -45.26 
  27 -45.70 -41.51 -45.26 
  28 -45.97 -41.02 -45.26 
  29 -45.73 -41.55 -45.26 
  30 -44.54 -41.91 -45.26 
  31 -45.85 -42.67 -44.54 
  32 -44.52 -42.43 -44.54 
  33 -45.68 -41.72 -44.52 
  34 -43.20 -41.50 -44.52 
  35 -45.05 -41.07 -43.20 
  36 -43.54 -39.88 -43.20 
  37 -42.30 -39.08 -43.20 
  38 -42.91 -37.92 -42.30 
  39 -41.85 -37.64 -42.30 
  40 -42.32 -38.29 -41.85 
  41 -40.56 -34.56 -41.85 
  42 -41.66 -32.86 -40.56 
  43 -42.60 -31.13 -40.56 
  44 -39.16 -28.99 -40.56 
  45 -40.33 -28.26 -39.16 
  46 -37.08 -29.43 -39.16 
  47 -40.56 -26.94 -37.08 
  48 -39.01 -26.06 -37.08 
  49 -40.08 -24.09 -37.08 
  50 -40.53 -24.88 -37.08 
  51 -36.70 -24.03 -37.08 
  52 -37.48 -23.75 -36.70 
  53 -36.92 -22.30 -36.70 
  54 -33.43 -20.87 -36.70 
  55 -33.27 -21.28 -33.43 
  56 -29.46 -17.61 -33.27 
  57 -29.55 -16.13 -29.46 
  58 -26.97 -19.34 -29.46 
  59 -25.42 -21.42 -26.97 
  60 -22.93 -17.03 -25.42 
  61 -20.38 -19.12 -22.93 
  62 -15.77 -18.27 -20.38 
  63 -16.83 -20.70 -15.77 
  64 -10.12 -26.74 -15.77 
  65 -7.27 -23.91 -10.12 
  66 -1.35 -21.49 -7.27 
  67  6.77 -21.90 -1.35 
  68  5.54 -22.41  6.77 
  69 12.59 -21.94  6.77 
  70 23.43 -21.43 12.59 
  71 23.61 -19.51 23.43 
  72 28.62 -18.55 23.61 
  73 46.37 -16.51 28.62 
  74 55.16 -16.41 46.37 
  75 67.91 -15.34 55.16 
  76 111.27 -16.07 67.91 
  77 124.38 -15.11 111.27 
  78 132.15 -14.64 124.38 
  79 171.62 -13.85 132.15 
  80 176.91 -14.33 171.62 
  81 192.19 -12.28 176.91 
  82 209.73 -4.43 192.19 
  83 236.33  0.97 209.73 
  84 242.10  3.65 236.33 
  85 277.66 12.25 242.10 
  86 284.18 37.98 277.66 
  87 295.61 20.46 284.18 
  88 311.41 27.38 295.61 
  89 307.45 22.18 311.41 
  90 350.35 11.01 311.41 
  91 333.26 27.33 350.35 
  92 332.19 36.41 350.35 
  93 329.92 59.98 350.35 
  94 337.35 43.21 350.35 
  95 332.21 57.60 350.35 
  96 341.69 63.61 350.35 
  97 337.75 92.99 350.35 
  98 363.02 83.75 350.35 
  99 350.46 57.93 363.02 
 100 354.99 70.11 363.02 
 101 361.52 55.96 363.02 
 102 355.96 54.11 363.02 
 103 370.24 41.02 363.02 
 104 362.50 16.47 370.24 
 105 359.29  3.86 370.24 
 106 366.45 18.96 370.24 
 107 384.10 22.05 370.24 
 108 373.61 32.82 384.10 
 109 352.86 35.62 384.10 
 110 368.71 58.49 384.10 
 111 361.16 32.90 384.10 
 112 371.98 74.59 384.10 
 113 370.73 71.87 384.10 
 114 358.96 66.12 384.10 
 115 376.26 68.64 384.10 
 116 367.73 89.71 384.10 
 117 365.26 131.65 384.10 
 118 372.59 108.46 384.10 
 119 373.46 213.06 384.10 
 120 366.10 130.35 384.10 
 121 372.01 159.35 384.10 
 122 371.80 142.71 384.10 
 123 359.23 154.05 384.10 
 124 375.52 159.05 384.10 
 125 364.63 208.02 384.10 
 126 385.80 297.79 384.10 
 127 376.13 311.17 385.80 
 128 386.56 336.10 385.80 
 129 384.33 365.53 386.56 
 130 385.36 358.61 386.56 
 131 380.84 357.16 386.56 
 132 381.51 349.23 386.56 
 133 380.24 348.76 386.56 
 134 374.81 343.53 386.56 
 135 386.83 322.00 386.56 
 136 386.42 331.85 386.83 
 137 384.28 336.16 386.83 
 138 376.48 340.84 386.83 
 139 387.04 326.79 386.83 
 140 378.83 382.83 387.04 
 141 375.38 378.66 387.04 
 142 371.46 380.73 387.04 
 143 384.86 385.67 387.04 
 144 376.84 379.74 387.04 
 145 384.76 380.75 387.04 
 146 376.74 382.62 387.04 
 147 376.36 383.63 387.04 
 148 383.29 383.32 387.04 
 149 388.67 384.93 387.04 
 150 376.16 384.69 388.67 
 151 387.92 385.71 388.67 
 152 387.37 385.28 388.67 
 153 388.21 386.06 388.67 
 154 389.34 388.98 388.67 
 155 379.49 387.94 389.34 
 156 395.50 386.28 389.34 
 157 375.97 387.14 395.50 
 158 384.27 387.46 395.50 
 159 391.34 384.85 395.50 
 160 397.85 387.46 395.50 
 161 387.08 385.56 397.85 
 162 395.78 391.86 397.85 
 163 399.62 390.95 397.85 
 164 385.83 379.47 399.62 
 165 393.87 373.30 399.62 
 166 401.79 378.61 399.62 
 167 392.39 363.16 401.79 
 168 386.21 319.39 401.79 
 169 399.60 219.40 401.79 
 170 399.84 310.53 401.79 
 171 399.24 326.01 401.79 
 172 411.83 369.87 401.79 
 173 393.43 375.64 411.83 
 174 395.66 365.75 411.83 
 175 399.64 359.12 411.83 
 176 400.16 351.53 411.83 
 177 401.04 360.22 411.83 
 178 407.41 334.61 411.83 
 179 399.41 352.56 411.83 
 180 391.55 374.53 411.83 
 181 394.47 375.71 411.83 
 182 408.36 329.54 411.83 
 183 400.60 358.87 411.83 
 184 383.40 360.34 411.83 
 185 411.88 341.19 411.83 
 186 402.53 320.78 411.88 
 187 397.62 329.21 411.88 
 188 412.08 324.87 411.88 
 189 422.83 334.99 412.08 
 190 408.34 249.16 422.83 
 191 405.67 216.86 422.83 
 192 401.74 203.96 422.83 
 193 407.75 231.91 422.83 
 194 397.75 249.48 422.83 
 195 407.94 149.51 422.83 
 196 402.28 293.68 422.83 
 197 411.84 242.96 422.83 
 198 405.97 174.21 422.83 
 199 412.58 143.19 422.83 
 200 409.96 282.87 422.83 
 201 388.08 283.38 422.83 
 202 394.27 327.99 422.83 
 203 406.52 340.86 422.83 
 204 408.84 190.30 422.83 
 205 408.92 151.37 422.83 
 206 419.20 362.42 422.83 
 207 397.92 371.00 422.83 
 208 406.01 384.07 422.83 
 209 398.94 383.74 422.83 
 210 403.92 387.32 422.83 
 211 408.99 378.34 422.83 
 212 413.63 390.63 422.83 
 213 410.88 396.66 422.83 
 214 426.27 397.27 422.83 
 215 430.00 393.27 426.27 
 216 435.10 385.60 430.00 
 217 424.78 278.60 435.10 
 218 404.57 241.32 435.10 
 219 413.43 156.40 435.10 
 220 412.10 152.47 435.10 
 221 411.87 161.85 435.10 
 222 409.99 153.49 435.10 
 223 410.93 210.56 435.10 
 224 407.76 386.27 435.10 
 225 403.69 384.23 435.10 
 226 423.09 196.98 435.10 
 227 413.55 171.84 435.10 
 228 406.49 262.06 435.10 
 229 419.54 346.15 435.10 
 230 420.98 161.14 435.10 
 231 418.91 118.31 435.10 
 232 410.86 352.37 435.10 
 233 415.03 174.39 435.10 
 234 401.40 141.75 435.10 
 235 431.55 150.43 435.10 
 236 388.71 104.56 435.10 
 237 420.28 140.00 435.10 
 238 412.70 174.29 435.10 
 239 393.78 206.18 435.10 
 240 407.81 219.15 435.10 
 241 421.84 232.30 435.10 
 242 395.92 248.21 435.10 
 243 409.01 250.03 435.10 
 244 402.49 300.04 435.10 
 245 425.80 308.40 435.10 
 246 423.70 397.11 435.10 
 247 411.86 248.51 435.10 
 248 424.62 263.65 435.10 
 249 403.68 253.07 435.10 
 250 411.15 240.31 435.10 
 251 420.57 243.11 435.10 
 252 414.91 253.59 435.10 
 253 426.14 274.31 435.10 
 254 412.15 228.45 435.10 
 255 415.29 156.11 435.10 
 256 420.43 142.46 435.10 
 257 409.86 186.17 435.10 
 258 414.18 178.88 435.10 
 259 414.16 188.08 435.10 
 260 410.43 228.71 435.10 
 261 400.74 244.68 435.10 
 262 417.78 224.20 435.10 
 263 401.06 210.81 435.10 
 264 412.94 205.69 435.10 
 265 429.51 207.45 435.10 
 266 418.56 195.58 435.10 
 267 415.96 164.74 435.10 
 268 425.83 127.62 435.10 
 269 420.08 149.04 435.10 
 270 422.26 198.29 435.10 
 271 414.69 240.81 435.10 
 272 430.16 224.56 435.10 
 273 416.07 229.07 435.10 
 274 418.72 212.38 435.10 
 275 407.34 210.63 435.10 
 276 417.20 208.77 435.10 
 277 443.25 193.79 435.10 
 278 448.99 155.94 443.25 
 279 414.24 86.28 448.99 
 280 428.67 72.95 448.99 
 281 429.75 84.84 448.99 
 282 425.33 99.86 448.99 
 283 413.50 88.46 448.99 
 284 423.37 82.89 448.99 
 285 418.80 130.93 448.99 
 286 442.25 104.59 448.99 
 287 409.15 110.26 448.99 
 288 426.35 92.10 448.99 
 289 408.90 156.57 448.99 
 290 412.28 183.04 448.99 
 291 418.06 175.87 448.99 
 292 416.52 205.12 448.99 
 293 416.25 156.25 448.99 
 294 411.99 160.06 448.99 
 295 443.30 183.77 448.99 
 296 427.96 176.79 448.99 
 297 422.76 234.59 448.99 
 298 422.08 170.65 448.99 
 299 422.69 150.20 448.99 
 300 418.12 222.99 448.99 
 301 419.96 234.52 448.99 
 302 388.40 135.01 448.99 
 303 412.68 144.60 448.99 
 304 416.92 122.30 448.99 
 305 409.70 116.93 448.99 
 306 426.98 91.36 448.99 
 307 417.81 98.56 448.99 
 308 438.85 99.44 448.99 
 309 423.12 78.89 448.99 
 310 423.80 97.85 448.99 
 311 415.63 96.24 448.99 
 312 418.34 97.54 448.99 
 313 418.19 74.78 448.99 
 314 430.58 109.09 448.99 
 315 426.14 96.22 448.99 
 316 423.88 100.51 448.99 
 317 416.36 91.67 448.99 
 318 428.72 85.44 448.99 
 319 414.91 69.85 448.99 
 320 403.10 67.60 448.99 
 321 419.16 81.09 448.99 
 322 432.81 63.44 448.99 
 323 438.29 76.86 448.99 
 324 427.24 96.68 448.99 
 325 419.47 79.22 448.99 
 326 429.68 74.34 448.99 
 327 413.99 62.32 448.99 
 328 415.66 64.44 448.99 
 329 420.07 66.90 448.99 
 330 434.88 76.21 448.99 
 331 426.67 101.66 448.99 
 332 418.09 147.67 448.99 
 333 418.43 166.12 448.99 
 334 427.60 195.69 448.99 
 335 430.11 314.14 448.99 
 336 425.45 339.98 448.99 
 337 427.38 332.64 448.99 
 338 418.23 345.55 448.99 
 339 426.14 298.56 448.99 
 340 426.38 286.15 448.99 
 341 416.54 283.37 448.99 
 342 419.53 270.79 448.99 
 343 402.73 272.79 448.99 
 344 406.53 221.28 448.99 
 345 416.53 220.01 448.99 
 346 428.16 243.91 448.99 
 347 428.35 222.82 448.99 
 348 433.86 205.81 448.99 
 349 433.76 365.77 448.99 
 350 430.75 262.85 448.99 
 351 428.59 264.11 448.99 
 352 423.99 334.20 448.99 
 353 421.36 325.51 448.99 
 354 438.24 258.79 448.99 
 355 429.78 196.93 448.99 
 356 423.50 160.98 448.99 
 357 419.98 154.95 448.99 
 358 439.75 314.50 448.99 
 359 426.90 374.51 448.99 
 360 420.50 374.18 448.99 
 361 425.25 375.65 448.99 
 362 435.97 388.52 448.99 
 363 438.82 384.31 448.99 
 364 423.82 377.08 448.99 
 365 414.52 380.89 448.99 
 366 404.63 386.72 448.99 
 367 432.80 385.42 448.99 
 368 421.49 391.66 448.99 
 369 423.18 398.05 448.99 
 370 433.66 375.75 448.99 
 371 444.64 372.62 448.99 
 372 432.77 390.57 448.99 
 373 418.26 387.72 448.99 
 374 427.01 388.18 448.99 
 375 432.24 379.39 448.99 
 376 433.97 374.63 448.99 
 377 437.50 308.79 448.99 
 378 416.26 322.88 448.99 
 379 439.95 369.06 448.99 
 380 422.47 375.82 448.99 
 381 440.57 364.74 448.99 
 382 437.01 340.46 448.99 
 383 444.90 320.39 448.99 
 384 420.87 342.88 448.99 
 385 435.08 343.68 448.99 
 386 425.61 338.78 448.99 
 387 422.98 346.45 448.99 
 388 425.19 367.21 448.99 
 389 442.82 372.51 448.99 
 390 434.62 388.75 448.99 
 391 422.22 389.19 448.99 
 392 419.41 388.72 448.99 
 393 436.06 346.86 448.99 
 394 426.65 352.24 448.99 
 395 425.44 279.99 448.99 
 396 422.55 238.88 448.99 
 397 427.66 223.22 448.99 
 398 432.26 174.75 448.99 
 399 421.11 146.82 448.99 
 400 419.15 122.17 448.99 
 401 408.08 100.63 448.99 
 402 443.14 93.40 448.99 
 403 430.79 99.97 448.99 
 404 447.63 88.66 448.99 
 405 430.26 87.30 448.99 
 406 420.03 96.30 448.99 
 407 426.00 93.92 448.99 
 408 446.14 97.45 448.99 
 409 433.81 80.19 448.99 
 410 419.74 58.30 448.99 
 411 425.02 88.74 448.99 
 412 419.95 111.60 448.99 
 413 440.58 95.79 448.99 
 414 436.58 88.69 448.99 
 415 433.58 96.19 448.99 
 416 433.47 99.74 448.99 
 417 420.97 107.95 448.99 
 418 426.86 83.61 448.99 
 419 422.04 49.35 448.99 
 420 429.92 69.48 448.99 
 421 442.99 57.16 448.99 
 422 414.37 56.08 448.99 
 423 439.22 81.05 448.99 
 424 438.25 77.60 448.99 
 425 436.04 125.99 448.99 
 426 432.86 176.27 448.99 
 427 432.24 269.16 448.99 
 428 431.11 266.68 448.99 
 429 423.23 319.85 448.99 
 430 425.70 383.46 448.99 
 431 437.88 371.74 448.99 
 432 441.60 387.02 448.99 
 433 444.20 360.32 448.99 
 434 446.39 331.83 448.99 
 435 434.12 372.99 448.99 
 436 422.58 386.43 448.99 
 437 434.94 386.47 448.99 
 438 437.51 387.38 448.99 
 439 429.19 387.14 448.99 
 440 443.25 376.41 448.99 
 441 429.79 376.20 448.99 
 442 424.36 355.08 448.99 
 443 412.66 388.36 448.99 
 444 445.04 346.44 448.99 
 445 442.46 356.05 448.99 
 446 429.33 333.05 448.99 
 447 428.71 298.95 448.99 
 448 438.32 332.02 448.99 
 449 434.32 295.52 448.99 
 450 429.11 217.13 448.99 
 451 456.95 242.61 448.99 
 452 443.93 300.62 456.95 
 453 425.58 304.37 456.95 
 454 430.47 310.14 456.95 
 455 424.36 322.95 456.95 
 456 449.68 330.30 456.95 
 457 445.05 322.69 456.95 
 458 437.55 316.33 456.95 
 459 441.75 331.98 456.95 
 460 445.23 351.00 456.95 
 461 434.95 343.74 456.95 
 462 458.07 249.96 456.95 
 463 440.34 328.27 458.07 
 464 443.97 383.77 458.07 
 465 448.47 385.16 458.07 
 466 445.43 389.29 458.07 
 467 437.36 391.90 458.07 
 468 404.61 394.23 458.07 
 469 426.63 393.93 458.07 
 470 433.74 395.41 458.07 
 471 432.03 399.07 458.07 
 472 435.55 399.60 458.07 
 473 429.49 397.91 458.07 
 474 430.17 399.17 458.07 
 475 426.70 396.24 458.07 
 476 457.80 394.35 458.07 
 477 465.09 395.90 458.07 
 478 440.48 404.03 465.09 
 479 447.63 394.90 465.09 
 480 440.13 394.92 465.09 
 481 450.48 395.27 465.09 
 482 436.73 396.11 465.09 
 483 434.93 398.16 465.09 
 484 437.61 398.15 465.09 
 485 434.18 393.24 465.09 
 486 446.77 396.02 465.09 
 487 425.38 394.40 465.09 
 488 431.61 394.52 465.09 
 489 439.55 396.14 465.09 
 490 449.98 406.59 465.09 
 491 446.61 400.92 465.09 
 492 423.95 395.24 465.09 
 493 436.53 389.53 465.09 
 494 434.15 389.73 465.09 
 495 441.52 393.88 465.09 
 496 472.28 394.72 465.09 
 497 452.59 390.85 472.28 
 498 445.37 396.51 472.28 
 499 448.54 394.41 472.28 
 500 465.35 399.39 472.28 
 501 439.04 393.90 472.28 
 502 459.89 390.95 472.28 
 503 435.12 387.84 472.28 
 504 473.85 385.61 472.28 
 505 427.73 388.26 473.85 
 506 442.18 386.42 473.85 
 507 460.20 378.34 473.85 
 508 450.21 345.14 473.85 
 509 422.73 298.80 473.85 
 510 440.35 336.05 473.85 
 511 441.39 383.34 473.85 
 512 439.46 389.85 473.85 
 513 439.11 392.40 473.85 
 514 472.20 396.64 473.85 
 515 440.40 398.30 473.85 
 516 439.75 402.43 473.85 
 517 452.53 414.85 473.85 
 518 432.85 410.50 473.85 
 519 454.71 395.63 473.85 
 520 437.26 395.50 473.85 
 521 450.26 393.61 473.85 
 522 447.10 393.68 473.85 
 523 453.84 393.88 473.85 
 524 456.78 395.80 473.85 
 525 436.62 395.83 473.85 
 526 444.51 402.49 473.85 
 527 427.33 401.99 473.85 
 528 426.13 404.15 473.85 
 529 429.05 401.85 473.85 
 530 437.97 401.90 473.85 
 531 449.81 401.40 473.85 
 532 443.62 400.35 473.85 
 533 465.14 393.81 473.85 
 534 442.90 392.47 473.85 
 535 444.90 391.02 473.85 
 536 435.04 390.95 473.85 
 537 452.12 392.06 473.85 
 538 430.60 392.04 473.85 
 539 450.81 393.13 473.85 
 540 446.08 392.30 473.85 
 541 440.59 393.52 473.85 
 542 444.50 402.54 473.85 
 543 462.27 401.97 473.85 
 544 441.64 410.18 473.85 
 545 456.19 411.41 473.85 
 546 463.69 409.85 473.85 
 547 449.86 414.03 473.85 
 548 455.03 416.87 473.85 
 549 444.04 413.26 473.85 
 550 436.57 414.15 473.85 
 551 459.36 417.30 473.85 
 552 453.27 411.19 473.85 
 553 430.28 411.85 473.85 
 554 440.85 412.57 473.85 
 555 433.29 413.55 473.85 
 556 439.58 416.04 473.85 
 557 443.74 411.94 473.85 
 558 464.88 396.27 473.85 
 559 458.98 385.46 473.85 
 560 447.45 375.79 473.85 
 561 414.60 383.64 473.85 
 562 460.15 392.65 473.85 
 563 434.47 392.63 473.85 
 564 448.73 386.45 473.85 
 565 465.13 397.97 473.85 
 566 449.50 400.90 473.85 
 567 465.75 396.76 473.85 
 568 430.56 395.55 473.85 
 569 446.94 396.34 473.85 
 570 444.29 395.91 473.85 
 571 460.87 388.34 473.85 
 572 464.07 388.91 473.85 
 573 451.12 331.12 473.85 
 574 448.63 373.69 473.85 
 575 448.09 369.68 473.85 
 576 429.29 367.15 473.85 
 577 427.61 391.29 473.85 
 578 406.73 402.00 473.85 
 579 436.51 348.88 473.85 
 580 464.94 363.97 473.85 
 581 456.25 382.17 473.85 
 582 443.51 402.62 473.85 
 583 440.39 413.37 473.85 
 584 467.00 416.27 473.85 
 585 459.45 401.50 473.85 
 586 435.12 387.95 473.85 
 587 453.58 369.45 473.85 
 588 431.17 315.77 473.85 
 589 457.78 326.07 473.85 
 590 457.06 307.61 473.85 
 591 448.73 378.70 473.85 
 592 444.67 353.42 473.85 
 593 448.04 358.70 473.85 
 594 460.77 402.55 473.85 
 595 438.43 410.14 473.85 
 596 443.03 408.37 473.85 
 597 420.52 410.05 473.85 
 598 433.23 416.40 473.85 
 599 436.17 421.43 473.85 
 600 476.73 426.27 473.85 
 601 447.29 427.02 476.73 
 602 441.25 424.31 476.73 
 603 454.17 429.46 476.73 
 604 441.34 427.89 476.73 
 605 409.17 405.67 476.73 
 606 449.89 366.14 476.73 
 607 443.26 338.05 476.73 
 608 431.87 332.98 476.73 
 609 449.21 258.57 476.73 
 610 434.32 219.16 476.73 
 611 426.08 201.67 476.73 
 612 447.19 271.20 476.73 
 613 447.56 299.82 476.73 
 614 454.86 305.61 476.73 
 615 431.45 317.82 476.73 
 616 437.59 357.78 476.73 
 617 468.02 303.17 476.73 
 618 447.53 349.21 476.73 
 619 438.41 304.86 476.73 
 620 435.86 308.14 476.73 
 621 443.58 319.86 476.73 
 622 452.47 330.96 476.73 
 623 446.25 310.17 476.73 
 624 441.73 337.81 476.73 
 625 458.55 332.51 476.73 
 626 456.06 386.78 476.73 
 627 441.93 385.27 476.73 
 628 469.81 386.32 476.73 
 629 454.63 406.66 476.73 
 630 438.08 408.26 476.73 
 631 437.61 377.99 476.73 
 632 440.90 351.16 476.73 
 633 464.34 352.92 476.73 
 634 454.58 357.77 476.73 
 635 461.19 350.35 476.73 
 636 431.87 324.69 476.73 
 637 436.86 326.79 476.73 
 638 475.46 318.08 476.73 
 639 460.30 322.68 476.73 
 640 444.79 306.41 476.73 
 641 441.98 280.40 476.73 
 642 457.63 315.89 476.73 
 643 431.43 357.73 476.73 
 644 442.72 391.93 476.73 
 645 437.05 342.24 476.73 
 646 432.39 369.72 476.73 
 647 448.69 396.84 476.73 
 648 455.04 392.26 476.73 
 649 425.22 389.86 476.73 
 650 466.05 389.69 476.73 
 651 442.88 376.83 476.73 
 652 434.41 341.42 476.73 
 653 420.59 390.22 476.73 
 654 447.28 400.92 476.73 
 655 421.54 390.84 476.73 
 656 445.57 399.02 476.73 
 657 452.90 390.48 476.73 
 658 456.80 403.99 476.73 
 659 434.75 409.70 476.73 
 660 449.47 423.43 476.73 
 661 444.15 399.48 476.73 
 662 450.97 414.77 476.73 
 663 450.55 423.41 476.73 
 664 432.63 423.78 476.73 
 665 454.92 419.98 476.73 
 666 454.06 417.26 476.73 
 667 438.42 419.33 476.73 
 668 447.20 413.56 476.73 
 669 426.15 414.42 476.73 
 670 454.06 417.63 476.73 
 671 467.79 420.88 476.73 
 672 449.56 421.15 476.73 
 673 473.57 423.20 476.73 
 674 459.61 421.59 476.73 
 675 460.77 422.64 476.73 
 676 456.05 421.58 476.73 
 677 462.38 418.17 476.73 
 678 475.28 395.54 476.73 
 679 446.41 392.47 476.73 
 680 447.74 392.52 476.73 
 681 431.06 402.46 476.73 
 682 445.31 415.47 476.73 
 683 459.40 410.55 476.73 
 684 449.74 415.39 476.73 
 685 439.57 418.16 476.73 
 686 437.70 420.69 476.73 
 687 445.70 425.58 476.73 
 688 431.35 426.57 476.73 
 689 448.59 427.05 476.73 
 690 442.66 414.48 476.73 
 691 452.75 416.53 476.73 
 692 470.25 418.93 476.73 
 693 450.98 417.12 476.73 
 694 444.83 411.78 476.73 
 695 451.92 417.47 476.73 
 696 449.00 418.89 476.73 
 697 470.99 404.48 476.73 
 698 458.47 401.61 476.73 
 699 464.04 402.04 476.73 
 700 466.02 403.65 476.73 
 701 447.84 404.68 476.73 
 702 426.75 405.27 476.73 
 703 449.88 404.76 476.73 
 704 449.45 401.29 476.73 
 705 450.48 410.26 476.73 
 701 465.19 412.00 -100000000.00 
 702 450.39 399.19 465.19 
 703 447.11 418.70 465.19 
 704 452.35 422.28 465.19 
 705 434.87 398.74 465.19 
 706 439.91 391.57 465.19 
 707 439.28 390.84 465.19 
 708 461.29 379.48 465.19 
 709 449.09 361.31 465.19 
 710 446.49 391.04 465.19 
 711 466.61 391.04 465.19 
 712 464.57 390.12 466.61 
 713 444.54 390.64 466.61 
 714 467.93 389.68 466.61 
 715 454.54 390.39 467.93 
 716 448.11 390.38 467.93 
 717 436.24 389.90 467.93 
 718 453.34 389.63 467.93 
 719 455.61 388.92 467.93 
 720 462.41 389.65 467.93 
 721 436.84 389.76 467.93 
 722 461.42 389.12 467.93 
 723 434.25 388.69 467.93 
 724 436.44 388.66 467.93 
 725 463.23 334.68 467.93 
 726 453.50 298.94 467.93 
 727 455.18 335.05 467.93 
 728 440.71 294.80 467.93 
 729 445.24 297.44 467.93 
 730 446.15 316.49 467.93 
 731 447.39 319.51 467.93 
 732 445.14 326.84 467.93 
 733 447.19 343.91 467.93 
 734 443.51 389.48 467.93 
 735 446.40 385.01 467.93 
 736 457.61 376.71 467.93 
 737 436.02 385.62 467.93 
 738 473.12 357.10 467.93 
 739 465.71 371.38 473.12 
 740 446.39 374.50 473.12 
 741 465.94 368.02 473.12 
 742 465.38 362.87 473.12 
 743 482.22 329.04 473.12 
 744 431.51 360.47 482.22 
 745 456.12 332.56 482.22 
 746 458.09 317.92 482.22 
 747 450.80 336.07 482.22 
 748 450.03 319.24 482.22 
 749 480.55 320.81 482.22 
 750 446.86 280.56 482.22 
 751 454.31 306.30 482.22 
 752 474.30 302.54 482.22 
 753 446.57 362.25 482.22 
 754 454.91 387.88 482.22 
 755 464.45 370.91 482.22 
 756 447.20 290.05 482.22 
 757 456.24 387.72 482.22 
 758 447.01 388.03 482.22 
 759 458.25 387.77 482.22 
 760 455.24 387.57 482.22 
 761 444.70 377.40 482.22 
 762 464.56 286.41 482.22 
 763 440.92 282.20 482.22 
 764 444.35 276.45 482.22 
 765 466.65 334.55 482.22 
 766 451.43 268.84 482.22 
 767 455.35 288.33 482.22 
 768 469.91 302.80 482.22 
 769 441.41 367.73 482.22 
 770 473.32 388.31 482.22 
 771 448.43 380.36 482.22 
 772 452.93 388.41 482.22 
 773 438.12 366.52 482.22 
 774 464.20 353.95 482.22 
 775 490.88 369.48 482.22 
 776 472.43 368.27 490.88 
 777 461.02 386.34 490.88 
 778 460.22 369.72 490.88 
 779 461.90 328.42 490.88 
 780 463.51 335.76 490.88 
 781 450.36 327.43 490.88 
 782 455.61 302.29 490.88 
 783 438.16 333.47 490.88 
 784 479.98 338.21 490.88 
 785 464.17 339.68 490.88 
 786 443.76 381.34 490.88 
 787 440.56 335.36 490.88 
 788 475.25 321.00 490.88 
 789 468.66 366.90 490.88 
 790 435.05 343.07 490.88 
 791 492.85 294.25 490.88 
 792 448.10 276.59 492.85 
 793 463.08 277.12 492.85 
 794 463.81 295.15 492.85 
 795 457.30 369.51 492.85 
 796 451.13 381.34 492.85 
 797 443.35 361.13 492.85 
 798 433.93 334.63 492.85 
 799 445.74 348.25 492.85 
 800 441.73 348.72 492.85 
 801 441.46 348.70 492.85 
 802 461.40 313.66 492.85 
 803 482.58 300.83 492.85 
 804 487.28 349.86 492.85 
 805 453.01 340.56 492.85 
 806 472.44 318.94 492.85 
 807 468.19 286.95 492.85 
 808 493.14 265.60 492.85 
 809 441.74 274.27 493.14 
 810 451.89 371.45 493.14 
 811 467.89 387.24 493.14 
 812 444.26 384.60 493.14 
 813 466.66 381.19 493.14 
 814 473.48 383.01 493.14 
 815 469.45 379.48 493.14 
 816 488.61 380.82 493.14 
 817 454.01 388.34 493.14 
 818 443.34 388.51 493.14 
 819 437.79 388.72 493.14 
 820 453.29 389.26 493.14 
 821 462.29 389.26 493.14 
 822 459.26 390.45 493.14 
 823 485.60 392.03 493.14 
 824 449.47 394.53 493.14 
 825 458.99 394.71 493.14 
 826 458.85 413.27 493.14 
 827 483.56 413.86 493.14 
 828 470.25 413.19 493.14 
 829 465.34 407.43 493.14 
 830 474.37 401.41 493.14 
 831 457.88 411.46 493.14 
 832 450.13 400.10 493.14 
 833 464.09 396.07 493.14 
 834 477.72 395.60 493.14 
 835 458.26 398.28 493.14 
 836 500.23 406.20 493.14 
 837 457.64 397.35 500.23 
 838 477.52 397.07 500.23 
 839 448.50 394.77 500.23 
 840 479.18 395.88 500.23 
 841 457.81 397.30 500.23 
 842 446.52 404.14 500.23 
 843 466.93 397.73 500.23 
 844 472.10 403.60 500.23 
 845 457.89 397.80 500.23 
 846 461.77 397.25 500.23 
 847 444.65 399.84 500.23 
 848 458.31 403.57 500.23 
 849 478.87 404.83 500.23 
 850 462.45 408.23 500.23 
 851 470.31 405.43 500.23 
 852 458.72 404.04 500.23 
 853 463.43 397.26 500.23 
 854 469.85 397.52 500.23 
 855 454.30 395.83 500.23 
 856 442.71 395.07 500.23 
 857 469.83 395.74 500.23 
 858 447.11 394.73 500.23 
 859 452.18 394.57 500.23 
 860 456.76 394.70 500.23 
 861 453.04 393.17 500.23 
 862 477.68 399.09 500.23 
 863 461.11 399.89 500.23 
 864 464.11 397.06 500.23 
 865 460.20 395.54 500.23 
 866 472.30 392.75 500.23 
 867 474.96 391.95 500.23 
 868 477.20 392.12 500.23 
 869 450.70 390.51 500.23 
 870 474.75 391.35 500.23 
 871 464.43 395.69 500.23 
 872 465.49 393.36 500.23 
 873 476.12 395.56 500.23 
 874 454.97 402.86 500.23 
 875 468.40 401.01 500.23 
 876 474.78 399.96 500.23 
 877 486.46 397.84 500.23 
 878 472.44 402.08 500.23 
 879 483.06 408.31 500.23 
 880 476.77 407.54 500.23 
 881 444.68 432.29 500.23 
 882 452.04 420.75 500.23 
 883 471.43 403.14 500.23 
 884 464.59 404.22 500.23 
 885 457.86 413.52 500.23 
 886 457.37 412.55 500.23 
 887 458.57 418.42 500.23 
 888 454.92 402.16 500.23 
 889 467.67 405.64 500.23 
 890 476.11 396.62 500.23 
 891 485.64 390.59 500.23 
 892 458.35 395.57 500.23 
 893 469.15 393.28 500.23 
 894 473.13 375.00 500.23 
 895 472.11 374.31 500.23 
 896 457.71 386.02 500.23 
 897 479.20 394.06 500.23 
 898 461.45 394.57 500.23 
 899 459.76 377.29 500.23 
 900 460.22 372.09 500.23 
 901 469.11 367.60 500.23 
 902 446.83 365.32 500.23 
 903 454.25 384.35 500.23 
 904 458.13 344.77 500.23 
 905 468.99 337.15 500.23 
 906 456.27 311.26 500.23 
 907 465.89 342.15 500.23 
 908 461.00 381.60 500.23 
 909 460.35 342.65 500.23 
 910 444.97 316.08 500.23 
 911 461.06 334.80 500.23 
 912 452.65 361.10 500.23 
 913 461.25 330.62 500.23 
 914 471.63 291.39 500.23 
 915 474.20 255.98 500.23 
 916 493.77 258.26 500.23 
 917 468.94 262.29 500.23 
 918 478.20 246.90 500.23 
 919 470.68 251.41 500.23 
 920 478.50 249.46 500.23 
 921 457.99 286.82 500.23 
 922 478.66 280.28 500.23 
 923 453.19 275.84 500.23 
 924 441.33 328.60 500.23 
 925 462.64 341.45 500.23 
 926 452.46 332.61 500.23 
 927 469.65 347.25 500.23 
 928 467.11 380.40 500.23 
 929 456.31 372.79 500.23 
 930 482.64 395.29 500.23 
 931 488.31 395.80 500.23 
 932 486.08 391.58 500.23 
 933 458.72 391.74 500.23 
 934 470.97 390.39 500.23 
 935 458.43 393.72 500.23 
 936 514.75 345.16 500.23 
 937 450.61 390.10 514.75 
 938 458.95 384.06 514.75 
 939 462.90 390.40 514.75 
 940 438.65 388.74 514.75 
 941 468.44 381.16 514.75 
 942 459.13 383.44 514.75 
 943 436.46 386.20 514.75 
 944 454.58 382.74 514.75 
 945 448.63 383.70 514.75 
 946 476.70 389.74 514.75 
 947 474.96 389.84 514.75 
 948 470.49 387.40 514.75 
 949 471.75 385.30 514.75 
 950 453.50 378.75 514.75 
 951 465.07 373.97 514.75 
 952 476.07 380.13 514.75 
 953 461.40 380.58 514.75 
 954 490.54 380.56 514.75 
 955 469.54 375.96 514.75 
 956 469.83 379.36 514.75 
 957 468.63 379.86 514.75 
 958 474.67 379.83 514.75 
 959 453.96 377.03 514.75 
 960 449.33 386.64 514.75 
 961 453.05 386.81 514.75 
 962 440.06 385.79 514.75 
 963 458.28 387.54 514.75 
 964 454.69 389.43 514.75 
 965 465.01 389.29 514.75 
 966 485.97 389.25 514.75 
 967 436.21 389.55 514.75 
 968 453.52 389.96 514.75 
 969 473.26 390.11 514.75 
 970 465.81 389.86 514.75 
 971 477.77 389.47 514.75 
 972 455.37 388.39 514.75 
 973 482.75 388.70 514.75 
 974 465.45 388.84 514.75 
 975 451.43 357.90 514.75 
 976 461.24 353.36 514.75 
 977 461.51 328.54 514.75 
 978 487.38 370.10 514.75 
 979 491.69 283.49 514.75 
 980 462.43 288.85 514.75 
 981 477.98 298.17 514.75 
 982 475.63 288.83 514.75 
 983 474.39 299.16 514.75 
 984 446.05 276.43 514.75 
 985 481.25 301.17 514.75 
 986 453.11 264.28 514.75 
 987 490.04 264.27 514.75 
 988 456.73 247.07 514.75 
 989 466.38 226.63 514.75 
 990 456.13 202.57 514.75 
 991 446.03 205.13 514.75 
 992 457.26 214.31 514.75 
 993 472.03 205.67 514.75 
 994 480.13 230.03 514.75 
 995 454.00 237.61 514.75 
 996 485.94 278.24 514.75 
 997 474.55 304.03 514.75 
 998 456.62 334.46 514.75 
 999 457.91 343.95 514.75 
1000 473.00 336.45 514.75 
1001 456.41 321.03 514.75 
1002 455.72 301.65 514.75 
1003 451.43 301.20 514.75 
1004 457.55 289.07 514.75 
1005 483.64 305.60 514.75 
1006 464.32 327.61 514.75 
1007 480.33 371.05 514.75 
1008 467.96 375.68 514.75 
1009 480.30 371.10 514.75 
1010 467.53 386.09 514.75 
1011 461.47 390.69 514.75 
1012 455.93 397.25 514.75 
1013 468.35 396.95 514.75 
1014 456.69 392.40 514.75 
1015 478.98 391.93 514.75 
1016 478.97 391.30 514.75 
1017 470.98 394.78 514.75 
1018 465.11 401.92 514.75 
1019 483.72 366.03 514.75 
1020 459.79 374.58 514.75 
1021 437.90 376.43 514.75 
1022 467.15 374.83 514.75 
1023 483.57 384.17 514.75 
1024 494.18 355.10 514.75 
1025 467.53 337.81 514.75 
1026 448.64 306.13 514.75 
1027 465.76 311.46 514.75 
1028 478.40 325.93 514.75 
1029 457.38 344.61 514.75 
1030 453.35 359.10 514.75 
1031 471.41 343.60 514.75 
1032 459.25 308.90 514.75 
1033 458.26 332.33 514.75 
1034 467.88 402.11 514.75 
1035 471.14 395.86 514.75 
1036 465.73 375.38 514.75 
1037 485.88 369.42 514.75 
1038 458.52 387.82 514.75 
1039 463.93 408.41 514.75 
1040 460.45 412.14 514.75 
1041 462.33 401.62 514.75 
1042 448.87 404.54 514.75 
1043 458.58 404.94 514.75 
1044 440.65 411.80 514.75 
1045 438.94 408.45 514.75 
1046 455.78 416.21 514.75 
1047 457.08 408.71 514.75 
1048 462.76 412.57 514.75 
1049 480.38 410.93 514.75 
1050 480.81 408.86 514.75 
1051 466.96 412.80 514.75 
1052 474.80 418.14 514.75 
1053 471.09 411.68 514.75 
1054 459.30 410.35 514.75 
1055 464.82 411.15 514.75 
1056 475.68 410.41 514.75 
1057 463.11 409.17 514.75 
1058 448.27 408.91 514.75 
1059 479.04 411.17 514.75 
1060 452.56 420.98 514.75 
1061 471.71 426.54 514.75 
1062 464.33 431.34 514.75 
1063 475.51 435.18 514.75 
1064 482.49 429.52 514.75 
1065 467.13 430.25 514.75 
1066 467.94 436.15 514.75 
1067 428.00 463.37 514.75 
1068 472.28 456.72 514.75 
1069 461.33 450.64 514.75 
1070 447.14 441.83 514.75 
1071 467.51 454.99 514.75 
1072 486.42 472.99 514.75 
1073 478.39 464.03 514.75 
1074 456.70 466.89 514.75 
1075 461.68 482.11 514.75 
1076 468.76 460.04 514.75 
1077 476.86 447.96 514.75 
1078 476.19 455.78 514.75 
1079 456.62 475.35 514.75 
1080 473.03 465.73 514.75 
1081 457.79 469.58 514.75 
1082 502.69 466.19 514.75 
1083 475.62 454.43 514.75 
1084 479.03 458.71 514.75 
1085 454.88 448.35 514.75 
1086 472.23 431.14 514.75 
1087 475.24 461.50 514.75 
1088 465.35 468.58 514.75 
1089 470.05 468.61 514.75 
1090 475.18 469.66 514.75 
1091 469.96 462.76 514.75 
1092 449.49 463.80 514.75 
1093 459.35 468.62 514.75 
1094 487.94 472.01 514.75 
1095 464.10 467.56 514.75 
1096 454.76 471.43 514.75 
1097 451.88 482.90 514.75 
1098 462.34 468.84 514.75 
1099 456.57 473.90 514.75 
1100 458.19 474.98 514.75 
1101 452.99 474.76 514.75 
1102 431.74 480.80 514.75 
1103 483.62 472.51 514.75 
1104 469.19 472.60 514.75 
1105 483.70 472.90 514.75 
1106 457.31 477.44 514.75 
1107 468.98 479.60 514.75 
1108 469.67 478.55 514.75 
1109 486.91 472.18 514.75 
1110 477.60 468.44 514.75 
1111 470.78 466.41 514.75 
1112 463.80 464.62 514.75 
1113 458.35 462.09 514.75 
1114 470.32 463.33 514.75 
1115 477.48 467.70 514.75 
1116 476.97 469.75 514.75 
1117 457.64 469.33 514.75 
1118 457.37 467.08 514.75 
1119 465.39 466.61 514.75 
1120 449.65 459.55 514.75 
1121 453.29 457.29 514.75 
1122 476.83 452.39 514.75 
1123 436.04 452.34 514.75 
1124 471.75 456.44 514.75 
1125 481.30 457.18 514.75 
1126 469.29 456.41 514.75 
1127 474.32 457.91 514.75 
1128 469.68 455.80 514.75 
1129 456.12 457.05 514.75 
1130 453.41 452.73 514.75 
1131 470.42 452.73 514.75 
1132 475.00 454.01 514.75 
1133 491.94 453.41 514.75 
1134 466.31 448.33 514.75 
1135 490.95 456.40 514.75 
1136 451.12 451.04 514.75 
1137 464.64 455.64 514.75 
1138 476.92 456.91 514.75 
1139 479.51 460.05 514.75 
1140 465.25 460.87 514.75 
1141 488.05 462.92 514.75 
1142 461.45 464.75 514.75 
1143 447.37 464.51 514.75 
1144 434.05 462.44 514.75 
1145 477.93 463.76 514.75 
1146 487.06 464.82 514.75 
1147 472.86 462.08 514.75 
1148 454.39 462.58 514.75 
1149 464.97 462.30 514.75 
1150 470.89 462.10 514.75 
1151 459.77 464.18 514.75 
1152 507.05 463.91 514.75 
1153 470.02 470.66 514.75 
1154 462.56 470.50 514.75 
1155 462.48 470.97 514.75 
1156 451.65 467.40 514.75 
1157 480.83 467.16 514.75 
1158 476.07 463.64 514.75 
1159 477.21 467.47 514.75 
1160 478.56 469.23 514.75 
1161 471.35 470.81 514.75 
1162 470.78 471.49 514.75 
1163 495.01 474.36 514.75 
1164 478.38 469.29 514.75 
1165 477.39 463.15 514.75 
1166 483.04 463.85 514.75 
1167 486.55 463.10 514.75 
1168 477.48 464.30 514.75 
1169 414.30 464.26 514.75 
1170 452.15 467.84 514.75 
1171 462.69 464.55 514.75 
1172 463.74 465.84 514.75 
1173 461.01 463.33 514.75 
1174 459.94 460.15 514.75 
1175 464.83 460.10 514.75 
1176 455.22 457.53 514.75 
1177 488.04 463.49 514.75 
1178 494.64 462.26 514.75 
1179 479.13 459.13 514.75 
1180 467.62 459.12 514.75 
1181 465.89 457.01 514.75 
1182 492.40 459.53 514.75 
1183 456.79 458.27 514.75 
1184 461.10 459.83 514.75 
1185 463.06 450.42 514.75 
1186 462.93 453.55 514.75 
1187 463.99 459.82 514.75 
1188 451.19 457.47 514.75 
1189 457.59 462.11 514.75 
1190 466.48 461.40 514.75 
1191 479.26 463.20 514.75 
1192 479.95 464.58 514.75 
1193 443.38 464.77 514.75 
1194 455.24 479.06 514.75 
1195 475.58 477.60 514.75 
1196 470.27 471.90 514.75 
1197 512.54 470.13 514.75 
1198 481.69 473.87 514.75 
1199 475.46 468.85 514.75 
1200 480.35 472.04 514.75 
1201 490.33 473.05 514.75 
1202 469.03 475.57 514.75 
1203 490.16 477.30 514.75 
1204 460.47 479.81 514.75 
1205 499.73 473.33 514.75 
1206 458.27 471.36 514.75 
1207 471.32 475.84 514.75 
1208 489.72 477.05 514.75 
1209 474.70 476.84 514.75 
1210 447.44 477.82 514.75 
1211 459.71 477.81 514.75 
1212 470.35 478.79 514.75 
1213 457.25 477.87 514.75 
1214 465.56 479.81 514.75 
1215 489.95 477.99 514.75 
1216 461.36 478.36 514.75 
1217 464.09 478.82 514.75 
1218 468.68 475.61 514.75 
1219 459.74 473.11 514.75 
1220 490.13 470.74 514.75 
1221 450.89 461.39 514.75 
1222 479.67 466.71 514.75 
1223 471.74 470.06 514.75 
1224 472.28 468.11 514.75 
1225 483.66 468.39 514.75 
1226 463.40 463.57 514.75 
1227 458.53 464.49 514.75 
1228 461.90 464.80 514.75 
1229 453.57 464.59 514.75 
1230 444.03 464.12 514.75 
1231 452.80 464.72 514.75 
1232 476.13 455.10 514.75 
1233 462.94 454.35 514.75 
1234 492.02 462.18 514.75 
1235 467.16 450.52 514.75 
1236 465.71 449.98 514.75 
1237 445.02 449.66 514.75 
1238 474.72 450.61 514.75 
1239 460.60 450.15 514.75 
1240 479.43 450.86 514.75 
1241 468.53 450.94 514.75 
1242 459.91 451.68 514.75 
1243 478.05 451.37 514.75 
1244 479.75 451.84 514.75 
1245 461.40 451.06 514.75 
1246 477.86 446.74 514.75 
1247 482.42 441.70 514.75 
1248 479.12 433.86 514.75 
1249 484.02 432.57 514.75 
1250 477.01 430.76 514.75 
1251 474.50 431.50 514.75 
1252 484.73 431.72 514.75 
1253 473.07 432.43 514.75 
1254 448.69 435.44 514.75 
1255 455.39 440.81 514.75 
1256 470.85 443.62 514.75 
1257 468.67 437.80 514.75 
1258 468.37 439.87 514.75 
1259 484.92 443.19 514.75 
1260 473.59 441.44 514.75 
1261 474.64 448.49 514.75 
1262 438.97 447.22 514.75 
1263 482.04 441.20 514.75 
1264 445.67 442.47 514.75 
1265 472.12 444.49 514.75 
1266 495.79 446.06 514.75 
1267 470.98 446.52 514.75 
1268 477.99 455.88 514.75 
1269 445.21 458.17 514.75 
1270 462.68 467.45 514.75 
1271 475.92 469.26 514.75 
1272 489.12 471.78 514.75 
1273 484.79 472.08 514.75 
1274 464.66 461.64 514.75 
1275 466.01 458.83 514.75 
1276 461.68 465.70 514.75 
1277 453.74 466.51 514.75 
1278 443.95 465.82 514.75 
1279 427.81 469.91 514.75 
1280 467.05 470.13 514.75 
1281 494.39 466.85 514.75 
1282 473.69 466.36 514.75 
1283 464.69 457.88 514.75 
1284 471.99 455.34 514.75 
1285 509.41 454.81 514.75 
1286 481.09 455.10 514.75 
1287 457.89 455.40 514.75 
1288 478.65 454.87 514.75 
1289 455.00 454.30 514.75 
1290 480.77 462.27 514.75 
1291 481.70 451.06 514.75 
1292 481.15 452.04 514.75 
1293 466.98 453.52 514.75 
1294 476.26 451.47 514.75 
1295 486.06 454.53 514.75 
1296 456.51 464.06 514.75 
1297 473.60 457.14 514.75 
1298 444.82 463.30 514.75 
1299 464.27 467.41 514.75 
1300 459.66 464.53 514.75 
1301 500.57 464.08 514.75 
1302 473.86 452.63 514.75 
1303 479.93 451.56 514.75 
1304 482.29 456.16 514.75 
1305 477.34 457.40 514.75 
1306 435.98 455.49 514.75 
1307 475.36 456.47 514.75 
1308 464.92 456.00 514.75 
1309 456.33 463.06 514.75 
1310 473.25 468.65 514.75 
1311 463.44 471.21 514.75 
1312 448.55 473.50 514.75 
1313 475.03 474.77 514.75 
1314 470.40 473.01 514.75 
1315 474.01 473.23 514.75 
1316 459.02 445.89 514.75 
1317 457.74 474.45 514.75 
1318 494.63 476.01 514.75 
1319 460.45 437.46 514.75 
1320 463.30 433.65 514.75 
1321 449.72 436.43 514.75 
1322 476.53 438.04 514.75 
1323 470.71 430.92 514.75 
1324 469.87 437.89 514.75 
1325 451.43 438.23 514.75 
1326 487.97 428.32 514.75 
1327 476.12 431.45 514.75 
1328 462.27 429.28 514.75 
1329 498.64 426.97 514.75 
1330 478.36 424.12 514.75 
1331 459.91 427.60 514.75 
1332 462.38 426.89 514.75 
1333 467.67 425.81 514.75 
1334 489.68 426.07 514.75 
1335 479.45 424.82 514.75 
1336 489.43 423.91 514.75 
1337 460.42 425.24 514.75 
1338 451.38 427.29 514.75 
1339 509.54 426.36 514.75 
1340 493.36 430.97 514.75 
1341 461.55 428.77 514.75 
1342 462.14 428.63 514.75 
1343 484.77 429.90 514.75 
1344 453.05 436.06 514.75 
1345 473.89 433.97 514.75 
1346 456.36 436.18 514.75 
1347 453.61 433.19 514.75 
1348 478.60 433.18 514.75 
1349 479.09 438.12 514.75 
1350 449.87 439.90 514.75 
1351 480.27 447.21 514.75 
1352 466.12 440.00 514.75 
1353 474.31 435.27 514.75 
1354 444.91 433.43 514.75 
1355 485.92 430.13 514.75 
1356 437.75 425.31 514.75 
1357 479.47 423.67 514.75 
1358 480.70 424.16 514.75 
1359 485.21 424.10 514.75 
1360 470.54 422.04 514.75 
1361 472.08 432.23 514.75 
1362 469.86 426.14 514.75 
1363 468.76 426.54 514.75 
1364 483.39 429.65 514.75 
1365 451.25 427.70 514.75 
1366 482.12 420.46 514.75 
1367 494.24 421.44 514.75 
1368 467.90 424.68 514.75 
1369 474.68 423.38 514.75 
1370 447.54 419.03 514.75 
1371 468.57 419.63 514.75 
1372 496.59 415.39 514.75 
1373 473.84 415.29 514.75 
1374 492.35 416.89 514.75 
1375 499.36 422.31 514.75 
1376 478.51 430.35 514.75 
1377 477.84 426.01 514.75 
1378 489.36 422.43 514.75 
1379 503.98 412.49 514.75 
1380 478.78 414.98 514.75 
1381 473.16 415.01 514.75 
1382 464.47 414.71 514.75 
1383 481.32 417.34 514.75 
1384 477.62 415.31 514.75 
1385 475.89 419.91 514.75 
1386 468.66 422.97 514.75 
1387 470.22 418.07 514.75 
1388 479.22 411.51 514.75 
1389 455.30 408.87 514.75 
1390 465.88 408.84 514.75 
1391 469.38 405.56 514.75 
1392 472.53 408.88 514.75 
1393 495.37 403.70 514.75 
1394 474.28 402.97 514.75 
1395 461.08 402.10 514.75 
1396 473.77 398.85 514.75 
1397 463.64 396.48 514.75 
1398 501.83 394.79 514.75 
1399 483.84 391.77 514.75 
1400 478.68 391.40 514.75 
1401 484.89 392.43 514.75 
1402 462.76 392.22 514.75 
1403 452.54 392.46 514.75 
1404 478.43 395.53 514.75 
1405 482.97 395.04 514.75 
1406 479.03 398.52 514.75 
1407 477.40 405.12 514.75 
1408 473.67 410.76 514.75 
1409 468.71 405.66 514.75 
1410 480.95 406.68 514.75 
1411 449.65 403.22 514.75 
1412 480.03 401.92 514.75 
1413 458.41 399.86 514.75 
1414 485.82 397.64 514.75 
1415 473.66 402.88 514.75 
1416 456.70 399.15 514.75 
1417 490.99 403.73 514.75 
1418 448.17 396.62 514.75 
1419 489.45 395.28 514.75 
1420 476.19 397.42 514.75 
1421 472.04 402.03 514.75 
1422 468.91 395.36 514.75 
1423 486.17 390.00 514.75 
1424 502.61 385.68 514.75 
1425 457.96 380.28 514.75 
1426 478.59 373.33 514.75 
1427 458.49 379.77 514.75 
1428 454.58 380.02 514.75 
1429 480.67 365.95 514.75 
1430 457.79 366.48 514.75 
1431 469.79 365.70 514.75 
1432 472.18 361.10 514.75 
1433 467.10 345.22 514.75 
1434 468.25 356.40 514.75 
1435 457.75 355.08 514.75 
1436 468.39 358.20 514.75 
1437 487.48 336.43 514.75 
1438 471.16 357.04 514.75 
1439 485.70 354.68 514.75 
1440 447.22 351.42 514.75 
1441 487.82 324.11 514.75 
1442 483.93 319.79 514.75 
1443 463.59 323.24 514.75 
1444 454.73 329.39 514.75 
1445 458.01 349.68 514.75 
1446 482.84 352.73 514.75 
1447 478.68 340.79 514.75 
1448 480.49 352.14 514.75 
1449 450.34 341.24 514.75 
1450 477.40 340.00 514.75 
1451 486.56 314.43 514.75 
1452 478.32 324.83 514.75 
1453 500.79 337.95 514.75 
1454 477.81 333.69 514.75 
1455 488.80 333.70 514.75 
1456 474.50 336.98 514.75 
1457 475.55 312.49 514.75 
1458 468.01 306.20 514.75 
1459 483.92 320.13 514.75 
1460 488.53 355.04 514.75 
1461 454.79 350.00 514.75 
1462 469.65 348.74 514.75 
1463 483.27 320.66 514.75 
1464 491.80 300.68 514.75 
1465 485.78 322.13 514.75 
1466 474.48 336.59 514.75 
1467 464.26 352.03 514.75 
1468 484.52 353.31 514.75 
1469 474.59 359.18 514.75 
1470 464.61 368.79 514.75 
1471 488.14 373.61 514.75 
1472 499.23 375.38 514.75 
1473 479.69 378.71 514.75 
1474 454.77 379.48 514.75 
1475 478.43 382.26 514.75 
1476 476.60 384.58 514.75 
1477 462.65 394.49 514.75 
1478 480.51 397.50 514.75 
1479 468.40 399.73 514.75 
1480 473.50 400.78 514.75 
1481 512.49 398.53 514.75 
1482 455.32 396.74 514.75 
1483 494.44 391.45 514.75 
1484 477.82 400.60 514.75 
1485 488.81 405.91 514.75 
1486 461.74 404.69 514.75 
1487 485.82 408.93 514.75 
1488 457.38 403.91 514.75 
1489 487.12 406.69 514.75 
1490 481.72 410.29 514.75 
1491 483.74 412.66 514.75 
1492 507.00 418.23 514.75 
1493 459.22 416.66 514.75 
1494 471.69 423.16 514.75 
1495 468.10 422.73 514.75 
1496 481.81 420.71 514.75 
1497 464.17 425.60 514.75 
1498 492.46 422.81 514.75 
1499 491.72 422.44 514.75 
1500 486.80 429.96 514.75 
1501 466.60 436.04 514.75 
1502 502.62 444.51 514.75 
1503 485.96 441.13 514.75 
1504 477.09 448.60 514.75 
1505 486.51 448.37 514.75 
1506 490.12 450.07 514.75 
1507 494.32 451.14 514.75 
1508 487.72 449.12 514.75 
1509 490.13 459.01 514.75 
1510 496.09 452.89 514.75 
1511 488.74 449.00 514.75 
1512 484.14 439.37 514.75 
1513 460.90 434.05 514.75 
1514 480.04 437.87 514.75 
1515 477.11 446.83 514.75 
1516 489.60 447.10 514.75 
1517 507.14 443.23 514.75 
1518 479.16 434.85 514.75 
1519 482.89 413.04 514.75 
1520 470.23 397.46 514.75 
1521 463.12 400.45 514.75 
1522 500.12 401.96 514.75 
1523 469.42 407.31 514.75 
1524 498.06 400.39 514.75 
1525 467.78 416.18 514.75 
1526 480.92 407.57 514.75 
1527 474.05 409.13 514.75 
1528 451.69 391.69 514.75 
1529 475.26 390.40 514.75 
1530 465.85 393.70 514.75 
1531 472.27 386.04 514.75 
1532 474.05 394.81 514.75 
1533 473.01 397.11 514.75 
1534 462.74 394.27 514.75 
1535 472.80 395.88 514.75 
1536 470.14 390.24 514.75 
1537 491.36 391.56 514.75 
1538 486.41 398.29 514.75 
1539 452.62 394.69 514.75 
1540 467.14 407.08 514.75 
1541 496.26 404.20 514.75 
1542 474.92 405.04 514.75 
1543 484.41 405.01 514.75 
1544 485.80 404.59 514.75 
1545 491.38 402.74 514.75 
1546 470.53 404.76 514.75 
1547 470.60 397.39 514.75 
1548 488.37 396.38 514.75 
1549 502.05 407.01 514.75 
1550 478.56 390.00 514.75 
1551 494.84 396.13 514.75 
1552 494.32 390.24 514.75 
1553 451.62 405.51 514.75 
1554 475.69 407.11 514.75 
1555 463.32 410.53 514.75 
1556 478.21 403.76 514.75 
1557 504.50 397.63 514.75 
1558 505.98 402.51 514.75 
1559 489.73 394.32 514.75 
1560 475.14 375.21 514.75 
1561 475.63 395.79 514.75 
1562 471.34 389.20 514.75 
1563 479.56 379.27 514.75 
1564 479.08 378.06 514.75 
1565 477.28 355.97 514.75 
1566 489.86 354.42 514.75 
1567 482.41 355.97 514.75 
1568 496.93 367.62 514.75 
1569 481.59 367.11 514.75 
1570 481.19 379.31 514.75 
1571 488.49 386.25 514.75 
1572 498.19 390.59 514.75 
1573 458.06 387.02 514.75 
1574 480.56 384.71 514.75 
1575 491.92 385.47 514.75 
1576 521.74 388.54 514.75 
1577 460.78 392.84 521.74 
1578 505.89 393.86 521.74 
1579 501.93 394.12 521.74 
1580 482.73 392.09 521.74 
1581 455.40 383.65 521.74 
1582 527.73 381.08 521.74 
1583 471.24 385.44 527.73 
1584 464.95 386.76 527.73 
1585 471.40 384.20 527.73 
1586 499.30 384.47 527.73 
1587 488.93 387.52 527.73 
1588 505.32 379.65 527.73 
1589 496.80 378.44 527.73 
1590 472.35 374.09 527.73 
1591 457.19 383.81 527.73 
1592 495.45 393.94 527.73 
1593 497.75 402.96 527.73 
1594 491.08 397.58 527.73 
1595 446.63 404.96 527.73 
1596 446.37 399.08 527.73 
1597 480.28 404.93 527.73 
1598 440.94 411.88 527.73 
1599 477.51 396.75 527.73 
1600 469.41 413.64 527.73 
1601 478.37 418.62 527.73 
1602 462.84 429.49 527.73 
1603 482.90 429.59 527.73 
1604 479.58 430.82 527.73 
1605 508.21 438.42 527.73 
1606 503.28 435.60 527.73 
1607 482.68 441.48 527.73 
1608 463.65 447.57 527.73 
1609 485.40 440.36 527.73 
1610 477.45 437.61 527.73 
1611 483.77 429.56 527.73 
1612 502.65 430.14 527.73 
1613 486.38 430.27 527.73 
1614 476.27 439.24 527.73 
1615 481.18 438.24 527.73 
1616 449.91 444.59 527.73 
1617 505.62 440.24 527.73 
1618 460.50 447.38 527.73 
1619 485.69 443.32 527.73 
1620 463.95 434.92 527.73 
1621 501.12 429.51 527.73 
1622 445.21 440.25 527.73 
1623 467.91 446.89 527.73 
1624 496.68 442.32 527.73 
1625 466.50 447.42 527.73 
1626 495.79 450.49 527.73 
1627 455.61 445.65 527.73 
1628 477.55 445.14 527.73 
1629 480.25 444.61 527.73 
1630 485.56 438.22 527.73 
1631 466.13 438.16 527.73 
1632 465.10 438.15 527.73 
1633 468.48 429.46 527.73 
1634 492.14 421.11 527.73 
1635 447.02 419.12 527.73 
1636 496.71 421.39 527.73 
1637 474.10 406.72 527.73 
1638 472.03 422.80 527.73 
1639 453.56 429.20 527.73 
1640 482.54 426.60 527.73 
1641 482.62 427.60 527.73 
1642 481.76 403.37 527.73 
1643 474.17 395.21 527.73 
1644 471.51 408.20 527.73 
1645 463.84 406.90 527.73 
1646 487.76 397.41 527.73 
1647 489.83 405.30 527.73 
1648 457.29 390.56 527.73 
1649 486.42 409.49 527.73 
1650 480.43 426.74 527.73 
1651 489.50 435.74 527.73 
1652 500.64 440.12 527.73 
1653 478.15 432.93 527.73 
1654 486.94 440.31 527.73 
1655 500.74 440.53 527.73 
1656 485.62 445.14 527.73 
1657 492.36 448.24 527.73 
1658 476.81 450.25 527.73 
1659 469.39 453.82 527.73 
1660 463.25 454.10 527.73 
1661 452.12 441.20 527.73 
1662 485.33 441.47 527.73 
1663 476.26 439.93 527.73 
1664 470.19 453.39 527.73 
1665 490.35 445.03 527.73 
1666 467.49 434.82 527.73 
1667 465.12 427.64 527.73 
1668 497.36 429.71 527.73 
1669 459.47 422.72 527.73 
1670 480.06 427.88 527.73 
1671 482.18 434.38 527.73 
1672 472.83 434.85 527.73 
1673 468.38 444.67 527.73 
1674 481.71 434.35 527.73 
1675 472.93 431.17 527.73 
1676 476.00 429.38 527.73 
1677 479.00 435.92 527.73 
1678 509.60 432.06 527.73 
1679 468.61 438.47 527.73 
1680 487.78 442.42 527.73 
1681 486.59 435.56 527.73 
1682 462.21 433.96 527.73 
1683 460.44 415.16 527.73 
1684 464.61 411.62 527.73 
1685 468.65 418.97 527.73 
1686 496.99 431.56 527.73 
1687 485.57 429.87 527.73 
1688 475.32 427.63 527.73 
1689 470.90 430.76 527.73 
1690 470.38 429.72 527.73 
1691 474.50 437.90 527.73 
1692 486.26 430.96 527.73 
1693 484.42 435.56 527.73 
1694 481.69 428.83 527.73 
1695 465.60 426.46 527.73 
1696 485.04 430.89 527.73 
1697 495.65 425.19 527.73 
1698 487.25 407.63 527.73 
1699 491.62 403.73 527.73 
1700 473.51 413.48 527.73 
1701 485.54 418.74 527.73 
1702 490.00 425.41 527.73 
1703 515.70 417.72 527.73 
1704 474.79 407.25 527.73 
1705 490.50 402.63 527.73 
1706 484.58 417.26 527.73 
1707 483.80 426.74 527.73 
1708 477.86 433.64 527.73 
1709 506.32 438.87 527.73 
1710 467.46 442.22 527.73 
1711 490.37 442.50 527.73 
1712 471.94 435.48 527.73 
1713 487.15 436.05 527.73 
1714 467.48 433.74 527.73 
1715 487.40 427.11 527.73 
1716 496.95 425.22 527.73 
1717 474.56 427.10 527.73 
1718 463.32 429.93 527.73 
1719 482.21 426.52 527.73 
1720 477.02 433.52 527.73 
1721 491.33 448.33 527.73 
1722 502.27 440.43 527.73 
1723 472.96 434.27 527.73 
1724 460.07 430.42 527.73 
1725 488.20 419.54 527.73 
1726 472.07 426.99 527.73 
1727 471.38 421.46 527.73 
1728 483.07 406.78 527.73 
1729 477.01 416.96 527.73 
1730 474.73 419.82 527.73 
1731 496.18 423.97 527.73 
1732 507.00 425.82 527.73 
1733 498.60 427.19 527.73 
1734 458.17 423.73 527.73 
1735 502.08 425.55 527.73 
1736 462.21 429.32 527.73 
1737 460.52 429.24 527.73 
1738 466.19 428.14 527.73 
1739 446.25 427.93 527.73 
1740 463.74 426.30 527.73 
1741 463.63 426.41 527.73 
1742 471.67 431.09 527.73 
1743 471.30 428.75 527.73 
1744 502.60 428.02 527.73 
1745 489.60 433.46 527.73 
1746 508.44 436.50 527.73 
1747 476.07 442.74 527.73 
1748 495.87 440.20 527.73 
1749 477.51 452.96 527.73 
1750 482.14 453.49 527.73 
1751 506.12 445.35 527.73 
1752 499.10 443.72 527.73 
1753 471.03 443.00 527.73 
1754 503.76 445.47 527.73 
1755 473.11 441.91 527.73 
1756 479.84 440.88 527.73 
1757 467.10 444.14 527.73 
1758 481.38 434.26 527.73 
1759 477.87 435.08 527.73 
1760 500.51 433.83 527.73 
1761 473.47 431.10 527.73 
1762 490.01 429.05 527.73 
1763 498.11 423.53 527.73 
1764 481.40 428.23 527.73 
1765 483.65 428.44 527.73 
1766 469.55 426.86 527.73 
1767 475.82 424.09 527.73 
1768 488.14 434.41 527.73 
1769 483.11 437.57 527.73 
1770 472.25 438.45 527.73 
1771 478.50 430.45 527.73 
1772 477.00 428.58 527.73 
1773 478.90 434.51 527.73 
1774 487.50 441.00 527.73 
1775 522.10 440.96 527.73 
1776 445.02 437.70 527.73 
1777 511.52 441.13 527.73 
1778 469.96 438.93 527.73 
1779 492.02 444.62 527.73 
1780 484.34 447.00 527.73 
1781 490.05 452.58 527.73 
1782 480.45 452.44 527.73 
1783 458.44 452.95 527.73 
1784 488.53 454.22 527.73 
1785 487.93 451.40 527.73 
1786 482.14 460.58 527.73 
1787 459.39 455.00 527.73 
1788 469.66 446.06 527.73 
1789 460.27 449.95 527.73 
1790 483.77 446.58 527.73 
1791 478.89 443.58 527.73 
1792 505.45 438.98 527.73 
1793 522.13 437.80 527.73 
1794 473.58 432.16 527.73 
1795 470.69 430.68 527.73 
1796 492.38 427.32 527.73 
1797 491.40 433.56 527.73 
1798 473.36 438.81 527.73 
1799 494.68 442.41 527.73 
1800 494.96 445.52 527.73 
1801 495.69 441.27 527.73 
1802 489.85 439.58 527.73 
1803 469.63 442.82 527.73 
1804 462.66 442.82 527.73 
1805 481.35 445.54 527.73 
1806 498.01 440.34 527.73 
1807 490.28 438.48 527.73 
1808 503.87 436.14 527.73 
1809 504.23 434.79 527.73 
1810 461.38 433.72 527.73 
1811 489.82 434.75 527.73 
1812 483.01 428.98 527.73 
1813 469.98 421.76 527.73 
1814 474.30 410.01 527.73 
1815 486.59 407.21 527.73 
1816 477.75 421.70 527.73 
1817 501.29 411.29 527.73 
1818 478.80 399.92 527.73 
1819 480.54 388.01 527.73 
1820 465.44 385.70 527.73 
1821 510.89 388.27 527.73 
1822 472.24 377.09 527.73 
1823 479.33 388.26 527.73 
1824 473.66 389.80 527.73 
1825 473.88 394.40 527.73 
1826 508.14 376.37 527.73 
1827 481.09 348.52 527.73 
1828 466.58 349.49 527.73 
1829 460.48 368.07 527.73 
1830 475.17 348.59 527.73 
1831 463.04 350.33 527.73 
1832 462.11 375.37 527.73 
1833 490.68 372.38 527.73 
1834 480.26 384.86 527.73 
1835 483.66 391.69 527.73 
1836 475.24 421.02 527.73 
1837 468.18 415.86 527.73 
1838 460.53 395.94 527.73 
1839 482.53 382.99 527.73 
1840 488.08 376.91 527.73 
1841 501.93 380.71 527.73 
1842 499.76 383.02 527.73 
1843 480.80 388.06 527.73 
1844 512.98 407.65 527.73 
1845 506.65 400.29 527.73 
1846 482.72 415.62 527.73 
1847 481.16 418.12 527.73 
1848 478.09 418.35 527.73 
1849 488.56 409.92 527.73 
1850 493.69 401.31 527.73 
1851 494.79 401.59 527.73 
1852 466.66 399.37 527.73 
1853 482.50 411.06 527.73 
1854 486.37 395.29 527.73 
1855 476.82 390.01 527.73 
1856 479.96 403.12 527.73 
1857 504.81 400.19 527.73 
1858 493.54 412.92 527.73 
1859 503.99 413.48 527.73 
1860 478.28 414.45 527.73 
1861 503.88 413.20 527.73 
1862 498.59 415.74 527.73 
1863 474.45 413.34 527.73 
1864 495.52 424.16 527.73 
1865 470.05 427.05 527.73 
1866 482.64 425.51 527.73 
1867 481.95 427.95 527.73 
1868 448.91 425.33 527.73 
1869 476.12 427.92 527.73 
1870 498.60 435.13 527.73 
1871 471.33 435.88 527.73 
1872 457.13 440.58 527.73 
1873 468.70 440.87 527.73 
1874 466.27 455.99 527.73 
1875 506.53 464.57 527.73 
1876 477.27 472.90 527.73 
1877 502.32 484.97 527.73 
1878 490.40 483.22 527.73 
1879 488.04 480.70 527.73 
1880 505.50 480.68 527.73 
1881 472.12 483.47 527.73 
1882 489.92 481.73 527.73 
1883 489.48 474.15 527.73 
1884 458.47 467.82 527.73 
1885 479.45 464.30 527.73 
1886 481.00 471.62 527.73 
1887 497.08 475.44 527.73 
1888 485.19 470.62 527.73 
1889 484.41 462.29 527.73 
1890 486.15 465.05 527.73 
1891 469.52 463.28 527.73 
1892 517.39 457.41 527.73 
1893 489.33 461.71 527.73 
1894 466.63 452.88 527.73 
1895 473.79 451.78 527.73 
1896 489.83 451.34 527.73 
1897 478.65 434.56 527.73 
1898 460.99 433.74 527.73 
1899 461.68 430.52 527.73 
1900 503.40 424.49 527.73 
1901 478.53 429.67 527.73 
1902 477.37 434.51 527.73 
1903 487.63 434.77 527.73 
1904 477.45 441.46 527.73 
1905 497.33 435.44 527.73 
1906 514.29 436.09 527.73 
1907 486.23 469.85 527.73 
1908 468.28 473.45 527.73 
1909 488.84 446.65 527.73 
1910 495.95 457.53 527.73 
1911 475.25 457.79 527.73 
1912 493.63 470.94 527.73 
1913 456.59 450.21 527.73 
1914 459.58 445.67 527.73 
1915 499.83 442.91 527.73 
1916 478.47 450.53 527.73 
1917 485.69 442.95 527.73 
1918 483.36 445.92 527.73 
1919 489.41 428.12 527.73 
1920 480.72 415.39 527.73 
1921 507.10 420.69 527.73 
1922 489.81 416.82 527.73 
1923 477.72 417.54 527.73 
1924 490.00 435.32 527.73 
1925 491.20 430.21 527.73 
1926 516.79 421.29 527.73 
1927 464.37 415.07 527.73 
1928 495.33 413.24 527.73 
1929 481.82 411.24 527.73 
1930 490.07 419.31 527.73 
1931 481.49 413.23 527.73 
1932 496.82 403.83 527.73 
1933 487.36 409.07 527.73 
1934 499.81 421.01 527.73 
1935 484.97 405.93 527.73 
1936 468.50 394.94 527.73 
1937 501.57 405.59 527.73 
1938 467.62 415.72 527.73 
1939 468.33 415.24 527.73 
1940 497.18 424.49 527.73 
1941 478.37 413.57 527.73 
1942 475.94 427.66 527.73 
1943 485.60 421.62 527.73 
1944 487.96 433.65 527.73 
1945 472.15 421.28 527.73 
1946 477.75 418.70 527.73 
1947 517.26 418.56 527.73 
1948 493.09 426.00 527.73 
1949 458.58 415.64 527.73 
1950 493.84 411.35 527.73 
1951 496.40 414.90 527.73 
1952 489.75 411.35 527.73 
1953 492.93 419.66 527.73 
1954 500.93 429.88 527.73 
1955 496.46 442.60 527.73 
1956 494.02 438.71 527.73 
1957 482.02 440.63 527.73 
1958 494.02 436.19 527.73 
1959 509.28 441.81 527.73 
1960 499.33 440.38 527.73 
1961 492.77 445.98 527.73 
1962 472.16 444.27 527.73 
1963 491.54 437.87 527.73 
1964 510.68 445.01 527.73 
1965 486.76 439.13 527.73 
1966 474.15 444.19 527.73 
1967 465.99 441.41 527.73 
1968 501.50 442.19 527.73 
1969 475.39 447.33 527.73 
1970 456.36 449.66 527.73 
1971 501.39 450.62 527.73 
1972 500.73 454.44 527.73 
1973 487.84 450.87 527.73 
1974 493.42 453.15 527.73 
1975 475.68 444.65 527.73 
1976 493.73 447.79 527.73 
1977 502.12 451.41 527.73 
1978 482.15 445.82 527.73 
1979 491.56 439.49 527.73 
1980 471.60 444.54 527.73 
1981 536.39 446.15 527.73 
1982 499.35 454.48 536.39 
1983 469.86 453.48 536.39 
1984 491.55 456.02 536.39 
1985 465.21 457.75 536.39 
1986 505.38 456.03 536.39 
1987 462.38 455.79 536.39 
1988 494.23 457.29 536.39 
1989 464.60 458.86 536.39 
1990 510.51 462.92 536.39 
1991 483.87 471.24 536.39 
1992 488.85 464.90 536.39 
1993 522.49 462.32 536.39 
1994 524.31 451.46 536.39 
1995 503.59 452.55 536.39 
1996 497.32 443.19 536.39 
1997 487.52 441.42 536.39 
1998 495.35 432.07 536.39 
1999 491.91 438.90 536.39 
2000 495.94 430.31 536.39 
2001 477.98 429.27 536.39 
2002 484.49 425.66 536.39 
2003 452.05 432.75 536.39 
2004 477.41 434.80 536.39 
2005 482.44 435.31 536.39 
2006 481.30 443.43 536.39 
2007 487.06 439.37 536.39 
2008 504.52 439.88 536.39 
2009 474.62 437.05 536.39 
2010 479.46 438.23 536.39 
2011 491.61 435.98 536.39 
2012 512.75 432.30 536.39 
2013 510.31 422.69 536.39 
2014 464.05 414.16 536.39 
2015 505.10 426.60 536.39 
2016 459.42 418.18 536.39 
2017 476.46 414.88 536.39 
2018 495.67 419.93 536.39 
2019 494.98 423.53 536.39 
2020 505.16 422.71 536.39 
2021 515.16 427.33 536.39 
2022 497.92 426.92 536.39 
2023 480.56 422.49 536.39 
2024 496.97 425.50 536.39 
2025 493.99 427.29 536.39 
2026 482.77 427.73 536.39 
2027 494.38 425.63 536.39 
2028 509.64 430.00 536.39 
2029 500.41 437.48 536.39 
2030 501.53 434.22 536.39 
2031 494.00 431.52 536.39 
2032 509.86 429.22 536.39 
2033 474.80 423.71 536.39 
2034 494.53 423.09 536.39 
2035 494.14 420.98 536.39 
2036 489.35 420.76 536.39 
2037 501.80 415.32 536.39 
2038 482.89 412.08 536.39 
2039 505.51 399.93 536.39 
2040 490.51 415.35 536.39 
2041 497.55 420.11 536.39 
2042 484.96 420.43 536.39 
2043 484.58 426.63 536.39 
2044 491.00 426.97 536.39 
2045 501.90 423.09 536.39 
2046 496.28 408.53 536.39 
2047 505.56 416.66 536.39 
2048 493.89 421.86 536.39 
2049 494.30 431.00 536.39 
2050 481.87 434.71 536.39 
2051 482.51 436.82 536.39 
2052 476.95 438.33 536.39 
2053 479.87 442.21 536.39 
2054 502.09 444.75 536.39 
2055 503.08 449.67 536.39 
2056 477.41 447.10 536.39 
2057 508.13 443.68 536.39 
2058 462.01 437.95 536.39 
2059 463.69 441.04 536.39 
2060 483.68 442.37 536.39 
2061 493.98 441.84 536.39 
2062 480.06 441.55 536.39 
2063 479.77 442.81 536.39 
2064 482.55 437.68 536.39 
2065 501.59 429.06 536.39 
2066 493.76 433.73 536.39 
2067 480.95 432.51 536.39 
2068 506.49 431.17 536.39 
2069 473.97 432.99 536.39 
2070 482.66 438.49 536.39 
2071 502.85 436.16 536.39 
2072 506.87 440.04 536.39 
2073 490.52 452.30 536.39 
2074 504.42 452.81 536.39 
2075 480.38 446.93 536.39 
2076 505.28 445.64 536.39 
2077 498.23 448.80 536.39 
2078 477.78 454.38 536.39 
2079 478.84 442.67 536.39 
2080 498.77 440.07 536.39 
2081 457.55 454.30 536.39 
2082 499.74 464.98 536.39 
2083 455.33 465.03 536.39 
2084 495.15 462.68 536.39 
2085 514.80 460.42 536.39 
2086 480.36 459.95 536.39 
2087 496.51 454.08 536.39 
2088 496.47 455.36 536.39 
2089 493.05 455.93 536.39 
2090 464.21 453.10 536.39 
2091 508.37 449.32 536.39 
2092 503.15 451.13 536.39 
2093 484.72 452.91 536.39 
2094 493.66 451.35 536.39 
2095 505.80 453.09 536.39 
2096 484.39 452.52 536.39 
2097 501.82 451.26 536.39 
2098 492.87 450.20 536.39 
2099 499.35 450.96 536.39 
2100 515.25 453.95 536.39 
2101 466.86 448.59 536.39 
2102 504.19 453.20 536.39 
2103 506.37 445.88 536.39 
2104 487.59 447.44 536.39 
2105 495.98 455.48 536.39 
2106 493.95 452.49 536.39 
2107 476.82 458.89 536.39 
2108 510.69 450.72 536.39 
2109 513.41 451.50 536.39 
2110 479.26 446.67 536.39 
2111 477.21 446.71 536.39 
2112 508.31 449.98 536.39 
2113 499.21 445.14 536.39 
2114 469.77 440.80 536.39 
2115 519.03 436.92 536.39 
2116 490.51 437.25 536.39 
2117 514.38 437.10 536.39 
2118 482.70 434.82 536.39 
2119 492.41 436.34 536.39 
2120 493.69 432.53 536.39 
2121 483.75 431.44 536.39 
2122 482.06 430.98 536.39 
2123 503.78 433.85 536.39 
2124 524.03 431.68 536.39 
2125 499.98 435.41 536.39 
2126 463.08 435.14 536.39 
2127 486.13 433.24 536.39 
2128 479.35 429.91 536.39 
2129 509.19 430.21 536.39 
2130 497.87 433.03 536.39 
2131 513.63 432.26 536.39 
2132 523.87 431.97 536.39 
2133 508.44 429.95 536.39 
2134 498.79 432.23 536.39 
2135 486.85 424.63 536.39 
2136 498.57 430.20 536.39 
2137 505.38 433.00 536.39 
2138 500.64 434.12 536.39 
2139 499.08 432.83 536.39 
2140 494.38 435.48 536.39 
2141 482.85 433.68 536.39 
2142 507.69 426.47 536.39 
2143 491.78 421.44 536.39 
2144 482.36 433.63 536.39 
2145 495.09 431.63 536.39 
2146 469.34 430.05 536.39 
2147 483.92 426.75 536.39 
2148 484.02 426.47 536.39 
2149 510.33 422.96 536.39 
2150 468.30 429.25 536.39 
2151 504.75 423.17 536.39 
2152 504.56 428.27 536.39 
2153 495.24 431.05 536.39 
2154 467.19 421.44 536.39 
2155 489.14 424.43 536.39 
2156 495.54 425.18 536.39 
2157 506.20 426.93 536.39 
2158 487.68 424.36 536.39 
2159 447.48 424.09 536.39 
2160 452.23 426.90 536.39 
2161 514.01 428.21 536.39 
2162 493.44 429.47 536.39 
2163 492.79 428.97 536.39 
2164 500.65 429.25 536.39 
2165 522.56 431.57 536.39 
2166 496.49 431.32 536.39 
2167 518.83 429.77 536.39 
2168 521.85 429.21 536.39 
2169 500.38 429.22 536.39 
2170 500.31 430.79 536.39 
2171 502.13 431.29 536.39 
2172 488.19 430.79 536.39 
2173 494.67 430.84 536.39 
2174 500.23 431.55 536.39 
2175 502.95 430.81 536.39 
2176 493.37 431.65 536.39 
2177 469.62 432.12 536.39 
2178 509.44 431.25 536.39 
2179 479.14 429.44 536.39 
2180 490.52 430.77 536.39 
2181 494.94 429.97 536.39 
2182 492.79 431.46 536.39 
2183 485.43 431.01 536.39 
2184 499.83 431.26 536.39 
2185 505.27 432.73 536.39 
2186 504.29 432.20 536.39 
2187 500.59 432.19 536.39 
2188 483.31 430.62 536.39 
2189 488.00 427.56 536.39 
2190 498.70 427.81 536.39 
2191 480.36 427.79 536.39 
2192 494.51 428.03 536.39 
2193 488.66 427.99 536.39 
2194 472.56 428.23 536.39 
2195 512.21 429.27 536.39 
2196 538.31 430.08 536.39 
2197 508.17 428.04 538.31 
2198 474.90 426.02 538.31 
2199 499.74 426.78 538.31 
2200 489.15 428.28 538.31 
2201 480.63 429.08 538.31 
2202 520.04 429.59 538.31 
2203 471.89 429.86 538.31 
2204 472.52 429.58 538.31 
2205 508.92 429.53 538.31 
2206 482.82 429.29 538.31 
2207 488.61 429.05 538.31 
2208 472.86 429.29 538.31 
2209 495.38 430.25 538.31 
2210 493.07 430.56 538.31 
2211 499.37 430.82 538.31 
2212 479.94 430.85 538.31 
2213 490.80 431.15 538.31 
2214 498.98 431.90 538.31 
2215 498.20 432.65 538.31 
2216 485.19 433.63 538.31 
2217 512.92 432.41 538.31 
2218 495.76 431.86 538.31 
2219 497.06 431.33 538.31 
2220 471.45 429.85 538.31 
2221 500.86 430.87 538.31 
2222 520.50 430.90 538.31 
2223 491.76 430.12 538.31 
2224 483.90 429.11 538.31 
2225 498.13 429.60 538.31 
2226 502.20 429.91 538.31 
2227 485.20 430.16 538.31 
2228 489.65 430.42 538.31 
2229 499.47 429.40 538.31 
2230 497.33 430.69 538.31 
2231 476.64 429.66 538.31 
2232 450.97 431.17 538.31 
2233 492.12 429.88 538.31 
2234 516.57 429.58 538.31 
2235 508.34 428.81 538.31 
2236 500.01 427.29 538.31 
2237 471.55 427.03 538.31 
2238 466.83 426.49 538.31 
2239 490.74 426.51 538.31 
2240 486.03 426.78 538.31 
2241 495.51 427.31 538.31 
2242 474.42 430.10 538.31 
2243 502.60 430.07 538.31 
2244 505.73 431.08 538.31 
2245 501.22 431.06 538.31 
2246 492.26 431.01 538.31 
2247 472.08 426.73 538.31 
2248 511.08 421.65 538.31 
2249 508.89 420.07 538.31 
2250 491.70 421.62 538.31 
2251 483.88 422.65 538.31 
2252 516.96 417.79 538.31 
2253 483.62 415.73 538.31 
2254 498.99 412.94 538.31 
2255 490.71 419.02 538.31 
2256 524.23 410.60 538.31 
2257 492.64 400.94 538.31 
2258 494.92 404.50 538.31 
2259 468.78 416.46 538.31 
2260 485.68 420.06 538.31 
2261 521.91 421.55 538.31 
2262 491.49 412.40 538.31 
2263 470.53 409.34 538.31 
2264 493.30 422.14 538.31 
2265 519.95 424.97 538.31 
2266 492.82 421.38 538.31 
2267 493.57 425.49 538.31 
2268 502.81 421.11 538.31 
2269 478.33 396.04 538.31 
2270 488.50 403.42 538.31 
2271 464.83 410.15 538.31 
2272 500.05 413.20 538.31 
2273 485.85 402.37 538.31 
2274 489.88 399.02 538.31 
2275 509.93 380.29 538.31 
2276 517.28 389.37 538.31 
2277 494.91 385.59 538.31 
2278 471.80 395.46 538.31 
2279 491.95 389.86 538.31 
2280 522.34 411.35 538.31 
2281 487.31 402.75 538.31 
2282 485.22 393.91 538.31 
2283 507.18 405.05 538.31 
2284 526.55 401.76 538.31 
2285 502.67 405.82 538.31 
2286 499.17 414.71 538.31 
2287 506.45 422.84 538.31 
2288 502.59 425.15 538.31 
2289 499.73 427.45 538.31 
2290 464.87 428.22 538.31 
2291 484.25 419.30 538.31 
2292 512.29 416.27 538.31 
2293 508.71 407.66 538.31 
2294 474.06 428.99 538.31 
2295 522.41 419.79 538.31 
2296 505.26 419.27 538.31 
2297 501.29 426.12 538.31 
2298 530.09 427.69 538.31 
2299 503.60 423.31 538.31 
2300 489.43 420.77 538.31 
2301 510.49 417.16 538.31 
2302 497.03 421.26 538.31 
2303 507.41 424.85 538.31 
2304 496.50 415.99 538.31 
2305 527.25 419.56 538.31 
2306 512.91 418.26 538.31 
2307 489.54 412.73 538.31 
2308 493.09 405.41 538.31 
2309 490.30 396.49 538.31 
2310 484.34 383.80 538.31 
2311 495.96 383.02 538.31 
2312 488.11 389.19 538.31 
2313 495.11 407.78 538.31 
2314 480.75 409.77 538.31 
2315 488.07 427.72 538.31 
2316 507.63 430.50 538.31 
2317 516.90 430.26 538.31 
2318 491.08 427.94 538.31 
2319 503.23 423.16 538.31 
2320 470.93 426.93 538.31 
2321 482.23 426.25 538.31 
2322 507.90 415.07 538.31 
2323 490.31 411.78 538.31 
2324 505.91 408.98 538.31 
2325 503.52 405.45 538.31 
2326 473.78 404.92 538.31 
2327 483.13 406.22 538.31 
2328 505.62 391.53 538.31 
2329 494.49 394.83 538.31 
2330 535.58 384.22 538.31 
2331 476.84 391.82 538.31 
2332 511.53 388.74 538.31 
2333 489.88 386.46 538.31 
2334 507.59 383.92 538.31 
2335 476.43 367.24 538.31 
2336 506.97 378.38 538.31 
2337 515.69 378.36 538.31 
2338 509.86 350.27 538.31 
2339 498.24 362.68 538.31 
2340 513.68 359.15 538.31 
2341 486.44 382.96 538.31 
2342 477.29 371.60 538.31 
2343 495.25 374.59 538.31 
2344 459.31 348.24 538.31 
2345 520.88 351.76 538.31 
2346 468.61 371.54 538.31 
2347 455.28 374.09 538.31 
2348 488.30 375.37 538.31 
2349 513.85 381.76 538.31 
2350 471.80 378.98 538.31 
2351 523.67 362.23 538.31 
2352 481.93 350.56 538.31 
2353 481.47 354.15 538.31 
2354 495.81 361.49 538.31 
2355 479.07 368.87 538.31 
2356 510.74 349.44 538.31 
2357 476.71 336.00 538.31 
2358 500.13 341.75 538.31 
2359 518.17 358.17 538.31 
2360 485.67 356.85 538.31 
2361 492.23 374.35 538.31 
2362 511.56 345.25 538.31 
2363 506.92 337.92 538.31 
2364 501.39 313.33 538.31 
2365 474.52 309.76 538.31 
2366 496.35 305.24 538.31 
2367 466.48 305.77 538.31 
2368 513.61 305.75 538.31 
2369 480.12 310.35 538.31 
2370 515.88 301.73 538.31 
2371 491.87 306.29 538.31 
2372 475.89 309.86 538.31 
2373 484.88 313.17 538.31 
2374 475.90 310.64 538.31 
2375 508.64 296.40 538.31 
2376 510.26 299.68 538.31 
2377 514.12 295.37 538.31 
2378 506.40 288.51 538.31 
2379 500.32 296.35 538.31 
2380 491.73 295.59 538.31 
2381 489.30 296.08 538.31 
2382 498.24 297.88 538.31 
2383 508.78 296.11 538.31 
2384 520.05 301.42 538.31 
2385 492.12 294.58 538.31 
2386 498.61 287.46 538.31 
2387 485.52 293.55 538.31 
2388 479.23 282.14 538.31 
2389 505.69 276.82 538.31 
2390 507.12 282.65 538.31 
2391 499.47 277.87 538.31 
2392 487.63 290.22 538.31 
2393 507.98 291.22 538.31 
2394 487.07 286.93 538.31 
2395 477.82 315.06 538.31 
2396 490.01 325.70 538.31 
2397 529.18 308.73 538.31 
2398 499.57 298.88 538.31 
2399 508.84 291.52 538.31 
2400 464.03 292.52 538.31 
2401 485.67 293.75 538.31 
2402 499.55 292.97 538.31 
2403 511.19 293.48 538.31 
2404 488.22 297.01 538.31 
2405 490.93 301.56 538.31 
2406 472.07 306.67 538.31 
2407 479.57 303.37 538.31 
2408 502.74 316.35 538.31 
2409 503.46 341.67 538.31 
2410 515.64 369.78 538.31 
2411 497.24 345.27 538.31 
2412 475.91 330.32 538.31 
2413 507.98 342.64 538.31 
2414 499.24 340.87 538.31 
2415 528.14 338.13 538.31 
2416 522.84 349.51 538.31 
2417 513.58 336.96 538.31 
2418 507.10 367.27 538.31 
2419 493.80 365.70 538.31 
2420 491.50 383.58 538.31 
2421 530.68 396.54 538.31 
2422 505.29 402.44 538.31 
2423 522.24 387.19 538.31 
2424 493.40 393.75 538.31 
2425 496.58 417.15 538.31 
2426 525.69 444.31 538.31 
2427 501.81 455.97 538.31 
2428 508.20 446.10 538.31 
2429 492.02 457.70 538.31 
2430 516.26 440.77 538.31 
2431 491.51 483.42 538.31 
2432 503.00 454.08 538.31 
2433 492.54 464.38 538.31 
2434 527.00 480.98 538.31 
2435 491.07 471.08 538.31 
2436 478.89 459.01 538.31 
2437 489.49 464.85 538.31 
2438 489.28 439.46 538.31 
2439 494.13 439.95 538.31 
2440 489.67 410.75 538.31 
2441 503.92 437.03 538.31 
2442 516.15 440.39 538.31 
2443 479.73 442.44 538.31 
2444 482.11 432.00 538.31 
2445 509.32 444.00 538.31 
2446 480.43 456.20 538.31 
2447 495.81 460.60 538.31 
2448 486.95 449.88 538.31 
2449 492.89 434.73 538.31 
2450 511.96 459.91 538.31 
2451 524.50 417.64 538.31 
2452 491.98 468.00 538.31 
2453 493.41 472.38 538.31 
2454 486.88 480.86 538.31 
2455 487.05 465.44 538.31 
2456 507.49 463.22 538.31 
2457 495.64 470.01 538.31 
2458 482.31 464.85 538.31 
2459 498.63 447.26 538.31 
2460 502.20 452.79 538.31 
2461 506.92 471.36 538.31 
2462 491.23 463.29 538.31 
2463 470.57 452.61 538.31 
2464 477.01 420.98 538.31 
2465 476.37 421.39 538.31 
2466 493.13 426.44 538.31 
2467 497.51 447.00 538.31 
2468 495.83 420.71 538.31 
2469 507.22 411.83 538.31 
2470 496.15 409.48 538.31 
2471 484.02 411.05 538.31 
2472 486.62 402.08 538.31 
2473 508.82 395.49 538.31 
2474 487.44 393.96 538.31 
2475 483.42 374.75 538.31 
2476 488.02 355.51 538.31 
2477 523.57 336.95 538.31 
2478 517.63 334.36 538.31 
2479 487.16 305.69 538.31 
2480 524.02 325.22 538.31 
2481 502.44 324.51 538.31 
2482 485.02 322.72 538.31 
2483 488.21 343.45 538.31 
2484 499.18 339.59 538.31 
2485 506.79 362.10 538.31 
2486 493.67 324.92 538.31 
2487 516.61 338.87 538.31 
2488 520.60 371.31 538.31 
2489 500.73 363.67 538.31 
2490 513.49 385.25 538.31 
2491 514.53 396.12 538.31 
2492 497.73 394.63 538.31 
2493 514.10 377.38 538.31 
2494 482.33 370.03 538.31 
2495 506.02 381.21 538.31 
2496 494.66 382.97 538.31 
2497 488.62 380.89 538.31 
2498 490.61 362.67 538.31 
2499 494.77 336.62 538.31 
2500 500.11 335.40 538.31 
2501 498.26 345.54 538.31 
2502 495.84 334.38 538.31 
2503 474.68 377.97 538.31 
2504 480.64 376.39 538.31 
2505 491.60 388.84 538.31 
2506 535.87 389.06 538.31 
2507 477.95 406.23 538.31 
2508 480.97 391.55 538.31 
2509 489.29 349.30 538.31 
2510 497.46 329.51 538.31 
2511 507.00 344.76 538.31 
2512 529.77 350.63 538.31 
2513 504.34 360.58 538.31 
2514 482.08 353.66 538.31 
2515 487.22 378.19 538.31 
2516 492.36 379.27 538.31 
2517 496.55 382.31 538.31 
2518 523.86 403.07 538.31 
2519 483.17 382.33 538.31 
2520 499.93 409.90 538.31 
2521 511.72 411.75 538.31 
2522 515.18 428.37 538.31 
2523 508.93 414.86 538.31 
2524 509.80 424.48 538.31 
2525 470.14 440.69 538.31 
2526 506.21 432.04 538.31 
2527 515.27 440.92 538.31 
2528 496.20 451.99 538.31 
2529 516.28 470.02 538.31 
2530 496.21 427.04 538.31 
2531 507.68 430.27 538.31 
2532 489.86 414.21 538.31 
2533 493.82 403.76 538.31 
2534 488.23 408.08 538.31 
2535 494.96 403.52 538.31 
2536 506.23 405.02 538.31 
2537 483.19 409.98 538.31 
2538 526.76 419.01 538.31 
2539 498.22 406.01 538.31 
2540 516.09 412.59 538.31 
2541 487.22 404.59 538.31 
2542 502.22 415.55 538.31 
2543 501.54 410.36 538.31 
2544 480.47 418.06 538.31 
2545 498.32 420.35 538.31 
2546 502.35 409.49 538.31 
2547 518.93 432.59 538.31 
2548 488.46 428.26 538.31 
2549 494.52 427.74 538.31 
2550 504.48 430.90 538.31 
2551 498.40 439.54 538.31 
2552 500.71 439.96 538.31 
2553 515.73 438.78 538.31 
2554 485.31 423.47 538.31 
2555 512.70 439.66 538.31 
2556 515.17 439.33 538.31 
2557 498.27 438.33 538.31 
2558 505.66 436.43 538.31 
2559 495.23 434.33 538.31 
2560 505.67 435.34 538.31 
2561 532.38 431.51 538.31 
2562 516.60 431.83 538.31 
2563 495.36 431.85 538.31 
2564 518.52 430.32 538.31 
2565 513.78 440.83 538.31 
2566 533.65 443.40 538.31 
2567 500.63 454.14 538.31 
2568 505.27 467.09 538.31 
2569 503.04 468.35 538.31 
2570 502.88 442.48 538.31 
2571 481.17 464.75 538.31 
2572 493.17 473.45 538.31 
2573 464.80 472.94 538.31 
2574 529.35 470.15 538.31 
2575 493.58 471.85 538.31 
2576 465.91 472.72 538.31 
2577 511.98 480.19 538.31 
2578 514.57 474.95 538.31 
2579 519.57 488.90 538.31 
2580 470.55 488.84 538.31 
2581 496.22 490.66 538.31 
2582 511.40 489.16 538.31 
2583 495.12 485.97 538.31 
2584 519.75 486.89 538.31 
2585 493.43 487.45 538.31 
2586 492.29 487.69 538.31 
2587 503.50 487.23 538.31 
2588 501.44 487.25 538.31 
2589 487.97 485.54 538.31 
2590 505.32 487.36 538.31 
2591 505.93 487.12 538.31 
2592 507.16 486.64 538.31 
2593 473.85 484.26 538.31 
2594 519.13 486.11 538.31 
2595 501.77 486.70 538.31 
2596 521.22 485.19 538.31 
2597 495.46 485.99 538.31 
2598 524.04 488.56 538.31 
2599 523.50 487.00 538.31 
2600 507.44 487.74 538.31 
2601 493.27 476.15 538.31 
2602 526.92 465.69 538.31 
2603 503.79 469.48 538.31 
2604 510.86 476.69 538.31 
2605 482.38 486.48 538.31 
2606 519.41 488.11 538.31 
2607 519.09 486.58 538.31 
2608 500.40 486.60 538.31 
2609 511.45 485.98 538.31 
2610 517.18 486.22 538.31 
2611 501.85 486.92 538.31 
2612 518.97 479.83 538.31 
2613 479.19 478.59 538.31 
2614 501.42 458.27 538.31 
2615 488.10 450.32 538.31 
2616 496.89 454.91 538.31 
2617 501.76 461.21 538.31 
2618 524.33 456.10 538.31 
2619 512.81 474.49 538.31 
2620 506.98 465.22 538.31 
2621 527.69 469.00 538.31 
2622 518.44 480.91 538.31 
2623 507.80 474.37 538.31 
2624 508.42 460.54 538.31 
2625 480.97 482.44 538.31 
2626 476.90 483.58 538.31 
2627 504.05 483.79 538.31 
2628 484.14 483.78 538.31 
2629 509.19 484.58 538.31 
2630 524.78 484.35 538.31 
2631 492.68 484.04 538.31 
2632 469.83 484.33 538.31 
2633 483.53 484.29 538.31 
2634 502.68 485.32 538.31 
2635 490.50 484.57 538.31 
2636 503.27 483.08 538.31 
2637 491.10 477.53 538.31 
2638 468.60 482.83 538.31 
2639 505.88 485.12 538.31 
2640 474.24 488.69 538.31 
2641 505.20 490.48 538.31 
2642 493.65 488.21 538.31 
2643 503.42 486.94 538.31 
2644 495.37 486.43 538.31 
2645 486.84 486.41 538.31 
2646 511.21 484.92 538.31 
2647 490.15 483.95 538.31 
2648 525.89 482.67 538.31 
2649 525.51 481.35 538.31 
2650 493.10 482.42 538.31 
2651 498.21 484.25 538.31 
2652 504.08 485.78 538.31 
2653 500.52 485.27 538.31 
2654 491.02 485.03 538.31 
2655 480.01 486.77 538.31 
2656 513.26 486.26 538.31 
2657 490.46 484.98 538.31 
2658 498.72 483.23 538.31 
2659 508.44 485.24 538.31 
2660 524.73 484.46 538.31 
2661 472.77 484.91 538.31 
2662 515.81 486.20 538.31 
2663 501.55 487.46 538.31 
2664 512.37 490.74 538.31 
2665 508.36 492.99 538.31 
2666 478.90 493.74 538.31 
2667 485.40 492.75 538.31 
2668 503.92 493.24 538.31 
2669 503.68 490.54 538.31 
2670 467.32 489.04 538.31 
2671 501.67 490.29 538.31 
2672 490.34 490.01 538.31 
2673 510.19 492.24 538.31 
2674 483.03 489.72 538.31 
2675 511.74 488.68 538.31 
2676 521.04 492.24 538.31 
2677 525.99 486.42 538.31 
2678 509.96 490.99 538.31 
2679 463.51 484.93 538.31 
2680 500.62 481.63 538.31 
2681 472.60 482.17 538.31 
2682 514.70 484.96 538.31 
2683 505.64 483.96 538.31 
2684 510.85 482.25 538.31 
2685 494.17 484.05 538.31 
2686 486.54 484.31 538.31 
2687 517.38 485.34 538.31 
2688 475.51 486.61 538.31 
2689 475.29 486.11 538.31 
2690 473.06 486.11 538.31 
2691 483.23 487.38 538.31 
2692 500.75 486.58 538.31 
2693 513.86 488.28 538.31 
2694 528.89 488.05 538.31 
2695 508.31 486.53 538.31 
2696 513.93 487.55 538.31 
2697 499.25 487.36 538.31 
2698 508.80 486.00 538.31 
2699 495.02 486.02 538.31 
2700 529.02 486.34 538.31 
2701 506.99 485.56 538.31 
2702 492.46 486.81 538.31 
2703 511.92 487.08 538.31 
2704 486.44 490.58 538.31 
2705 500.32 493.86 538.31 
2706 488.23 488.38 538.31 
2707 476.34 485.62 538.31 
2708 503.29 487.36 538.31 
2709 478.21 488.06 538.31 
2710 506.33 486.08 538.31 
2711 477.86 486.81 538.31 
2712 501.00 487.31 538.31 
2713 484.03 486.77 538.31 
2714 511.95 489.28 538.31 
2715 499.19 487.26 538.31 
2716 510.09 488.28 538.31 
2717 519.37 487.53 538.31 
2718 497.46 488.52 538.31 
2719 482.35 487.74 538.31 
2720 509.48 486.97 538.31 
2721 486.35 488.45 538.31 
2722 490.37 490.72 538.31 
2723 509.55 494.23 538.31 
2724 537.64 500.30 538.31 
2725 487.19 497.80 538.31 
2726 470.25 493.76 538.31 
2727 509.21 491.73 538.31 
2728 477.18 486.18 538.31 
2729 487.98 487.21 538.31 
2730 488.91 487.43 538.31 
2731 508.87 485.90 538.31 
2732 506.62 479.84 538.31 
2733 514.08 480.38 538.31 
2734 483.20 485.45 538.31 
2735 496.48 483.95 538.31 
2736 488.62 486.28 538.31 
2737 496.42 485.21 538.31 
2738 508.35 490.60 538.31 
2739 532.63 490.08 538.31 
2740 527.32 490.29 538.31 
2741 483.14 489.25 538.31 
2742 540.84 487.77 538.31 
2743 525.00 490.26 540.84 
2744 493.64 497.86 540.84 
2745 491.00 501.93 540.84 
2746 483.34 508.43 540.84 
2747 483.57 501.89 540.84 
2748 527.16 506.16 540.84 
2749 524.74 504.13 540.84 
2750 519.98 501.87 540.84 
2751 487.81 504.90 540.84 
2752 514.21 504.42 540.84 
2753 504.81 507.96 540.84 
2754 501.05 505.48 540.84 
2755 510.07 506.44 540.84 
2756 481.61 505.45 540.84 
2757 508.59 504.23 540.84 
2758 504.85 496.34 540.84 
2759 517.99 484.10 540.84 
2760 493.65 474.88 540.84 
2761 505.21 508.41 540.84 
2762 494.62 498.56 540.84 
2763 504.14 502.92 540.84 
2764 507.59 486.54 540.84 
2765 522.32 485.52 540.84 
2766 496.06 490.08 540.84 
2767 521.63 499.37 540.84 
2768 509.72 499.14 540.84 
2769 491.95 498.48 540.84 
2770 513.92 499.21 540.84 
2771 514.76 498.14 540.84 
2772 520.22 494.67 540.84 
2773 509.94 506.25 540.84 
2774 517.31 503.21 540.84 
2775 501.81 508.01 540.84 
2776 498.86 505.72 540.84 
2777 499.13 493.77 540.84 
2778 506.56 489.33 540.84 
2779 516.05 488.85 540.84 
2780 500.23 504.52 540.84 
2781 491.08 509.34 540.84 
2782 542.87 513.87 540.84 
2783 526.69 515.65 542.87 
2784 544.69 510.88 542.87 
2785 492.43 519.65 544.69 
2786 481.88 520.36 544.69 
2787 522.12 525.12 544.69 
2788 491.99 524.81 544.69 
2789 463.46 518.54 544.69 
2790 506.80 509.49 544.69 
2791 537.90 517.70 544.69 
2792 506.76 512.86 544.69 
2793 488.43 490.50 544.69 
2794 507.22 511.36 544.69 
2795 502.43 494.62 544.69 
2796 514.40 502.18 544.69 
2797 508.07 501.20 544.69 
2798 509.85 511.87 544.69 
2799 485.24 504.26 544.69 
2800 487.49 493.38 544.69 
2801 502.61 491.40 544.69 
2802 542.12 476.71 544.69 
2803 520.26 468.15 544.69 
2804 484.81 463.56 544.69 
2805 490.73 465.88 544.69 
2806 495.38 478.87 544.69 
2807 503.16 480.44 544.69 
2808 516.21 476.09 544.69 
2809 496.47 476.09 544.69 
2810 514.03 479.12 544.69 
2811 534.35 485.23 544.69 
2812 532.18 501.73 544.69 
2813 516.99 503.73 544.69 
2814 497.35 509.10 544.69 
2815 504.29 495.41 544.69 
2816 532.49 488.30 544.69 
2817 494.40 486.28 544.69 
2818 502.72 475.86 544.69 
2819 498.04 485.24 544.69 
2820 514.29 481.70 544.69 
2821 498.19 474.39 544.69 
2822 519.87 484.55 544.69 
2823 502.43 495.93 544.69 
2824 544.65 506.55 544.69 
2825 494.68 512.55 544.69 
2826 507.98 517.96 544.69 
2827 516.26 507.63 544.69 
2828 525.59 502.79 544.69 
2829 500.21 520.68 544.69 
2830 511.60 503.24 544.69 
2831 500.41 506.71 544.69 
2832 499.18 505.24 544.69 
2833 548.11 491.34 544.69 
2834 488.97 505.03 548.11 
2835 512.52 507.69 548.11 
2836 492.02 493.44 548.11 
2837 518.04 519.13 548.11 
2838 511.07 496.53 548.11 
2839 523.89 507.53 548.11 
2840 504.14 486.83 548.11 
2841 467.22 495.66 548.11 
2842 516.94 505.84 548.11 
2843 486.63 512.89 548.11 
2844 490.56 516.45 548.11 
2845 520.27 517.70 548.11 
2846 532.83 507.04 548.11 
2847 500.76 510.59 548.11 
2848 478.85 488.63 548.11 
2849 509.87 469.32 548.11 
2850 530.40 476.89 548.11 
2851 483.30 467.27 548.11 
2852 482.83 473.60 548.11 
2853 521.50 481.41 548.11 
2854 516.78 485.43 548.11 
2855 507.62 489.33 548.11 
2856 520.17 498.46 548.11 
2857 534.24 492.88 548.11 
2858 528.02 499.52 548.11 
2859 494.13 478.16 548.11 
2860 503.79 485.02 548.11 
2861 491.51 477.99 548.11 
2862 515.42 481.68 548.11 
2863 472.07 466.60 548.11 
2864 513.21 455.47 548.11 
2865 506.15 441.11 548.11 
2866 517.77 437.79 548.11 
2867 500.46 433.63 548.11 
2868 507.55 437.23 548.11 
2869 523.08 444.13 548.11 
2870 506.77 449.78 548.11 
2871 512.06 444.88 548.11 
2872 502.41 442.20 548.11 
2873 504.97 443.17 548.11 
2874 512.86 440.18 548.11 
2875 529.35 436.11 548.11 
2876 501.22 443.62 548.11 
2877 512.57 442.07 548.11 
2878 506.95 443.35 548.11 
2879 527.73 449.80 548.11 
2880 487.81 458.52 548.11 
2881 530.47 470.88 548.11 
2882 517.41 482.73 548.11 
2883 509.33 477.70 548.11 
2884 474.09 476.75 548.11 
2885 488.64 466.63 548.11 
2886 508.27 462.21 548.11 
2887 484.77 469.75 548.11 
2888 519.87 492.24 548.11 
2889 485.71 495.72 548.11 
2890 518.39 496.62 548.11 
2891 490.56 494.08 548.11 
2892 529.85 489.77 548.11 
2893 487.06 486.69 548.11 
2894 513.07 465.02 548.11 
2895 489.75 481.72 548.11 
2896 507.46 492.79 548.11 
2897 492.08 497.83 548.11 
2898 536.37 496.79 548.11 
2899 486.19 506.83 548.11 
2900 521.37 506.55 548.11 
2901 490.37 504.52 548.11 
2902 499.51 509.65 548.11 
2903 507.84 496.49 548.11 
2904 498.10 489.98 548.11 
2905 503.16 495.17 548.11 
2906 526.90 482.40 548.11 
2907 511.44 478.87 548.11 
2908 506.85 484.34 548.11 
2909 488.85 474.70 548.11 
2910 488.34 477.44 548.11 
2911 483.68 470.82 548.11 
2912 498.48 462.90 548.11 
2913 532.11 460.35 548.11 
2914 507.20 465.97 548.11 
2915 487.88 459.55 548.11 
2916 504.01 445.35 548.11 
2917 512.96 449.88 548.11 
2918 519.70 446.36 548.11 
2919 499.74 452.70 548.11 
2920 504.79 460.08 548.11 
2921 538.36 476.72 548.11 
2922 475.70 484.27 548.11 
2923 505.77 493.35 548.11 
2924 493.20 496.38 548.11 
2925 509.68 491.80 548.11 
2926 497.19 490.52 548.11 
2927 494.06 500.39 548.11 
2928 532.48 498.38 548.11 
2929 525.39 491.45 548.11 
2930 521.60 478.23 548.11 
2931 506.52 478.23 548.11 
2932 496.58 466.83 548.11 
2933 481.48 460.78 548.11 
2934 533.06 466.60 548.11 
2935 492.07 466.41 548.11 
2936 499.62 465.58 548.11 
2937 510.11 465.61 548.11 
2938 508.83 461.02 548.11 
2939 480.21 440.87 548.11 
2940 494.91 436.29 548.11 
2941 521.61 438.35 548.11 
2942 521.19 439.09 548.11 
2943 509.35 434.23 548.11 
2944 480.05 436.54 548.11 
2945 509.59 442.14 548.11 
2946 539.30 441.64 548.11 
2947 513.79 453.23 548.11 
2948 510.74 448.33 548.11 
2949 497.45 437.39 548.11 
2950 487.12 431.04 548.11 
2951 495.69 434.81 548.11 
2952 515.67 432.29 548.11 
2953 485.92 431.98 548.11 
2954 486.03 429.85 548.11 
2955 512.55 433.05 548.11 
2956 516.95 428.18 548.11 
2957 523.86 429.91 548.11 
2958 528.38 422.63 548.11 
2959 517.54 421.82 548.11 
2960 512.94 426.58 548.11 
2961 496.30 423.52 548.11 
2962 527.72 422.53 548.11 
2963 508.60 428.36 548.11 
2964 492.23 422.75 548.11 
2965 503.91 421.80 548.11 
2966 510.42 429.87 548.11 
2967 515.07 429.15 548.11 
2968 523.33 427.87 548.11 
2969 503.19 425.82 548.11 
2970 470.42 425.29 548.11 
2971 509.54 442.00 548.11 
2972 523.84 425.56 548.11 
2973 511.38 426.37 548.11 
2974 516.32 433.69 548.11 
2975 488.09 437.97 548.11 
2976 503.09 442.79 548.11 
2977 503.01 441.50 548.11 
2978 478.52 435.16 548.11 
2979 516.61 437.18 548.11 
2980 516.67 445.55 548.11 
2981 516.66 447.31 548.11 
2982 509.29 448.84 548.11 
2983 502.72 449.39 548.11 
2984 518.27 457.48 548.11 
2985 531.91 471.35 548.11 
2986 495.45 470.38 548.11 
2987 497.31 481.49 548.11 
2988 500.53 481.79 548.11 
2989 526.76 482.05 548.11 
2990 514.40 466.40 548.11 
2991 518.96 461.36 548.11 
2992 498.07 471.43 548.11 
2993 527.96 469.41 548.11 
2994 495.55 474.50 548.11 
2995 507.20 477.50 548.11 
2996 522.90 480.25 548.11 
2997 493.59 477.99 548.11 
2998 507.83 481.27 548.11 
2999 502.28 474.93 548.11 
3000 505.28 474.17 548.11 
3001 489.69 472.88 548.11 
3002 500.95 463.25 548.11 
3003 502.54 457.16 548.11 
3004 495.99 437.00 548.11 
3005 527.80 462.71 548.11 
3006 513.07 467.85 548.11 
3007 508.32 463.54 548.11 
3008 550.91 469.38 548.11 
3009 541.37 464.29 550.91 
3010 520.84 465.28 550.91 
3011 507.09 475.98 550.91 
3012 505.09 487.88 550.91 
3013 490.19 494.43 550.91 
3014 513.46 496.67 550.91 
3015 517.24 497.19 550.91 
3016 521.28 497.17 550.91 
3017 520.36 489.14 550.91 
3018 507.97 486.63 550.91 
3019 478.67 474.59 550.91 
3020 512.44 480.59 550.91 
3021 486.74 485.07 550.91 
3022 504.48 480.90 550.91 
3023 473.84 498.00 550.91 
3024 525.39 488.45 550.91 
3025 478.00 482.16 550.91 
3026 531.30 485.49 550.91 
3027 508.42 470.04 550.91 
3028 513.37 471.57 550.91 
3029 511.73 477.06 550.91 
3030 494.88 485.14 550.91 
3031 517.38 484.44 550.91 
3032 490.89 491.73 550.91 
3033 527.43 488.47 550.91 
3034 524.22 501.58 550.91 
3035 511.88 515.65 550.91 
3036 478.68 517.48 550.91 
3037 519.32 503.44 550.91 
3038 503.98 507.26 550.91 
3039 545.84 503.48 550.91 
3040 498.59 507.47 550.91 
3041 504.64 522.77 550.91 
3042 472.96 517.30 550.91 
3043 507.22 524.02 550.91 
3044 506.34 517.00 550.91 
3045 495.87 514.98 550.91 
3046 493.04 518.00 550.91 
3047 469.42 500.88 550.91 
3048 500.59 509.19 550.91 
3049 490.43 517.50 550.91 
3050 514.32 511.47 550.91 
3051 531.14 495.89 550.91 
3052 481.78 489.31 550.91 
3053 504.21 492.61 550.91 
3054 481.30 495.65 550.91 
3055 529.00 497.68 550.91 
3056 541.07 492.60 550.91 
3057 487.68 494.11 550.91 
3058 509.31 493.11 550.91 
3059 505.35 494.12 550.91 
3060 531.84 496.12 550.91 
3061 498.66 518.47 550.91 
3062 513.15 521.23 550.91 
3063 495.48 535.32 550.91 
3064 540.17 536.86 550.91 
3065 532.20 538.41 550.91 
3066 524.37 537.88 550.91 
3067 542.73 537.39 550.91 
3068 527.67 533.33 550.91 
3069 484.48 533.09 550.91 
3070 505.56 540.38 550.91 
3071 527.31 537.89 550.91 
3072 500.36 541.13 550.91 
3073 536.04 540.36 550.91 
3074 524.33 548.69 550.91 
3075 521.06 543.19 550.91 
3076 523.16 537.94 550.91 
3077 526.79 535.70 550.91 
3078 510.03 527.43 550.91 
3079 478.03 517.87 550.91 
3080 496.74 516.85 550.91 
3081 504.30 516.05 550.91 
3082 539.28 505.54 550.91 
3083 509.18 495.20 550.91 
3084 510.02 500.28 550.91 
3085 510.06 490.14 550.91 
3086 520.59 483.06 550.91 
3087 506.03 489.43 550.91 
3088 516.41 502.02 550.91 
3089 499.90 498.24 550.91 
3090 516.44 500.25 550.91 
3091 482.09 505.83 550.91 
3092 484.76 507.74 550.91 
3093 504.47 502.39 550.91 
3094 495.53 505.41 550.91 
3095 505.73 509.96 550.91 
3096 524.64 514.01 550.91 
3097 510.35 509.30 550.91 
3098 494.25 516.54 550.91 
3099 492.21 518.34 550.91 
3100 480.35 518.07 550.91 
3101 492.97 515.15 550.91 
3102 500.01 516.67 550.91 
3103 516.14 522.67 550.91 
3104 486.89 520.96 550.91 
3105 502.14 523.93 550.91 
3106 541.91 522.87 550.91 
3107 495.79 516.82 550.91 
3108 500.75 518.57 550.91 
3109 478.10 519.81 550.91 
3110 485.92 532.38 550.91 
3111 492.77 523.61 550.91 
3112 511.25 519.60 550.91 
3113 509.74 514.10 550.91 
3114 499.48 511.08 550.91 
3115 497.01 515.85 550.91 
3116 473.57 445.52 550.91 
3117 528.30 473.90 550.91 
3118 512.57 445.72 550.91 
3119 517.97 431.41 550.91 
3120 509.64 445.23 550.91 
3121 485.04 485.90 550.91 
3122 514.91 488.14 550.91 
3123 523.88 491.11 550.91 
3124 504.65 503.63 550.91 
3125 501.66 491.69 550.91 
3126 520.06 487.86 550.91 
3127 510.92 496.66 550.91 
3128 507.92 487.10 550.91 
3129 515.79 469.48 550.91 
3130 489.50 435.23 550.91 
3131 482.33 447.08 550.91 
3132 512.48 436.00 550.91 
3133 512.37 436.27 550.91 
3134 497.51 428.76 550.91 
3135 511.33 427.47 550.91 
3136 494.61 426.74 550.91 
3137 498.73 426.91 550.91 
3138 510.49 431.61 550.91 
3139 519.78 432.63 550.91 
3140 498.94 443.31 550.91 
3141 534.49 452.51 550.91 
3142 523.57 437.20 550.91 
3143 495.46 436.68 550.91 
3144 510.40 439.68 550.91 
3145 501.22 465.85 550.91 
3146 488.59 478.20 550.91 
3147 517.66 480.23 550.91 
3148 513.73 470.23 550.91 
3149 499.84 472.78 550.91 
3150 530.38 458.89 550.91 
3151 530.18 482.07 550.91 
3152 507.52 469.76 550.91 
3153 491.25 467.97 550.91 
3154 525.49 456.87 550.91 
3155 490.54 465.43 550.91 
3156 512.58 449.15 550.91 
3157 496.52 442.57 550.91 
3158 508.23 470.69 550.91 
3159 501.71 462.03 550.91 
3160 499.54 474.11 550.91 
3161 506.22 457.09 550.91 
3162 546.65 477.68 550.91 
3163 534.19 467.24 550.91 
3164 491.16 485.91 550.91 
3165 475.40 466.68 550.91 
3166 489.70 470.21 550.91 
3167 494.03 483.32 550.91 
3168 527.17 480.64 550.91 
3169 528.69 485.67 550.91 
3170 506.38 482.89 550.91 
3171 498.29 484.89 550.91 
3172 538.36 486.68 550.91 
3173 540.11 488.19 550.91 
3174 515.79 481.59 550.91 
3175 521.90 480.88 550.91 
3176 537.05 483.13 550.91 
3177 513.27 484.18 550.91 
3178 519.23 485.87 550.91 
3179 500.10 489.25 550.91 
3180 526.89 490.01 550.91 
3181 509.13 494.54 550.91 
3182 511.28 482.22 550.91 
3183 533.30 481.95 550.91 
3184 505.97 479.18 550.91 
3185 518.18 477.36 550.91 
3186 518.44 476.87 550.91 
3187 524.31 476.63 550.91 
3188 498.47 473.35 550.91 
3189 529.85 479.16 550.91 
3190 522.43 476.14 550.91 
3191 513.68 481.70 550.91 
3192 513.80 476.13 550.91 
3193 492.45 473.03 550.91 
3194 508.92 465.45 550.91 
3195 482.40 462.12 550.91 
3196 515.98 456.27 550.91 
3197 474.67 436.75 550.91 
3198 498.91 450.92 550.91 
3199 513.82 436.84 550.91 
3200 521.16 427.98 550.91 
3201 530.40 413.70 550.91 
3202 506.52 428.02 550.91 
3203 513.05 458.24 550.91 
3204 530.25 456.03 550.91 
3205 470.00 439.50 550.91 
3206 508.01 426.47 550.91 
3207 476.38 425.96 550.91 
3208 547.89 422.14 550.91 
3209 526.74 429.32 550.91 
3210 504.09 458.66 550.91 
3211 495.65 448.64 550.91 
3212 529.93 449.14 550.91 
3213 532.10 463.25 550.91 
3214 514.83 464.99 550.91 
3215 532.88 466.22 550.91 
3216 492.95 468.30 550.91 
3217 514.20 469.32 550.91 
3218 493.52 496.73 550.91 
3219 548.90 505.80 550.91 
3220 509.69 505.57 550.91 
3221 504.20 501.02 550.91 
3222 493.99 496.04 550.91 
3223 561.25 493.25 550.91 
3224 535.62 496.94 561.25 
3225 518.50 489.36 561.25 
3226 485.96 502.50 561.25 
3227 519.81 500.18 561.25 
3228 492.24 494.43 561.25 
3229 518.85 481.25 561.25 
3230 531.42 490.30 561.25 
3231 520.23 490.60 561.25 
3232 518.49 489.11 561.25 
3233 508.64 493.87 561.25 
3234 526.14 491.64 561.25 
3235 518.15 487.09 561.25 
3236 491.12 487.12 561.25 
3237 503.04 493.40 561.25 
3238 518.70 488.84 561.25 
3239 463.78 475.72 561.25 
3240 512.51 480.01 561.25 
3241 523.79 483.59 561.25 
3242 504.78 483.57 561.25 
3243 514.65 480.24 561.25 
3244 516.97 479.74 561.25 
3245 531.94 474.95 561.25 
3246 514.66 464.89 561.25 
3247 511.78 467.70 561.25 
3248 490.86 466.66 561.25 
3249 488.00 481.93 561.25 
3250 518.12 485.20 561.25 
3251 515.89 481.46 561.25 
3252 537.60 510.11 561.25 
3253 500.76 518.48 561.25 
3254 508.89 519.48 561.25 
3255 525.54 505.67 561.25 
3256 509.41 512.70 561.25 
3257 503.65 502.86 561.25 
3258 502.27 499.40 561.25 
3259 491.39 491.97 561.25 
3260 484.29 495.80 561.25 
3261 490.93 510.07 561.25 
3262 526.68 494.47 561.25 
3263 519.24 489.69 561.25 
3264 481.30 487.91 561.25 
3265 524.73 504.72 561.25 
3266 523.93 494.19 561.25 
3267 524.07 491.76 561.25 
3268 497.49 505.32 561.25 
3269 517.96 503.50 561.25 
3270 528.35 487.45 561.25 
3271 507.92 478.94 561.25 
3272 513.04 475.11 561.25 
3273 488.35 461.42 561.25 
3274 500.71 459.59 561.25 
3275 530.49 469.41 561.25 
3276 512.55 479.67 561.25 
3277 542.25 484.50 561.25 
3278 497.46 485.49 561.25 
3279 537.68 456.22 561.25 
3280 511.35 476.43 561.25 
3281 495.95 458.20 561.25 
3282 510.30 457.47 561.25 
3283 519.71 458.58 561.25 
3284 497.40 446.44 561.25 
3285 541.36 445.37 561.25 
3286 508.80 444.11 561.25 
3287 495.98 467.64 561.25 
3288 530.43 484.43 561.25 
3289 517.38 486.02 561.25 
3290 510.24 440.55 561.25 
3291 490.46 431.08 561.25 
3292 478.11 423.08 561.25 
3293 519.10 418.53 561.25 
3294 496.51 415.78 561.25 
3295 508.90 439.69 561.25 
3296 479.62 433.64 561.25 
3297 520.21 452.95 561.25 
3298 518.02 458.14 561.25 
3299 493.07 469.55 561.25 
3300 527.33 459.92 561.25 
3301 486.56 459.41 561.25 
3302 506.81 470.65 561.25 
3303 514.21 474.02 561.25 
3304 519.71 467.48 561.25 
3305 509.94 467.29 561.25 
3306 494.07 469.69 561.25 
3307 466.93 469.21 561.25 
3308 503.68 462.20 561.25 
3309 521.00 454.20 561.25 
3310 512.15 461.18 561.25 
3311 488.94 453.68 561.25 
3312 510.91 459.63 561.25 
3313 525.78 461.19 561.25 
3314 490.96 464.73 561.25 
3315 529.89 474.99 561.25 
3316 491.10 472.64 561.25 
3317 496.14 493.98 561.25 
3318 506.71 508.85 561.25 
3319 460.32 506.83 561.25 
3320 502.17 507.33 561.25 
3321 505.90 497.21 561.25 
3322 496.84 494.43 561.25 
3323 497.98 488.64 561.25 
3324 506.29 491.12 561.25 
3325 497.20 500.26 561.25 
3326 501.34 500.51 561.25 
3327 523.40 508.85 561.25 
3328 530.01 514.12 561.25 
3329 495.20 497.75 561.25 
3330 533.00 504.06 561.25 
3331 516.27 503.82 561.25 
3332 527.12 505.07 561.25 
3333 487.01 506.09 561.25 
3334 505.31 504.09 561.25 
3335 515.30 499.59 561.25 
3336 506.89 503.06 561.25 
3337 481.07 493.25 561.25 
3338 487.69 476.35 561.25 
3339 538.86 461.72 561.25 
3340 515.32 462.69 561.25 
3341 537.22 474.35 561.25 
3342 544.98 470.00 561.25 
3343 510.09 469.29 561.25 
3344 494.73 483.91 561.25 
3345 517.56 495.94 561.25 
3346 526.54 509.81 561.25 
3347 503.66 493.26 561.25 
3348 502.56 493.51 561.25 
3349 490.10 491.04 561.25 
3350 497.51 496.28 561.25 
3351 509.20 495.30 561.25 
3352 509.60 488.47 561.25 
3353 490.34 478.66 561.25 
3354 528.04 471.25 561.25 
3355 520.92 467.48 561.25 
3356 509.66 468.27 561.25 
3357 507.29 458.90 561.25 
3358 516.97 463.72 561.25 
3359 521.98 470.57 561.25 
3360 522.67 478.91 561.25 
3361 524.76 487.43 561.25 
3362 483.67 478.83 561.25 
3363 524.12 470.06 561.25 
3364 524.42 454.74 561.25 
3365 515.45 445.66 561.25 
3366 498.27 450.12 561.25 
3367 470.66 469.60 561.25 
3368 494.79 466.22 561.25 
3369 486.79 464.20 561.25 
3370 535.20 467.47 561.25 
3371 529.91 475.83 561.25 
3372 509.10 469.49 561.25 
3373 486.51 461.14 561.25 
3374 488.95 454.74 561.25 
3375 489.88 470.42 561.25 
3376 526.79 460.70 561.25 
3377 509.86 451.57 561.25 
3378 537.87 457.49 561.25 
3379 523.03 458.02 561.25 
3380 519.22 486.31 561.25 
3381 519.08 491.65 561.25 
3382 509.58 489.11 561.25 
3383 503.46 491.63 561.25 
3384 508.73 483.78 561.25 
3385 520.84 481.01 561.25 
3386 507.16 497.38 561.25 
3387 521.15 488.60 561.25 
3388 513.12 496.41 561.25 
3389 511.61 498.89 561.25 
3390 515.36 495.37 561.25 
3391 502.14 490.90 561.25 
3392 490.71 491.08 561.25 
3393 512.06 494.13 561.25 
3394 495.99 493.45 561.25 
3395 478.64 495.69 561.25 
3396 540.41 494.21 561.25 
3397 492.87 494.72 561.25 
3398 530.32 493.69 561.25 
3399 500.70 487.62 561.25 
3400 504.71 460.87 561.25 
3401 502.49 463.35 561.25 
3402 504.07 465.93 561.25 
3403 508.18 482.32 561.25 
3404 480.79 477.02 561.25 
3405 508.80 461.63 561.25 
3406 473.90 468.63 561.25 
3407 539.69 444.59 561.25 
3408 507.41 463.93 561.25 
3409 525.60 465.18 561.25 
3410 527.46 462.88 561.25 
3411 501.67 462.42 561.25 
3412 526.05 444.89 561.25 
3413 503.71 443.18 561.25 
3414 475.35 453.98 561.25 
3415 500.65 442.41 561.25 
3416 504.30 459.86 561.25 
3417 507.85 456.86 561.25 
3418 514.61 468.17 561.25 
3419 526.71 470.70 561.25 
3420 525.98 466.94 561.25 
3421 519.13 471.19 561.25 
3422 515.61 452.06 561.25 
3423 508.22 443.89 561.25 
3424 525.76 427.20 561.25 
3425 534.27 427.37 561.25 
3426 522.21 434.55 561.25 
3427 521.73 426.23 561.25 
3428 535.37 428.83 561.25 
3429 509.78 445.00 561.25 
3430 490.81 437.67 561.25 
3431 508.15 436.08 561.25 
3432 538.29 444.42 561.25 
3433 500.68 434.36 561.25 
3434 494.05 436.09 561.25 
3435 524.69 447.71 561.25 
3436 488.14 439.63 561.25 
3437 500.57 444.85 561.25 
3438 496.78 454.04 561.25 
3439 491.22 450.21 561.25 
3440 526.75 450.11 561.25 
3441 520.72 442.23 561.25 
3442 506.41 456.01 561.25 
3443 517.96 462.17 561.25 
3444 504.27 462.44 561.25 
3445 537.17 473.33 561.25 
3446 512.08 467.26 561.25 
3447 498.31 466.25 561.25 
3448 504.69 463.99 561.25 
3449 508.22 459.65 561.25 
3450 510.47 460.42 561.25 
3451 513.61 466.46 561.25 
3452 490.82 466.40 561.25 
3453 513.63 465.87 561.25 
3454 484.97 462.80 561.25 
3455 538.08 467.90 561.25 
3456 514.91 464.61 561.25 
3457 494.69 466.39 561.25 
3458 523.13 470.22 561.25 
3459 488.01 478.87 561.25 
3460 538.24 473.81 561.25 
3461 523.07 463.33 561.25 
3462 490.15 459.49 561.25 
3463 523.52 464.07 561.25 
3464 519.31 464.57 561.25 
3465 504.83 469.67 561.25 
3466 491.19 468.84 561.25 
3467 524.86 464.23 561.25 
3468 512.14 470.84 561.25 
3469 534.93 471.88 561.25 
3470 514.29 460.43 561.25 
3471 503.53 465.24 561.25 
3472 478.86 462.36 561.25 
3473 516.73 455.92 561.25 
3474 488.71 453.06 561.25 
3475 520.53 457.27 561.25 
3476 536.08 460.58 561.25 
3477 510.73 458.00 561.25 
3478 492.34 449.47 561.25 
3479 508.51 452.05 561.25 
3480 478.55 463.17 561.25 
3481 510.36 458.37 561.25 
3482 533.33 449.08 561.25 
3483 522.56 452.91 561.25 
3484 485.24 451.59 561.25 
3485 509.77 446.51 561.25 
3486 521.37 444.28 561.25 
3487 520.65 442.53 561.25 
3488 513.36 440.72 561.25 
3489 503.80 443.47 561.25 
3490 517.38 442.87 561.25 
3491 490.46 445.96 561.25 
3492 530.39 449.45 561.25 
3493 543.80 452.58 561.25 
3494 540.25 452.25 561.25 
3495 490.40 450.21 561.25 
3496 509.05 453.82 561.25 
3497 520.02 454.62 561.25 
3498 512.72 450.50 561.25 
3499 528.29 453.11 561.25 
3500 528.29 453.87 561.25 
3501 514.72 442.54 561.25 
3502 533.31 441.76 561.25 
3503 505.57 439.40 561.25 
3504 507.85 440.09 561.25 
3505 508.15 441.16 561.25 
3506 518.06 442.40 561.25 
3507 524.17 442.97 561.25 
3508 523.87 447.26 561.25 
3509 537.46 449.06 561.25 
3510 519.78 449.53 561.25 
3511 530.33 450.82 561.25 
3512 522.99 444.73 561.25 
3513 507.20 446.50 561.25 
3514 541.96 444.70 561.25 
3515 491.84 455.43 561.25 
3516 498.57 456.24 561.25 
3517 513.49 462.58 561.25 
3518 504.52 469.45 561.25 
3519 534.28 471.01 561.25 
3520 513.95 463.89 561.25 
3521 514.28 472.57 561.25 
3522 508.60 466.00 561.25 
3523 503.68 458.21 561.25 
3524 507.78 451.54 561.25 
3525 528.39 460.36 561.25 
3526 528.00 453.78 561.25 
3527 510.14 449.61 561.25 
3528 524.11 448.39 561.25 
3529 512.63 451.21 561.25 
3530 468.95 465.74 561.25 
3531 515.73 446.75 561.25 
3532 501.99 437.69 561.25 
3533 506.27 447.01 561.25 
3534 529.03 448.31 561.25 
3535 542.98 448.07 561.25 
3536 512.89 447.00 561.25 
3537 519.05 446.05 561.25 
3538 512.86 441.76 561.25 
3539 536.24 445.36 561.25 
3540 494.66 435.42 561.25 
3541 544.22 443.75 561.25 
3542 554.37 462.21 561.25 
3543 525.31 468.05 561.25 
3544 542.43 466.78 561.25 
3545 528.54 466.52 561.25 
3546 509.74 467.05 561.25 
3547 485.01 473.42 561.25 
3548 511.51 479.28 561.25 
3549 504.67 474.45 561.25 
3550 511.82 476.25 561.25 
3551 536.11 483.37 561.25 
3552 520.40 482.54 561.25 
3553 539.66 485.58 561.25 
3554 492.82 485.07 561.25 
3555 523.78 486.58 561.25 
3556 518.97 487.85 561.25 
3557 527.69 484.85 561.25 
3558 538.96 472.39 561.25 
3559 496.10 461.18 561.25 
3560 529.95 445.89 561.25 
3561 565.01 441.81 561.25 
3562 502.48 439.72 565.01 
3563 509.94 436.91 565.01 
3564 514.84 440.96 565.01 
3565 485.07 438.42 565.01 
3566 511.76 439.20 565.01 
3567 511.11 441.02 565.01 
3568 501.77 439.41 565.01 
3569 516.72 437.39 565.01 
3570 509.77 440.67 565.01 
3571 547.84 449.83 565.01 
3572 511.09 447.31 565.01 
3573 527.58 451.93 565.01 
3574 497.28 449.65 565.01 
3575 533.09 482.30 565.01 
3576 505.38 482.15 565.01 
3577 506.69 482.71 565.01 
3578 508.80 484.68 565.01 
3579 519.75 486.61 565.01 
3580 501.64 486.62 565.01 
3581 473.03 487.17 565.01 
3582 500.39 485.05 565.01 
3583 516.15 484.99 565.01 
3584 517.32 485.64 565.01 
3585 552.01 486.73 565.01 
3586 504.95 489.91 565.01 
3587 544.64 491.68 565.01 
3588 500.43 490.68 565.01 
3589 507.57 491.11 565.01 
3590 498.96 490.85 565.01 
3591 509.15 492.41 565.01 
3592 534.09 493.20 565.01 
3593 552.42 490.46 565.01 
3594 529.37 489.38 565.01 
3595 529.09 486.03 565.01 
3596 499.65 477.23 565.01 
3597 510.38 489.11 565.01 
3598 532.90 475.93 565.01 
3599 529.10 484.54 565.01 
3600 496.91 479.65 565.01 
3601 487.88 480.17 565.01 
3602 525.38 469.05 565.01 
3603 505.33 484.25 565.01 
3604 517.18 486.23 565.01 
3605 487.35 483.34 565.01 
3606 514.94 483.62 565.01 
3607 519.10 489.90 565.01 
3608 511.97 491.22 565.01 
3609 499.85 493.71 565.01 
3610 487.51 492.64 565.01 
3611 521.64 492.35 565.01 
3612 515.77 490.82 565.01 
3613 474.85 490.28 565.01 
3614 508.48 471.16 565.01 
3615 495.83 474.93 565.01 
3616 523.29 460.41 565.01 
3617 505.91 469.84 565.01 
3618 504.59 465.51 565.01 
3619 502.12 468.57 565.01 
3620 514.46 458.49 565.01 
3621 519.95 459.26 565.01 
3622 499.20 457.50 565.01 
3623 507.10 466.56 565.01 
3624 526.26 459.35 565.01 
3625 521.60 469.40 565.01 
3626 510.51 469.56 565.01 
3627 517.65 467.97 565.01 
3628 491.26 467.44 565.01 
3629 488.96 461.27 565.01 
3630 498.35 458.93 565.01 
3631 485.30 443.36 565.01 
3632 539.40 451.23 565.01 
3633 513.81 449.27 565.01 
3634 532.15 440.20 565.01 
3635 523.30 431.56 565.01 
3636 473.42 430.27 565.01 
3637 505.57 430.78 565.01 
3638 508.59 424.89 565.01 
3639 537.90 430.56 565.01 
3640 536.09 432.40 565.01 
3641 532.32 426.79 565.01 
3642 531.91 427.33 565.01 
3643 515.11 423.68 565.01 
3644 528.66 420.36 565.01 
3645 514.55 419.30 565.01 
3646 506.96 420.89 565.01 
3647 538.93 424.52 565.01 
3648 547.01 423.57 565.01 
3649 514.16 424.04 565.01 
3650 550.59 427.36 565.01 
3651 527.83 427.76 565.01 
3652 489.46 428.26 565.01 
3653 528.21 445.38 565.01 
3654 511.53 439.04 565.01 
3655 506.27 460.68 565.01 
3656 519.17 479.95 565.01 
3657 498.19 482.92 565.01 
3658 528.27 483.20 565.01 
3659 507.83 486.50 565.01 
3660 517.70 491.05 565.01 
3661 500.17 494.12 565.01 
3662 502.95 494.14 565.01 
3663 524.34 496.18 565.01 
3664 495.39 496.95 565.01 
3665 544.09 494.92 565.01 
3666 514.59 496.15 565.01 
3667 507.18 487.98 565.01 
3668 505.64 503.99 565.01 
3669 490.40 507.28 565.01 
3670 517.32 510.20 565.01 
3671 516.85 509.98 565.01 
3672 536.92 505.81 565.01 
3673 531.00 505.82 565.01 
3674 549.89 499.82 565.01 
3675 481.45 507.85 565.01 
3676 515.18 498.07 565.01 
3677 501.68 496.56 565.01 
3678 525.41 509.64 565.01 
3679 520.42 511.64 565.01 
3680 486.36 510.63 565.01 
3681 536.01 497.57 565.01 
3682 503.54 482.28 565.01 
3683 511.05 496.07 565.01 
3684 520.50 488.99 565.01 
3685 497.42 508.87 565.01 
3686 490.43 515.66 565.01 
3687 524.96 525.69 565.01 
3688 507.68 525.70 565.01 
3689 516.61 528.93 565.01 
3690 511.57 537.67 565.01 
3691 518.50 520.64 565.01 
3692 517.05 519.15 565.01 
3693 531.55 510.87 565.01 
3694 516.47 517.39 565.01 
3695 506.72 510.39 565.01 
3696 500.71 516.91 565.01 
3697 519.50 513.66 565.01 
3698 532.08 515.66 565.01 
3699 512.94 504.14 565.01 
3700 482.44 501.87 565.01 
3701 519.99 496.04 565.01 
3702 497.39 510.13 565.01 
3703 502.72 508.62 565.01 
3704 550.44 504.56 565.01 
3705 507.21 503.56 565.01 
3706 517.33 492.71 565.01 
3707 526.75 495.28 565.01 
3708 566.18 491.49 565.01 
3709 509.47 491.74 566.18 
3710 499.86 490.71 566.18 
3711 501.96 490.44 566.18 
3712 525.03 486.89 566.18 
3713 501.42 490.69 566.18 
3714 524.15 486.37 566.18 
3715 513.06 489.68 566.18 
3716 510.31 491.47 566.18 
3717 487.94 492.73 566.18 
3718 509.67 493.25 566.18 
3719 555.04 493.99 566.18 
3720 512.49 499.31 566.18 
3721 519.03 503.07 566.18 
3722 503.40 494.45 566.18 
3723 553.52 498.78 566.18 
3724 518.39 494.72 566.18 
3725 517.21 487.11 566.18 
3726 530.28 488.63 566.18 
3727 507.27 486.33 566.18 
3728 515.06 497.73 566.18 
3729 507.92 508.12 566.18 
3730 512.60 507.10 566.18 
3731 503.28 510.14 566.18 
3732 527.64 510.90 566.18 
3733 491.70 506.57 566.18 
3734 501.72 506.84 566.18 
3735 531.57 504.57 566.18 
3736 526.78 501.53 566.18 
3737 514.90 500.30 566.18 
3738 507.17 490.19 566.18 
3739 519.14 502.36 566.18 
3740 493.90 502.12 566.18 
3741 514.05 502.89 566.18 
3742 521.25 501.36 566.18 
3743 525.48 505.65 566.18 
3744 535.61 504.16 566.18 
3745 532.23 509.19 566.18 
3746 517.47 512.95 566.18 
3747 530.00 512.94 566.18 
3748 468.10 508.43 566.18 
3749 499.48 509.18 566.18 
3750 517.95 505.89 566.18 
3751 513.24 501.89 566.18 
3752 497.44 504.88 566.18 
3753 550.08 506.15 566.18 
3754 526.59 508.16 566.18 
3755 536.07 511.16 566.18 
3756 515.88 510.92 566.18 
3757 506.36 506.38 566.18 
3758 514.75 506.64 566.18 
3759 545.62 505.36 566.18 
3760 519.18 505.85 566.18 
3761 513.90 504.34 566.18 
3762 553.42 506.87 566.18 
3763 525.15 501.57 566.18 
3764 554.47 506.88 566.18 
3765 523.94 508.69 566.18 
3766 511.62 503.61 566.18 
3767 504.24 500.08 566.18 
3768 503.10 508.66 566.18 
3769 528.92 511.43 566.18 
3770 489.96 509.92 566.18 
3771 494.86 512.46 566.18 
3772 508.08 513.24 566.18 
3773 550.36 511.46 566.18 
3774 543.23 510.95 566.18 
3775 501.13 509.71 566.18 
3776 522.05 508.94 566.18 
3777 540.97 509.42 566.18 
3778 527.79 508.16 566.18 
3779 486.98 509.67 566.18 
3780 513.07 510.64 566.18 
3781 544.05 510.70 566.18 
3782 507.13 512.22 566.18 
3783 523.86 508.44 566.18 
3784 516.96 509.97 566.18 
3785 515.29 515.26 566.18 
3786 532.39 517.26 566.18 
3787 505.73 516.01 566.18 
3788 500.70 514.24 566.18 
3789 509.18 512.46 566.18 
3790 535.84 515.50 566.18 
3791 554.45 512.19 566.18 
3792 510.68 514.46 566.18 
3793 514.26 515.73 566.18 
3794 509.67 514.46 566.18 
3795 502.15 512.93 566.18 
3796 532.28 507.15 566.18 
3797 500.77 512.96 566.18 
3798 508.31 509.95 566.18 
3799 517.11 520.01 566.18 
3800 514.71 516.72 566.18 
3801 520.55 510.68 566.18 
3802 509.02 509.66 566.18 
3803 507.18 506.61 566.18 
3804 524.36 515.94 566.18 
3805 524.28 512.65 566.18 
3806 489.39 514.67 566.18 
3807 531.94 514.67 566.18 
3808 513.44 508.94 566.18 
3809 521.07 498.63 566.18 
3810 487.93 505.90 566.18 
3811 527.96 510.93 566.18 
3812 540.47 511.97 566.18 
3813 507.68 514.22 566.18 
3814 521.15 512.97 566.18 
3815 545.77 506.18 566.18 
3816 526.29 511.47 566.18 
3817 506.35 513.46 566.18 
3818 539.48 514.47 566.18 
3819 529.86 508.97 566.18 
3820 497.49 514.49 566.18 
3821 520.37 519.53 566.18 
3822 514.25 517.76 566.18 
3823 529.95 517.00 566.18 
3824 510.00 518.23 566.18 
3825 507.65 517.95 566.18 
3826 526.27 518.25 566.18 
3827 536.23 516.48 566.18 
3828 489.55 516.47 566.18 
3829 509.90 517.50 566.18 
3830 508.90 526.54 566.18 
3831 501.30 529.06 566.18 
3832 507.64 530.84 566.18 
3833 518.84 530.86 566.18 
3834 534.06 532.11 566.18 
3835 523.12 531.34 566.18 
3836 505.78 519.78 566.18 
3837 505.02 530.84 566.18 
3838 501.65 529.88 566.18 
3839 552.86 527.10 566.18 
3840 515.57 523.08 566.18 
3841 483.47 518.29 566.18 
3842 528.84 517.54 566.18 
3843 506.80 525.06 566.18 
3844 522.74 526.33 566.18 
3845 500.43 529.57 566.18 
3846 526.94 509.73 566.18 
3847 499.02 503.39 566.18 
3848 543.55 497.85 566.18 
3849 535.52 498.85 566.18 
3850 498.05 497.56 566.18 
3851 551.90 499.09 566.18 
3852 536.49 500.10 566.18 
3853 494.39 504.91 566.18 
3854 504.31 499.83 566.18 
3855 526.12 492.28 566.18 
3856 506.62 474.84 566.18 
3857 509.04 479.10 566.18 
3858 504.12 475.31 566.18 
3859 496.06 486.95 566.18 
3860 513.07 490.50 566.18 
3861 499.98 482.64 566.18 
3862 535.63 479.87 566.18 
3863 500.78 483.66 566.18 
3864 505.43 478.34 566.18 
3865 541.80 473.79 566.18 
3866 522.96 460.50 566.18 
3867 521.56 471.76 566.18 
3868 547.19 467.97 566.18 
3869 512.27 462.88 566.18 
3870 562.08 440.28 566.18 
3871 531.75 433.25 566.18 
3872 500.72 424.56 566.18 
3873 514.06 426.42 566.18 
3874 525.64 430.46 566.18 
3875 517.30 424.90 566.18 
3876 510.84 431.17 566.18 
3877 483.70 436.70 566.18 
3878 510.38 461.91 566.18 
3879 536.56 434.95 566.18 
3880 530.08 430.39 566.18 
3881 539.17 438.72 566.18 
3882 515.15 435.98 566.18 
3883 519.39 452.31 566.18 
3884 479.25 430.89 566.18 
3885 538.19 440.80 566.18 
3886 527.12 423.65 566.18 
3887 499.01 435.98 566.18 
3888 528.77 449.80 566.18 
3889 510.20 454.15 566.18 
3890 510.19 462.47 566.18 
3891 487.36 480.17 566.18 
3892 500.22 485.49 566.18 
3893 501.52 492.07 566.18 
3894 537.84 489.27 566.18 
3895 540.68 496.60 566.18 
3896 493.47 514.29 566.18 
3897 518.03 504.44 566.18 
3898 527.77 499.63 566.18 
3899 494.81 486.93 566.18 
3900 531.05 497.09 566.18 
3901 544.55 480.61 566.18 
3902 506.34 473.06 566.18 
3903 523.66 474.36 566.18 
3904 572.14 465.20 566.18 
3905 521.77 482.87 572.14 
3906 480.09 488.61 572.14 
3907 521.42 480.54 572.14 
3908 539.62 477.48 572.14 
3909 493.59 484.53 572.14 
3910 524.17 480.26 572.14 
3911 543.01 476.51 572.14 
3912 501.71 477.73 572.14 
3913 528.35 473.49 572.14 
3914 526.36 475.01 572.14 
3915 536.79 469.69 572.14 
3916 518.65 488.61 572.14 
3917 541.28 483.13 572.14 
3918 514.37 481.33 572.14 
3919 515.62 491.35 572.14 
3920 514.11 486.30 572.14 
3921 525.12 483.28 572.14 
3922 489.23 484.00 572.14 
3923 508.17 490.82 572.14 
3924 491.01 491.86 572.14 
3925 561.17 499.95 572.14 
3926 481.39 480.43 572.14 
3927 540.16 485.48 572.14 
3928 520.21 485.48 572.14 
3929 550.40 484.98 572.14 
3930 522.00 503.22 572.14 
3931 497.63 501.17 572.14 
3932 522.43 501.95 572.14 
3933 498.72 504.78 572.14 
3934 532.78 500.72 572.14 
3935 491.16 488.75 572.14 
3936 523.89 488.75 572.14 
3937 510.94 493.80 572.14 
3938 505.13 476.10 572.14 
3939 517.99 468.17 572.14 
3940 522.34 459.53 572.14 
3941 501.60 453.34 572.14 
3942 527.23 452.06 572.14 
3943 543.29 442.79 572.14 
3944 501.04 453.34 572.14 
3945 512.04 455.11 572.14 
3946 531.93 465.39 572.14 
3947 521.77 461.75 572.14 
3948 538.38 469.21 572.14 
3949 514.28 467.91 572.14 
3950 516.48 457.44 572.14 
3951 510.66 458.11 572.14 
3952 510.75 461.74 572.14 
3953 511.53 475.54 572.14 
3954 525.83 472.39 572.14 
3955 523.73 469.10 572.14 
3956 519.55 469.94 572.14 
3957 520.81 472.33 572.14 
3958 502.97 477.67 572.14 
3959 515.11 475.65 572.14 
3960 488.61 496.67 572.14 
3961 497.94 497.97 572.14 
3962 526.80 488.32 572.14 
3963 496.86 484.54 572.14 
3964 543.60 495.71 572.14 
3965 527.11 489.93 572.14 
3966 509.16 492.47 572.14 
3967 518.14 488.93 572.14 
3968 530.25 499.03 572.14 
3969 519.13 495.99 572.14 
3970 519.15 479.32 572.14 
3971 554.42 498.78 572.14 
3972 521.03 501.61 572.14 
3973 521.08 500.59 572.14 
3974 541.73 477.88 572.14 
3975 536.68 485.95 572.14 
3976 536.17 489.20 572.14 
3977 527.53 482.60 572.14 
3978 520.06 481.38 572.14 
3979 528.24 471.01 572.14 
3980 532.85 465.94 572.14 
3981 520.01 484.54 572.14 
3982 529.62 482.79 572.14 
3983 538.33 493.70 572.14 
3984 519.20 488.90 572.14 
3985 523.09 486.89 572.14 
3986 502.34 480.61 572.14 
3987 510.86 468.28 572.14 
3988 521.63 467.81 572.14 
3989 514.72 487.18 572.14 
3990 480.47 490.18 572.14 
3991 538.61 497.55 572.14 
3992 510.44 490.97 572.14 
3993 520.25 495.74 572.14 
3994 538.48 492.23 572.14 
3995 531.92 480.35 572.14 
3996 539.77 487.67 572.14 
3997 539.18 497.49 572.14 
3998 527.97 489.79 572.14 
3999 519.19 492.55 572.14 
4000 528.10 492.33 572.14 
4001 537.36 485.48 572.14 
4002 521.66 490.50 572.14 
4003 497.41 496.28 572.14 
4004 496.93 492.22 572.14 
4005 527.92 495.51 572.14 
4006 526.60 486.39 572.14 
4007 502.91 490.70 572.14 
4008 520.50 487.45 572.14 
4009 507.02 487.94 572.14 
4010 516.70 490.52 572.14 
4011 534.45 488.75 572.14 
4012 532.20 482.94 572.14 
4013 493.39 486.01 572.14 
4014 533.95 485.94 572.14 
4015 511.30 485.10 572.14 
4016 515.42 490.42 572.14 
4017 520.90 474.58 572.14 
4018 540.67 462.16 572.14 
4019 505.30 476.32 572.14 
4020 519.48 478.86 572.14 
4021 497.73 481.66 572.14 
4022 518.84 484.19 572.14 
4023 535.22 492.19 572.14 
4024 511.76 479.79 572.14 
4025 524.92 467.17 572.14 
4026 511.28 471.19 572.14 
4027 546.55 482.76 572.14 
4028 551.35 485.06 572.14 
4029 497.07 488.58 572.14 
4030 544.44 486.08 572.14 
4031 541.73 485.84 572.14 
4032 532.19 482.12 572.14 
4033 501.53 479.58 572.14 
4034 519.15 487.88 572.14 
4035 526.90 485.35 572.14 
4036 510.54 486.58 572.14 
4037 545.32 485.33 572.14 
4038 503.62 493.65 572.14 
4039 502.82 488.82 572.14 
4040 523.38 484.28 572.14 
4041 509.48 487.83 572.14 
4042 496.97 486.78 572.14 
4043 513.84 492.12 572.14 
4044 526.30 494.17 572.14 
4045 525.86 490.38 572.14 
4046 497.06 485.56 572.14 
4047 504.45 475.02 572.14 
4048 533.75 476.53 572.14 
4049 497.88 481.06 572.14 
4050 533.29 463.04 572.14 
4051 488.30 465.30 572.14 
4052 542.28 467.44 572.14 
4053 533.57 469.65 572.14 
4054 550.35 477.51 572.14 
4055 525.41 485.89 572.14 
4056 513.02 484.85 572.14 
4057 494.45 482.84 572.14 
4058 537.74 472.63 572.14 
4059 535.95 468.10 572.14 
4060 509.69 471.10 572.14 
4061 506.52 470.30 572.14 
4062 521.62 468.21 572.14 
4063 519.14 469.31 572.14 
4064 495.13 474.96 572.14 
4065 504.57 473.94 572.14 
4066 530.24 477.98 572.14 
4067 518.28 474.41 572.14 
4068 531.66 471.03 572.14 
4069 524.25 468.69 572.14 
4070 512.10 467.92 572.14 
4071 505.01 469.01 572.14 
4072 509.61 469.08 572.14 
4073 526.39 464.54 572.14 
4074 518.21 461.27 572.14 
4075 514.85 458.97 572.14 
4076 516.28 454.42 572.14 
4077 508.11 449.25 572.14 
4078 534.44 450.02 572.14 
4079 536.90 451.75 572.14 
4080 519.10 448.31 572.14 
4081 506.76 450.32 572.14 
4082 538.22 449.79 572.14 
4083 528.38 455.28 572.14 
4084 522.86 459.10 572.14 
4085 514.74 464.91 572.14 
4086 502.92 464.67 572.14 
4087 514.26 471.75 572.14 
4088 480.23 473.80 572.14 
4089 506.78 476.61 572.14 
4090 515.99 475.08 572.14 
4091 485.89 474.31 572.14 
4092 499.70 498.36 572.14 
4093 534.88 489.29 572.14 
4094 519.34 482.96 572.14 
4095 530.71 484.45 572.14 
4096 525.62 491.83 572.14 
4097 531.44 487.79 572.14 
4098 511.81 495.11 572.14 
4099 500.16 494.86 572.14 
4100 511.89 484.98 572.14 
4101 505.30 478.90 572.14 
4102 510.34 474.83 572.14 
4103 496.79 479.42 572.14 
4104 537.30 477.95 572.14 
4105 527.30 471.34 572.14 
4106 530.00 476.36 572.14 
4107 504.91 476.84 572.14 
4108 523.03 483.20 572.14 
4109 532.42 469.57 572.14 
4110 533.82 466.27 572.14 
4111 516.22 458.03 572.14 
4112 519.06 459.39 572.14 
4113 511.84 457.28 572.14 
4114 507.46 453.97 572.14 
4115 513.51 441.47 572.14 
4116 528.10 442.05 572.14 
4117 517.37 422.01 572.14 
4118 530.36 439.25 572.14 
4119 525.45 449.22 572.14 
4120 521.50 434.93 572.14 
4121 500.80 425.49 572.14 
4122 503.78 426.19 572.14 
4123 532.00 414.07 572.14 
4124 519.60 419.08 572.14 
4125 526.38 417.08 572.14 
4126 540.64 417.90 572.14 
4127 506.76 422.45 572.14 
4128 528.39 415.62 572.14 
4129 543.04 421.23 572.14 
4130 528.41 419.69 572.14 
4131 559.20 415.05 572.14 
4132 500.31 404.66 572.14 
4133 536.76 397.20 572.14 
4134 514.16 404.08 572.14 
4135 512.89 418.32 572.14 
4136 547.16 419.84 572.14 
4137 540.12 429.00 572.14 
4138 533.58 437.38 572.14 
4139 516.35 436.66 572.14 
4140 527.53 435.12 572.14 
4141 523.94 440.02 572.14 
4142 530.55 446.31 572.14 
4143 499.58 438.73 572.14 
4144 508.07 450.54 572.14 
4145 512.88 460.61 572.14 
4146 529.47 464.22 572.14 
4147 497.25 458.82 572.14 
4148 518.45 464.46 572.14 
4149 543.40 458.78 572.14 
4150 511.97 463.92 572.14 
4151 517.09 463.05 572.14 
4152 493.28 469.74 572.14 
4153 525.87 470.69 572.14 
4154 520.77 466.57 572.14 
4155 523.97 460.86 572.14 
4156 523.93 469.17 572.14 
4157 531.05 476.14 572.14 
4158 492.46 473.83 572.14 
4159 514.15 470.03 572.14 
4160 507.41 466.72 572.14 
4161 526.27 471.26 572.14 
4162 492.01 473.48 572.14 
4163 510.98 471.43 572.14 
4164 530.31 460.67 572.14 
4165 544.08 465.83 572.14 
4166 542.12 449.00 572.14 
4167 560.46 456.71 572.14 
4168 531.77 436.48 572.14 
4169 528.65 456.44 572.14 
4170 505.19 457.04 572.14 
4171 509.41 466.51 572.14 
4172 513.73 462.66 572.14 
4173 534.73 471.60 572.14 
4174 530.54 479.74 572.14 
4175 506.83 473.36 572.14 
4176 502.45 463.17 572.14 
4177 553.60 458.49 572.14 
4178 528.87 453.62 572.14 
4179 508.01 447.62 572.14 
4180 515.52 435.27 572.14 
4181 529.44 442.40 572.14 
4182 499.54 452.88 572.14 
4183 502.03 466.75 572.14 
4184 530.55 465.26 572.14 
4185 515.62 464.75 572.14 
4186 521.61 463.82 572.14 
4187 529.94 462.12 572.14 
4188 523.65 469.05 572.14 
4189 499.02 471.93 572.14 
4190 525.90 473.47 572.14 
4191 496.00 477.29 572.14 
4192 522.14 474.56 572.14 
4193 518.02 488.22 572.14 
4194 493.60 490.77 572.14 
4195 496.41 497.07 572.14 
4196 526.28 488.43 572.14 
4197 533.78 475.23 572.14 
4198 504.27 478.37 572.14 
4199 510.94 473.78 572.14 
4200 532.11 482.16 572.14 
4201 490.07 478.02 572.14 
4202 495.63 482.19 572.14 
4203 513.38 474.78 572.14 
4204 495.90 457.20 572.14 
4205 557.99 465.05 572.14 
4206 516.04 461.60 572.14 
4207 538.54 451.07 572.14 
4208 512.92 465.75 572.14 
4209 521.10 472.85 572.14 
4210 524.14 460.49 572.14 
4211 525.09 462.95 572.14 
4212 519.57 470.85 572.14 
4213 517.53 460.23 572.14 
4214 491.58 450.49 572.14 
4215 497.93 444.11 572.14 
4216 507.73 434.46 572.14 
4217 504.27 433.24 572.14 
4218 511.12 436.31 572.14 
4219 525.88 433.18 572.14 
4220 511.66 446.95 572.14 
4221 482.90 457.42 572.14 
4222 520.70 457.61 572.14 
4223 515.49 451.67 572.14 
4224 539.98 455.99 572.14 
4225 518.95 453.94 572.14 
4226 539.56 456.05 572.14 
4227 501.64 463.63 572.14 
4228 498.71 458.36 572.14 
4229 490.95 456.75 572.14 
4230 545.09 434.50 572.14 
4231 517.12 441.63 572.14 
4232 466.94 447.71 572.14 
4233 518.58 452.38 572.14 
4234 520.79 447.64 572.14 
4235 489.90 451.14 572.14 
4236 520.56 460.63 572.14 
4237 519.52 446.11 572.14 
4238 500.30 454.71 572.14 
4239 507.93 457.73 572.14 
4240 519.29 464.76 572.14 
4241 514.96 470.74 572.14 
4242 509.94 471.01 572.14 
4243 515.92 481.57 572.14 
4244 498.82 481.73 572.14 
4245 501.02 468.32 572.14 
4246 531.39 475.50 572.14 
4247 510.89 483.37 572.14 
4248 534.55 493.23 572.14 
4249 537.71 512.04 572.14 
4250 528.81 523.88 572.14 
4251 518.42 526.88 572.14 
4252 515.61 525.56 572.14 
4253 509.09 526.78 572.14 
4254 493.58 521.97 572.14 
4255 533.16 522.77 572.14 
4256 537.11 530.87 572.14 
4257 499.50 531.64 572.14 
4258 524.37 530.35 572.14 
4259 499.30 524.31 572.14 
4260 532.45 524.54 572.14 
4261 525.40 524.06 572.14 
4262 500.04 529.62 572.14 
4263 555.60 526.87 572.14 
4264 511.08 521.30 572.14 
4265 510.66 508.46 572.14 
4266 516.58 501.11 572.14 
4267 538.51 508.41 572.14 
4268 493.83 485.77 572.14 
4269 516.69 494.83 572.14 
4270 528.64 496.38 572.14 
4271 527.63 500.03 572.14 
4272 511.51 496.29 572.14 
4273 547.70 506.63 572.14 
4274 485.67 502.57 572.14 
4275 521.78 494.69 572.14 
4276 544.73 509.05 572.14 
4277 540.01 496.43 572.14 
4278 507.26 496.10 572.14 
4279 520.67 507.22 572.14 
4280 525.41 512.14 572.14 
4281 523.45 485.68 572.14 
4282 528.51 508.22 572.14 
4283 514.72 514.36 572.14 
4284 515.34 527.47 572.14 
4285 518.47 529.69 572.14 
4286 546.97 539.87 572.14 
4287 499.06 527.88 572.14 
4288 533.42 530.61 572.14 
4289 486.43 537.90 572.14 
4290 535.87 529.58 572.14 
4291 523.29 508.53 572.14 
4292 538.46 523.60 572.14 
4293 483.75 530.81 572.14 
4294 504.49 533.08 572.14 
4295 507.39 531.60 572.14 
4296 540.74 515.46 572.14 
4297 497.18 514.68 572.14 
4298 525.30 506.34 572.14 
4299 512.05 509.63 572.14 
4300 525.43 506.16 572.14 
4301 514.94 507.70 572.14 
4302 498.96 500.63 572.14 
4303 526.83 505.68 572.14 
4304 518.75 524.29 572.14 
4305 538.42 526.05 572.14 
4306 514.75 530.87 572.14 
4307 536.66 530.65 572.14 
4308 537.62 534.12 572.14 
4309 530.82 531.85 572.14 
4310 546.31 537.64 572.14 
4311 542.39 523.09 572.14 
4312 518.64 514.00 572.14 
4313 523.78 511.00 572.14 
4314 524.75 502.64 572.14 
4315 521.33 508.48 572.14 
4316 507.27 510.24 572.14 
4317 524.70 506.70 572.14 
4318 528.21 507.94 572.14 
4319 509.27 524.04 572.14 
4320 542.69 538.44 572.14 
4321 541.79 535.68 572.14 
4322 538.17 545.21 572.14 
4323 494.19 554.49 572.14 
4324 502.04 537.69 572.14 
4325 529.90 552.50 572.14 
4326 537.48 537.71 572.14 
4327 517.55 533.49 572.14 
4328 547.61 516.91 572.14 
4329 515.09 517.15 572.14 
4330 524.72 518.64 572.14 
4331 535.03 520.37 572.14 
4332 531.81 526.19 572.14 
4333 529.57 522.16 572.14 
4334 533.47 519.15 572.14 
4335 539.97 520.66 572.14 
4336 541.14 519.18 572.14 
4337 543.69 520.45 572.14 
4338 541.73 519.49 572.14 
4339 492.56 520.52 572.14 
4340 538.15 517.96 572.14 
4341 511.57 519.76 572.14 
4342 498.24 518.96 572.14 
4343 557.76 521.46 572.14 
4344 527.69 521.95 572.14 
4345 481.11 522.72 572.14 
4346 559.79 519.69 572.14 
4347 538.30 524.35 572.14 
4348 536.13 524.37 572.14 
4349 550.52 524.58 572.14 
4350 508.87 520.28 572.14 
4351 526.09 520.05 572.14 
4352 541.76 523.13 572.14 
4353 524.40 526.41 572.14 
4354 550.46 528.93 572.14 
4355 515.86 529.19 572.14 
4356 500.70 524.66 572.14 
4357 515.43 534.23 572.14 
4358 555.30 533.22 572.14 
4359 514.33 531.49 572.14 
4360 536.52 522.02 572.14 
4361 521.10 534.32 572.14 
4362 516.12 530.81 572.14 
4363 530.96 537.07 572.14 
4364 551.21 532.05 572.14 
4365 503.38 538.35 572.14 
4366 505.12 530.59 572.14 
4367 524.21 525.30 572.14 
4368 511.35 524.80 572.14 
4369 525.89 528.07 572.14 
4370 488.10 527.04 572.14 
4371 508.53 533.32 572.14 
4372 548.56 530.30 572.14 
4373 517.36 532.55 572.14 
4374 494.68 535.03 572.14 
4375 495.63 536.00 572.14 
4376 518.03 535.03 572.14 
4377 541.50 536.02 572.14 
4378 507.67 534.52 572.14 
4379 508.50 533.31 572.14 
4380 536.91 534.31 572.14 
4381 504.43 535.84 572.14 
4382 500.32 524.28 572.14 
4383 535.05 519.74 572.14 
4384 505.04 521.28 572.14 
4385 526.38 523.57 572.14 
4386 507.88 527.83 572.14 
4387 516.43 520.29 572.14 
4388 527.64 522.02 572.14 
4389 517.67 510.03 572.14 
4390 488.38 514.37 572.14 
4391 542.55 516.11 572.14 
4392 512.80 529.03 572.14 
4393 519.39 530.30 572.14 
4394 512.23 525.51 572.14 
4395 531.36 524.27 572.14 
4396 538.24 526.02 572.14 
4397 497.14 535.33 572.14 
4398 537.75 530.29 572.14 
4399 541.11 531.55 572.14 
4400 525.09 530.80 572.14 
4401 534.37 534.30 572.14 
4402 536.61 537.06 572.14 
4403 532.08 536.82 572.14 
4404 516.24 540.06 572.14 
4405 539.58 534.76 572.14 
4406 508.22 532.79 572.14 
4407 553.43 536.54 572.14 
4408 542.10 534.29 572.14 
4409 502.86 535.52 572.14 
4410 531.43 537.03 572.14 
4411 547.69 532.75 572.14 
4412 548.29 534.75 572.14 
4413 522.71 537.75 572.14 
4414 535.62 532.75 572.14 
4415 518.52 529.49 572.14 
4416 538.68 535.76 572.14 
4417 542.19 533.98 572.14 
4418 533.79 526.42 572.14 
4419 523.77 516.84 572.14 
4420 497.78 527.42 572.14 
4421 536.86 517.33 572.14 
4422 493.56 522.86 572.14 
4423 546.73 518.59 572.14 
4424 510.85 525.95 572.14 
4425 515.57 524.93 572.14 
4426 529.94 525.69 572.14 
4427 534.31 528.15 572.14 
4428 515.10 520.06 572.14 
4429 519.67 511.03 572.14 
4430 527.78 524.36 572.14 
4431 540.15 529.12 572.14 
4432 520.62 527.60 572.14 
4433 487.68 517.78 572.14 
4434 511.52 519.79 572.14 
4435 561.53 502.41 572.14 
4436 524.20 507.72 572.14 
4437 529.32 514.01 572.14 
4438 536.67 514.22 572.14 
4439 506.61 500.39 572.14 
