Iter | Sampling Pol | Evaluation Pol | Best (Sampled) 
   0 -349.91 -416.77 -100000000.00 
   1 -356.84 -413.81 -349.91 
   2 -361.27 -386.48 -349.91 
   3 -350.16 -387.18 -349.91 
   4 -355.54 -386.50 -349.91 
   5 -366.92 -384.75 -349.91 
   6 -341.90 -381.61 -349.91 
   7 -347.46 -374.62 -341.90 
   8 -343.52 -363.44 -341.90 
   9 -350.17 -358.55 -341.90 
  10 -347.72 -350.48 -341.90 
  11 -343.89 -357.31 -341.90 
  12 -332.13 -349.34 -341.90 
  13 -345.30 -348.66 -332.13 
  14 -340.29 -336.86 -332.13 
  15 -348.47 -337.47 -332.13 
  16 -346.79 -331.94 -332.13 
  17 -334.16 -310.36 -332.13 
  18 -351.83 -277.60 -332.13 
  19 -347.66 -279.68 -332.13 
  20 -343.14 -274.33 -332.13 
  21 -339.95 -244.01 -332.13 
  22 -333.62 -240.99 -332.13 
  23 -332.31 -241.17 -332.13 
  24 -328.20 -234.62 -332.13 
  25 -330.99 -249.53 -328.20 
  26 -327.04 -246.47 -328.20 
  27 -321.98 -238.58 -327.04 
  28 -321.34 -230.53 -321.98 
  29 -318.38 -227.54 -321.34 
  30 -316.76 -222.65 -318.38 
  31 -334.74 -224.34 -316.76 
  32 -322.18 -226.63 -316.76 
  33 -323.62 -221.25 -316.76 
  34 -324.98 -222.04 -316.76 
  35 -322.90 -223.92 -316.76 
  36 -319.58 -211.85 -316.76 
  37 -321.12 -217.27 -316.76 
  38 -318.90 -205.92 -316.76 
  39 -333.50 -206.32 -316.76 
  40 -308.98 -215.16 -316.76 
  41 -312.65 -229.73 -308.98 
  42 -308.08 -241.28 -308.98 
  43 -310.60 -260.53 -308.08 
  44 -308.25 -269.46 -308.08 
  45 -312.71 -265.50 -308.08 
  46 -308.71 -282.85 -308.08 
  47 -309.68 -286.95 -308.08 
  48 -306.74 -296.11 -308.08 
  49 -307.20 -284.81 -306.74 
  50 -297.28 -300.82 -306.74 
  51 -297.72 -298.57 -297.28 
  52 -293.32 -304.18 -297.28 
  53 -295.54 -311.88 -293.32 
  54 -300.40 -326.60 -293.32 
  55 -299.63 -341.30 -293.32 
  56 -300.71 -345.79 -293.32 
  57 -287.64 -352.21 -293.32 
  58 -296.27 -336.42 -287.64 
  59 -289.25 -348.19 -287.64 
  60 -297.98 -343.01 -287.64 
  61 -287.26 -322.24 -287.64 
  62 -301.05 -309.15 -287.26 
  63 -286.08 -309.01 -287.26 
  64 -287.32 -321.18 -286.08 
  65 -287.40 -314.33 -286.08 
  66 -289.55 -322.27 -286.08 
  67 -283.97 -312.98 -286.08 
  68 -289.88 -320.02 -283.97 
  69 -285.42 -312.36 -283.97 
  70 -286.35 -320.39 -283.97 
  71 -282.91 -324.49 -283.97 
  72 -273.17 -318.13 -282.91 
  73 -282.89 -308.79 -273.17 
  74 -274.28 -312.59 -273.17 
  75 -274.72 -312.21 -273.17 
  76 -276.13 -316.45 -273.17 
  77 -279.36 -306.37 -273.17 
  78 -273.61 -306.87 -273.17 
  79 -272.42 -317.94 -273.17 
  80 -268.94 -318.85 -272.42 
  81 -277.59 -312.26 -268.94 
  82 -272.37 -331.55 -268.94 
  83 -270.20 -312.06 -268.94 
  84 -272.92 -309.52 -268.94 
  85 -263.20 -308.96 -268.94 
  86 -272.77 -307.14 -263.20 
  87 -267.40 -301.88 -263.20 
  88 -270.17 -308.69 -263.20 
  89 -271.13 -304.98 -263.20 
  90 -261.40 -306.08 -263.20 
  91 -267.01 -293.33 -261.40 
  92 -266.43 -294.29 -261.40 
  93 -264.34 -297.42 -261.40 
  94 -258.88 -287.03 -261.40 
  95 -262.62 -278.36 -258.88 
  96 -265.52 -288.76 -258.88 
  97 -263.38 -286.16 -258.88 
  98 -267.10 -282.92 -258.88 
  99 -261.57 -283.71 -258.88 
 100 -258.92 -281.42 -258.88 
 101 -266.36 -294.63 -258.88 
 102 -264.60 -277.61 -258.88 
 103 -256.01 -289.82 -258.88 
 104 -258.86 -290.25 -256.01 
 105 -251.29 -283.91 -256.01 
 106 -251.27 -293.03 -251.29 
 107 -252.46 -282.91 -251.27 
 108 -252.75 -286.60 -251.27 
 109 -251.85 -281.26 -251.27 
 110 -248.72 -275.95 -251.27 
 111 -244.31 -270.54 -248.72 
 112 -248.76 -269.88 -244.31 
 113 -247.87 -271.70 -244.31 
 114 -250.41 -274.47 -244.31 
 115 -252.88 -273.04 -244.31 
 116 -245.92 -286.42 -244.31 
 117 -245.94 -274.59 -244.31 
 118 -247.77 -265.42 -244.31 
 119 -241.82 -265.86 -244.31 
 120 -241.42 -271.53 -241.82 
 121 -243.12 -268.59 -241.42 
 122 -246.30 -259.05 -241.42 
 123 -247.71 -267.52 -241.42 
 124 -241.67 -266.84 -241.42 
 125 -247.27 -266.87 -241.42 
 126 -239.24 -269.26 -241.42 
 127 -234.22 -262.28 -239.24 
 128 -240.08 -271.01 -234.22 
 129 -243.37 -256.69 -234.22 
 130 -239.81 -248.62 -234.22 
 131 -244.30 -247.73 -234.22 
 132 -240.33 -259.62 -234.22 
 133 -238.86 -250.16 -234.22 
 134 -236.83 -258.03 -234.22 
 135 -234.30 -249.10 -234.22 
 136 -240.35 -256.33 -234.22 
 137 -237.43 -254.29 -234.22 
 138 -235.87 -246.06 -234.22 
 139 -235.69 -241.73 -234.22 
 140 -236.68 -249.13 -234.22 
 141 -239.86 -247.11 -234.22 
 142 -233.87 -244.68 -234.22 
 143 -234.08 -248.20 -233.87 
 144 -235.07 -243.65 -233.87 
 145 -234.26 -245.83 -233.87 
 146 -232.18 -244.75 -233.87 
 147 -231.35 -248.90 -232.18 
 148 -232.98 -251.68 -231.35 
 149 -236.66 -236.16 -231.35 
 150 -231.86 -240.90 -231.35 
 151 -229.56 -244.12 -231.35 
 152 -233.17 -238.13 -229.56 
 153 -231.45 -236.40 -229.56 
 154 -231.58 -239.43 -229.56 
 155 -228.49 -235.82 -229.56 
 156 -229.67 -236.59 -228.49 
 157 -225.00 -229.63 -228.49 
 158 -226.36 -233.52 -225.00 
 159 -224.77 -224.98 -225.00 
 160 -225.22 -225.09 -224.77 
 161 -224.83 -227.51 -224.77 
 162 -224.62 -226.64 -224.77 
 163 -226.52 -226.00 -224.62 
 164 -227.35 -222.81 -224.62 
 165 -230.03 -222.86 -224.62 
 166 -224.66 -224.22 -224.62 
 167 -227.15 -221.45 -224.62 
 168 -225.66 -224.01 -224.62 
 169 -230.67 -221.29 -224.62 
 170 -224.36 -224.91 -224.62 
 171 -228.79 -223.51 -224.36 
 172 -227.36 -222.09 -224.36 
 173 -225.42 -221.42 -224.36 
 174 -229.44 -221.20 -224.36 
 175 -224.71 -222.37 -224.36 
 176 -222.39 -218.63 -224.36 
 177 -223.02 -213.01 -222.39 
 178 -220.26 -213.67 -222.39 
 179 -221.62 -216.12 -220.26 
 180 -222.30 -213.86 -220.26 
 181 -224.49 -216.09 -220.26 
 182 -219.78 -210.48 -220.26 
 183 -217.35 -212.08 -219.78 
 184 -223.67 -211.87 -217.35 
 185 -221.98 -212.57 -217.35 
 186 -224.07 -211.10 -217.35 
 187 -217.76 -211.30 -217.35 
 188 -218.74 -215.55 -217.35 
 189 -219.51 -218.85 -217.35 
 190 -218.32 -219.15 -217.35 
 191 -217.69 -217.08 -217.35 
 192 -214.06 -213.89 -217.35 
 193 -217.58 -213.17 -214.06 
 194 -215.43 -212.46 -214.06 
 195 -216.86 -212.80 -214.06 
 196 -215.81 -212.81 -214.06 
 197 -218.78 -212.26 -214.06 
 198 -216.95 -212.95 -214.06 
 199 -211.94 -210.12 -214.06 
 200 -215.10 -209.56 -211.94 
 201 -216.79 -207.04 -211.94 
 202 -212.55 -207.30 -211.94 
 203 -209.92 -206.12 -211.94 
 204 -212.48 -207.07 -209.92 
 205 -210.73 -205.15 -209.92 
 206 -210.81 -204.81 -209.92 
 207 -213.32 -204.29 -209.92 
 208 -211.26 -202.19 -209.92 
 209 -210.12 -203.24 -209.92 
 210 -210.69 -204.64 -209.92 
 211 -210.34 -202.54 -209.92 
 212 -207.43 -201.64 -209.92 
 213 -211.14 -199.62 -207.43 
 214 -209.30 -200.85 -207.43 
 215 -204.74 -204.12 -207.43 
 216 -208.47 -202.95 -204.74 
 217 -208.28 -202.78 -204.74 
 218 -205.22 -197.26 -204.74 
 219 -208.09 -201.33 -204.74 
 220 -205.68 -199.15 -204.74 
 221 -206.28 -198.27 -204.74 
 222 -204.76 -198.51 -204.74 
 223 -209.09 -198.68 -204.74 
 224 -205.38 -204.46 -204.74 
 225 -208.69 -201.45 -204.74 
 226 -206.35 -201.97 -204.74 
 227 -203.47 -201.66 -204.74 
 228 -205.54 -201.14 -203.47 
 229 -205.41 -204.22 -203.47 
 230 -203.79 -201.33 -203.47 
 231 -202.59 -203.01 -203.47 
 232 -201.98 -200.78 -202.59 
 233 -200.64 -198.46 -201.98 
 234 -203.95 -199.66 -200.64 
 235 -200.73 -200.09 -200.64 
 236 -201.89 -200.08 -200.64 
 237 -201.37 -202.82 -200.64 
 238 -202.66 -199.39 -200.64 
 239 -200.64 -199.56 -200.64 
 240 -201.42 -201.40 -200.64 
 241 -202.42 -200.25 -200.64 
 242 -198.83 -201.95 -200.64 
 243 -199.89 -201.01 -198.83 
 244 -199.44 -200.90 -198.83 
 245 -199.74 -201.18 -198.83 
 246 -200.08 -200.11 -198.83 
 247 -202.22 -202.55 -198.83 
 248 -201.55 -202.11 -198.83 
 249 -199.99 -200.87 -198.83 
 250 -198.20 -199.67 -198.83 
 251 -197.71 -195.68 -198.20 
 252 -197.50 -198.18 -197.71 
 253 -196.94 -198.38 -197.50 
 254 -199.14 -199.41 -196.94 
 255 -201.35 -199.01 -196.94 
 256 -195.16 -198.91 -196.94 
 257 -198.74 -196.96 -195.16 
 258 -195.92 -199.78 -195.16 
 259 -194.34 -198.47 -195.16 
 260 -195.86 -195.51 -194.34 
 261 -198.68 -198.01 -194.34 
 262 -195.04 -195.17 -194.34 
 263 -192.02 -196.39 -194.34 
 264 -195.25 -194.16 -192.02 
 265 -197.81 -195.76 -192.02 
 266 -192.27 -195.90 -192.02 
 267 -191.72 -195.51 -192.02 
 268 -193.93 -196.61 -191.72 
 269 -192.74 -195.88 -191.72 
 270 -193.28 -199.26 -191.72 
 271 -194.32 -197.90 -191.72 
 272 -194.27 -195.59 -191.72 
 273 -196.08 -194.51 -191.72 
 274 -190.51 -194.43 -191.72 
 275 -191.96 -196.27 -190.51 
 276 -192.14 -192.60 -190.51 
 277 -192.31 -194.84 -190.51 
 278 -193.41 -193.75 -190.51 
 279 -192.79 -191.62 -190.51 
 280 -189.33 -188.76 -190.51 
 281 -189.00 -191.49 -189.33 
 282 -191.50 -193.15 -189.00 
 283 -191.59 -189.40 -189.00 
 284 -187.65 -191.47 -189.00 
 285 -190.13 -190.60 -187.65 
 286 -192.51 -188.63 -187.65 
 287 -188.68 -189.71 -187.65 
 288 -186.79 -189.72 -187.65 
 289 -191.37 -187.14 -186.79 
 290 -189.80 -188.49 -186.79 
 291 -189.34 -184.02 -186.79 
 292 -186.39 -182.66 -186.79 
 293 -190.59 -182.16 -186.39 
 294 -187.45 -183.69 -186.39 
 295 -188.67 -183.35 -186.39 
 296 -185.36 -183.93 -186.39 
 297 -189.11 -182.84 -185.36 
 298 -187.83 -184.41 -185.36 
 299 -187.52 -182.01 -185.36 
 300 -188.91 -183.67 -185.36 
 301 -185.26 -185.42 -185.36 
 302 -185.73 -184.96 -185.26 
 303 -187.18 -180.81 -185.26 
 304 -185.50 -182.47 -185.26 
 305 -183.37 -180.87 -185.26 
 306 -186.03 -182.81 -183.37 
 307 -187.85 -188.37 -183.37 
 308 -182.02 -185.17 -183.37 
 309 -185.92 -181.25 -182.02 
 310 -180.75 -181.53 -182.02 
 311 -184.63 -182.24 -180.75 
 312 -184.98 -182.78 -180.75 
 313 -183.88 -180.29 -180.75 
 314 -181.69 -180.50 -180.75 
 315 -183.24 -179.13 -180.75 
 316 -184.43 -180.51 -180.75 
 317 -180.29 -177.43 -180.75 
 318 -185.15 -179.27 -180.29 
 319 -181.92 -179.18 -180.29 
 320 -182.68 -179.37 -180.29 
 321 -183.83 -177.22 -180.29 
 322 -181.77 -180.13 -180.29 
 323 -181.60 -180.49 -180.29 
 324 -179.67 -179.44 -180.29 
 325 -181.02 -180.69 -179.67 
 326 -183.19 -179.80 -179.67 
 327 -179.71 -174.07 -179.67 
 328 -182.56 -176.48 -179.67 
 329 -180.94 -174.83 -179.67 
 330 -180.53 -175.20 -179.67 
 331 -181.19 -175.18 -179.67 
 332 -180.84 -174.22 -179.67 
 333 -176.54 -174.39 -179.67 
 334 -178.92 -175.39 -176.54 
 335 -180.90 -175.50 -176.54 
 336 -178.45 -173.33 -176.54 
 337 -178.24 -173.51 -176.54 
 338 -178.95 -175.50 -176.54 
 339 -179.13 -176.31 -176.54 
 340 -180.04 -173.82 -176.54 
 341 -180.51 -173.33 -176.54 
 342 -177.01 -172.57 -176.54 
 343 -181.38 -172.75 -176.54 
 344 -181.70 -172.50 -176.54 
 345 -179.46 -171.81 -176.54 
 346 -179.11 -172.81 -176.54 
 347 -179.79 -171.18 -176.54 
 348 -176.95 -172.28 -176.54 
 349 -178.42 -169.68 -176.54 
 350 -177.99 -173.31 -176.54 
 351 -180.20 -172.19 -176.54 
 352 -177.60 -173.66 -176.54 
 353 -175.79 -170.89 -176.54 
 354 -176.89 -171.67 -175.79 
 355 -177.88 -169.37 -175.79 
 356 -176.33 -168.79 -175.79 
 357 -179.28 -170.55 -175.79 
 358 -179.63 -169.08 -175.79 
 359 -178.02 -168.74 -175.79 
 360 -177.82 -166.78 -175.79 
 361 -180.17 -166.63 -175.79 
 362 -178.96 -167.09 -175.79 
 363 -178.30 -166.81 -175.79 
 364 -179.49 -166.31 -175.79 
 365 -177.88 -167.92 -175.79 
 366 -177.24 -167.69 -175.79 
 367 -176.53 -169.54 -175.79 
 368 -176.25 -167.81 -175.79 
 369 -175.46 -165.28 -175.79 
 370 -177.18 -166.55 -175.46 
 371 -176.90 -168.03 -175.46 
 372 -177.61 -167.02 -175.46 
 373 -178.56 -164.59 -175.46 
 374 -176.60 -167.81 -175.46 
 375 -173.75 -167.09 -175.46 
 376 -175.96 -166.40 -173.75 
 377 -178.48 -166.36 -173.75 
 378 -177.64 -168.40 -173.75 
 379 -175.87 -167.69 -173.75 
 380 -175.81 -166.89 -173.75 
 381 -174.07 -164.20 -173.75 
 382 -173.66 -165.83 -173.75 
 383 -173.49 -164.21 -173.66 
 384 -175.07 -164.57 -173.49 
 385 -175.42 -163.45 -173.49 
 386 -173.18 -164.16 -173.49 
 387 -172.24 -165.50 -173.18 
 388 -173.70 -165.61 -172.24 
 389 -174.39 -166.45 -172.24 
 390 -176.43 -166.34 -172.24 
 391 -173.85 -166.41 -172.24 
 392 -174.82 -165.02 -172.24 
 393 -174.74 -162.83 -172.24 
 394 -172.60 -165.86 -172.24 
 395 -175.15 -167.26 -172.24 
 396 -174.19 -165.53 -172.24 
 397 -174.34 -166.53 -172.24 
 398 -174.93 -170.65 -172.24 
 399 -171.96 -170.45 -172.24 
 400 -176.83 -169.19 -171.96 
 401 -174.88 -169.48 -171.96 
 402 -171.33 -168.04 -171.96 
 403 -175.83 -168.99 -171.33 
 404 -173.06 -167.11 -171.33 
 405 -172.14 -166.29 -171.33 
 406 -173.80 -167.21 -171.33 
 407 -172.08 -165.10 -171.33 
 408 -173.31 -165.84 -171.33 
 409 -174.62 -165.82 -171.33 
 410 -173.89 -165.50 -171.33 
 411 -172.09 -166.41 -171.33 
 412 -173.72 -163.27 -171.33 
 413 -172.90 -165.31 -171.33 
 414 -173.35 -167.21 -171.33 
 415 -171.54 -162.29 -171.33 
 416 -171.85 -163.84 -171.33 
 417 -174.16 -162.71 -171.33 
 418 -171.03 -163.93 -171.33 
 419 -173.71 -163.34 -171.03 
 420 -173.95 -165.27 -171.03 
 421 -175.15 -164.84 -171.03 
 422 -172.23 -164.81 -171.03 
 423 -172.83 -165.91 -171.03 
 424 -169.32 -166.10 -171.03 
 425 -174.46 -167.67 -169.32 
 426 -172.80 -167.20 -169.32 
 427 -172.67 -166.00 -169.32 
 428 -173.71 -165.07 -169.32 
 429 -172.37 -163.13 -169.32 
 430 -173.46 -164.48 -169.32 
 431 -174.06 -163.74 -169.32 
 432 -175.25 -166.03 -169.32 
 433 -173.44 -166.47 -169.32 
 434 -169.95 -162.63 -169.32 
 435 -172.78 -164.55 -169.32 
 436 -170.77 -163.30 -169.32 
 437 -174.61 -164.35 -169.32 
 438 -172.72 -163.30 -169.32 
 439 -172.37 -166.24 -169.32 
 440 -171.78 -167.61 -169.32 
 441 -171.79 -166.38 -169.32 
 442 -170.89 -165.20 -169.32 
 443 -177.50 -162.78 -169.32 
 444 -171.26 -164.51 -169.32 
 445 -170.98 -165.73 -169.32 
 446 -171.25 -165.50 -169.32 
 447 -172.59 -165.64 -169.32 
 448 -170.33 -166.71 -169.32 
 449 -169.45 -166.25 -169.32 
 450 -170.28 -167.79 -169.32 
 451 -171.19 -167.58 -169.32 
 452 -170.91 -166.87 -169.32 
 453 -169.43 -166.36 -169.32 
 454 -170.16 -164.68 -169.32 
 455 -172.16 -165.02 -169.32 
 456 -170.35 -165.38 -169.32 
 457 -171.19 -164.65 -169.32 
 458 -169.40 -167.88 -169.32 
 459 -171.38 -167.35 -169.32 
 460 -170.29 -168.03 -169.32 
 461 -170.08 -165.95 -169.32 
 462 -170.67 -166.33 -169.32 
 463 -171.69 -166.74 -169.32 
 464 -171.35 -166.12 -169.32 
 465 -170.10 -164.00 -169.32 
 466 -169.46 -164.90 -169.32 
 467 -172.66 -167.45 -169.32 
 468 -173.54 -162.17 -169.32 
 469 -169.22 -161.92 -169.32 
 470 -173.54 -165.82 -169.22 
 471 -171.14 -166.86 -169.22 
 472 -169.72 -167.22 -169.22 
 473 -171.09 -165.36 -169.22 
 474 -171.93 -165.36 -169.22 
 475 -169.04 -165.52 -169.22 
 476 -170.29 -164.37 -169.04 
 477 -170.05 -163.05 -169.04 
 478 -170.91 -164.30 -169.04 
 479 -169.90 -165.90 -169.04 
 480 -172.02 -164.53 -169.04 
 481 -169.97 -164.48 -169.04 
 482 -170.02 -164.84 -169.04 
 483 -173.37 -164.72 -169.04 
 484 -169.77 -164.74 -169.04 
 485 -169.95 -163.13 -169.04 
 486 -167.93 -163.57 -169.04 
 487 -169.86 -163.93 -167.93 
 488 -171.70 -162.70 -167.93 
 489 -170.92 -165.68 -167.93 
 490 -173.44 -158.34 -167.93 
 491 -169.92 -160.56 -167.93 
 492 -170.38 -161.77 -167.93 
 493 -168.85 -162.40 -167.93 
 494 -167.83 -160.21 -167.93 
 495 -171.80 -159.89 -167.83 
 496 -169.75 -160.31 -167.83 
 497 -171.17 -163.51 -167.83 
 498 -170.46 -161.10 -167.83 
 499 -171.84 -167.19 -167.83 
 500 -170.45 -164.73 -167.83 
 501 -173.78 -162.09 -167.83 
 502 -170.10 -160.04 -167.83 
 503 -172.54 -164.32 -167.83 
 504 -170.40 -164.29 -167.83 
 505 -169.36 -165.39 -167.83 
 506 -170.23 -163.51 -167.83 
 507 -171.58 -165.48 -167.83 
 508 -167.38 -164.52 -167.83 
 509 -168.52 -167.47 -167.38 
 510 -170.71 -165.81 -167.38 
 511 -173.28 -163.64 -167.38 
 512 -172.89 -162.78 -167.38 
 513 -170.28 -165.77 -167.38 
 514 -169.64 -161.69 -167.38 
 515 -166.84 -161.05 -167.38 
 516 -170.63 -164.50 -166.84 
 517 -168.30 -166.69 -166.84 
 518 -167.95 -164.74 -166.84 
 519 -169.32 -166.05 -166.84 
 520 -170.69 -166.71 -166.84 
 521 -170.39 -164.70 -166.84 
 522 -167.46 -165.23 -166.84 
 523 -169.20 -167.30 -166.84 
 524 -168.82 -163.25 -166.84 
 525 -170.65 -166.13 -166.84 
 526 -171.15 -167.95 -166.84 
 527 -172.09 -168.11 -166.84 
 528 -171.51 -165.15 -166.84 
 529 -168.79 -167.40 -166.84 
 530 -169.27 -166.99 -166.84 
 531 -169.49 -163.52 -166.84 
 532 -167.07 -165.36 -166.84 
 533 -169.16 -163.04 -166.84 
 534 -169.16 -165.95 -166.84 
 535 -169.06 -166.92 -166.84 
 536 -168.26 -166.22 -166.84 
 537 -167.76 -167.84 -166.84 
 538 -168.72 -167.35 -166.84 
 539 -168.48 -167.72 -166.84 
 540 -170.61 -167.82 -166.84 
 541 -170.77 -168.17 -166.84 
 542 -169.75 -167.40 -166.84 
 543 -168.51 -168.66 -166.84 
 544 -169.62 -167.96 -166.84 
 545 -167.68 -168.19 -166.84 
 546 -169.80 -163.32 -166.84 
 547 -166.93 -165.93 -166.84 
 548 -168.81 -165.39 -166.84 
 549 -169.01 -165.59 -166.84 
 550 -169.09 -163.25 -166.84 
 551 -168.36 -164.07 -166.84 
 552 -166.95 -165.59 -166.84 
 553 -167.25 -162.63 -166.84 
 554 -167.74 -163.44 -166.84 
 555 -170.01 -162.53 -166.84 
 556 -169.80 -165.22 -166.84 
 557 -168.12 -162.71 -166.84 
 558 -168.51 -161.15 -166.84 
 559 -170.32 -162.89 -166.84 
 560 -168.75 -163.89 -166.84 
 561 -167.78 -164.99 -166.84 
 562 -167.94 -165.24 -166.84 
 563 -166.57 -163.87 -166.84 
 564 -166.80 -164.74 -166.57 
 565 -168.95 -164.94 -166.57 
 566 -167.14 -163.86 -166.57 
 567 -167.46 -164.31 -166.57 
 568 -168.58 -164.35 -166.57 
 569 -167.24 -163.94 -166.57 
 570 -168.05 -162.74 -166.57 
 571 -168.43 -162.27 -166.57 
 572 -170.03 -162.87 -166.57 
 573 -167.76 -164.64 -166.57 
 574 -168.95 -162.71 -166.57 
 575 -170.16 -163.79 -166.57 
 576 -166.92 -163.73 -166.57 
 577 -166.03 -162.79 -166.57 
 578 -164.85 -163.96 -166.03 
 579 -168.06 -162.91 -164.85 
 580 -167.08 -163.49 -164.85 
 581 -165.78 -160.88 -164.85 
 582 -169.22 -163.25 -164.85 
 583 -165.52 -161.62 -164.85 
 584 -167.34 -162.33 -164.85 
 585 -166.76 -156.50 -164.85 
 586 -169.13 -156.34 -164.85 
 587 -168.84 -162.18 -164.85 
 588 -167.74 -156.49 -164.85 
 589 -168.36 -157.97 -164.85 
 590 -164.95 -159.07 -164.85 
 591 -166.57 -159.12 -164.85 
 592 -167.86 -161.49 -164.85 
 593 -170.63 -161.25 -164.85 
 594 -166.69 -160.98 -164.85 
 595 -167.61 -159.46 -164.85 
 596 -165.97 -160.07 -164.85 
 597 -166.67 -159.40 -164.85 
 598 -165.80 -159.55 -164.85 
 599 -166.65 -158.52 -164.85 
 600 -169.26 -158.92 -164.85 
 601 -166.33 -160.05 -164.85 
 602 -165.76 -159.01 -164.85 
 603 -165.81 -159.98 -164.85 
 604 -167.19 -158.45 -164.85 
 605 -165.93 -160.74 -164.85 
 606 -165.25 -158.36 -164.85 
 607 -167.11 -158.50 -164.85 
 608 -168.71 -157.16 -164.85 
 609 -166.29 -161.20 -164.85 
 610 -165.78 -164.27 -164.85 
 611 -166.20 -165.17 -164.85 
 612 -166.79 -165.21 -164.85 
 613 -166.25 -164.32 -164.85 
 614 -166.46 -163.69 -164.85 
 615 -164.08 -164.33 -164.85 
 616 -166.08 -164.21 -164.08 
 617 -166.24 -164.81 -164.08 
 618 -166.63 -164.05 -164.08 
 619 -168.21 -165.83 -164.08 
 620 -165.20 -164.92 -164.08 
 621 -165.20 -165.36 -164.08 
 622 -166.33 -164.46 -164.08 
 623 -168.51 -165.45 -164.08 
 624 -167.93 -164.35 -164.08 
 625 -166.52 -163.69 -164.08 
 626 -165.15 -164.83 -164.08 
 627 -167.31 -163.64 -164.08 
 628 -164.93 -163.82 -164.08 
 629 -166.13 -164.29 -164.08 
 630 -166.05 -162.87 -164.08 
 631 -168.72 -164.57 -164.08 
 632 -164.40 -162.65 -164.08 
 633 -167.16 -165.09 -164.08 
 634 -164.62 -164.03 -164.08 
 635 -164.31 -161.90 -164.08 
 636 -165.94 -164.14 -164.08 
 637 -166.48 -164.69 -164.08 
 638 -167.59 -164.96 -164.08 
 639 -165.87 -162.13 -164.08 
 640 -164.94 -163.13 -164.08 
 641 -167.63 -162.73 -164.08 
 642 -166.50 -161.83 -164.08 
 643 -166.99 -161.67 -164.08 
 644 -164.31 -162.85 -164.08 
 645 -164.44 -164.77 -164.08 
 646 -164.91 -163.83 -164.08 
 647 -165.58 -163.76 -164.08 
 648 -167.02 -161.28 -164.08 
 649 -165.99 -162.79 -164.08 
 650 -167.29 -164.82 -164.08 
 651 -167.53 -161.78 -164.08 
 652 -166.21 -162.01 -164.08 
 653 -167.49 -163.98 -164.08 
 654 -166.48 -163.76 -164.08 
 655 -167.87 -163.65 -164.08 
 656 -165.34 -162.24 -164.08 
 657 -165.77 -164.38 -164.08 
 658 -166.40 -163.31 -164.08 
 659 -165.03 -163.25 -164.08 
 660 -167.59 -162.50 -164.08 
 661 -165.31 -164.32 -164.08 
 662 -162.85 -162.42 -164.08 
 663 -167.55 -162.27 -162.85 
 664 -167.19 -163.28 -162.85 
 665 -167.95 -164.62 -162.85 
 666 -164.57 -163.87 -162.85 
 667 -166.74 -161.72 -162.85 
 668 -165.70 -162.20 -162.85 
 669 -165.55 -161.38 -162.85 
 670 -168.28 -162.08 -162.85 
 671 -165.62 -161.94 -162.85 
 672 -166.70 -161.79 -162.85 
 673 -167.75 -163.54 -162.85 
 674 -167.07 -163.59 -162.85 
 675 -164.94 -161.24 -162.85 
 676 -167.81 -162.84 -162.85 
 677 -165.66 -161.91 -162.85 
 678 -166.09 -161.88 -162.85 
 679 -166.54 -161.93 -162.85 
 680 -166.25 -160.64 -162.85 
 681 -165.34 -160.83 -162.85 
 682 -167.61 -162.95 -162.85 
 683 -164.55 -161.88 -162.85 
 684 -165.69 -161.37 -162.85 
 685 -165.55 -162.36 -162.85 
 686 -167.06 -164.09 -162.85 
 687 -167.81 -162.11 -162.85 
 688 -165.20 -163.81 -162.85 
 689 -167.23 -161.61 -162.85 
 690 -166.06 -162.64 -162.85 
 691 -167.27 -161.45 -162.85 
 692 -164.95 -163.91 -162.85 
 693 -166.59 -163.32 -162.85 
 694 -165.21 -164.85 -162.85 
 695 -165.59 -166.22 -162.85 
 696 -166.49 -164.64 -162.85 
 697 -164.45 -165.61 -162.85 
 698 -166.25 -164.22 -162.85 
 699 -164.87 -165.99 -162.85 
 700 -164.64 -163.87 -162.85 
 701 -166.28 -160.43 -162.85 
 702 -168.01 -158.31 -162.85 
 703 -165.78 -160.50 -162.85 
 704 -167.72 -160.95 -162.85 
 705 -165.62 -162.29 -162.85 
 706 -166.18 -162.29 -162.85 
 707 -164.09 -163.19 -162.85 
 708 -163.58 -163.65 -162.85 
 709 -164.42 -163.07 -162.85 
 710 -165.83 -162.44 -162.85 
 711 -167.19 -160.98 -162.85 
 712 -164.39 -161.42 -162.85 
 713 -165.10 -161.35 -162.85 
 714 -164.85 -161.74 -162.85 
 715 -166.66 -161.24 -162.85 
 716 -166.99 -162.03 -162.85 
 717 -165.24 -161.50 -162.85 
 718 -165.38 -161.10 -162.85 
 719 -164.68 -161.30 -162.85 
 720 -165.72 -162.41 -162.85 
 721 -165.27 -164.59 -162.85 
 722 -166.25 -162.29 -162.85 
 723 -165.96 -162.07 -162.85 
 724 -165.59 -162.10 -162.85 
 725 -165.26 -159.28 -162.85 
 726 -164.75 -161.02 -162.85 
 727 -166.82 -160.42 -162.85 
 728 -166.50 -157.74 -162.85 
 729 -165.39 -157.81 -162.85 
 730 -166.54 -158.08 -162.85 
 731 -165.63 -159.92 -162.85 
 732 -165.81 -158.79 -162.85 
 733 -165.41 -159.42 -162.85 
 734 -166.33 -160.41 -162.85 
 735 -165.89 -163.34 -162.85 
 736 -164.01 -161.77 -162.85 
 737 -164.55 -160.41 -162.85 
 738 -164.70 -161.07 -162.85 
 739 -163.99 -159.66 -162.85 
 740 -164.84 -159.33 -162.85 
 741 -166.17 -159.03 -162.85 
 742 -165.76 -158.94 -162.85 
 743 -166.48 -160.98 -162.85 
 744 -166.45 -159.85 -162.85 
 745 -164.51 -159.53 -162.85 
 746 -168.55 -160.43 -162.85 
 747 -164.77 -159.88 -162.85 
 748 -164.65 -156.77 -162.85 
 749 -164.47 -156.77 -162.85 
 750 -166.39 -158.93 -162.85 
 751 -164.24 -159.13 -162.85 
 752 -165.31 -157.95 -162.85 
 753 -166.65 -157.29 -162.85 
 754 -164.84 -155.34 -162.85 
 755 -165.24 -153.83 -162.85 
 756 -165.26 -153.20 -162.85 
 757 -163.51 -155.47 -162.85 
 758 -164.19 -155.53 -162.85 
 759 -164.66 -155.04 -162.85 
 760 -166.95 -157.74 -162.85 
 761 -165.17 -157.55 -162.85 
 762 -164.89 -157.28 -162.85 
 763 -165.56 -157.71 -162.85 
 764 -164.52 -161.19 -162.85 
 765 -165.20 -159.60 -162.85 
 766 -165.36 -159.11 -162.85 
 767 -166.31 -160.49 -162.85 
 768 -166.02 -160.28 -162.85 
 769 -165.01 -155.88 -162.85 
 770 -167.77 -155.29 -162.85 
 771 -163.35 -156.56 -162.85 
 772 -165.53 -155.53 -162.85 
 773 -165.80 -157.75 -162.85 
 774 -165.91 -156.55 -162.85 
 775 -164.59 -158.30 -162.85 
 776 -165.36 -158.61 -162.85 
 777 -167.38 -156.98 -162.85 
 778 -163.87 -157.29 -162.85 
 779 -164.30 -158.29 -162.85 
 780 -168.78 -161.74 -162.85 
 781 -166.30 -158.93 -162.85 
 782 -164.80 -162.60 -162.85 
 783 -165.56 -161.01 -162.85 
 784 -165.35 -159.58 -162.85 
 785 -165.96 -159.55 -162.85 
 786 -164.04 -160.64 -162.85 
 787 -165.64 -160.67 -162.85 
 788 -164.62 -160.84 -162.85 
 789 -164.80 -157.77 -162.85 
 790 -165.62 -157.01 -162.85 
 791 -165.13 -157.42 -162.85 
 792 -163.84 -157.45 -162.85 
 793 -164.56 -156.76 -162.85 
 794 -167.41 -157.08 -162.85 
 795 -165.69 -157.24 -162.85 
 796 -164.61 -158.44 -162.85 
 797 -167.19 -157.30 -162.85 
 798 -166.21 -156.99 -162.85 
 799 -164.68 -157.35 -162.85 
 800 -164.09 -157.12 -162.85 
 801 -163.42 -156.32 -162.85 
 802 -167.03 -157.93 -162.85 
 803 -163.87 -156.73 -162.85 
 804 -164.36 -156.82 -162.85 
 805 -163.70 -157.82 -162.85 
 806 -166.99 -158.00 -162.85 
 807 -160.50 -158.48 -162.85 
 808 -165.78 -158.78 -160.50 
 809 -163.66 -157.95 -160.50 
 810 -166.64 -158.17 -160.50 
 811 -164.83 -158.13 -160.50 
 812 -163.79 -157.64 -160.50 
 813 -164.81 -158.65 -160.50 
 814 -166.34 -158.69 -160.50 
 815 -163.67 -160.29 -160.50 
 816 -164.76 -158.88 -160.50 
 817 -162.32 -158.30 -160.50 
 818 -164.59 -157.90 -160.50 
 819 -164.03 -158.18 -160.50 
 820 -166.50 -156.22 -160.50 
 821 -164.74 -156.50 -160.50 
 822 -165.92 -157.55 -160.50 
 823 -165.66 -157.16 -160.50 
 824 -165.03 -156.89 -160.50 
 825 -164.12 -156.10 -160.50 
 826 -164.15 -156.58 -160.50 
 827 -166.03 -156.20 -160.50 
 828 -165.66 -157.34 -160.50 
 829 -164.81 -158.71 -160.50 
 830 -166.85 -158.22 -160.50 
 831 -165.14 -157.95 -160.50 
 832 -165.19 -158.12 -160.50 
 833 -163.53 -157.29 -160.50 
 834 -165.78 -156.54 -160.50 
 835 -165.63 -156.18 -160.50 
 836 -166.01 -157.22 -160.50 
 837 -164.87 -158.04 -160.50 
 838 -166.75 -155.58 -160.50 
 839 -163.50 -155.09 -160.50 
 840 -161.97 -156.06 -160.50 
 841 -165.36 -156.30 -160.50 
 842 -165.46 -156.55 -160.50 
 843 -163.71 -156.64 -160.50 
 844 -162.86 -156.45 -160.50 
 845 -166.86 -156.62 -160.50 
 846 -165.26 -156.42 -160.50 
 847 -165.18 -154.91 -160.50 
 848 -163.03 -156.70 -160.50 
 849 -165.26 -157.36 -160.50 
 850 -167.61 -156.89 -160.50 
 851 -165.83 -155.19 -160.50 
 852 -165.82 -157.75 -160.50 
 853 -166.91 -157.03 -160.50 
 854 -166.51 -155.71 -160.50 
 855 -164.63 -155.87 -160.50 
 856 -165.71 -157.22 -160.50 
 857 -165.26 -156.48 -160.50 
 858 -166.10 -155.43 -160.50 
 859 -163.51 -155.75 -160.50 
 860 -163.98 -156.27 -160.50 
 861 -163.54 -155.35 -160.50 
 862 -165.41 -155.72 -160.50 
 863 -164.79 -156.01 -160.50 
 864 -164.12 -155.31 -160.50 
 865 -163.31 -156.26 -160.50 
 866 -164.74 -157.42 -160.50 
 867 -163.91 -156.77 -160.50 
 868 -165.15 -155.23 -160.50 
 869 -163.12 -156.35 -160.50 
 870 -166.25 -155.77 -160.50 
 871 -164.09 -155.69 -160.50 
 872 -164.64 -156.76 -160.50 
 873 -164.17 -157.92 -160.50 
 874 -164.04 -157.31 -160.50 
 875 -164.26 -157.26 -160.50 
 876 -166.13 -157.76 -160.50 
 877 -165.35 -158.14 -160.50 
 878 -163.99 -156.97 -160.50 
 879 -161.72 -155.01 -160.50 
 880 -162.96 -156.49 -160.50 
 881 -165.92 -155.27 -160.50 
 882 -162.27 -154.10 -160.50 
 883 -165.47 -155.16 -160.50 
 884 -165.87 -154.56 -160.50 
 885 -164.56 -154.90 -160.50 
 886 -162.94 -153.15 -160.50 
 887 -164.65 -153.92 -160.50 
 888 -166.02 -153.48 -160.50 
 889 -164.66 -154.80 -160.50 
 890 -165.33 -154.56 -160.50 
 891 -164.53 -155.50 -160.50 
 892 -162.85 -155.45 -160.50 
 893 -164.22 -157.32 -160.50 
 894 -163.54 -156.97 -160.50 
 895 -166.65 -156.41 -160.50 
 896 -163.57 -155.23 -160.50 
 897 -164.36 -155.06 -160.50 
 898 -163.97 -155.36 -160.50 
 899 -164.40 -154.18 -160.50 
 900 -165.50 -153.89 -160.50 
 901 -164.45 -154.30 -160.50 
 902 -166.08 -154.08 -160.50 
 903 -161.24 -153.18 -160.50 
 904 -163.63 -152.81 -160.50 
 905 -161.43 -153.16 -160.50 
 906 -164.64 -153.25 -160.50 
 907 -164.46 -153.40 -160.50 
 908 -162.07 -153.61 -160.50 
 909 -165.38 -153.08 -160.50 
 910 -161.62 -154.40 -160.50 
 911 -164.52 -154.95 -160.50 
 912 -164.53 -153.55 -160.50 
 913 -164.89 -152.71 -160.50 
 914 -165.82 -154.28 -160.50 
 915 -164.25 -153.23 -160.50 
 916 -165.84 -155.52 -160.50 
 917 -163.71 -156.09 -160.50 
 918 -165.18 -157.01 -160.50 
 919 -162.98 -155.71 -160.50 
 920 -163.88 -155.93 -160.50 
 921 -163.28 -155.71 -160.50 
 922 -165.22 -156.04 -160.50 
 923 -164.19 -156.81 -160.50 
 924 -164.27 -156.32 -160.50 
 925 -164.07 -156.14 -160.50 
 926 -163.97 -155.42 -160.50 
 927 -163.51 -155.06 -160.50 
 928 -162.95 -155.80 -160.50 
 929 -164.93 -154.58 -160.50 
 930 -165.67 -153.37 -160.50 
 931 -163.13 -156.74 -160.50 
 932 -164.71 -154.87 -160.50 
 933 -162.62 -155.31 -160.50 
 934 -163.45 -155.64 -160.50 
 935 -160.78 -158.08 -160.50 
 936 -162.98 -156.77 -160.50 
 937 -163.61 -153.99 -160.50 
 938 -162.69 -156.88 -160.50 
 939 -162.83 -155.79 -160.50 
 940 -166.14 -157.13 -160.50 
 941 -164.05 -157.43 -160.50 
 942 -164.84 -159.17 -160.50 
 943 -163.70 -159.73 -160.50 
 944 -164.15 -159.91 -160.50 
 945 -164.36 -159.84 -160.50 
 946 -164.90 -157.66 -160.50 
 947 -162.88 -158.79 -160.50 
 948 -162.28 -159.15 -160.50 
 949 -163.06 -158.65 -160.50 
 950 -162.83 -159.74 -160.50 
 951 -162.43 -159.85 -160.50 
 952 -163.28 -158.49 -160.50 
 953 -162.56 -159.08 -160.50 
 954 -163.39 -158.08 -160.50 
 955 -161.74 -159.81 -160.50 
 956 -163.39 -160.24 -160.50 
 957 -163.80 -159.57 -160.50 
 958 -163.31 -159.88 -160.50 
 959 -165.62 -158.98 -160.50 
 960 -163.58 -158.80 -160.50 
 961 -164.33 -157.60 -160.50 
 962 -162.76 -157.41 -160.50 
 963 -165.15 -157.63 -160.50 
 964 -164.75 -157.28 -160.50 
 965 -165.32 -158.18 -160.50 
 966 -161.78 -158.07 -160.50 
 967 -163.32 -157.40 -160.50 
 968 -164.64 -157.61 -160.50 
 969 -164.17 -158.19 -160.50 
 970 -164.21 -157.41 -160.50 
 971 -161.98 -156.69 -160.50 
 972 -160.95 -156.22 -160.50 
 973 -163.17 -157.79 -160.50 
 974 -164.06 -156.98 -160.50 
 975 -162.03 -157.21 -160.50 
 976 -162.49 -156.15 -160.50 
 977 -162.23 -157.07 -160.50 
 978 -163.35 -157.01 -160.50 
 979 -164.02 -156.96 -160.50 
 980 -161.02 -156.52 -160.50 
 981 -161.38 -156.73 -160.50 
 982 -162.71 -154.15 -160.50 
 983 -164.04 -153.96 -160.50 
 984 -162.58 -154.81 -160.50 
 985 -164.04 -157.44 -160.50 
 986 -164.60 -156.81 -160.50 
 987 -162.35 -155.62 -160.50 
 988 -161.50 -156.16 -160.50 
 989 -163.43 -157.13 -160.50 
 990 -163.84 -155.97 -160.50 
 991 -162.26 -156.99 -160.50 
 992 -165.25 -156.23 -160.50 
 993 -165.09 -156.81 -160.50 
 994 -161.87 -156.61 -160.50 
 995 -163.70 -156.00 -160.50 
 996 -161.48 -156.55 -160.50 
 997 -163.03 -155.53 -160.50 
 998 -162.40 -154.08 -160.50 
 999 -162.92 -153.39 -160.50 
1000 -162.29 -152.76 -160.50 
1001 -164.10 -155.47 -160.50 
1002 -163.45 -153.27 -160.50 
1003 -162.96 -154.17 -160.50 
1004 -162.24 -153.85 -160.50 
1005 -162.60 -153.83 -160.50 
1006 -165.04 -156.20 -160.50 
1007 -160.86 -156.56 -160.50 
1008 -162.52 -156.51 -160.50 
1009 -162.79 -158.35 -160.50 
1010 -163.03 -155.77 -160.50 
1011 -161.56 -155.07 -160.50 
1012 -161.87 -156.42 -160.50 
1013 -163.65 -156.51 -160.50 
1014 -160.35 -156.19 -160.50 
1015 -163.57 -155.14 -160.35 
1016 -161.91 -155.29 -160.35 
1017 -161.24 -155.73 -160.35 
1018 -162.86 -156.20 -160.35 
1019 -163.31 -153.68 -160.35 
1020 -164.31 -152.57 -160.35 
1021 -163.31 -154.14 -160.35 
1022 -163.62 -156.48 -160.35 
1023 -165.12 -153.33 -160.35 
1024 -161.62 -153.83 -160.35 
1025 -163.78 -153.88 -160.35 
1026 -160.56 -152.57 -160.35 
1027 -162.70 -152.41 -160.35 
1028 -162.60 -153.56 -160.35 
1029 -161.80 -156.58 -160.35 
1030 -163.19 -155.63 -160.35 
1031 -161.77 -156.44 -160.35 
1032 -163.52 -152.66 -160.35 
1033 -164.38 -153.58 -160.35 
1034 -163.98 -153.81 -160.35 
1035 -163.19 -152.65 -160.35 
1036 -163.15 -153.89 -160.35 
1037 -163.67 -156.94 -160.35 
1038 -161.75 -152.83 -160.35 
1039 -162.55 -157.26 -160.35 
1040 -165.10 -154.53 -160.35 
1041 -162.36 -156.47 -160.35 
1042 -163.44 -156.37 -160.35 
1043 -165.12 -155.27 -160.35 
1044 -163.72 -156.43 -160.35 
1045 -162.31 -156.82 -160.35 
1046 -160.98 -156.63 -160.35 
1047 -160.66 -156.74 -160.35 
1048 -162.59 -154.43 -160.35 
1049 -162.70 -156.29 -160.35 
1050 -162.34 -154.66 -160.35 
1051 -163.35 -153.81 -160.35 
1052 -163.85 -153.95 -160.35 
1053 -162.27 -154.16 -160.35 
1054 -162.02 -155.38 -160.35 
1055 -164.29 -154.91 -160.35 
1056 -163.27 -154.82 -160.35 
1057 -162.15 -156.02 -160.35 
1058 -161.93 -155.21 -160.35 
1059 -162.67 -156.42 -160.35 
1060 -162.31 -155.33 -160.35 
1061 -164.41 -156.46 -160.35 
1062 -162.19 -155.12 -160.35 
1063 -161.86 -156.21 -160.35 
1064 -163.37 -155.92 -160.35 
1065 -162.63 -155.01 -160.35 
1066 -162.79 -155.08 -160.35 
1067 -161.65 -154.56 -160.35 
1068 -163.53 -153.46 -160.35 
1069 -162.84 -154.68 -160.35 
1070 -163.95 -153.29 -160.35 
1071 -164.21 -155.46 -160.35 
1072 -164.20 -156.17 -160.35 
1073 -162.34 -154.45 -160.35 
1074 -162.43 -155.82 -160.35 
1075 -162.72 -156.17 -160.35 
1076 -165.21 -155.58 -160.35 
1077 -162.68 -156.92 -160.35 
1078 -161.78 -156.47 -160.35 
1079 -161.37 -156.16 -160.35 
1080 -161.89 -155.58 -160.35 
1081 -160.80 -156.83 -160.35 
1082 -162.96 -157.51 -160.35 
1083 -162.46 -157.74 -160.35 
1084 -163.56 -155.23 -160.35 
1085 -162.57 -156.99 -160.35 
1086 -164.66 -156.44 -160.35 
1087 -162.76 -155.59 -160.35 
1088 -164.18 -154.32 -160.35 
1089 -162.85 -154.12 -160.35 
1090 -161.78 -156.00 -160.35 
1091 -161.38 -153.94 -160.35 
1092 -163.55 -155.68 -160.35 
1093 -160.80 -153.30 -160.35 
1094 -162.35 -155.41 -160.35 
1095 -162.08 -153.53 -160.35 
1096 -161.96 -153.77 -160.35 
1097 -162.03 -154.22 -160.35 
1098 -161.91 -155.17 -160.35 
1099 -162.58 -154.09 -160.35 
1100 -162.26 -154.72 -160.35 
1101 -162.30 -154.50 -160.35 
1102 -162.55 -153.11 -160.35 
1103 -163.14 -153.37 -160.35 
1104 -161.47 -153.29 -160.35 
1105 -162.36 -152.69 -160.35 
1106 -162.72 -153.44 -160.35 
1107 -162.68 -154.04 -160.35 
1108 -163.42 -153.13 -160.35 
1109 -163.41 -152.52 -160.35 
1110 -165.09 -152.68 -160.35 
1111 -161.73 -153.16 -160.35 
1112 -161.85 -154.32 -160.35 
1113 -164.11 -155.13 -160.35 
1114 -162.57 -153.55 -160.35 
1115 -165.59 -154.77 -160.35 
1116 -161.83 -153.29 -160.35 
1117 -162.14 -154.60 -160.35 
1118 -160.80 -152.63 -160.35 
1119 -163.14 -153.91 -160.35 
1120 -162.02 -154.17 -160.35 
1121 -163.33 -153.33 -160.35 
1122 -161.81 -154.28 -160.35 
1123 -163.69 -155.25 -160.35 
1124 -162.80 -153.84 -160.35 
1125 -163.51 -153.60 -160.35 
1126 -163.61 -153.93 -160.35 
1127 -164.24 -154.55 -160.35 
1128 -161.91 -153.58 -160.35 
1129 -160.39 -155.17 -160.35 
1130 -161.43 -155.60 -160.35 
1131 -163.68 -154.19 -160.35 
1132 -163.94 -154.07 -160.35 
1133 -163.67 -154.67 -160.35 
1134 -161.38 -156.09 -160.35 
1135 -161.53 -154.93 -160.35 
1136 -163.96 -154.73 -160.35 
1137 -162.50 -154.94 -160.35 
1138 -161.24 -154.85 -160.35 
1139 -162.45 -153.93 -160.35 
1140 -164.78 -154.91 -160.35 
1141 -163.04 -153.01 -160.35 
1142 -162.68 -155.12 -160.35 
1143 -161.30 -152.77 -160.35 
1144 -162.54 -153.50 -160.35 
1145 -161.26 -154.25 -160.35 
1146 -162.47 -154.05 -160.35 
1147 -161.23 -154.01 -160.35 
1148 -162.25 -154.44 -160.35 
1149 -163.23 -154.08 -160.35 
1150 -159.85 -153.48 -160.35 
1151 -161.28 -152.04 -159.85 
1152 -161.32 -152.00 -159.85 
1153 -161.50 -151.81 -159.85 
1154 -162.47 -152.72 -159.85 
1155 -163.89 -153.09 -159.85 
1156 -161.91 -154.03 -159.85 
1157 -162.24 -155.56 -159.85 
1158 -161.73 -155.49 -159.85 
1159 -159.47 -157.19 -159.85 
1160 -160.97 -152.35 -159.47 
1161 -160.17 -152.54 -159.47 
1162 -161.40 -152.68 -159.47 
1163 -162.53 -153.06 -159.47 
1164 -161.43 -153.49 -159.47 
1165 -163.16 -153.80 -159.47 
1166 -162.67 -154.44 -159.47 
1167 -162.33 -154.64 -159.47 
1168 -162.02 -154.32 -159.47 
1169 -163.50 -154.19 -159.47 
1170 -160.07 -155.47 -159.47 
1171 -163.03 -154.35 -159.47 
1172 -162.83 -154.59 -159.47 
1173 -162.75 -154.36 -159.47 
1174 -161.85 -153.94 -159.47 
1175 -161.00 -154.99 -159.47 
1176 -161.84 -154.75 -159.47 
1177 -162.43 -151.61 -159.47 
1178 -160.83 -152.36 -159.47 
1179 -163.29 -152.78 -159.47 
1180 -161.43 -153.31 -159.47 
1181 -161.91 -153.66 -159.47 
1182 -163.39 -152.49 -159.47 
1183 -161.34 -153.17 -159.47 
1184 -162.64 -153.30 -159.47 
1185 -161.01 -153.10 -159.47 
1186 -160.09 -152.31 -159.47 
1187 -163.59 -152.91 -159.47 
1188 -162.63 -153.11 -159.47 
1189 -161.68 -153.43 -159.47 
1190 -160.21 -153.66 -159.47 
1191 -162.42 -154.19 -159.47 
1192 -162.75 -153.80 -159.47 
1193 -161.04 -154.46 -159.47 
1194 -162.00 -154.09 -159.47 
1195 -161.72 -154.44 -159.47 
1196 -163.32 -153.81 -159.47 
1197 -161.58 -153.33 -159.47 
1198 -162.06 -155.98 -159.47 
1199 -161.61 -154.87 -159.47 
1200 -160.72 -153.98 -159.47 
1201 -160.87 -153.37 -159.47 
1202 -160.96 -153.50 -159.47 
1203 -162.96 -153.27 -159.47 
1204 -162.16 -153.24 -159.47 
1205 -162.25 -152.79 -159.47 
1206 -161.98 -154.62 -159.47 
1207 -162.50 -155.55 -159.47 
1208 -162.18 -156.61 -159.47 
1209 -162.82 -156.63 -159.47 
1210 -163.91 -156.72 -159.47 
1211 -163.10 -156.83 -159.47 
1212 -163.81 -156.48 -159.47 
1213 -164.35 -156.42 -159.47 
1214 -161.35 -156.50 -159.47 
1215 -159.95 -156.23 -159.47 
1216 -162.97 -156.22 -159.47 
1217 -161.67 -156.67 -159.47 
1218 -161.54 -156.30 -159.47 
1219 -164.14 -155.46 -159.47 
1220 -163.26 -154.76 -159.47 
1221 -161.78 -155.19 -159.47 
1222 -164.46 -155.40 -159.47 
1223 -162.50 -154.48 -159.47 
1224 -162.12 -154.59 -159.47 
1225 -162.09 -154.63 -159.47 
1226 -162.63 -153.67 -159.47 
1227 -161.25 -154.90 -159.47 
1228 -162.57 -153.88 -159.47 
1229 -163.05 -155.43 -159.47 
1230 -163.15 -153.75 -159.47 
1231 -162.10 -153.83 -159.47 
1232 -159.20 -155.89 -159.47 
1233 -162.18 -154.13 -159.20 
1234 -161.98 -154.14 -159.20 
1235 -161.73 -153.78 -159.20 
1236 -162.12 -154.83 -159.20 
1237 -163.10 -154.56 -159.20 
1238 -161.32 -155.05 -159.20 
1239 -162.75 -153.96 -159.20 
1240 -160.97 -152.83 -159.20 
1241 -161.62 -153.10 -159.20 
1242 -160.84 -153.11 -159.20 
1243 -160.34 -153.11 -159.20 
1244 -160.35 -154.12 -159.20 
1245 -161.81 -152.63 -159.20 
1246 -159.97 -153.55 -159.20 
1247 -160.42 -152.64 -159.20 
1248 -163.31 -152.78 -159.20 
1249 -162.43 -153.87 -159.20 
1250 -163.41 -152.41 -159.20 
1251 -161.14 -154.64 -159.20 
1252 -162.35 -152.54 -159.20 
1253 -160.95 -152.47 -159.20 
1254 -162.86 -151.98 -159.20 
1255 -164.44 -153.04 -159.20 
1256 -162.66 -151.19 -159.20 
1257 -162.96 -152.24 -159.20 
1258 -161.34 -150.78 -159.20 
1259 -162.80 -154.03 -159.20 
1260 -160.49 -153.50 -159.20 
1261 -161.80 -153.76 -159.20 
1262 -163.80 -153.53 -159.20 
1263 -160.94 -152.96 -159.20 
1264 -161.25 -152.77 -159.20 
1265 -162.85 -153.10 -159.20 
1266 -161.93 -154.23 -159.20 
1267 -162.18 -152.66 -159.20 
1268 -161.92 -154.72 -159.20 
1269 -160.86 -154.27 -159.20 
1270 -161.73 -154.69 -159.20 
1271 -159.56 -155.15 -159.20 
1272 -163.67 -152.93 -159.20 
1273 -161.33 -154.15 -159.20 
1274 -163.09 -155.28 -159.20 
1275 -160.56 -154.33 -159.20 
1276 -162.58 -155.41 -159.20 
1277 -164.44 -154.35 -159.20 
1278 -161.04 -153.81 -159.20 
1279 -164.63 -155.21 -159.20 
1280 -161.44 -154.43 -159.20 
1281 -162.73 -155.77 -159.20 
1282 -164.62 -155.83 -159.20 
1283 -161.52 -153.67 -159.20 
1284 -162.58 -153.56 -159.20 
1285 -161.57 -154.81 -159.20 
1286 -164.92 -153.82 -159.20 
1287 -162.37 -154.37 -159.20 
1288 -161.65 -156.34 -159.20 
1289 -164.04 -157.50 -159.20 
1290 -162.91 -156.22 -159.20 
1291 -161.96 -156.45 -159.20 
1292 -161.83 -156.54 -159.20 
1293 -160.20 -158.09 -159.20 
1294 -161.70 -155.31 -159.20 
1295 -163.49 -156.18 -159.20 
1296 -160.81 -157.48 -159.20 
1297 -162.88 -156.44 -159.20 
1298 -161.60 -157.61 -159.20 
1299 -162.70 -155.79 -159.20 
1300 -162.20 -156.48 -159.20 
1301 -161.40 -156.51 -159.20 
1302 -162.27 -157.60 -159.20 
1303 -162.04 -158.25 -159.20 
1304 -160.76 -157.99 -159.20 
1305 -161.11 -157.37 -159.20 
1306 -160.98 -156.25 -159.20 
1307 -161.73 -155.39 -159.20 
1308 -162.23 -156.14 -159.20 
1309 -162.96 -156.00 -159.20 
1310 -160.90 -155.81 -159.20 
1311 -161.35 -154.88 -159.20 
1312 -164.32 -156.12 -159.20 
1313 -163.13 -156.81 -159.20 
1314 -161.26 -155.18 -159.20 
1315 -160.11 -156.42 -159.20 
1316 -160.86 -156.74 -159.20 
1317 -160.14 -155.41 -159.20 
1318 -160.65 -155.32 -159.20 
1319 -162.02 -154.25 -159.20 
1320 -163.69 -154.68 -159.20 
1321 -163.34 -152.44 -159.20 
1322 -159.89 -153.75 -159.20 
1323 -160.93 -154.69 -159.20 
1324 -162.89 -153.41 -159.20 
1325 -163.58 -152.46 -159.20 
1326 -161.35 -153.05 -159.20 
1327 -162.47 -152.96 -159.20 
1328 -161.88 -154.22 -159.20 
1329 -164.11 -154.29 -159.20 
1330 -161.72 -154.52 -159.20 
1331 -160.86 -153.46 -159.20 
1332 -161.78 -153.64 -159.20 
1333 -161.86 -154.53 -159.20 
1334 -161.88 -153.37 -159.20 
1335 -161.54 -152.75 -159.20 
1336 -161.78 -153.66 -159.20 
1337 -161.25 -154.40 -159.20 
1338 -162.49 -154.56 -159.20 
1339 -159.73 -154.67 -159.20 
1340 -161.22 -154.61 -159.20 
1341 -159.38 -154.82 -159.20 
1342 -160.33 -154.80 -159.20 
1343 -161.67 -154.70 -159.20 
1344 -160.27 -154.57 -159.20 
1345 -161.04 -154.05 -159.20 
1346 -159.52 -155.62 -159.20 
1347 -162.84 -155.37 -159.20 
1348 -162.61 -154.45 -159.20 
1349 -161.16 -153.86 -159.20 
1350 -161.18 -156.58 -159.20 
1351 -162.24 -155.03 -159.20 
1352 -160.35 -155.76 -159.20 
1353 -160.66 -156.50 -159.20 
1354 -163.90 -155.44 -159.20 
1355 -160.93 -155.90 -159.20 
1356 -160.63 -153.65 -159.20 
1357 -164.13 -154.33 -159.20 
1358 -162.44 -152.68 -159.20 
1359 -162.61 -158.11 -159.20 
1360 -162.48 -156.18 -159.20 
1361 -159.78 -156.80 -159.20 
1362 -159.20 -155.87 -159.20 
1363 -161.84 -154.38 -159.20 
1364 -161.94 -154.97 -159.20 
1365 -161.35 -156.05 -159.20 
1366 -158.33 -154.94 -159.20 
1367 -161.42 -156.33 -158.33 
1368 -161.25 -155.14 -158.33 
1369 -160.38 -155.00 -158.33 
1370 -163.45 -154.78 -158.33 
1371 -164.95 -154.59 -158.33 
1372 -161.33 -155.85 -158.33 
1373 -161.82 -155.17 -158.33 
1374 -162.06 -154.89 -158.33 
1375 -158.00 -155.66 -158.33 
1376 -163.25 -152.77 -158.00 
1377 -161.57 -154.29 -158.00 
1378 -162.74 -156.25 -158.00 
1379 -160.50 -153.39 -158.00 
1380 -161.01 -155.04 -158.00 
1381 -161.88 -155.39 -158.00 
1382 -163.98 -155.30 -158.00 
1383 -160.08 -155.60 -158.00 
1384 -160.32 -155.46 -158.00 
1385 -160.91 -153.91 -158.00 
1386 -160.85 -153.84 -158.00 
1387 -162.24 -153.13 -158.00 
1388 -160.34 -153.39 -158.00 
1389 -162.90 -153.95 -158.00 
1390 -160.84 -153.52 -158.00 
1391 -160.31 -153.89 -158.00 
1392 -160.91 -154.99 -158.00 
1393 -161.38 -154.31 -158.00 
1394 -162.10 -155.89 -158.00 
1395 -161.36 -154.82 -158.00 
1396 -160.70 -154.62 -158.00 
1397 -162.04 -155.10 -158.00 
1398 -162.02 -156.76 -158.00 
1399 -161.83 -154.29 -158.00 
1400 -161.20 -154.48 -158.00 
1401 -163.30 -155.35 -158.00 
1402 -159.74 -153.57 -158.00 
1403 -161.21 -154.41 -158.00 
1404 -160.78 -155.01 -158.00 
1405 -161.47 -154.94 -158.00 
1406 -162.28 -154.23 -158.00 
1407 -162.47 -155.98 -158.00 
1408 -161.82 -155.70 -158.00 
1409 -163.91 -152.46 -158.00 
1410 -162.28 -152.62 -158.00 
1411 -160.27 -153.11 -158.00 
1412 -163.77 -154.54 -158.00 
1413 -160.21 -154.66 -158.00 
1414 -161.12 -154.75 -158.00 
1415 -162.58 -154.08 -158.00 
1416 -161.82 -153.42 -158.00 
1417 -159.69 -153.61 -158.00 
1418 -163.21 -153.24 -158.00 
1419 -158.75 -153.46 -158.00 
1420 -160.59 -153.29 -158.00 
1421 -164.15 -154.12 -158.00 
1422 -162.39 -153.72 -158.00 
1423 -162.49 -152.48 -158.00 
1424 -161.92 -154.11 -158.00 
1425 -160.70 -153.18 -158.00 
1426 -162.90 -154.32 -158.00 
1427 -162.35 -154.78 -158.00 
1428 -161.62 -155.10 -158.00 
1429 -160.90 -155.54 -158.00 
1430 -161.74 -154.49 -158.00 
1431 -160.85 -154.29 -158.00 
1432 -160.50 -154.70 -158.00 
1433 -162.08 -155.19 -158.00 
1434 -161.75 -155.03 -158.00 
1435 -160.89 -155.93 -158.00 
1436 -158.72 -155.82 -158.00 
1437 -162.05 -154.68 -158.00 
1438 -162.05 -153.90 -158.00 
1439 -162.72 -154.19 -158.00 
1440 -160.58 -155.17 -158.00 
1441 -161.12 -153.96 -158.00 
1442 -162.52 -153.41 -158.00 
1443 -160.76 -152.92 -158.00 
1444 -158.87 -153.30 -158.00 
1445 -158.77 -152.80 -158.00 
1446 -159.89 -153.11 -158.00 
1447 -160.94 -152.39 -158.00 
1448 -158.90 -152.87 -158.00 
1449 -160.51 -152.60 -158.00 
1450 -162.02 -153.58 -158.00 
1451 -159.84 -152.63 -158.00 
1452 -161.25 -152.36 -158.00 
1453 -159.61 -152.99 -158.00 
1454 -159.55 -153.54 -158.00 
1455 -160.19 -153.98 -158.00 
1456 -161.70 -153.34 -158.00 
1457 -160.80 -152.36 -158.00 
1458 -159.49 -152.30 -158.00 
1459 -161.37 -151.80 -158.00 
1460 -160.98 -153.42 -158.00 
1461 -161.69 -153.63 -158.00 
1462 -160.10 -152.51 -158.00 
1463 -159.71 -153.05 -158.00 
1464 -163.12 -154.65 -158.00 
1465 -159.92 -155.06 -158.00 
1466 -161.31 -154.03 -158.00 
1467 -162.27 -152.95 -158.00 
1468 -160.63 -153.51 -158.00 
1469 -160.42 -153.45 -158.00 
1470 -160.41 -154.40 -158.00 
1471 -160.63 -154.02 -158.00 
1472 -158.42 -153.65 -158.00 
1473 -160.74 -152.92 -158.00 
1474 -157.81 -153.53 -158.00 
1475 -160.41 -153.68 -157.81 
1476 -161.20 -154.26 -157.81 
1477 -159.57 -153.78 -157.81 
1478 -161.45 -154.00 -157.81 
1479 -161.86 -153.34 -157.81 
1480 -157.20 -154.78 -157.81 
1481 -160.73 -154.20 -157.20 
1482 -159.38 -154.14 -157.20 
1483 -160.25 -154.20 -157.20 
1484 -158.52 -153.20 -157.20 
1485 -159.15 -154.13 -157.20 
1486 -161.79 -155.12 -157.20 
1487 -160.14 -154.22 -157.20 
1488 -159.04 -154.10 -157.20 
1489 -160.65 -155.03 -157.20 
1490 -162.65 -154.36 -157.20 
1491 -159.61 -154.61 -157.20 
1492 -160.26 -154.46 -157.20 
1493 -160.98 -153.87 -157.20 
1494 -160.95 -154.31 -157.20 
1495 -159.43 -153.71 -157.20 
1496 -161.35 -153.77 -157.20 
1497 -159.46 -154.17 -157.20 
1498 -161.55 -154.04 -157.20 
1499 -161.22 -153.91 -157.20 
1500 -160.63 -154.25 -157.20 
1501 -160.04 -153.81 -157.20 
1502 -160.18 -153.45 -157.20 
1503 -159.88 -153.79 -157.20 
1504 -161.60 -153.82 -157.20 
1505 -160.71 -153.49 -157.20 
1506 -158.88 -154.36 -157.20 
1507 -159.29 -154.17 -157.20 
1508 -160.38 -154.21 -157.20 
1509 -162.47 -154.23 -157.20 
1510 -161.50 -154.29 -157.20 
1511 -160.34 -155.37 -157.20 
1512 -158.70 -154.61 -157.20 
1513 -159.39 -154.04 -157.20 
1514 -161.40 -154.63 -157.20 
1515 -159.53 -154.23 -157.20 
1516 -159.68 -154.79 -157.20 
1517 -157.86 -155.29 -157.20 
1518 -160.67 -155.05 -157.20 
1519 -159.07 -154.85 -157.20 
1520 -160.24 -154.32 -157.20 
1521 -162.11 -153.72 -157.20 
1522 -160.72 -154.89 -157.20 
1523 -159.56 -154.60 -157.20 
1524 -159.64 -154.68 -157.20 
1525 -159.22 -154.43 -157.20 
1526 -162.13 -154.17 -157.20 
1527 -158.14 -153.80 -157.20 
1528 -159.01 -153.24 -157.20 
1529 -159.31 -153.00 -157.20 
1530 -161.59 -152.57 -157.20 
1531 -161.49 -152.15 -157.20 
1532 -159.57 -151.76 -157.20 
1533 -160.78 -152.52 -157.20 
1534 -164.15 -152.57 -157.20 
1535 -160.24 -153.17 -157.20 
1536 -159.54 -153.24 -157.20 
1537 -162.82 -153.27 -157.20 
1538 -159.24 -153.48 -157.20 
1539 -159.73 -153.77 -157.20 
1540 -160.04 -153.76 -157.20 
1541 -162.34 -153.56 -157.20 
1542 -160.77 -153.75 -157.20 
1543 -161.98 -153.38 -157.20 
1544 -160.53 -153.48 -157.20 
1545 -159.77 -152.70 -157.20 
1546 -159.33 -152.32 -157.20 
1547 -160.15 -153.58 -157.20 
1548 -159.53 -152.91 -157.20 
1549 -161.25 -152.46 -157.20 
1550 -160.65 -152.34 -157.20 
1551 -160.28 -153.15 -157.20 
1552 -160.22 -154.87 -157.20 
1553 -162.88 -154.67 -157.20 
1554 -159.92 -154.67 -157.20 
1555 -162.36 -154.40 -157.20 
1556 -161.39 -152.80 -157.20 
1557 -162.68 -152.44 -157.20 
1558 -160.39 -153.35 -157.20 
1559 -161.23 -154.64 -157.20 
1560 -160.95 -152.21 -157.20 
1561 -159.04 -152.37 -157.20 
1562 -163.91 -152.65 -157.20 
1563 -160.13 -152.52 -157.20 
1564 -159.05 -151.61 -157.20 
1565 -161.06 -150.57 -157.20 
1566 -162.34 -153.40 -157.20 
1567 -162.67 -153.71 -157.20 
1568 -161.25 -154.00 -157.20 
1569 -162.26 -155.51 -157.20 
1570 -160.06 -152.60 -157.20 
1571 -161.87 -152.97 -157.20 
1572 -159.95 -153.00 -157.20 
1573 -161.82 -152.65 -157.20 
1574 -158.94 -151.48 -157.20 
1575 -157.99 -153.47 -157.20 
1576 -160.20 -153.65 -157.20 
1577 -160.96 -151.70 -157.20 
1578 -158.03 -153.08 -157.20 
1579 -159.66 -153.73 -157.20 
1580 -161.68 -152.64 -157.20 
1581 -159.14 -152.38 -157.20 
1582 -161.40 -152.86 -157.20 
1583 -161.86 -154.24 -157.20 
1584 -160.38 -152.64 -157.20 
1585 -160.78 -152.39 -157.20 
1586 -158.90 -152.20 -157.20 
1587 -163.15 -154.53 -157.20 
1588 -160.05 -155.21 -157.20 
1589 -161.17 -153.81 -157.20 
1590 -160.06 -153.50 -157.20 
1591 -159.56 -154.10 -157.20 
1592 -159.07 -153.51 -157.20 
1593 -161.59 -153.52 -157.20 
1594 -161.99 -153.17 -157.20 
1595 -160.09 -153.81 -157.20 
1596 -160.04 -153.97 -157.20 
1597 -161.65 -153.29 -157.20 
1598 -161.43 -153.05 -157.20 
1599 -162.81 -154.06 -157.20 
1600 -160.14 -153.98 -157.20 
1601 -159.96 -152.91 -157.20 
1602 -158.24 -152.45 -157.20 
1603 -160.71 -152.62 -157.20 
1604 -160.15 -152.65 -157.20 
1605 -161.14 -153.16 -157.20 
1606 -160.79 -154.32 -157.20 
1607 -162.03 -152.35 -157.20 
1608 -160.42 -152.39 -157.20 
1609 -160.79 -152.33 -157.20 
1610 -161.28 -152.13 -157.20 
1611 -159.41 -152.06 -157.20 
1612 -160.10 -152.77 -157.20 
1613 -160.87 -152.98 -157.20 
1614 -160.45 -152.55 -157.20 
1615 -160.60 -154.18 -157.20 
1616 -159.77 -152.85 -157.20 
1617 -159.92 -154.26 -157.20 
1618 -160.23 -155.20 -157.20 
1619 -160.97 -155.28 -157.20 
1620 -161.87 -153.66 -157.20 
1621 -159.80 -154.03 -157.20 
1622 -162.46 -154.84 -157.20 
1623 -160.85 -154.99 -157.20 
1624 -158.81 -153.29 -157.20 
1625 -159.81 -154.71 -157.20 
1626 -161.08 -153.55 -157.20 
1627 -160.93 -153.52 -157.20 
1628 -160.33 -154.61 -157.20 
1629 -161.57 -154.62 -157.20 
1630 -161.76 -154.35 -157.20 
1631 -161.25 -155.10 -157.20 
1632 -159.23 -153.02 -157.20 
1633 -158.77 -155.15 -157.20 
1634 -162.31 -153.87 -157.20 
1635 -161.62 -154.37 -157.20 
1636 -160.64 -154.78 -157.20 
1637 -159.62 -154.97 -157.20 
1638 -159.46 -154.78 -157.20 
1639 -160.08 -155.12 -157.20 
1640 -160.45 -155.28 -157.20 
1641 -160.45 -155.54 -157.20 
1642 -161.25 -155.43 -157.20 
1643 -160.58 -154.98 -157.20 
1644 -160.14 -155.82 -157.20 
1645 -161.25 -154.20 -157.20 
1646 -159.25 -154.90 -157.20 
1647 -161.63 -155.21 -157.20 
1648 -159.58 -153.51 -157.20 
1649 -159.59 -153.59 -157.20 
1650 -161.94 -155.21 -157.20 
1651 -161.21 -153.44 -157.20 
1652 -159.66 -153.09 -157.20 
1653 -161.32 -154.35 -157.20 
1654 -161.21 -153.78 -157.20 
1655 -160.48 -155.03 -157.20 
1656 -160.63 -154.01 -157.20 
1657 -160.89 -154.41 -157.20 
1658 -161.88 -153.99 -157.20 
1659 -159.53 -154.21 -157.20 
1660 -158.62 -155.79 -157.20 
1661 -159.94 -154.92 -157.20 
1662 -162.31 -154.72 -157.20 
1663 -160.57 -153.55 -157.20 
1664 -161.87 -153.87 -157.20 
1665 -160.17 -154.61 -157.20 
1666 -161.74 -154.23 -157.20 
1667 -161.34 -154.07 -157.20 
1668 -158.90 -152.66 -157.20 
1669 -159.18 -153.75 -157.20 
1670 -161.42 -153.50 -157.20 
1671 -159.14 -153.56 -157.20 
1672 -161.34 -154.56 -157.20 
1673 -159.61 -155.92 -157.20 
1674 -159.23 -153.86 -157.20 
1675 -160.24 -154.14 -157.20 
1676 -160.80 -155.76 -157.20 
1677 -160.41 -154.69 -157.20 
1678 -160.07 -154.97 -157.20 
1679 -161.25 -155.25 -157.20 
1680 -159.72 -155.42 -157.20 
1681 -159.09 -155.19 -157.20 
1682 -158.91 -155.25 -157.20 
1683 -159.87 -154.83 -157.20 
1684 -159.75 -154.04 -157.20 
1685 -159.26 -154.40 -157.20 
1686 -157.68 -154.63 -157.20 
1687 -159.40 -154.39 -157.20 
1688 -160.51 -154.34 -157.20 
1689 -161.02 -154.54 -157.20 
1690 -159.99 -154.98 -157.20 
1691 -158.01 -155.26 -157.20 
1692 -160.75 -154.11 -157.20 
1693 -161.66 -155.50 -157.20 
1694 -161.85 -156.67 -157.20 
1695 -159.06 -155.75 -157.20 
1696 -159.27 -155.89 -157.20 
1697 -158.77 -155.87 -157.20 
1698 -159.83 -154.48 -157.20 
1699 -161.30 -155.91 -157.20 
1700 -158.35 -155.60 -157.20 
1701 -160.44 -156.99 -157.20 
1702 -160.90 -155.38 -157.20 
1703 -159.88 -156.86 -157.20 
1704 -161.37 -157.11 -157.20 
1705 -159.64 -154.98 -157.20 
1706 -160.04 -154.69 -157.20 
1707 -159.05 -154.93 -157.20 
1708 -160.86 -155.10 -157.20 
1709 -160.41 -154.84 -157.20 
1710 -161.38 -154.90 -157.20 
1711 -160.03 -155.33 -157.20 
1712 -161.39 -156.56 -157.20 
1713 -160.64 -156.02 -157.20 
1714 -161.21 -156.23 -157.20 
1715 -162.34 -155.74 -157.20 
1716 -160.43 -154.85 -157.20 
1717 -160.86 -154.29 -157.20 
1718 -157.85 -154.22 -157.20 
1719 -161.26 -154.08 -157.20 
1720 -158.88 -155.01 -157.20 
1721 -160.58 -155.32 -157.20 
1722 -160.29 -154.73 -157.20 
1723 -158.89 -154.41 -157.20 
1724 -158.01 -154.48 -157.20 
1725 -160.26 -154.65 -157.20 
1726 -158.67 -154.53 -157.20 
1727 -159.28 -154.66 -157.20 
1728 -161.03 -154.24 -157.20 
1729 -158.89 -155.86 -157.20 
1730 -160.54 -153.91 -157.20 
1731 -160.93 -155.46 -157.20 
1732 -161.36 -155.25 -157.20 
1733 -159.57 -155.16 -157.20 
1734 -161.64 -153.53 -157.20 
1735 -159.10 -154.09 -157.20 
1736 -159.81 -153.86 -157.20 
1737 -162.19 -154.26 -157.20 
1738 -159.35 -155.69 -157.20 
1739 -162.18 -154.45 -157.20 
1740 -161.06 -154.33 -157.20 
1741 -160.38 -154.90 -157.20 
1742 -159.04 -154.54 -157.20 
1743 -161.11 -154.04 -157.20 
1744 -160.94 -153.90 -157.20 
1745 -161.44 -153.63 -157.20 
1746 -160.89 -154.31 -157.20 
1747 -159.13 -154.07 -157.20 
1748 -158.50 -152.79 -157.20 
1749 -158.04 -153.27 -157.20 
1750 -161.02 -154.69 -157.20 
1751 -159.71 -154.69 -157.20 
1752 -159.71 -154.78 -157.20 
1753 -160.55 -156.14 -157.20 
1754 -159.38 -157.09 -157.20 
1755 -159.70 -155.79 -157.20 
1756 -158.79 -154.11 -157.20 
1757 -159.51 -153.62 -157.20 
1758 -158.94 -154.19 -157.20 
1759 -159.29 -153.01 -157.20 
1760 -158.94 -153.09 -157.20 
1761 -158.27 -154.09 -157.20 
1762 -159.67 -152.28 -157.20 
1763 -161.76 -153.05 -157.20 
1764 -159.57 -153.07 -157.20 
1765 -160.27 -154.05 -157.20 
1766 -160.53 -154.89 -157.20 
1767 -162.04 -156.19 -157.20 
1768 -161.25 -155.85 -157.20 
1769 -161.64 -155.68 -157.20 
1770 -159.92 -154.04 -157.20 
1771 -159.04 -155.14 -157.20 
1772 -159.66 -154.93 -157.20 
1773 -159.75 -153.57 -157.20 
1774 -160.05 -154.73 -157.20 
1775 -158.51 -154.82 -157.20 
1776 -161.91 -156.19 -157.20 
1777 -160.25 -154.96 -157.20 
1778 -160.20 -154.57 -157.20 
1779 -160.12 -152.06 -157.20 
1780 -157.87 -154.56 -157.20 
1781 -160.39 -154.20 -157.20 
1782 -163.17 -153.32 -157.20 
1783 -158.62 -151.97 -157.20 
1784 -161.75 -151.98 -157.20 
1785 -160.16 -152.58 -157.20 
1786 -157.83 -153.29 -157.20 
1787 -160.57 -151.59 -157.20 
1788 -161.03 -152.78 -157.20 
1789 -160.80 -153.83 -157.20 
1790 -158.78 -155.16 -157.20 
1791 -158.92 -154.43 -157.20 
1792 -159.75 -151.53 -157.20 
1793 -159.28 -153.68 -157.20 
1794 -160.55 -155.79 -157.20 
1795 -161.04 -153.85 -157.20 
1796 -161.81 -152.18 -157.20 
1797 -159.17 -153.68 -157.20 
1798 -160.58 -152.95 -157.20 
1799 -160.21 -151.56 -157.20 
1800 -160.40 -153.36 -157.20 
1801 -160.25 -154.85 -157.20 
1802 -158.66 -154.72 -157.20 
1803 -163.10 -154.49 -157.20 
1804 -161.07 -151.69 -157.20 
1805 -157.83 -153.33 -157.20 
1806 -160.10 -151.65 -157.20 
1807 -160.46 -152.79 -157.20 
1808 -160.19 -151.90 -157.20 
1809 -158.91 -151.58 -157.20 
1810 -159.26 -151.77 -157.20 
1811 -158.20 -151.86 -157.20 
1812 -159.38 -152.49 -157.20 
1813 -160.02 -154.87 -157.20 
1814 -161.33 -153.38 -157.20 
1815 -157.81 -153.88 -157.20 
1816 -159.42 -154.92 -157.20 
1817 -157.54 -153.15 -157.20 
1818 -160.72 -153.42 -157.20 
1819 -157.28 -152.25 -157.20 
1820 -160.58 -154.86 -157.20 
1821 -161.61 -153.27 -157.20 
1822 -159.70 -154.00 -157.20 
1823 -159.23 -153.71 -157.20 
1824 -159.87 -153.52 -157.20 
1825 -159.03 -152.37 -157.20 
1826 -161.03 -152.62 -157.20 
1827 -159.94 -155.12 -157.20 
1828 -158.89 -154.77 -157.20 
1829 -160.45 -155.53 -157.20 
1830 -160.29 -154.50 -157.20 
1831 -160.40 -155.47 -157.20 
1832 -158.44 -155.18 -157.20 
1833 -161.60 -153.76 -157.20 
1834 -159.08 -155.96 -157.20 
1835 -160.57 -155.92 -157.20 
1836 -159.04 -154.16 -157.20 
1837 -159.06 -155.07 -157.20 
1838 -159.08 -154.86 -157.20 
1839 -159.00 -157.92 -157.20 
1840 -160.24 -156.23 -157.20 
1841 -158.24 -154.98 -157.20 
1842 -159.95 -154.42 -157.20 
1843 -158.62 -155.52 -157.20 
1844 -158.76 -156.09 -157.20 
1845 -157.82 -156.08 -157.20 
1846 -159.58 -155.34 -157.20 
1847 -159.73 -153.86 -157.20 
1848 -159.86 -155.95 -157.20 
1849 -160.69 -152.48 -157.20 
1850 -159.36 -156.69 -157.20 
1851 -160.81 -154.29 -157.20 
1852 -157.83 -152.10 -157.20 
1853 -158.68 -154.02 -157.20 
1854 -160.53 -154.98 -157.20 
1855 -157.77 -153.63 -157.20 
1856 -158.79 -152.84 -157.20 
1857 -162.70 -155.10 -157.20 
1858 -157.59 -152.97 -157.20 
1859 -158.53 -154.17 -157.20 
1860 -160.10 -154.26 -157.20 
1861 -160.87 -154.16 -157.20 
1862 -157.55 -154.82 -157.20 
1863 -159.75 -152.52 -157.20 
1864 -161.29 -153.32 -157.20 
1865 -158.82 -154.33 -157.20 
1866 -162.13 -154.27 -157.20 
1867 -159.07 -152.55 -157.20 
1868 -157.97 -152.64 -157.20 
1869 -158.16 -154.70 -157.20 
1870 -161.58 -153.30 -157.20 
1871 -160.13 -153.14 -157.20 
1872 -160.29 -154.89 -157.20 
1873 -159.85 -153.55 -157.20 
1874 -159.21 -156.93 -157.20 
1875 -160.73 -154.86 -157.20 
1876 -159.23 -155.25 -157.20 
1877 -159.20 -155.18 -157.20 
1878 -159.66 -153.77 -157.20 
1879 -160.32 -153.58 -157.20 
1880 -161.04 -154.06 -157.20 
1881 -159.11 -153.39 -157.20 
1882 -158.07 -153.43 -157.20 
1883 -159.32 -153.50 -157.20 
1884 -161.08 -154.21 -157.20 
1885 -159.31 -153.87 -157.20 
1886 -162.05 -153.89 -157.20 
1887 -160.90 -153.74 -157.20 
1888 -159.27 -154.29 -157.20 
1889 -158.41 -154.55 -157.20 
1890 -158.47 -152.85 -157.20 
1891 -160.47 -151.68 -157.20 
1892 -159.58 -153.07 -157.20 
1893 -157.84 -152.30 -157.20 
1894 -157.62 -152.57 -157.20 
1895 -160.08 -153.81 -157.20 
1896 -160.10 -152.10 -157.20 
1897 -159.82 -154.58 -157.20 
1898 -159.23 -155.64 -157.20 
1899 -159.78 -156.36 -157.20 
1900 -159.63 -153.41 -157.20 
1901 -159.72 -155.61 -157.20 
1902 -159.14 -153.96 -157.20 
1903 -158.59 -155.54 -157.20 
1904 -158.73 -152.70 -157.20 
1905 -157.96 -154.66 -157.20 
1906 -158.42 -153.75 -157.20 
1907 -158.71 -155.43 -157.20 
1908 -160.14 -156.08 -157.20 
1909 -161.00 -155.93 -157.20 
1910 -159.81 -155.52 -157.20 
1911 -162.12 -155.24 -157.20 
1912 -159.40 -156.44 -157.20 
1913 -159.45 -153.90 -157.20 
1914 -158.48 -151.36 -157.20 
1915 -159.56 -151.79 -157.20 
1916 -157.63 -154.37 -157.20 
1917 -158.36 -155.12 -157.20 
1918 -160.58 -154.77 -157.20 
1919 -160.76 -153.62 -157.20 
1920 -158.26 -152.52 -157.20 
1921 -158.30 -155.16 -157.20 
1922 -159.55 -152.59 -157.20 
1923 -162.08 -152.53 -157.20 
1924 -157.26 -153.18 -157.20 
1925 -160.92 -154.45 -157.20 
1926 -158.49 -154.13 -157.20 
1927 -158.69 -152.82 -157.20 
1928 -160.47 -152.83 -157.20 
1929 -158.42 -152.21 -157.20 
1930 -159.60 -152.55 -157.20 
1931 -157.29 -152.84 -157.20 
1932 -159.86 -154.30 -157.20 
1933 -157.26 -153.97 -157.20 
1934 -159.50 -154.11 -157.20 
1935 -160.00 -154.23 -157.20 
1936 -159.14 -153.76 -157.20 
1937 -160.80 -152.50 -157.20 
1938 -158.57 -155.36 -157.20 
1939 -156.41 -155.64 -157.20 
1940 -159.93 -153.35 -156.41 
1941 -159.15 -154.93 -156.41 
1942 -159.34 -152.35 -156.41 
1943 -156.79 -152.52 -156.41 
1944 -157.84 -153.98 -156.41 
1945 -158.46 -152.67 -156.41 
1946 -159.50 -155.25 -156.41 
1947 -158.81 -152.53 -156.41 
1948 -161.96 -153.81 -156.41 
1949 -157.91 -153.81 -156.41 
1950 -159.03 -155.20 -156.41 
1951 -159.74 -154.60 -156.41 
1952 -158.51 -153.86 -156.41 
1953 -158.82 -153.24 -156.41 
1954 -160.54 -153.80 -156.41 
1955 -158.49 -153.34 -156.41 
1956 -158.23 -154.89 -156.41 
1957 -160.57 -154.90 -156.41 
1958 -159.39 -152.36 -156.41 
1959 -159.15 -155.09 -156.41 
1960 -159.97 -153.62 -156.41 
1961 -158.86 -154.94 -156.41 
1962 -160.02 -156.41 -156.41 
1963 -158.81 -151.84 -156.41 
1964 -160.66 -153.24 -156.41 
1965 -159.96 -153.05 -156.41 
1966 -157.75 -154.59 -156.41 
1967 -157.75 -154.35 -156.41 
1968 -159.00 -152.19 -156.41 
1969 -159.19 -153.67 -156.41 
1970 -159.91 -153.57 -156.41 
1971 -157.11 -153.79 -156.41 
1972 -159.94 -153.28 -156.41 
1973 -160.32 -153.03 -156.41 
1974 -159.06 -153.81 -156.41 
1975 -158.76 -154.40 -156.41 
1976 -159.73 -152.85 -156.41 
1977 -158.60 -153.40 -156.41 
1978 -161.82 -154.45 -156.41 
1979 -159.35 -154.42 -156.41 
1980 -160.77 -152.46 -156.41 
1981 -160.05 -151.24 -156.41 
1982 -160.80 -151.58 -156.41 
1983 -158.58 -153.47 -156.41 
1984 -157.14 -154.22 -156.41 
1985 -159.57 -153.55 -156.41 
1986 -158.40 -153.74 -156.41 
1987 -159.95 -152.58 -156.41 
1988 -158.93 -152.73 -156.41 
1989 -161.28 -151.84 -156.41 
1990 -158.21 -151.50 -156.41 
1991 -159.05 -152.12 -156.41 
1992 -157.85 -151.84 -156.41 
1993 -160.08 -154.46 -156.41 
1994 -158.78 -154.46 -156.41 
1995 -158.47 -153.09 -156.41 
1996 -159.62 -152.11 -156.41 
1997 -159.04 -151.50 -156.41 
1998 -159.64 -152.30 -156.41 
1999 -159.64 -153.25 -156.41 
2000 -161.15 -153.79 -156.41 
2001 -157.47 -153.57 -156.41 
2002 -158.36 -154.07 -156.41 
2003 -160.97 -154.26 -156.41 
2004 -160.53 -153.60 -156.41 
2005 -157.89 -153.45 -156.41 
2006 -160.41 -153.83 -156.41 
2007 -156.49 -153.90 -156.41 
2008 -160.02 -152.37 -156.41 
2009 -159.09 -152.26 -156.41 
2010 -159.85 -152.99 -156.41 
2011 -159.58 -154.30 -156.41 
2012 -160.57 -153.92 -156.41 
2013 -160.28 -152.39 -156.41 
2014 -158.96 -152.98 -156.41 
2015 -158.65 -152.77 -156.41 
2016 -158.74 -152.84 -156.41 
2017 -158.56 -152.59 -156.41 
2018 -159.09 -153.47 -156.41 
2019 -160.16 -152.27 -156.41 
2020 -160.06 -153.52 -156.41 
2021 -159.31 -153.18 -156.41 
2022 -159.81 -152.40 -156.41 
2023 -159.24 -153.18 -156.41 
2024 -158.80 -152.03 -156.41 
2025 -159.88 -153.21 -156.41 
2026 -160.37 -153.00 -156.41 
2027 -159.75 -153.60 -156.41 
2028 -159.34 -153.74 -156.41 
2029 -159.40 -153.57 -156.41 
2030 -159.22 -153.11 -156.41 
2031 -161.51 -153.84 -156.41 
2032 -159.78 -153.55 -156.41 
2033 -159.56 -152.64 -156.41 
2034 -157.18 -153.97 -156.41 
2035 -157.85 -153.74 -156.41 
2036 -160.90 -152.42 -156.41 
2037 -161.12 -153.84 -156.41 
2038 -159.98 -153.57 -156.41 
2039 -159.60 -152.23 -156.41 
2040 -158.64 -153.92 -156.41 
2041 -160.64 -152.75 -156.41 
2042 -157.16 -153.01 -156.41 
2043 -157.60 -153.16 -156.41 
2044 -159.73 -150.58 -156.41 
2045 -162.00 -150.03 -156.41 
2046 -161.31 -151.99 -156.41 
2047 -159.10 -151.81 -156.41 
2048 -160.69 -151.91 -156.41 
2049 -161.17 -152.90 -156.41 
2050 -160.04 -150.07 -156.41 
2051 -157.29 -150.36 -156.41 
2052 -158.60 -150.67 -156.41 
2053 -160.57 -150.18 -156.41 
2054 -158.99 -150.83 -156.41 
2055 -160.26 -151.66 -156.41 
2056 -159.01 -151.85 -156.41 
2057 -157.37 -152.21 -156.41 
2058 -158.96 -151.94 -156.41 
2059 -158.71 -152.05 -156.41 
2060 -160.35 -151.00 -156.41 
2061 -157.80 -151.34 -156.41 
2062 -159.79 -151.60 -156.41 
2063 -156.19 -150.50 -156.41 
2064 -159.55 -151.65 -156.19 
2065 -159.54 -151.73 -156.19 
2066 -161.57 -150.47 -156.19 
2067 -160.83 -153.56 -156.19 
2068 -159.75 -152.66 -156.19 
2069 -160.12 -151.27 -156.19 
2070 -155.78 -152.80 -156.19 
2071 -158.80 -154.16 -155.78 
2072 -158.29 -152.43 -155.78 
2073 -160.40 -152.35 -155.78 
2074 -160.34 -152.42 -155.78 
2075 -158.77 -150.91 -155.78 
2076 -157.73 -152.64 -155.78 
2077 -157.42 -151.10 -155.78 
2078 -156.95 -152.87 -155.78 
2079 -159.91 -154.24 -155.78 
2080 -158.53 -153.14 -155.78 
2081 -158.59 -151.81 -155.78 
2082 -158.51 -151.57 -155.78 
2083 -157.54 -151.92 -155.78 
2084 -159.17 -153.03 -155.78 
2085 -158.44 -149.70 -155.78 
2086 -158.56 -150.08 -155.78 
2087 -156.09 -150.24 -155.78 
2088 -159.29 -151.03 -155.78 
2089 -158.39 -151.09 -155.78 
2090 -158.92 -151.99 -155.78 
2091 -157.92 -150.15 -155.78 
2092 -161.14 -150.55 -155.78 
2093 -158.49 -151.81 -155.78 
2094 -157.56 -151.90 -155.78 
2095 -159.02 -151.40 -155.78 
2096 -157.95 -151.36 -155.78 
2097 -160.47 -150.29 -155.78 
2098 -160.60 -152.15 -155.78 
2099 -160.76 -152.49 -155.78 
2100 -162.41 -151.26 -155.78 
2101 -158.50 -152.17 -155.78 
2102 -158.92 -151.14 -155.78 
2103 -156.37 -151.03 -155.78 
2104 -158.97 -151.37 -155.78 
2105 -159.33 -150.26 -155.78 
2106 -159.13 -150.94 -155.78 
2107 -161.38 -151.12 -155.78 
2108 -157.91 -151.21 -155.78 
2109 -156.32 -151.00 -155.78 
2110 -159.72 -150.52 -155.78 
2111 -157.37 -150.41 -155.78 
2112 -158.66 -150.80 -155.78 
2113 -160.36 -150.21 -155.78 
2114 -159.21 -150.48 -155.78 
2115 -159.14 -151.41 -155.78 
2116 -158.37 -151.24 -155.78 
2117 -159.74 -151.86 -155.78 
2118 -158.71 -151.27 -155.78 
2119 -158.22 -150.94 -155.78 
2120 -159.83 -151.37 -155.78 
2121 -156.50 -151.60 -155.78 
2122 -161.43 -151.71 -155.78 
2123 -159.36 -153.15 -155.78 
2124 -158.63 -153.07 -155.78 
2125 -159.52 -152.35 -155.78 
2126 -159.36 -152.82 -155.78 
2127 -160.13 -152.56 -155.78 
2128 -158.37 -152.10 -155.78 
2129 -157.75 -152.39 -155.78 
2130 -159.22 -152.30 -155.78 
2131 -158.88 -152.00 -155.78 
2132 -158.29 -151.62 -155.78 
2133 -158.05 -152.02 -155.78 
2134 -158.66 -151.50 -155.78 
2135 -159.64 -153.06 -155.78 
2136 -158.87 -152.58 -155.78 
2137 -158.93 -152.01 -155.78 
2138 -159.02 -152.09 -155.78 
2139 -160.31 -152.09 -155.78 
2140 -161.56 -151.80 -155.78 
2141 -158.39 -152.14 -155.78 
2142 -157.53 -150.42 -155.78 
2143 -160.93 -150.53 -155.78 
2144 -159.99 -154.82 -155.78 
2145 -158.62 -153.36 -155.78 
2146 -158.31 -152.37 -155.78 
2147 -160.02 -153.30 -155.78 
2148 -159.64 -153.07 -155.78 
2149 -159.69 -153.44 -155.78 
2150 -159.55 -151.83 -155.78 
2151 -160.81 -153.65 -155.78 
2152 -158.85 -152.34 -155.78 
2153 -157.66 -154.11 -155.78 
2154 -159.04 -153.81 -155.78 
2155 -155.65 -151.79 -155.78 
2156 -159.80 -152.23 -155.65 
2157 -158.38 -151.77 -155.65 
2158 -158.56 -152.67 -155.65 
2159 -159.17 -152.74 -155.65 
2160 -159.71 -153.04 -155.65 
2161 -159.30 -151.69 -155.65 
2162 -159.77 -152.37 -155.65 
2163 -157.70 -152.78 -155.65 
2164 -158.29 -151.62 -155.65 
2165 -158.50 -150.99 -155.65 
2166 -159.65 -151.67 -155.65 
2167 -157.75 -152.19 -155.65 
2168 -157.51 -151.77 -155.65 
2169 -160.05 -151.78 -155.65 
2170 -161.75 -151.77 -155.65 
2171 -157.96 -151.95 -155.65 
2172 -160.11 -151.91 -155.65 
2173 -157.44 -151.56 -155.65 
2174 -158.75 -152.91 -155.65 
2175 -160.73 -151.93 -155.65 
2176 -159.22 -153.36 -155.65 
2177 -159.53 -153.17 -155.65 
2178 -160.58 -154.44 -155.65 
2179 -157.68 -153.09 -155.65 
2180 -158.77 -153.24 -155.65 
2181 -160.34 -152.74 -155.65 
2182 -159.97 -152.40 -155.65 
2183 -160.39 -152.18 -155.65 
2184 -158.99 -152.28 -155.65 
2185 -160.31 -152.56 -155.65 
2186 -157.49 -152.36 -155.65 
2187 -160.03 -152.20 -155.65 
2188 -158.95 -152.26 -155.65 
2189 -157.68 -153.61 -155.65 
2190 -157.56 -153.12 -155.65 
2191 -157.84 -153.30 -155.65 
2192 -156.00 -152.59 -155.65 
2193 -159.48 -151.26 -155.65 
2194 -158.23 -152.65 -155.65 
2195 -159.48 -152.25 -155.65 
2196 -160.85 -154.78 -155.65 
2197 -161.50 -150.91 -155.65 
2198 -160.34 -152.98 -155.65 
2199 -157.81 -151.31 -155.65 
2200 -158.71 -152.54 -155.65 
2201 -157.36 -151.56 -155.65 
2202 -158.80 -151.98 -155.65 
2203 -158.97 -151.20 -155.65 
2204 -159.21 -151.47 -155.65 
2205 -157.75 -151.19 -155.65 
2206 -159.76 -152.92 -155.65 
2207 -159.55 -152.09 -155.65 
2208 -159.15 -153.12 -155.65 
2209 -160.79 -153.82 -155.65 
2210 -159.72 -152.89 -155.65 
2211 -158.65 -151.92 -155.65 
2212 -159.91 -153.17 -155.65 
2213 -159.25 -152.87 -155.65 
2214 -158.00 -151.98 -155.65 
2215 -156.79 -151.84 -155.65 
2216 -160.08 -151.28 -155.65 
2217 -157.51 -152.93 -155.65 
2218 -159.92 -150.59 -155.65 
2219 -159.40 -152.89 -155.65 
2220 -161.41 -151.69 -155.65 
2221 -159.66 -154.65 -155.65 
2222 -160.69 -151.79 -155.65 
2223 -159.51 -152.60 -155.65 
2224 -158.97 -152.12 -155.65 
2225 -159.48 -151.98 -155.65 
2226 -157.88 -151.26 -155.65 
2227 -159.07 -152.54 -155.65 
2228 -159.78 -151.85 -155.65 
2229 -159.41 -154.00 -155.65 
2230 -158.73 -152.77 -155.65 
2231 -158.97 -151.96 -155.65 
2232 -158.82 -150.87 -155.65 
2233 -160.07 -152.49 -155.65 
2234 -159.62 -150.29 -155.65 
2235 -159.83 -151.32 -155.65 
2236 -162.51 -152.60 -155.65 
2237 -158.46 -151.44 -155.65 
2238 -158.91 -152.99 -155.65 
2239 -159.51 -150.15 -155.65 
2240 -159.34 -149.69 -155.65 
2241 -157.15 -151.29 -155.65 
2242 -158.67 -151.17 -155.65 
2243 -160.73 -152.14 -155.65 
2244 -160.03 -152.25 -155.65 
2245 -160.15 -151.77 -155.65 
2246 -159.42 -151.28 -155.65 
2247 -161.40 -150.48 -155.65 
2248 -161.00 -149.55 -155.65 
2249 -160.40 -152.64 -155.65 
2250 -158.86 -151.94 -155.65 
2251 -159.53 -151.31 -155.65 
2252 -159.93 -152.41 -155.65 
2253 -160.16 -152.78 -155.65 
2254 -157.50 -152.74 -155.65 
2255 -159.39 -152.61 -155.65 
2256 -160.74 -152.34 -155.65 
2257 -158.13 -151.92 -155.65 
2258 -158.54 -152.55 -155.65 
2259 -158.45 -152.38 -155.65 
2260 -160.74 -152.44 -155.65 
2261 -157.68 -152.25 -155.65 
2262 -161.81 -151.98 -155.65 
2263 -158.93 -152.46 -155.65 
2264 -160.78 -152.91 -155.65 
2265 -158.58 -153.25 -155.65 
2266 -160.92 -154.61 -155.65 
2267 -158.12 -154.22 -155.65 
2268 -158.66 -154.73 -155.65 
2269 -158.85 -153.61 -155.65 
2270 -159.32 -152.97 -155.65 
2271 -160.01 -154.39 -155.65 
2272 -158.04 -152.97 -155.65 
2273 -158.85 -153.02 -155.65 
2274 -159.67 -152.48 -155.65 
2275 -159.54 -152.54 -155.65 
2276 -161.86 -155.23 -155.65 
2277 -160.49 -153.70 -155.65 
2278 -159.29 -155.16 -155.65 
2279 -158.52 -154.75 -155.65 
2280 -159.98 -153.66 -155.65 
2281 -161.43 -154.57 -155.65 
2282 -159.88 -154.49 -155.65 
2283 -159.29 -153.08 -155.65 
2284 -159.49 -149.82 -155.65 
2285 -160.32 -151.45 -155.65 
2286 -157.04 -151.59 -155.65 
2287 -160.45 -151.53 -155.65 
2288 -156.60 -151.43 -155.65 
2289 -160.62 -155.16 -155.65 
2290 -160.80 -155.04 -155.65 
2291 -160.01 -152.55 -155.65 
2292 -158.14 -152.35 -155.65 
2293 -159.07 -152.27 -155.65 
2294 -160.78 -155.12 -155.65 
2295 -158.75 -153.06 -155.65 
2296 -160.11 -154.07 -155.65 
2297 -159.92 -154.47 -155.65 
2298 -160.89 -155.56 -155.65 
2299 -158.55 -153.49 -155.65 
2300 -160.80 -154.26 -155.65 
2301 -160.75 -155.76 -155.65 
2302 -159.62 -156.95 -155.65 
2303 -159.93 -156.38 -155.65 
2304 -158.93 -152.34 -155.65 
2305 -159.00 -152.68 -155.65 
2306 -160.06 -154.07 -155.65 
2307 -159.27 -153.17 -155.65 
2308 -160.48 -152.28 -155.65 
2309 -158.64 -152.46 -155.65 
2310 -158.36 -153.79 -155.65 
2311 -161.21 -151.60 -155.65 
2312 -159.09 -151.17 -155.65 
2313 -158.00 -152.31 -155.65 
2314 -159.63 -152.29 -155.65 
2315 -160.76 -155.28 -155.65 
2316 -160.16 -154.91 -155.65 
2317 -159.96 -153.81 -155.65 
2318 -162.70 -153.75 -155.65 
2319 -158.64 -152.65 -155.65 
2320 -159.51 -152.95 -155.65 
2321 -159.50 -152.73 -155.65 
2322 -158.15 -152.51 -155.65 
2323 -159.67 -152.71 -155.65 
2324 -160.59 -152.41 -155.65 
2325 -160.21 -154.40 -155.65 
2326 -157.93 -154.09 -155.65 
2327 -160.44 -152.56 -155.65 
2328 -157.70 -154.41 -155.65 
2329 -160.90 -152.41 -155.65 
2330 -160.14 -152.64 -155.65 
2331 -157.63 -154.03 -155.65 
2332 -158.69 -153.65 -155.65 
2333 -160.79 -153.97 -155.65 
2334 -159.42 -153.89 -155.65 
2335 -158.38 -154.35 -155.65 
2336 -157.14 -153.75 -155.65 
2337 -160.77 -154.26 -155.65 
2338 -158.14 -153.80 -155.65 
2339 -160.37 -152.37 -155.65 
2340 -159.46 -152.47 -155.65 
2341 -158.04 -153.07 -155.65 
2342 -161.49 -153.66 -155.65 
2343 -159.26 -153.38 -155.65 
2344 -160.35 -152.85 -155.65 
2345 -158.23 -153.14 -155.65 
2346 -161.71 -152.51 -155.65 
2347 -159.00 -152.58 -155.65 
2348 -157.61 -154.10 -155.65 
2349 -159.59 -154.39 -155.65 
2350 -160.84 -154.49 -155.65 
2351 -159.02 -155.23 -155.65 
2352 -159.92 -153.27 -155.65 
2353 -160.28 -154.56 -155.65 
2354 -157.93 -155.35 -155.65 
2355 -159.12 -154.36 -155.65 
2356 -161.20 -154.05 -155.65 
2357 -157.64 -155.45 -155.65 
2358 -158.02 -153.60 -155.65 
2359 -160.01 -153.55 -155.65 
2360 -157.73 -155.23 -155.65 
2361 -159.27 -155.63 -155.65 
2362 -159.06 -153.81 -155.65 
2363 -158.75 -154.98 -155.65 
2364 -161.11 -152.31 -155.65 
2365 -161.71 -152.55 -155.65 
2366 -157.19 -152.87 -155.65 
2367 -159.27 -153.06 -155.65 
2368 -157.42 -152.61 -155.65 
2369 -158.49 -152.14 -155.65 
2370 -158.22 -152.41 -155.65 
2371 -157.87 -152.28 -155.65 
2372 -159.19 -152.14 -155.65 
2373 -158.43 -152.69 -155.65 
2374 -158.53 -151.35 -155.65 
2375 -157.88 -152.93 -155.65 
2376 -161.09 -151.60 -155.65 
2377 -158.98 -151.93 -155.65 
2378 -156.97 -152.38 -155.65 
2379 -161.27 -152.33 -155.65 
2380 -159.02 -152.33 -155.65 
2381 -158.39 -152.44 -155.65 
2382 -159.61 -152.27 -155.65 
2383 -158.72 -151.89 -155.65 
2384 -160.04 -152.20 -155.65 
2385 -160.37 -149.80 -155.65 
2386 -159.05 -150.46 -155.65 
2387 -160.88 -151.44 -155.65 
2388 -158.83 -151.69 -155.65 
2389 -159.34 -149.92 -155.65 
2390 -159.41 -150.96 -155.65 
2391 -162.68 -149.78 -155.65 
2392 -159.20 -149.64 -155.65 
2393 -159.95 -151.87 -155.65 
2394 -159.99 -150.08 -155.65 
2395 -159.60 -150.14 -155.65 
2396 -157.88 -150.27 -155.65 
2397 -160.33 -150.68 -155.65 
2398 -160.07 -151.42 -155.65 
2399 -159.43 -151.39 -155.65 
2400 -160.15 -151.67 -155.65 
2401 -160.98 -152.23 -155.65 
2402 -155.91 -151.63 -155.65 
2403 -159.70 -151.77 -155.65 
2404 -159.75 -151.88 -155.65 
2405 -158.29 -152.16 -155.65 
2406 -160.62 -152.04 -155.65 
2407 -158.81 -151.88 -155.65 
2408 -156.67 -152.13 -155.65 
2409 -159.08 -151.10 -155.65 
2410 -160.42 -150.60 -155.65 
2411 -159.38 -150.59 -155.65 
2412 -157.53 -151.32 -155.65 
2413 -159.49 -151.31 -155.65 
2414 -157.56 -150.69 -155.65 
2415 -160.66 -150.80 -155.65 
2416 -158.91 -152.57 -155.65 
2417 -158.51 -150.47 -155.65 
2418 -159.16 -151.54 -155.65 
2419 -159.87 -151.24 -155.65 
2420 -158.40 -151.31 -155.65 
2421 -161.52 -151.33 -155.65 
2422 -157.73 -151.43 -155.65 
2423 -158.57 -151.28 -155.65 
2424 -159.54 -151.70 -155.65 
2425 -156.63 -151.11 -155.65 
2426 -159.65 -151.11 -155.65 
2427 -159.78 -151.81 -155.65 
2428 -159.87 -151.86 -155.65 
2429 -158.61 -151.66 -155.65 
2430 -160.46 -151.57 -155.65 
2431 -160.73 -151.08 -155.65 
2432 -158.09 -150.60 -155.65 
2433 -159.26 -150.76 -155.65 
2434 -159.36 -151.10 -155.65 
2435 -156.79 -151.23 -155.65 
2436 -160.08 -151.29 -155.65 
2437 -156.73 -151.44 -155.65 
2438 -161.42 -151.47 -155.65 
2439 -160.73 -151.50 -155.65 
2440 -158.27 -151.67 -155.65 
2441 -159.53 -152.24 -155.65 
2442 -157.77 -151.51 -155.65 
2443 -158.59 -151.87 -155.65 
2444 -160.52 -153.06 -155.65 
2445 -159.39 -151.53 -155.65 
2446 -157.90 -151.44 -155.65 
2447 -159.73 -151.32 -155.65 
2448 -159.34 -151.48 -155.65 
2449 -160.88 -150.91 -155.65 
2450 -159.96 -150.81 -155.65 
2451 -160.84 -152.17 -155.65 
2452 -158.69 -150.98 -155.65 
2453 -158.34 -150.84 -155.65 
2454 -158.43 -151.05 -155.65 
2455 -158.78 -150.76 -155.65 
2456 -158.90 -150.80 -155.65 
2457 -157.09 -152.99 -155.65 
2458 -160.42 -153.26 -155.65 
2459 -161.00 -151.42 -155.65 
2460 -155.75 -152.59 -155.65 
2461 -160.34 -152.81 -155.65 
2462 -156.98 -153.01 -155.65 
2463 -158.23 -153.03 -155.65 
2464 -158.72 -151.33 -155.65 
2465 -159.21 -152.45 -155.65 
2466 -161.34 -152.72 -155.65 
2467 -160.28 -151.84 -155.65 
2468 -159.59 -152.08 -155.65 
2469 -158.87 -152.53 -155.65 
2470 -158.87 -152.38 -155.65 
2471 -159.00 -152.15 -155.65 
2472 -157.04 -151.64 -155.65 
2473 -160.70 -151.59 -155.65 
2474 -158.78 -152.92 -155.65 
2475 -156.92 -152.68 -155.65 
2476 -157.71 -151.72 -155.65 
2477 -157.81 -151.36 -155.65 
2478 -160.82 -152.82 -155.65 
2479 -158.97 -151.60 -155.65 
2480 -157.98 -151.77 -155.65 
2481 -158.39 -151.69 -155.65 
2482 -159.15 -151.60 -155.65 
2483 -158.77 -151.21 -155.65 
2484 -159.60 -150.63 -155.65 
2485 -159.82 -149.88 -155.65 
2486 -158.56 -150.05 -155.65 
2487 -160.47 -149.80 -155.65 
2488 -161.21 -151.80 -155.65 
2489 -159.87 -150.76 -155.65 
2490 -160.44 -150.89 -155.65 
2491 -158.45 -150.58 -155.65 
2492 -157.96 -150.77 -155.65 
2493 -160.70 -151.37 -155.65 
2494 -158.76 -151.32 -155.65 
2495 -160.01 -150.93 -155.65 
2496 -158.77 -150.73 -155.65 
2497 -159.68 -150.64 -155.65 
2498 -160.70 -150.91 -155.65 
2499 -156.44 -151.23 -155.65 
2500 -158.86 -152.22 -155.65 
2501 -158.96 -152.57 -155.65 
2502 -156.66 -151.07 -155.65 
2503 -158.96 -152.27 -155.65 
2504 -159.15 -151.17 -155.65 
2505 -157.98 -152.29 -155.65 
2506 -159.55 -150.68 -155.65 
2507 -157.85 -151.02 -155.65 
2508 -157.30 -150.39 -155.65 
2509 -158.13 -151.81 -155.65 
2510 -160.05 -151.50 -155.65 
2511 -157.44 -149.78 -155.65 
2512 -159.26 -149.59 -155.65 
2513 -159.38 -151.35 -155.65 
2514 -158.50 -150.28 -155.65 
2515 -159.76 -149.57 -155.65 
2516 -160.36 -149.90 -155.65 
2517 -159.56 -150.38 -155.65 
2518 -156.14 -149.92 -155.65 
2519 -159.28 -149.92 -155.65 
2520 -160.74 -150.41 -155.65 
2521 -160.18 -149.99 -155.65 
2522 -160.03 -149.95 -155.65 
2523 -162.02 -149.91 -155.65 
2524 -158.88 -149.48 -155.65 
2525 -160.15 -150.00 -155.65 
2526 -157.46 -150.46 -155.65 
2527 -159.74 -151.16 -155.65 
2528 -160.15 -151.65 -155.65 
2529 -160.80 -151.45 -155.65 
2530 -157.29 -150.96 -155.65 
2531 -158.72 -151.48 -155.65 
2532 -159.06 -151.33 -155.65 
2533 -159.11 -151.74 -155.65 
2534 -158.80 -150.85 -155.65 
2535 -157.94 -150.96 -155.65 
2536 -156.82 -152.40 -155.65 
2537 -159.16 -151.07 -155.65 
2538 -156.45 -152.08 -155.65 
2539 -157.87 -152.42 -155.65 
2540 -161.02 -152.44 -155.65 
2541 -159.51 -152.90 -155.65 
2542 -159.26 -152.24 -155.65 
2543 -159.78 -152.39 -155.65 
2544 -159.37 -152.73 -155.65 
2545 -158.45 -151.29 -155.65 
2546 -161.84 -153.13 -155.65 
2547 -158.17 -152.96 -155.65 
2548 -158.97 -152.62 -155.65 
2549 -157.99 -153.96 -155.65 
2550 -158.75 -151.25 -155.65 
2551 -158.70 -152.67 -155.65 
2552 -159.21 -151.04 -155.65 
2553 -158.28 -152.67 -155.65 
2554 -159.51 -152.68 -155.65 
2555 -159.59 -154.16 -155.65 
2556 -160.10 -152.07 -155.65 
2557 -158.25 -153.70 -155.65 
2558 -157.56 -153.61 -155.65 
2559 -160.22 -153.57 -155.65 
2560 -158.85 -152.53 -155.65 
2561 -158.27 -152.12 -155.65 
2562 -159.61 -152.50 -155.65 
2563 -157.03 -152.91 -155.65 
2564 -158.57 -151.94 -155.65 
2565 -159.32 -151.90 -155.65 
2566 -158.99 -152.74 -155.65 
2567 -158.60 -151.25 -155.65 
2568 -160.98 -151.57 -155.65 
2569 -159.55 -152.35 -155.65 
2570 -158.84 -152.34 -155.65 
2571 -159.86 -152.52 -155.65 
2572 -159.65 -151.58 -155.65 
2573 -158.92 -152.04 -155.65 
2574 -158.20 -152.01 -155.65 
2575 -159.84 -151.85 -155.65 
2576 -158.90 -153.22 -155.65 
2577 -158.92 -151.91 -155.65 
2578 -158.75 -153.50 -155.65 
2579 -157.96 -152.20 -155.65 
2580 -159.39 -152.13 -155.65 
2581 -160.17 -151.94 -155.65 
2582 -160.12 -151.77 -155.65 
2583 -159.84 -152.82 -155.65 
2584 -158.44 -152.19 -155.65 
2585 -159.64 -153.19 -155.65 
2586 -159.08 -153.46 -155.65 
2587 -161.31 -153.28 -155.65 
2588 -158.76 -152.90 -155.65 
2589 -159.69 -152.38 -155.65 
2590 -158.03 -152.26 -155.65 
2591 -161.64 -152.46 -155.65 
2592 -159.84 -152.03 -155.65 
2593 -159.84 -152.48 -155.65 
2594 -160.16 -152.91 -155.65 
2595 -159.32 -152.71 -155.65 
2596 -157.92 -152.41 -155.65 
2597 -160.66 -153.05 -155.65 
2598 -160.15 -153.40 -155.65 
2599 -160.19 -151.77 -155.65 
2600 -161.16 -153.13 -155.65 
2601 -159.92 -152.14 -155.65 
2602 -160.40 -152.49 -155.65 
2603 -159.24 -151.51 -155.65 
2604 -160.93 -151.38 -155.65 
2605 -157.90 -151.89 -155.65 
2606 -158.91 -151.17 -155.65 
2607 -157.72 -151.37 -155.65 
2608 -156.58 -152.79 -155.65 
2609 -159.25 -151.31 -155.65 
2610 -156.54 -151.07 -155.65 
2611 -158.80 -151.38 -155.65 
2612 -157.38 -150.53 -155.65 
2613 -157.97 -152.31 -155.65 
2614 -157.43 -151.17 -155.65 
2615 -157.36 -151.80 -155.65 
2616 -160.79 -152.67 -155.65 
2617 -158.78 -152.38 -155.65 
2618 -158.06 -151.86 -155.65 
2619 -157.33 -151.64 -155.65 
2620 -159.70 -151.22 -155.65 
2621 -159.35 -153.22 -155.65 
2622 -156.73 -153.06 -155.65 
2623 -159.53 -152.68 -155.65 
2624 -158.41 -151.38 -155.65 
2625 -159.36 -151.28 -155.65 
2626 -158.51 -152.47 -155.65 
2627 -157.00 -153.15 -155.65 
2628 -157.45 -153.15 -155.65 
2629 -159.51 -153.10 -155.65 
2630 -158.22 -152.90 -155.65 
2631 -160.83 -152.83 -155.65 
2632 -160.00 -152.55 -155.65 
2633 -160.29 -152.66 -155.65 
2634 -159.76 -151.81 -155.65 
2635 -159.14 -151.46 -155.65 
2636 -159.12 -151.94 -155.65 
2637 -159.60 -152.17 -155.65 
2638 -157.92 -152.11 -155.65 
2639 -159.43 -151.38 -155.65 
2640 -159.38 -151.35 -155.65 
2641 -158.96 -151.05 -155.65 
2642 -158.04 -150.92 -155.65 
2643 -161.69 -150.48 -155.65 
2644 -158.32 -150.45 -155.65 
2645 -157.49 -150.97 -155.65 
2646 -157.07 -151.66 -155.65 
2647 -160.34 -151.73 -155.65 
2648 -157.52 -151.96 -155.65 
2649 -158.41 -151.98 -155.65 
2650 -158.61 -152.20 -155.65 
2651 -159.61 -151.82 -155.65 
2652 -160.22 -152.37 -155.65 
2653 -160.18 -152.27 -155.65 
2654 -158.89 -152.37 -155.65 
2655 -158.45 -152.69 -155.65 
2656 -159.22 -152.17 -155.65 
2657 -157.55 -152.48 -155.65 
2658 -160.69 -151.68 -155.65 
2659 -158.04 -152.06 -155.65 
2660 -159.24 -152.29 -155.65 
2661 -158.59 -152.07 -155.65 
2662 -159.08 -151.69 -155.65 
2663 -157.79 -151.82 -155.65 
2664 -159.80 -152.24 -155.65 
2665 -158.54 -152.43 -155.65 
2666 -158.03 -153.53 -155.65 
2667 -158.80 -152.45 -155.65 
2668 -159.23 -153.04 -155.65 
2669 -159.55 -152.40 -155.65 
2670 -160.26 -152.67 -155.65 
2671 -159.01 -152.81 -155.65 
2672 -157.77 -152.40 -155.65 
2673 -159.01 -152.82 -155.65 
2674 -158.20 -152.98 -155.65 
2675 -160.08 -153.00 -155.65 
2676 -160.40 -153.01 -155.65 
2677 -158.71 -153.84 -155.65 
2678 -156.95 -153.65 -155.65 
2679 -161.80 -153.73 -155.65 
2680 -160.06 -154.13 -155.65 
2681 -159.29 -153.51 -155.65 
2682 -157.80 -153.69 -155.65 
2683 -157.49 -154.41 -155.65 
2684 -160.11 -154.00 -155.65 
2685 -159.09 -153.93 -155.65 
2686 -157.93 -154.78 -155.65 
2687 -155.40 -154.63 -155.65 
2688 -158.44 -153.33 -155.40 
2689 -159.47 -153.73 -155.40 
2690 -159.46 -153.54 -155.40 
2691 -157.86 -154.71 -155.40 
2692 -157.91 -154.54 -155.40 
2693 -158.29 -153.08 -155.40 
2694 -159.05 -153.35 -155.40 
2695 -158.09 -152.98 -155.40 
2696 -159.31 -153.64 -155.40 
2697 -159.43 -154.97 -155.40 
2698 -159.81 -153.80 -155.40 
2699 -159.26 -153.24 -155.40 
2700 -157.92 -154.92 -155.40 
2701 -159.16 -153.72 -155.40 
2702 -160.25 -151.08 -155.40 
2703 -156.64 -152.65 -155.40 
2704 -155.89 -153.96 -155.40 
2705 -160.99 -153.56 -155.40 
2706 -159.08 -153.87 -155.40 
2707 -158.68 -153.20 -155.40 
2708 -158.55 -153.02 -155.40 
2709 -159.99 -152.98 -155.40 
2710 -156.41 -153.24 -155.40 
2711 -162.05 -153.13 -155.40 
2712 -159.25 -154.99 -155.40 
2713 -159.23 -152.13 -155.40 
2714 -159.57 -154.72 -155.40 
2715 -159.23 -153.74 -155.40 
2716 -160.35 -153.81 -155.40 
2717 -159.92 -154.15 -155.40 
2718 -155.80 -153.82 -155.40 
2719 -157.62 -154.27 -155.40 
2720 -159.88 -154.62 -155.40 
2721 -159.85 -154.44 -155.40 
2722 -158.61 -153.96 -155.40 
2723 -160.90 -153.47 -155.40 
2724 -157.25 -153.19 -155.40 
2725 -159.71 -153.61 -155.40 
2726 -158.29 -153.51 -155.40 
2727 -158.58 -155.17 -155.40 
2728 -157.78 -153.86 -155.40 
2729 -159.08 -155.36 -155.40 
2730 -159.83 -154.40 -155.40 
2731 -158.88 -154.06 -155.40 
2732 -157.33 -154.23 -155.40 
2733 -158.04 -154.75 -155.40 
2734 -159.48 -154.59 -155.40 
2735 -158.38 -154.34 -155.40 
2736 -159.83 -155.57 -155.40 
2737 -160.15 -155.38 -155.40 
2738 -160.05 -155.11 -155.40 
2739 -158.77 -155.35 -155.40 
2740 -156.51 -154.22 -155.40 
2741 -158.95 -152.72 -155.40 
2742 -156.27 -154.36 -155.40 
2743 -157.78 -154.12 -155.40 
2744 -158.78 -153.56 -155.40 
2745 -159.18 -152.87 -155.40 
2746 -159.91 -153.54 -155.40 
2747 -158.16 -153.62 -155.40 
2748 -159.00 -152.87 -155.40 
2749 -159.54 -154.85 -155.40 
2750 -158.00 -154.07 -155.40 
2751 -160.65 -153.75 -155.40 
2752 -158.92 -155.73 -155.40 
2753 -159.53 -155.76 -155.40 
2754 -155.48 -154.16 -155.40 
2755 -161.27 -155.87 -155.40 
2756 -160.84 -155.88 -155.40 
2757 -158.59 -154.18 -155.40 
2758 -160.63 -155.92 -155.40 
2759 -160.90 -152.85 -155.40 
2760 -157.26 -155.48 -155.40 
2761 -158.77 -155.40 -155.40 
2762 -157.91 -153.17 -155.40 
2763 -157.00 -154.52 -155.40 
2764 -156.32 -153.57 -155.40 
2765 -156.19 -155.98 -155.40 
2766 -158.72 -155.42 -155.40 
2767 -160.25 -154.66 -155.40 
2768 -160.16 -154.85 -155.40 
2769 -157.14 -154.70 -155.40 
2770 -160.83 -153.33 -155.40 
2771 -158.44 -153.78 -155.40 
2772 -156.41 -153.63 -155.40 
2773 -159.23 -153.68 -155.40 
2774 -158.48 -153.68 -155.40 
2775 -161.00 -153.69 -155.40 
2776 -161.34 -149.78 -155.40 
2777 -159.62 -151.88 -155.40 
2778 -156.77 -153.50 -155.40 
2779 -158.24 -153.36 -155.40 
2780 -157.61 -153.28 -155.40 
2781 -157.81 -152.46 -155.40 
2782 -159.49 -155.28 -155.40 
2783 -159.99 -154.00 -155.40 
2784 -159.01 -152.41 -155.40 
2785 -159.35 -153.91 -155.40 
2786 -159.09 -154.01 -155.40 
2787 -158.34 -153.52 -155.40 
2788 -158.61 -152.32 -155.40 
2789 -159.39 -152.19 -155.40 
2790 -158.27 -153.10 -155.40 
2791 -158.57 -153.11 -155.40 
2792 -159.24 -151.63 -155.40 
2793 -158.35 -153.04 -155.40 
2794 -157.28 -153.04 -155.40 
2795 -156.53 -151.48 -155.40 
2796 -157.07 -151.77 -155.40 
2797 -156.05 -151.57 -155.40 
2798 -157.21 -153.79 -155.40 
2799 -159.19 -153.91 -155.40 
2800 -157.51 -155.28 -155.40 
2801 -156.82 -153.55 -155.40 
2802 -159.19 -153.27 -155.40 
2803 -159.66 -153.73 -155.40 
2804 -158.26 -153.05 -155.40 
2805 -158.72 -154.56 -155.40 
2806 -158.93 -154.52 -155.40 
2807 -159.29 -153.71 -155.40 
2808 -157.30 -153.86 -155.40 
2809 -158.78 -153.61 -155.40 
2810 -157.88 -153.72 -155.40 
2811 -160.14 -155.65 -155.40 
2812 -160.39 -152.50 -155.40 
2813 -157.81 -153.73 -155.40 
2814 -161.65 -155.26 -155.40 
2815 -159.82 -155.10 -155.40 
2816 -159.83 -154.53 -155.40 
2817 -157.58 -153.33 -155.40 
2818 -158.82 -152.44 -155.40 
2819 -157.69 -152.28 -155.40 
2820 -159.12 -152.64 -155.40 
2821 -159.01 -152.72 -155.40 
2822 -158.60 -155.48 -155.40 
2823 -159.85 -154.44 -155.40 
2824 -156.92 -152.60 -155.40 
2825 -158.94 -152.46 -155.40 
2826 -158.19 -153.28 -155.40 
2827 -159.73 -153.20 -155.40 
2828 -158.86 -153.83 -155.40 
2829 -157.40 -153.24 -155.40 
2830 -159.26 -151.48 -155.40 
2831 -158.80 -151.70 -155.40 
2832 -156.57 -153.45 -155.40 
2833 -156.27 -155.41 -155.40 
2834 -158.15 -154.26 -155.40 
2835 -157.49 -154.36 -155.40 
2836 -158.57 -152.67 -155.40 
2837 -159.83 -152.75 -155.40 
2838 -158.76 -152.66 -155.40 
2839 -157.81 -150.78 -155.40 
2840 -155.52 -152.09 -155.40 
2841 -156.48 -152.61 -155.40 
2842 -158.33 -153.20 -155.40 
2843 -158.82 -152.98 -155.40 
2844 -158.81 -152.87 -155.40 
2845 -156.51 -152.54 -155.40 
2846 -158.54 -152.29 -155.40 
2847 -157.96 -152.15 -155.40 
2848 -158.83 -153.44 -155.40 
2849 -158.22 -153.51 -155.40 
2850 -157.53 -152.13 -155.40 
2851 -157.34 -150.87 -155.40 
2852 -154.60 -150.87 -155.40 
2853 -161.18 -152.17 -154.60 
2854 -158.99 -153.53 -154.60 
2855 -158.07 -150.87 -154.60 
2856 -157.41 -151.96 -154.60 
2857 -156.51 -150.45 -154.60 
2858 -157.67 -152.31 -154.60 
2859 -158.89 -151.30 -154.60 
2860 -156.58 -152.91 -154.60 
2861 -159.51 -151.86 -154.60 
2862 -156.65 -153.04 -154.60 
2863 -158.22 -151.78 -154.60 
2864 -159.42 -151.55 -154.60 
2865 -159.01 -152.10 -154.60 
2866 -159.23 -152.12 -154.60 
2867 -158.95 -152.27 -154.60 
2868 -157.20 -151.46 -154.60 
2869 -159.86 -150.03 -154.60 
2870 -156.83 -151.11 -154.60 
2871 -158.76 -150.94 -154.60 
2872 -158.18 -151.73 -154.60 
2873 -158.67 -151.62 -154.60 
2874 -157.90 -149.89 -154.60 
2875 -158.55 -149.90 -154.60 
2876 -158.66 -150.93 -154.60 
2877 -157.15 -149.80 -154.60 
2878 -159.27 -151.41 -154.60 
2879 -157.54 -151.13 -154.60 
2880 -157.96 -150.18 -154.60 
2881 -158.30 -152.71 -154.60 
2882 -156.65 -148.94 -154.60 
2883 -158.02 -150.90 -154.60 
2884 -156.59 -150.07 -154.60 
2885 -158.96 -151.18 -154.60 
2886 -157.90 -150.58 -154.60 
2887 -156.33 -149.27 -154.60 
2888 -157.29 -150.41 -154.60 
2889 -159.25 -150.74 -154.60 
2890 -157.63 -150.45 -154.60 
2891 -156.95 -150.97 -154.60 
2892 -156.96 -150.51 -154.60 
2893 -157.61 -150.95 -154.60 
2894 -158.20 -152.29 -154.60 
2895 -158.51 -152.28 -154.60 
2896 -156.81 -148.93 -154.60 
2897 -157.72 -151.64 -154.60 
2898 -157.61 -150.34 -154.60 
2899 -160.57 -150.60 -154.60 
2900 -157.34 -151.46 -154.60 
2901 -155.57 -148.80 -154.60 
2902 -157.23 -148.43 -154.60 
2903 -158.12 -151.18 -154.60 
2904 -159.23 -151.13 -154.60 
2905 -158.21 -150.40 -154.60 
2906 -157.28 -149.03 -154.60 
2907 -160.52 -150.60 -154.60 
2908 -159.69 -150.58 -154.60 
2909 -160.12 -150.57 -154.60 
2910 -158.11 -150.88 -154.60 
2911 -157.78 -150.76 -154.60 
2912 -160.43 -150.59 -154.60 
2913 -158.74 -149.46 -154.60 
2914 -161.51 -149.75 -154.60 
2915 -159.84 -149.56 -154.60 
2916 -157.54 -151.61 -154.60 
2917 -158.41 -151.58 -154.60 
2918 -159.43 -151.50 -154.60 
2919 -159.82 -150.62 -154.60 
2920 -157.59 -152.59 -154.60 
2921 -160.60 -150.87 -154.60 
2922 -158.22 -151.20 -154.60 
2923 -158.44 -151.88 -154.60 
2924 -159.58 -150.29 -154.60 
2925 -159.51 -150.41 -154.60 
2926 -158.79 -150.56 -154.60 
2927 -159.52 -152.18 -154.60 
2928 -157.66 -152.31 -154.60 
2929 -158.26 -152.48 -154.60 
2930 -159.23 -152.29 -154.60 
2931 -154.78 -150.82 -154.60 
2932 -159.85 -152.42 -154.60 
2933 -158.68 -152.47 -154.60 
2934 -158.75 -153.81 -154.60 
2935 -159.68 -151.28 -154.60 
2936 -159.55 -150.76 -154.60 
2937 -155.98 -151.39 -154.60 
2938 -158.94 -150.06 -154.60 
2939 -160.91 -151.34 -154.60 
2940 -159.70 -152.09 -154.60 
2941 -158.07 -152.15 -154.60 
2942 -157.71 -151.97 -154.60 
2943 -159.16 -152.07 -154.60 
2944 -158.87 -151.85 -154.60 
2945 -157.65 -152.88 -154.60 
2946 -159.26 -152.76 -154.60 
2947 -158.81 -153.39 -154.60 
2948 -158.69 -154.49 -154.60 
2949 -158.24 -153.26 -154.60 
2950 -157.70 -151.79 -154.60 
2951 -159.92 -151.88 -154.60 
2952 -159.91 -151.85 -154.60 
2953 -159.31 -151.85 -154.60 
2954 -157.86 -151.90 -154.60 
2955 -157.38 -151.89 -154.60 
2956 -161.84 -152.46 -154.60 
2957 -158.08 -151.77 -154.60 
2958 -158.46 -153.93 -154.60 
2959 -159.22 -152.79 -154.60 
2960 -158.33 -151.50 -154.60 
2961 -156.20 -151.59 -154.60 
2962 -158.47 -151.90 -154.60 
2963 -158.38 -150.48 -154.60 
2964 -157.52 -150.73 -154.60 
2965 -160.16 -151.32 -154.60 
2966 -159.78 -152.81 -154.60 
2967 -158.73 -153.91 -154.60 
2968 -159.80 -151.51 -154.60 
2969 -157.93 -151.80 -154.60 
2970 -156.87 -152.59 -154.60 
2971 -159.71 -152.88 -154.60 
2972 -158.58 -151.67 -154.60 
2973 -157.48 -151.93 -154.60 
2974 -158.64 -150.96 -154.60 
2975 -158.73 -151.45 -154.60 
2976 -158.36 -152.17 -154.60 
2977 -158.55 -152.45 -154.60 
2978 -156.13 -151.96 -154.60 
2979 -158.17 -150.36 -154.60 
2980 -158.68 -153.11 -154.60 
2981 -158.30 -153.27 -154.60 
2982 -157.96 -153.03 -154.60 
2983 -158.90 -151.88 -154.60 
2984 -158.94 -151.77 -154.60 
2985 -158.52 -153.04 -154.60 
2986 -156.51 -152.39 -154.60 
2987 -159.30 -152.38 -154.60 
2988 -158.67 -152.12 -154.60 
2989 -160.13 -151.51 -154.60 
2990 -159.90 -152.17 -154.60 
2991 -158.39 -152.41 -154.60 
2992 -157.61 -151.21 -154.60 
2993 -155.49 -150.39 -154.60 
2994 -157.04 -150.61 -154.60 
2995 -159.27 -150.21 -154.60 
2996 -160.12 -151.19 -154.60 
2997 -158.04 -151.03 -154.60 
2998 -159.45 -151.45 -154.60 
2999 -160.85 -150.65 -154.60 
3000 -159.20 -149.66 -154.60 
3001 -159.09 -150.90 -154.60 
3002 -157.51 -151.03 -154.60 
3003 -160.11 -151.84 -154.60 
3004 -158.46 -151.98 -154.60 
3005 -159.04 -153.32 -154.60 
3006 -157.18 -153.02 -154.60 
3007 -158.02 -152.61 -154.60 
3008 -158.49 -152.71 -154.60 
3009 -159.16 -153.75 -154.60 
3010 -161.82 -155.01 -154.60 
3011 -159.47 -153.54 -154.60 
3012 -156.80 -153.03 -154.60 
3013 -158.56 -153.19 -154.60 
3014 -158.14 -152.81 -154.60 
3015 -157.91 -152.69 -154.60 
3016 -161.20 -152.79 -154.60 
3017 -162.79 -151.32 -154.60 
3018 -158.46 -151.50 -154.60 
3019 -159.47 -151.96 -154.60 
3020 -160.28 -151.07 -154.60 
3021 -157.83 -151.28 -154.60 
3022 -156.45 -152.12 -154.60 
3023 -158.21 -152.58 -154.60 
3024 -156.63 -151.46 -154.60 
3025 -160.23 -151.58 -154.60 
3026 -157.47 -153.00 -154.60 
3027 -159.33 -151.89 -154.60 
3028 -158.13 -151.69 -154.60 
3029 -158.61 -152.97 -154.60 
3030 -158.68 -150.63 -154.60 
3031 -158.78 -151.49 -154.60 
3032 -157.05 -151.70 -154.60 
3033 -159.84 -152.84 -154.60 
3034 -157.74 -151.17 -154.60 
3035 -159.52 -151.21 -154.60 
3036 -159.19 -151.52 -154.60 
3037 -156.79 -151.66 -154.60 
3038 -156.83 -151.37 -154.60 
3039 -159.06 -151.06 -154.60 
3040 -157.63 -151.32 -154.60 
3041 -157.40 -152.44 -154.60 
3042 -156.84 -152.39 -154.60 
3043 -158.71 -152.27 -154.60 
3044 -159.82 -151.65 -154.60 
3045 -158.83 -151.60 -154.60 
3046 -161.49 -150.27 -154.60 
3047 -157.48 -151.63 -154.60 
3048 -160.17 -151.41 -154.60 
3049 -158.75 -151.49 -154.60 
3050 -157.58 -152.55 -154.60 
3051 -157.47 -151.27 -154.60 
3052 -159.46 -149.83 -154.60 
3053 -154.65 -150.92 -154.60 
3054 -159.69 -151.05 -154.60 
3055 -159.46 -149.21 -154.60 
3056 -160.54 -150.53 -154.60 
3057 -158.54 -150.39 -154.60 
3058 -158.12 -150.27 -154.60 
3059 -157.46 -151.45 -154.60 
3060 -159.87 -150.24 -154.60 
3061 -158.84 -150.35 -154.60 
3062 -159.06 -150.24 -154.60 
3063 -158.84 -150.33 -154.60 
3064 -160.25 -151.51 -154.60 
3065 -157.77 -151.52 -154.60 
3066 -156.80 -151.93 -154.60 
3067 -157.80 -151.97 -154.60 
3068 -158.32 -150.05 -154.60 
3069 -159.04 -151.08 -154.60 
3070 -158.22 -151.02 -154.60 
3071 -157.50 -150.40 -154.60 
3072 -157.95 -151.41 -154.60 
3073 -158.89 -149.74 -154.60 
3074 -158.42 -149.56 -154.60 
3075 -158.92 -151.00 -154.60 
3076 -157.31 -149.61 -154.60 
3077 -156.03 -149.38 -154.60 
3078 -158.72 -149.44 -154.60 
3079 -160.00 -149.34 -154.60 
3080 -161.01 -150.64 -154.60 
3081 -158.99 -150.56 -154.60 
3082 -157.00 -150.92 -154.60 
3083 -157.67 -151.78 -154.60 
3084 -159.54 -150.80 -154.60 
3085 -159.28 -149.12 -154.60 
3086 -158.84 -152.10 -154.60 
3087 -159.22 -152.20 -154.60 
3088 -158.37 -150.61 -154.60 
3089 -159.91 -149.50 -154.60 
3090 -159.84 -149.49 -154.60 
3091 -158.44 -149.09 -154.60 
3092 -156.46 -149.35 -154.60 
3093 -158.62 -149.32 -154.60 
3094 -159.75 -149.26 -154.60 
3095 -156.22 -149.85 -154.60 
3096 -158.84 -149.77 -154.60 
3097 -159.28 -150.02 -154.60 
3098 -158.15 -151.31 -154.60 
3099 -158.05 -152.01 -154.60 
3100 -159.25 -152.53 -154.60 
3101 -160.44 -151.85 -154.60 
3102 -158.24 -151.79 -154.60 
3103 -159.63 -153.35 -154.60 
3104 -158.46 -153.24 -154.60 
3105 -157.86 -152.88 -154.60 
3106 -160.86 -152.97 -154.60 
3107 -157.81 -153.07 -154.60 
3108 -159.65 -152.92 -154.60 
3109 -156.95 -152.63 -154.60 
3110 -157.09 -151.46 -154.60 
3111 -161.27 -150.59 -154.60 
3112 -158.63 -153.73 -154.60 
3113 -157.08 -153.87 -154.60 
3114 -159.35 -152.48 -154.60 
3115 -159.42 -154.81 -154.60 
3116 -158.21 -153.39 -154.60 
3117 -158.87 -151.88 -154.60 
3118 -158.48 -149.64 -154.60 
3119 -159.27 -151.13 -154.60 
3120 -160.38 -151.17 -154.60 
3121 -159.83 -150.57 -154.60 
3122 -161.24 -151.44 -154.60 
3123 -158.50 -152.47 -154.60 
3124 -156.67 -152.54 -154.60 
3125 -158.87 -153.20 -154.60 
3126 -159.12 -152.43 -154.60 
3127 -158.84 -153.82 -154.60 
3128 -158.28 -154.86 -154.60 
3129 -159.91 -154.67 -154.60 
3130 -159.51 -156.40 -154.60 
3131 -157.82 -153.09 -154.60 
3132 -160.60 -150.27 -154.60 
3133 -157.71 -151.93 -154.60 
3134 -159.75 -151.60 -154.60 
3135 -159.63 -151.60 -154.60 
3136 -158.05 -151.46 -154.60 
3137 -158.72 -151.63 -154.60 
3138 -156.35 -154.52 -154.60 
3139 -159.31 -151.71 -154.60 
3140 -158.08 -151.47 -154.60 
3141 -158.71 -150.12 -154.60 
3142 -159.31 -150.17 -154.60 
3143 -159.70 -152.56 -154.60 
3144 -158.21 -152.25 -154.60 
3145 -160.27 -151.15 -154.60 
3146 -159.31 -153.40 -154.60 
3147 -159.04 -153.24 -154.60 
3148 -159.15 -153.73 -154.60 
3149 -157.89 -152.03 -154.60 
3150 -160.50 -152.18 -154.60 
3151 -158.15 -153.54 -154.60 
3152 -160.46 -152.59 -154.60 
3153 -159.45 -153.82 -154.60 
3154 -158.65 -152.78 -154.60 
3155 -158.03 -153.23 -154.60 
3156 -158.14 -154.69 -154.60 
3157 -159.05 -152.77 -154.60 
3158 -159.38 -151.16 -154.60 
3159 -160.48 -152.49 -154.60 
3160 -159.42 -153.79 -154.60 
3161 -158.49 -152.70 -154.60 
3162 -157.80 -149.85 -154.60 
3163 -161.51 -151.55 -154.60 
3164 -159.64 -152.90 -154.60 
3165 -155.71 -151.75 -154.60 
3166 -158.90 -151.43 -154.60 
3167 -159.94 -150.94 -154.60 
3168 -157.72 -150.82 -154.60 
3169 -159.07 -151.91 -154.60 
3170 -157.39 -153.38 -154.60 
3171 -158.96 -152.12 -154.60 
3172 -158.92 -153.63 -154.60 
3173 -158.10 -152.44 -154.60 
3174 -159.75 -152.34 -154.60 
3175 -159.21 -152.12 -154.60 
3176 -158.29 -152.28 -154.60 
3177 -157.15 -152.45 -154.60 
3178 -157.92 -152.74 -154.60 
3179 -158.40 -153.65 -154.60 
3180 -158.89 -155.98 -154.60 
3181 -157.10 -153.50 -154.60 
3182 -157.68 -154.69 -154.60 
3183 -159.09 -152.07 -154.60 
3184 -158.38 -150.88 -154.60 
3185 -158.97 -151.21 -154.60 
3186 -157.34 -152.39 -154.60 
3187 -158.22 -151.57 -154.60 
3188 -158.37 -153.42 -154.60 
3189 -157.57 -151.24 -154.60 
3190 -159.14 -151.78 -154.60 
3191 -159.55 -151.72 -154.60 
3192 -159.87 -151.88 -154.60 
3193 -158.58 -152.30 -154.60 
3194 -156.59 -152.77 -154.60 
3195 -158.20 -152.27 -154.60 
3196 -156.96 -152.18 -154.60 
3197 -159.14 -150.68 -154.60 
3198 -157.25 -151.99 -154.60 
3199 -159.00 -154.89 -154.60 
3200 -156.95 -150.61 -154.60 
3201 -156.82 -153.66 -154.60 
3202 -158.73 -152.29 -154.60 
3203 -158.03 -150.99 -154.60 
3204 -160.17 -149.84 -154.60 
3205 -158.79 -151.11 -154.60 
3206 -158.99 -151.38 -154.60 
3207 -158.48 -151.30 -154.60 
3208 -157.48 -149.58 -154.60 
3209 -157.04 -151.14 -154.60 
3210 -157.81 -151.47 -154.60 
3211 -159.16 -151.63 -154.60 
3212 -157.83 -153.46 -154.60 
3213 -158.87 -151.70 -154.60 
3214 -156.16 -152.01 -154.60 
3215 -158.75 -153.16 -154.60 
3216 -159.51 -153.14 -154.60 
3217 -157.72 -152.91 -154.60 
3218 -158.49 -151.68 -154.60 
3219 -156.57 -151.77 -154.60 
3220 -158.62 -152.44 -154.60 
3221 -159.29 -151.73 -154.60 
3222 -157.10 -151.58 -154.60 
3223 -155.53 -152.53 -154.60 
3224 -157.67 -152.67 -154.60 
3225 -157.90 -154.51 -154.60 
3226 -158.68 -153.42 -154.60 
3227 -157.29 -151.05 -154.60 
3228 -157.65 -151.41 -154.60 
3229 -156.61 -151.98 -154.60 
3230 -159.15 -151.64 -154.60 
3231 -158.58 -151.77 -154.60 
3232 -158.55 -154.13 -154.60 
3233 -157.20 -152.74 -154.60 
3234 -158.04 -155.43 -154.60 
3235 -158.87 -153.49 -154.60 
3236 -160.84 -152.42 -154.60 
3237 -158.89 -151.84 -154.60 
3238 -159.83 -150.87 -154.60 
3239 -159.63 -150.61 -154.60 
3240 -160.19 -151.33 -154.60 
3241 -157.72 -151.84 -154.60 
3242 -156.84 -151.46 -154.60 
3243 -156.71 -152.04 -154.60 
3244 -160.09 -151.95 -154.60 
3245 -158.71 -151.69 -154.60 
3246 -157.94 -151.89 -154.60 
3247 -158.36 -152.45 -154.60 
3248 -158.77 -152.26 -154.60 
3249 -156.76 -152.01 -154.60 
3250 -157.85 -150.65 -154.60 
3251 -156.69 -151.30 -154.60 
3252 -160.04 -151.37 -154.60 
3253 -159.31 -151.65 -154.60 
3254 -159.35 -151.79 -154.60 
3255 -158.22 -153.33 -154.60 
3256 -159.14 -151.82 -154.60 
3257 -159.87 -152.07 -154.60 
3258 -157.87 -152.01 -154.60 
3259 -157.25 -153.27 -154.60 
3260 -158.55 -152.00 -154.60 
3261 -158.19 -151.83 -154.60 
3262 -159.93 -154.07 -154.60 
3263 -158.34 -152.14 -154.60 
3264 -157.27 -152.34 -154.60 
3265 -157.79 -152.45 -154.60 
3266 -158.22 -152.55 -154.60 
3267 -157.27 -152.19 -154.60 
3268 -158.48 -153.70 -154.60 
3269 -158.59 -154.52 -154.60 
3270 -160.85 -154.36 -154.60 
3271 -158.27 -151.23 -154.60 
3272 -158.35 -150.82 -154.60 
3273 -157.33 -150.94 -154.60 
3274 -157.73 -150.89 -154.60 
3275 -160.21 -151.36 -154.60 
3276 -159.36 -150.95 -154.60 
3277 -159.20 -152.41 -154.60 
3278 -158.33 -150.62 -154.60 
3279 -157.21 -151.96 -154.60 
3280 -156.72 -151.98 -154.60 
3281 -158.70 -153.40 -154.60 
3282 -157.61 -149.97 -154.60 
3283 -157.37 -151.35 -154.60 
3284 -158.75 -151.71 -154.60 
3285 -157.38 -150.63 -154.60 
3286 -160.14 -151.81 -154.60 
3287 -159.87 -150.57 -154.60 
3288 -158.58 -153.38 -154.60 
3289 -157.58 -150.59 -154.60 
3290 -157.74 -152.07 -154.60 
3291 -159.90 -152.33 -154.60 
3292 -160.27 -154.37 -154.60 
3293 -158.46 -151.73 -154.60 
3294 -158.55 -153.08 -154.60 
3295 -159.12 -153.05 -154.60 
3296 -157.05 -151.52 -154.60 
3297 -155.97 -151.72 -154.60 
3298 -159.15 -151.78 -154.60 
3299 -158.23 -153.19 -154.60 
3300 -158.12 -153.55 -154.60 
3301 -156.17 -149.35 -154.60 
3302 -158.85 -150.67 -154.60 
3303 -159.83 -152.44 -154.60 
3304 -159.11 -151.99 -154.60 
3305 -158.84 -150.37 -154.60 
3306 -157.85 -153.36 -154.60 
3307 -157.29 -150.25 -154.60 
3308 -157.93 -151.43 -154.60 
3309 -156.94 -150.80 -154.60 
3310 -156.22 -154.50 -154.60 
3311 -157.86 -151.74 -154.60 
3312 -156.86 -151.76 -154.60 
3313 -157.40 -152.21 -154.60 
3314 -158.76 -152.82 -154.60 
3315 -158.13 -152.14 -154.60 
3316 -157.61 -153.06 -154.60 
3317 -157.75 -153.07 -154.60 
3318 -158.53 -150.96 -154.60 
3319 -158.57 -153.27 -154.60 
3320 -157.80 -153.04 -154.60 
3321 -159.57 -152.48 -154.60 
3322 -159.61 -152.42 -154.60 
3323 -159.56 -151.15 -154.60 
3324 -157.20 -151.28 -154.60 
3325 -160.26 -150.18 -154.60 
3326 -157.03 -151.57 -154.60 
3327 -156.53 -150.69 -154.60 
3328 -157.59 -153.19 -154.60 
3329 -157.67 -150.16 -154.60 
3330 -157.10 -151.34 -154.60 
3331 -155.80 -152.41 -154.60 
3332 -157.52 -150.90 -154.60 
3333 -159.48 -151.35 -154.60 
3334 -156.27 -152.35 -154.60 
3335 -157.69 -152.51 -154.60 
3336 -160.58 -152.43 -154.60 
3337 -158.46 -152.55 -154.60 
3338 -158.94 -152.48 -154.60 
3339 -157.04 -150.28 -154.60 
3340 -156.38 -150.56 -154.60 
3341 -157.68 -151.99 -154.60 
3342 -160.55 -152.02 -154.60 
3343 -159.30 -153.01 -154.60 
3344 -157.96 -151.88 -154.60 
3345 -157.57 -153.06 -154.60 
3346 -156.31 -152.45 -154.60 
3347 -156.65 -152.43 -154.60 
3348 -157.93 -152.04 -154.60 
3349 -158.29 -152.22 -154.60 
3350 -157.91 -151.23 -154.60 
3351 -157.51 -152.42 -154.60 
3352 -158.45 -152.30 -154.60 
3353 -158.10 -152.27 -154.60 
3354 -159.03 -152.36 -154.60 
3355 -157.61 -152.31 -154.60 
3356 -157.29 -151.00 -154.60 
3357 -158.39 -152.45 -154.60 
3358 -157.86 -152.21 -154.60 
3359 -159.85 -151.94 -154.60 
3360 -157.54 -151.58 -154.60 
3361 -156.82 -151.30 -154.60 
3362 -156.47 -151.12 -154.60 
3363 -157.83 -152.22 -154.60 
3364 -157.16 -152.46 -154.60 
3365 -156.97 -153.94 -154.60 
3366 -158.34 -152.57 -154.60 
3367 -159.70 -153.11 -154.60 
3368 -159.27 -155.25 -154.60 
3369 -158.50 -152.47 -154.60 
3370 -159.94 -152.39 -154.60 
3371 -158.78 -152.25 -154.60 
3372 -160.05 -151.08 -154.60 
3373 -158.44 -151.58 -154.60 
3374 -160.43 -150.21 -154.60 
3375 -159.62 -150.23 -154.60 
3376 -156.65 -150.92 -154.60 
3377 -156.52 -149.87 -154.60 
3378 -157.47 -150.59 -154.60 
3379 -158.08 -151.86 -154.60 
3380 -159.25 -151.98 -154.60 
3381 -159.21 -152.04 -154.60 
3382 -157.49 -152.52 -154.60 
3383 -158.75 -152.18 -154.60 
3384 -160.61 -152.39 -154.60 
3385 -158.69 -152.26 -154.60 
3386 -158.74 -152.14 -154.60 
3387 -159.04 -152.54 -154.60 
3388 -156.86 -152.39 -154.60 
3389 -157.45 -152.20 -154.60 
3390 -156.97 -152.87 -154.60 
3391 -157.78 -152.46 -154.60 
3392 -158.23 -152.37 -154.60 
3393 -158.86 -152.20 -154.60 
3394 -156.53 -152.10 -154.60 
3395 -156.85 -152.42 -154.60 
3396 -158.34 -152.04 -154.60 
3397 -155.51 -152.55 -154.60 
3398 -157.05 -152.47 -154.60 
3399 -159.59 -152.39 -154.60 
3400 -159.38 -152.24 -154.60 
3401 -159.53 -152.06 -154.60 
3402 -156.95 -151.94 -154.60 
3403 -157.33 -151.82 -154.60 
3404 -158.08 -151.82 -154.60 
3405 -159.01 -151.87 -154.60 
3406 -158.23 -151.56 -154.60 
3407 -158.61 -151.56 -154.60 
3408 -161.97 -151.60 -154.60 
3409 -159.06 -151.24 -154.60 
3410 -160.99 -151.02 -154.60 
3411 -158.23 -152.91 -154.60 
3412 -157.05 -152.37 -154.60 
3413 -158.22 -152.20 -154.60 
3414 -156.89 -153.23 -154.60 
3415 -159.89 -153.39 -154.60 
3416 -159.32 -153.14 -154.60 
3417 -157.89 -152.98 -154.60 
3418 -157.26 -153.19 -154.60 
3419 -159.11 -153.40 -154.60 
3420 -158.36 -153.44 -154.60 
3421 -158.32 -154.84 -154.60 
3422 -159.87 -153.17 -154.60 
3423 -158.32 -154.05 -154.60 
3424 -159.05 -154.30 -154.60 
3425 -156.63 -154.63 -154.60 
3426 -158.85 -152.76 -154.60 
3427 -158.21 -154.16 -154.60 
3428 -160.29 -154.20 -154.60 
3429 -158.62 -153.88 -154.60 
3430 -159.46 -152.48 -154.60 
3431 -159.51 -155.70 -154.60 
3432 -158.65 -154.43 -154.60 
3433 -158.90 -154.92 -154.60 
3434 -156.86 -155.36 -154.60 
3435 -158.30 -155.54 -154.60 
3436 -157.61 -155.55 -154.60 
3437 -159.35 -155.32 -154.60 
3438 -158.44 -153.99 -154.60 
3439 -158.04 -153.85 -154.60 
3440 -158.98 -154.40 -154.60 
3441 -157.34 -152.67 -154.60 
3442 -157.61 -153.89 -154.60 
3443 -159.50 -153.60 -154.60 
3444 -160.46 -153.62 -154.60 
3445 -159.14 -153.20 -154.60 
3446 -158.03 -154.66 -154.60 
3447 -159.56 -154.82 -154.60 
3448 -159.31 -154.62 -154.60 
3449 -155.76 -152.63 -154.60 
3450 -158.85 -153.22 -154.60 
3451 -156.46 -153.69 -154.60 
3452 -159.42 -153.54 -154.60 
3453 -157.34 -154.00 -154.60 
3454 -158.79 -153.87 -154.60 
3455 -158.15 -153.59 -154.60 
3456 -157.14 -153.03 -154.60 
3457 -158.56 -154.28 -154.60 
3458 -155.67 -154.36 -154.60 
3459 -158.18 -153.70 -154.60 
3460 -158.20 -153.50 -154.60 
3461 -157.33 -153.85 -154.60 
3462 -157.29 -153.33 -154.60 
3463 -160.30 -152.69 -154.60 
3464 -158.70 -152.97 -154.60 
3465 -158.92 -152.78 -154.60 
3466 -157.27 -152.49 -154.60 
3467 -157.12 -150.50 -154.60 
3468 -157.89 -151.74 -154.60 
3469 -158.88 -150.29 -154.60 
3470 -157.86 -152.27 -154.60 
3471 -156.95 -152.31 -154.60 
3472 -156.59 -153.22 -154.60 
3473 -158.12 -153.15 -154.60 
3474 -159.25 -152.99 -154.60 
3475 -158.57 -153.22 -154.60 
3476 -158.08 -153.06 -154.60 
3477 -159.09 -152.85 -154.60 
3478 -157.82 -152.58 -154.60 
3479 -160.53 -152.31 -154.60 
3480 -157.18 -152.70 -154.60 
3481 -159.25 -152.59 -154.60 
3482 -157.34 -152.86 -154.60 
3483 -157.48 -152.44 -154.60 
3484 -160.60 -152.55 -154.60 
3485 -160.77 -152.35 -154.60 
3486 -159.45 -152.65 -154.60 
3487 -158.54 -151.21 -154.60 
3488 -157.90 -151.11 -154.60 
3489 -158.27 -153.06 -154.60 
3490 -160.19 -150.06 -154.60 
3491 -157.03 -151.58 -154.60 
3492 -157.52 -151.93 -154.60 
3493 -159.14 -151.71 -154.60 
3494 -157.38 -150.35 -154.60 
3495 -156.90 -152.01 -154.60 
3496 -158.52 -151.67 -154.60 
3497 -155.89 -150.27 -154.60 
3498 -161.69 -150.62 -154.60 
3499 -157.66 -150.60 -154.60 
3500 -157.66 -150.88 -154.60 
3501 -156.77 -150.71 -154.60 
3502 -159.60 -152.28 -154.60 
3503 -157.21 -152.38 -154.60 
3504 -157.33 -153.63 -154.60 
3505 -157.47 -153.82 -154.60 
3506 -155.94 -154.26 -154.60 
3507 -159.39 -153.09 -154.60 
3508 -158.28 -154.99 -154.60 
3509 -156.64 -152.37 -154.60 
3510 -157.43 -153.34 -154.60 
3511 -157.36 -153.23 -154.60 
3512 -158.51 -150.66 -154.60 
3513 -158.12 -152.76 -154.60 
3514 -157.13 -152.76 -154.60 
3515 -156.11 -152.72 -154.60 
3516 -158.79 -152.99 -154.60 
3517 -158.23 -150.53 -154.60 
3518 -158.08 -153.24 -154.60 
3519 -158.69 -150.49 -154.60 
3520 -157.61 -153.43 -154.60 
3521 -158.49 -150.47 -154.60 
3522 -155.63 -150.55 -154.60 
3523 -156.75 -151.05 -154.60 
3524 -158.04 -152.41 -154.60 
3525 -156.62 -149.72 -154.60 
3526 -159.81 -151.02 -154.60 
3527 -157.26 -152.33 -154.60 
3528 -156.83 -151.96 -154.60 
3529 -158.08 -150.86 -154.60 
3530 -156.98 -153.41 -154.60 
3531 -156.54 -149.21 -154.60 
3532 -156.80 -151.95 -154.60 
3533 -159.02 -150.71 -154.60 
3534 -160.76 -149.56 -154.60 
3535 -158.50 -150.90 -154.60 
3536 -158.22 -151.99 -154.60 
3537 -157.44 -148.81 -154.60 
3538 -159.48 -150.04 -154.60 
3539 -156.93 -150.49 -154.60 
3540 -156.21 -150.54 -154.60 
3541 -158.85 -149.30 -154.60 
3542 -158.60 -149.45 -154.60 
3543 -156.79 -152.16 -154.60 
3544 -156.86 -153.45 -154.60 
3545 -158.16 -152.19 -154.60 
3546 -158.28 -150.63 -154.60 
3547 -158.11 -151.09 -154.60 
3548 -158.24 -152.61 -154.60 
3549 -159.20 -152.44 -154.60 
3550 -158.92 -152.03 -154.60 
3551 -159.91 -153.20 -154.60 
3552 -156.24 -152.12 -154.60 
3553 -157.82 -150.84 -154.60 
3554 -157.90 -152.36 -154.60 
3555 -159.14 -150.98 -154.60 
3556 -157.65 -153.79 -154.60 
3557 -158.79 -152.25 -154.60 
3558 -158.25 -151.37 -154.60 
3559 -157.12 -152.76 -154.60 
3560 -156.67 -153.29 -154.60 
3561 -159.75 -152.41 -154.60 
3562 -157.65 -153.61 -154.60 
3563 -158.61 -153.08 -154.60 
3564 -159.47 -152.10 -154.60 
3565 -158.34 -153.06 -154.60 
3566 -156.65 -151.62 -154.60 
3567 -159.64 -151.89 -154.60 
3568 -158.32 -152.53 -154.60 
3569 -157.37 -151.90 -154.60 
3570 -158.29 -151.32 -154.60 
3571 -157.78 -150.50 -154.60 
3572 -159.38 -151.50 -154.60 
3573 -160.35 -153.01 -154.60 
3574 -159.83 -153.16 -154.60 
3575 -159.08 -151.42 -154.60 
3576 -157.45 -153.05 -154.60 
3577 -159.40 -149.94 -154.60 
3578 -157.35 -149.98 -154.60 
3579 -159.12 -151.48 -154.60 
3580 -158.74 -152.07 -154.60 
3581 -156.66 -152.10 -154.60 
3582 -155.77 -152.00 -154.60 
3583 -160.43 -150.72 -154.60 
3584 -159.02 -150.75 -154.60 
3585 -158.21 -152.17 -154.60 
3586 -157.97 -150.58 -154.60 
3587 -158.14 -150.55 -154.60 
3588 -157.64 -151.52 -154.60 
3589 -159.51 -152.30 -154.60 
3590 -157.48 -152.87 -154.60 
3591 -157.75 -152.58 -154.60 
3592 -159.03 -152.45 -154.60 
3593 -157.99 -151.39 -154.60 
3594 -158.02 -152.74 -154.60 
3595 -158.91 -153.01 -154.60 
3596 -159.60 -151.16 -154.60 
3597 -157.52 -153.71 -154.60 
3598 -159.61 -153.38 -154.60 
3599 -160.56 -151.76 -154.60 
3600 -160.85 -151.92 -154.60 
3601 -159.23 -153.12 -154.60 
3602 -154.95 -153.29 -154.60 
3603 -158.97 -153.55 -154.60 
3604 -159.84 -152.53 -154.60 
3605 -159.86 -152.20 -154.60 
3606 -161.43 -152.09 -154.60 
3607 -155.19 -151.80 -154.60 
3608 -160.21 -153.56 -154.60 
3609 -156.21 -153.29 -154.60 
3610 -155.98 -153.54 -154.60 
3611 -157.74 -152.14 -154.60 
3612 -158.92 -153.42 -154.60 
3613 -159.89 -152.01 -154.60 
3614 -157.33 -153.17 -154.60 
3615 -159.77 -154.58 -154.60 
3616 -158.09 -154.79 -154.60 
3617 -159.11 -152.35 -154.60 
3618 -160.63 -151.33 -154.60 
3619 -158.74 -152.68 -154.60 
3620 -157.96 -152.65 -154.60 
3621 -161.44 -154.54 -154.60 
3622 -158.67 -151.98 -154.60 
3623 -159.15 -152.54 -154.60 
3624 -155.27 -153.41 -154.60 
3625 -157.34 -153.44 -154.60 
3626 -159.55 -154.76 -154.60 
3627 -157.08 -154.61 -154.60 
3628 -158.06 -150.78 -154.60 
3629 -157.01 -152.45 -154.60 
3630 -159.66 -151.00 -154.60 
3631 -158.45 -150.89 -154.60 
3632 -157.16 -151.28 -154.60 
3633 -157.24 -151.06 -154.60 
3634 -158.49 -153.84 -154.60 
3635 -157.67 -151.16 -154.60 
3636 -156.82 -152.44 -154.60 
3637 -158.25 -154.14 -154.60 
3638 -156.31 -153.74 -154.60 
3639 -158.11 -151.11 -154.60 
3640 -156.88 -153.63 -154.60 
3641 -157.53 -152.45 -154.60 
3642 -156.79 -152.28 -154.60 
3643 -154.99 -152.28 -154.60 
3644 -157.96 -152.44 -154.60 
3645 -159.11 -153.90 -154.60 
3646 -159.02 -152.59 -154.60 
3647 -155.82 -150.99 -154.60 
3648 -158.91 -151.26 -154.60 
3649 -158.58 -150.66 -154.60 
3650 -157.97 -151.17 -154.60 
3651 -157.43 -151.32 -154.60 
3652 -155.42 -151.42 -154.60 
3653 -158.20 -151.22 -154.60 
3654 -159.50 -151.93 -154.60 
3655 -157.56 -150.54 -154.60 
3656 -156.70 -150.95 -154.60 
3657 -157.16 -150.53 -154.60 
3658 -157.07 -150.56 -154.60 
3659 -157.15 -150.91 -154.60 
3660 -157.87 -151.09 -154.60 
3661 -158.49 -151.30 -154.60 
3662 -157.91 -151.28 -154.60 
3663 -158.65 -151.09 -154.60 
3664 -158.56 -151.43 -154.60 
3665 -156.11 -152.03 -154.60 
3666 -158.26 -150.47 -154.60 
3667 -156.19 -151.24 -154.60 
3668 -159.21 -150.80 -154.60 
3669 -156.95 -150.69 -154.60 
3670 -157.93 -151.86 -154.60 
3671 -156.12 -149.96 -154.60 
3672 -159.78 -150.55 -154.60 
3673 -157.27 -151.69 -154.60 
3674 -157.49 -151.40 -154.60 
3675 -159.76 -151.42 -154.60 
3676 -156.93 -150.29 -154.60 
3677 -159.38 -150.34 -154.60 
3678 -157.13 -150.59 -154.60 
3679 -158.49 -152.14 -154.60 
3680 -159.17 -152.20 -154.60 
3681 -158.75 -150.76 -154.60 
3682 -160.00 -152.25 -154.60 
3683 -158.26 -152.30 -154.60 
3684 -158.05 -154.03 -154.60 
3685 -156.41 -152.72 -154.60 
3686 -156.67 -154.18 -154.60 
3687 -155.96 -153.12 -154.60 
3688 -158.61 -152.65 -154.60 
3689 -159.88 -153.11 -154.60 
3690 -155.97 -154.94 -154.60 
3691 -158.60 -151.20 -154.60 
3692 -156.80 -152.54 -154.60 
3693 -158.70 -151.41 -154.60 
3694 -157.97 -151.24 -154.60 
3695 -155.50 -152.37 -154.60 
3696 -158.07 -152.25 -154.60 
3697 -157.33 -152.58 -154.60 
3698 -157.02 -152.84 -154.60 
3699 -157.79 -151.11 -154.60 
3700 -156.02 -151.40 -154.60 
3701 -158.07 -153.73 -154.60 
3702 -156.42 -151.42 -154.60 
3703 -156.59 -151.23 -154.60 
3704 -156.73 -151.31 -154.60 
3705 -156.72 -151.24 -154.60 
3706 -155.76 -151.48 -154.60 
3707 -156.18 -151.15 -154.60 
3708 -156.81 -150.51 -154.60 
3709 -156.85 -150.24 -154.60 
3710 -156.70 -150.72 -154.60 
3711 -157.07 -150.23 -154.60 
3712 -158.46 -150.57 -154.60 
3713 -159.20 -150.80 -154.60 
3714 -156.55 -151.09 -154.60 
3715 -158.76 -151.01 -154.60 
3716 -156.59 -152.63 -154.60 
3717 -156.54 -150.99 -154.60 
3718 -157.16 -150.57 -154.60 
3719 -158.76 -150.69 -154.60 
3720 -156.71 -152.27 -154.60 
3721 -157.79 -150.97 -154.60 
3722 -156.38 -151.12 -154.60 
3723 -155.18 -150.94 -154.60 
3724 -157.25 -152.13 -154.60 
3725 -157.86 -150.98 -154.60 
3726 -157.51 -152.11 -154.60 
3727 -159.81 -150.96 -154.60 
3728 -159.04 -150.56 -154.60 
3729 -159.43 -150.27 -154.60 
3730 -159.44 -152.88 -154.60 
3731 -157.07 -151.79 -154.60 
3732 -154.73 -151.59 -154.60 
3733 -155.68 -151.55 -154.60 
3734 -158.69 -154.03 -154.60 
3735 -156.74 -152.57 -154.60 
3736 -156.91 -152.51 -154.60 
3737 -157.16 -151.63 -154.60 
3738 -158.71 -152.24 -154.60 
3739 -157.33 -151.37 -154.60 
3740 -158.04 -151.87 -154.60 
3741 -159.07 -151.90 -154.60 
3742 -159.55 -151.88 -154.60 
3743 -159.76 -152.26 -154.60 
3744 -158.23 -151.82 -154.60 
3745 -157.65 -151.91 -154.60 
3746 -159.42 -153.07 -154.60 
3747 -156.44 -150.32 -154.60 
3748 -156.71 -151.75 -154.60 
3749 -157.00 -152.36 -154.60 
3750 -157.07 -150.32 -154.60 
3751 -158.87 -150.54 -154.60 
3752 -156.55 -151.09 -154.60 
3753 -159.66 -151.18 -154.60 
3754 -156.41 -150.81 -154.60 
3755 -158.71 -150.67 -154.60 
3756 -156.12 -150.76 -154.60 
3757 -156.33 -150.35 -154.60 
3758 -157.95 -151.64 -154.60 
3759 -157.81 -152.48 -154.60 
3760 -157.72 -150.36 -154.60 
3761 -156.00 -150.09 -154.60 
3762 -157.75 -149.74 -154.60 
3763 -158.58 -151.34 -154.60 
3764 -155.78 -149.90 -154.60 
3765 -156.76 -150.19 -154.60 
3766 -157.55 -149.96 -154.60 
3767 -158.83 -149.78 -154.60 
3768 -157.42 -149.78 -154.60 
3769 -159.35 -150.56 -154.60 
3770 -156.58 -150.15 -154.60 
3771 -158.96 -150.39 -154.60 
3772 -157.45 -151.36 -154.60 
3773 -158.45 -153.43 -154.60 
3774 -158.01 -152.01 -154.60 
3775 -157.50 -153.12 -154.60 
3776 -157.69 -153.31 -154.60 
3777 -158.90 -153.07 -154.60 
3778 -158.99 -152.92 -154.60 
3779 -158.92 -152.69 -154.60 
3780 -157.12 -152.50 -154.60 
3781 -158.16 -152.47 -154.60 
3782 -157.41 -152.33 -154.60 
3783 -159.22 -153.01 -154.60 
3784 -158.31 -152.53 -154.60 
3785 -158.90 -151.17 -154.60 
3786 -157.08 -151.79 -154.60 
3787 -158.92 -151.93 -154.60 
3788 -158.05 -152.03 -154.60 
3789 -157.28 -152.24 -154.60 
3790 -157.10 -151.84 -154.60 
3791 -158.58 -151.92 -154.60 
3792 -159.53 -151.49 -154.60 
3793 -157.63 -153.43 -154.60 
3794 -157.29 -153.32 -154.60 
3795 -158.22 -154.53 -154.60 
3796 -157.79 -151.98 -154.60 
3797 -158.18 -152.40 -154.60 
3798 -157.55 -153.81 -154.60 
3799 -156.26 -151.45 -154.60 
3800 -158.19 -152.32 -154.60 
3801 -158.08 -152.27 -154.60 
3802 -155.89 -152.17 -154.60 
3803 -158.88 -151.78 -154.60 
3804 -159.30 -152.20 -154.60 
3805 -157.60 -151.67 -154.60 
3806 -155.90 -151.46 -154.60 
3807 -157.21 -154.22 -154.60 
3808 -157.65 -151.88 -154.60 
3809 -159.44 -153.31 -154.60 
3810 -157.69 -151.83 -154.60 
3811 -159.59 -151.93 -154.60 
3812 -158.11 -152.24 -154.60 
3813 -157.71 -152.26 -154.60 
3814 -158.97 -151.91 -154.60 
3815 -157.24 -152.10 -154.60 
3816 -159.08 -149.20 -154.60 
3817 -157.33 -150.39 -154.60 
3818 -156.26 -150.49 -154.60 
3819 -155.85 -150.80 -154.60 
3820 -156.91 -150.68 -154.60 
3821 -158.32 -150.59 -154.60 
3822 -157.34 -150.84 -154.60 
3823 -156.82 -151.03 -154.60 
3824 -158.52 -149.88 -154.60 
3825 -155.97 -151.61 -154.60 
3826 -157.92 -151.77 -154.60 
3827 -158.38 -150.18 -154.60 
3828 -158.79 -151.31 -154.60 
3829 -157.64 -151.36 -154.60 
3830 -158.29 -151.64 -154.60 
3831 -157.66 -151.24 -154.60 
3832 -158.61 -151.42 -154.60 
3833 -156.91 -152.55 -154.60 
3834 -157.51 -151.44 -154.60 
3835 -158.51 -151.81 -154.60 
3836 -159.16 -151.07 -154.60 
3837 -156.20 -152.36 -154.60 
3838 -157.13 -152.50 -154.60 
3839 -156.48 -151.80 -154.60 
3840 -158.21 -151.91 -154.60 
3841 -159.86 -151.59 -154.60 
3842 -157.73 -151.45 -154.60 
3843 -157.82 -151.62 -154.60 
3844 -156.98 -151.61 -154.60 
3845 -155.23 -152.24 -154.60 
3846 -160.84 -152.18 -154.60 
3847 -158.43 -150.59 -154.60 
3848 -158.62 -150.46 -154.60 
3849 -157.80 -150.69 -154.60 
3850 -157.88 -150.91 -154.60 
3851 -157.64 -150.69 -154.60 
3852 -157.05 -151.05 -154.60 
3853 -156.34 -149.47 -154.60 
3854 -156.64 -149.79 -154.60 
3855 -156.95 -149.82 -154.60 
3856 -155.34 -150.17 -154.60 
3857 -155.87 -149.83 -154.60 
3858 -158.75 -149.79 -154.60 
3859 -156.31 -150.41 -154.60 
3860 -157.45 -150.00 -154.60 
3861 -156.78 -150.32 -154.60 
3862 -157.80 -150.26 -154.60 
3863 -158.39 -150.22 -154.60 
3864 -156.27 -150.42 -154.60 
3865 -159.47 -150.57 -154.60 
3866 -155.99 -150.30 -154.60 
3867 -155.57 -150.17 -154.60 
3868 -155.82 -150.35 -154.60 
3869 -157.91 -150.55 -154.60 
3870 -156.32 -150.34 -154.60 
3871 -159.28 -150.41 -154.60 
3872 -155.57 -150.12 -154.60 
3873 -157.11 -150.58 -154.60 
3874 -155.74 -150.33 -154.60 
3875 -156.67 -151.58 -154.60 
3876 -155.82 -148.73 -154.60 
3877 -156.49 -149.99 -154.60 
3878 -156.69 -148.52 -154.60 
3879 -155.64 -150.20 -154.60 
3880 -158.07 -148.71 -154.60 
3881 -157.99 -148.49 -154.60 
3882 -157.07 -148.60 -154.60 
3883 -158.49 -148.58 -154.60 
3884 -156.54 -148.49 -154.60 
3885 -156.67 -151.10 -154.60 
3886 -159.04 -151.11 -154.60 
3887 -159.59 -149.83 -154.60 
3888 -157.65 -149.95 -154.60 
3889 -155.67 -151.42 -154.60 
3890 -154.43 -149.97 -154.60 
3891 -157.95 -151.44 -154.43 
3892 -157.71 -150.15 -154.43 
3893 -159.09 -150.19 -154.43 
3894 -155.23 -149.83 -154.43 
3895 -157.26 -148.65 -154.43 
3896 -156.17 -148.78 -154.43 
3897 -158.96 -150.00 -154.43 
3898 -158.05 -150.10 -154.43 
3899 -157.21 -149.84 -154.43 
3900 -157.49 -149.59 -154.43 
3901 -157.78 -150.84 -154.43 
3902 -157.98 -147.95 -154.43 
3903 -156.11 -150.77 -154.43 
3904 -156.31 -151.78 -154.43 
3905 -157.11 -150.54 -154.43 
3906 -155.82 -149.27 -154.43 
3907 -158.89 -150.44 -154.43 
3908 -158.57 -150.91 -154.43 
3909 -157.04 -149.00 -154.43 
3910 -158.37 -148.82 -154.43 
3911 -157.34 -151.65 -154.43 
3912 -155.79 -149.07 -154.43 
3913 -156.00 -149.01 -154.43 
3914 -157.02 -149.33 -154.43 
3915 -158.09 -149.35 -154.43 
3916 -156.71 -148.18 -154.43 
3917 -156.53 -151.05 -154.43 
3918 -159.53 -149.30 -154.43 
3919 -156.62 -149.35 -154.43 
3920 -156.96 -150.62 -154.43 
3921 -156.82 -150.65 -154.43 
3922 -157.11 -150.34 -154.43 
3923 -155.25 -152.07 -154.43 
3924 -158.22 -152.03 -154.43 
3925 -156.16 -151.81 -154.43 
3926 -155.95 -151.73 -154.43 
3927 -154.77 -150.29 -154.43 
3928 -158.69 -151.51 -154.43 
3929 -156.79 -150.12 -154.43 
3930 -156.39 -151.59 -154.43 
3931 -157.14 -151.60 -154.43 
3932 -157.38 -151.70 -154.43 
3933 -157.49 -150.25 -154.43 
3934 -157.26 -150.61 -154.43 
3935 -156.77 -150.66 -154.43 
3936 -158.46 -150.71 -154.43 
3937 -159.57 -149.60 -154.43 
3938 -155.85 -149.77 -154.43 
3939 -155.50 -150.09 -154.43 
3940 -156.38 -148.41 -154.43 
3941 -155.70 -149.75 -154.43 
3942 -157.17 -148.57 -154.43 
3943 -156.13 -151.41 -154.43 
3944 -156.58 -149.85 -154.43 
3945 -157.55 -149.74 -154.43 
3946 -157.38 -151.03 -154.43 
3947 -155.62 -151.97 -154.43 
3948 -159.35 -149.86 -154.43 
3949 -158.30 -150.09 -154.43 
3950 -158.59 -150.19 -154.43 
3951 -158.78 -148.58 -154.43 
3952 -159.10 -150.67 -154.43 
3953 -156.55 -148.97 -154.43 
3954 -159.38 -149.14 -154.43 
3955 -158.30 -149.16 -154.43 
3956 -156.76 -149.15 -154.43 
3957 -158.34 -149.18 -154.43 
3958 -157.07 -149.33 -154.43 
3959 -156.47 -149.03 -154.43 
3960 -159.40 -147.75 -154.43 
3961 -157.98 -149.09 -154.43 
3962 -157.38 -151.89 -154.43 
3963 -158.50 -150.51 -154.43 
3964 -156.82 -150.17 -154.43 
3965 -156.83 -150.42 -154.43 
3966 -157.70 -150.53 -154.43 
3967 -157.81 -150.50 -154.43 
3968 -156.58 -149.62 -154.43 
3969 -157.89 -151.01 -154.43 
3970 -156.11 -151.32 -154.43 
3971 -159.07 -151.08 -154.43 
3972 -157.77 -148.61 -154.43 
3973 -157.77 -150.44 -154.43 
3974 -161.27 -151.00 -154.43 
3975 -157.44 -151.19 -154.43 
3976 -157.90 -149.63 -154.43 
3977 -157.58 -150.01 -154.43 
3978 -158.01 -151.40 -154.43 
3979 -158.07 -151.26 -154.43 
3980 -157.78 -150.91 -154.43 
3981 -157.45 -149.79 -154.43 
3982 -156.01 -148.39 -154.43 
3983 -156.54 -148.49 -154.43 
3984 -160.10 -148.30 -154.43 
3985 -157.52 -149.94 -154.43 
3986 -158.24 -151.24 -154.43 
3987 -158.89 -151.02 -154.43 
3988 -158.63 -149.45 -154.43 
3989 -158.62 -149.69 -154.43 
3990 -158.40 -149.88 -154.43 
3991 -157.07 -149.78 -154.43 
3992 -157.28 -149.60 -154.43 
3993 -159.06 -149.46 -154.43 
3994 -157.79 -149.55 -154.43 
3995 -159.42 -149.40 -154.43 
3996 -156.15 -149.35 -154.43 
