iteration,time_sampling,stoc_pol_mean,stoc_pol_std,stoc_pol_max,stoc_pol_min,rollout_success,alpha,delta,time_vpg,time_npg,kl_dist,surr_improvement,running_score,rwd_sparse,rwd_dense,success_percentage,num_samples,time_VF,VF_error_before,VF_error_after,eval_score,eval_success
0,1.3827495574951172,-24.58338427348441,12.080354154567813,3.4534760475652724,-66.48486522260293,0.0,3.2779651959227536,0.1,0.04999184608459473,0.19315552711486816,0.049290806,0.027732715,-24.58338427348441,-0.2243832284817954,-0.23501839445799746,0.0,9248,0.8609588146209717,1.007495258886489,0.347058119100939,-21.62230610069946,0.0
1,1.151536464691162,-21.981535518902973,13.273432574013158,13.769947502063784,-59.88226990840792,0.0,4.3567762063874795,0.1,0.00884699821472168,0.1809558868408203,0.05846599,0.023161191,-24.323199398026265,-0.1945925785103919,-0.21428295775610193,0.0,9078,0.8077428340911865,0.4493759471452849,0.29760697557104965,-16.63886957943375,0.0
2,1.2043049335479736,-11.579955682243465,20.16072221707642,113.13134194661333,-54.671849285640015,1.0416666666666667,4.388578753662655,0.1,0.009029626846313477,0.1846475601196289,0.050106592,0.02373911,-23.048875026447988,-0.15351930581576664,-0.11551061021238514,1.0416666666666667,9519,0.8656325340270996,0.8903476472423144,0.7090244622748278,-18.110528420181904,0.0
3,1.2606661319732666,-9.53344373912739,20.307908086629897,70.25531319954268,-71.51702559476166,0.0,3.0559373646595414,0.1,0.00852203369140625,0.17928075790405273,0.057553135,0.034934346,-21.697331897715927,-0.1290377134115493,-0.08467758467222024,0.0,9429,0.8435025215148926,0.8106740792736742,0.7723214918993931,-21.104685904181018,0.0
4,1.1934168338775635,-11.406170375586171,15.177244678186598,95.15780547377467,-67.48903346391495,0.0,3.1637301884982825,0.1,0.009041786193847656,0.19695019721984863,0.055325862,0.03179497,-20.668215745502952,-0.1264204383477864,-0.10344724789522923,0.0,9533,0.9360308647155762,0.6397162284920005,0.6167280889509401,-21.017615769859404,0.0
5,1.2327179908752441,-6.003711932895623,20.210580588419162,150.62577727444094,-19.301527923409537,1.0416666666666667,3.649913190245398,0.1,0.009083747863769531,0.18214058876037598,0.047291335,0.029291073,-19.201765364242217,-0.11072461088314269,-0.05989127754980934,1.0416666666666667,9600,1.1929752826690674,0.9979605303698911,0.9586850199769862,-20.700202007255072,0.0
6,1.193413496017456,-9.053991795656662,9.562369725957522,44.10115612682486,-19.47848835386495,0.0,4.099425732934386,0.1,0.008746623992919922,0.17919015884399414,0.049330533,0.023889963,-18.18698800738366,-0.1137306864560667,-0.09039735312273338,0.0,9600,1.2311336994171143,0.6801224789275088,0.5713299048662881,-18.060306508625146,0.0
7,1.2258613109588623,-6.626669006800015,13.705303044738631,71.14974932879247,-19.00064308184754,0.0,4.19885448221928,0.1,0.00892329216003418,0.18404030799865723,0.056788158,0.029788345,-17.0309561073253,-0.10699221041058893,-0.0661588770772556,0.0,9600,1.253016471862793,0.8609698453877633,0.8300392158826219,-20.76762401598308,0.0
8,1.3963751792907715,-7.19455155966696,12.270453018171304,53.755066017295206,-17.290317980554953,0.0,3.497067479446947,0.1,0.008357048034667969,0.18227720260620117,0.05245385,0.030478196,-16.047315652559465,-0.10432810155272981,-0.07182810155272983,0.0,9600,1.2595405578613281,0.8611900906720441,0.8435914047652628,-17.46302440839605,0.0
9,1.1754405498504639,-5.2855928173663775,18.36211443493343,82.07310839432347,-61.69572872144588,0.0,3.557896415954671,0.1,0.009061336517333984,0.18409204483032227,0.06032072,0.028596487,-14.971143369040156,-0.10272745778832666,-0.05318541598608737,0.0,9567,1.2620618343353271,0.9365082098546565,0.8862442195367373,-15.14989078228665,0.0
10,1.1999011039733887,-0.9487811709325609,31.271729298016893,194.58187215961775,-27.92782660328029,2.0833333333333335,3.71276020423837,0.1,0.009766340255737305,0.1799318790435791,0.050644107,0.029600943,-13.568907149229396,-0.10647298357379377,-0.009806316907127119,2.0833333333333335,9600,1.250934362411499,0.9978329972265696,0.9762179973925671,-18.893382102093362,0.0
11,1.2350525856018066,5.116285210942184,55.621731241193366,428.7655271605784,-26.367346635086783,4.166666666666667,3.8947229633722813,0.1,0.00873422622680664,0.17928242683410645,0.052019417,0.029670505,-11.70038791321224,-0.10410865259913367,0.05089134740086635,4.166666666666667,9600,1.2719554901123047,0.9913705516142602,0.9785387349000982,-16.482691732658733,0.0
12,1.2699165344238281,-7.003903717358821,15.805108815606816,104.48161135223113,-21.93926813185461,0.0,3.3577159834878283,0.1,0.008655309677124023,0.1837167739868164,0.054999128,0.03341091,-11.230739493626897,-0.10321632114471269,-0.06988298781137935,0.0,9600,1.3037171363830566,1.1405014756778715,0.8319841388443264,-16.571116185891256,0.0
13,1.1948235034942627,-6.343323167018691,13.783792532003837,71.180802822306,-18.98058591312688,0.0,3.260884473348818,0.1,0.008941411972045898,0.17956781387329102,0.05161316,0.03925974,-10.741997860966077,-0.10164550513105881,-0.06331217179772547,0.0,9600,1.2833516597747803,0.8098582341690519,0.778564001729665,-19.76690103994715,0.0
14,1.214259386062622,-4.689037682714958,18.243268224216898,95.51949821651539,-19.19403717848056,0.0,4.39143682720896,0.1,0.00907754898071289,0.18064165115356445,0.053767044,0.02371875,-10.136701843140965,-0.09761719187608757,-0.04678385854275422,0.0,9600,1.268693208694458,0.9414990026166955,0.9011570210220773,-10.136759483719574,0.0
15,1.1868996620178223,-3.543247379024166,16.88733519723469,94.81478142948019,-15.892555050839698,0.0,3.7666512713597324,0.1,0.008599996566772461,0.18111371994018555,0.051326133,0.031912066,-9.477356396729286,-0.09243548542025422,-0.03576881875358756,0.0,9600,1.3064510822296143,0.9320353495773585,0.9045187309110652,-7.76005125330555,0.0
16,1.5870928764343262,-1.6769818523137552,26.168588748645444,124.67069878670077,-26.467810121928363,0.0,4.058266924578856,0.1,0.008564949035644531,0.18221592903137207,0.049361214,0.02792892,-8.697318942287733,-0.09372131878380312,-0.016637985450469794,0.0,9600,1.285517930984497,0.9500267019940376,0.9213645014840894,-5.112554891402605,0.0
17,1.2114145755767822,1.881362725021491,29.97318444513524,196.41036408916395,-16.047433063266954,2.0833333333333335,4.256461786546142,0.1,0.009023189544677734,0.18129682540893555,0.04929236,0.025842236,-7.639450775556811,-0.08361216981855858,0.01888783018144142,2.0833333333333335,9600,1.2821476459503174,0.9530010355852299,0.9272930827052436,-11.92800645763316,0.0
18,1.2028305530548096,0.07959590465786508,25.067637427152782,119.52175731068738,-14.72430617407857,2.0833333333333335,4.096100003662259,0.1,0.008762836456298828,0.1903069019317627,0.05357754,0.027642308,-6.867546107535344,-0.08785808206609319,0.0008919179339068143,2.0833333333333335,9600,1.2999155521392822,0.8953359864391757,0.8869116443777764,-11.890066979801166,0.0
19,1.224884271621704,0.8953293231770457,28.97689316268599,144.2845114665057,-16.82996526791114,1.0416666666666667,4.551488222449761,0.1,0.00881195068359375,0.18167829513549805,0.051708736,0.02435025,-6.091258564464105,-0.0876283772538306,0.009038289412836057,1.0416666666666667,9600,1.3056485652923584,0.9242300869125042,0.8894693085826787,6.818941871966381,6.25
20,1.2104856967926025,11.400118102242828,42.62239369219737,195.85446586145662,-14.142511655039714,3.125,4.643975818917186,0.1,0.008827686309814453,0.18650197982788086,0.05361154,0.022382332,-4.342120897793412,-0.08050524858633015,0.11407808474700316,3.125,9600,1.2838032245635986,0.9141500092112143,0.8549112247282717,-9.858730582704297,0.0
21,1.1941885948181152,-3.9639652346395855,12.701938785975658,55.44965728368698,-14.04420955395698,0.0,3.6181881855369733,0.1,0.008792400360107422,0.18173551559448242,0.047545917,0.029390763,-4.304305331478029,-0.08123476661294975,-0.03956809994628309,0.0,9600,1.3010168075561523,2.0725856314498623,0.8994888882601184,10.582765150822546,6.25
22,1.2238435745239258,2.0553870547742616,38.34455299268686,232.48005205147334,-19.964278517538883,4.166666666666667,4.098580837181096,0.1,0.008771419525146484,0.18004441261291504,0.04934415,0.029943207,-3.6683360928528006,-0.08601690425481867,0.02064976241184797,4.166666666666667,9600,1.306697130203247,0.9842393257197766,0.9097687816777391,2.4075290202813457,6.25
23,1.3407185077667236,1.3045250204925487,25.6641591580027,127.83975578602339,-14.31857781068817,0.0,3.592634005543229,0.1,0.00867915153503418,0.17997312545776367,0.04900089,0.032893945,-3.1710499815182653,-0.08480029141363071,0.012283041919702609,0.0,9600,1.3075284957885742,0.9139677290158575,0.8803284914276391,-2.66826278834689,0.0
24,1.401726484298706,3.827548531678904,42.69715630841739,284.8858973318851,-14.537614605755575,2.0833333333333335,4.878570470403992,0.1,0.008599042892456055,0.1787261962890625,0.050627228,0.021183467,-2.4711901301985484,-0.07914785973596547,0.03793547359736787,2.0833333333333335,9600,1.2944409847259521,0.940410300406922,0.9237227322698486,-4.3721784741357546,0.0
25,1.1803245544433594,-3.2451023909194725,16.846899382986077,116.10139360059246,-13.440521121027947,1.0416666666666667,3.554983353071545,0.1,0.009228944778442383,0.1924278736114502,0.04995966,0.029912088,-2.548581356270641,-0.08072702133661136,-0.03281035466994469,1.0416666666666667,9600,1.305802345275879,1.1301265220530576,0.8121723630634785,3.4001042435043063,6.25
26,1.1935381889343262,9.033130800349108,44.393958952379414,257.0163213505954,-14.086299216260278,3.125,4.032260877578034,0.1,0.008630514144897461,0.18133258819580078,0.05177901,0.025763107,-1.3904101406086662,-0.07415977558096086,0.09042355775237249,3.125,9600,1.28908371925354,0.9463980536075088,0.8657006123542627,2.8157780319413686,6.25
27,1.209240198135376,3.6124244714498235,32.4250037214672,176.81147184922807,-25.350798808105573,0.0,3.8424310615529014,0.1,0.007442951202392578,0.1786339282989502,0.046330508,0.027087457,-0.8901266794028171,-0.07921038185314491,0.036206284813521755,0.0,9600,1.2886340618133545,0.9407318588938494,0.8276129569114579,-4.87197625051106,0.0
28,1.2153005599975586,4.987898239568903,42.316935865932855,244.79655680789898,-18.908012125681317,2.0833333333333335,3.587586548034998,0.1,0.00850057601928711,0.18956398963928223,0.047133733,0.035483886,-0.30232418750564505,-0.08253802290721486,0.04954531042611848,2.0833333333333335,9600,1.3178281784057617,0.8756761437243041,0.8365476411386156,-2.64890135170071,0.0
29,1.241940975189209,3.4930094038812953,36.779905960127124,204.35830238996402,-15.628974160586296,2.0833333333333335,4.494283786763541,0.1,0.00991511344909668,0.18486571311950684,0.04973595,0.025836628,0.07720917163304897,-0.07955675926905048,0.03502657406428286,2.0833333333333335,9600,1.3181562423706055,0.8468085705669135,0.7957642621968931,-0.7008714513411625,0.0
30,1.2116765975952148,4.339403165524551,29.99770233551574,140.56233633284995,-23.91840428545413,1.0416666666666667,3.7713388714665403,0.1,0.008868694305419922,0.18047523498535156,0.051383227,0.02678643,0.5034285710221992,-0.07944792809064245,0.04346873857602423,1.0416666666666667,9600,1.3121368885040283,0.8087837047413904,0.7396664843159779,26.203534970066574,6.25
31,1.2883245944976807,7.234586289425407,37.22622674256023,168.31227785931088,-14.910932235296452,2.0833333333333335,3.5614458618187874,0.1,0.008836030960083008,0.1799778938293457,0.051483862,0.027168028,1.17654434286252,-0.07758961119134412,0.07241038880865587,2.0833333333333335,9600,1.3024218082427979,0.7739306990980236,0.7495464779246691,22.48211413873141,6.25
32,1.2099518775939941,21.111480356060518,61.82576550613352,317.42086744365827,-20.64487821382486,8.333333333333334,4.632176750761415,0.1,0.00856161117553711,0.18651628494262695,0.053509686,0.021498695,3.1700379441823197,-0.07714362021951293,0.21077304644715375,8.333333333333334,9600,1.3039369583129883,0.7681418547979604,0.6651843007997129,21.12799401622518,6.25
33,1.1897318363189697,5.263245773992323,43.168141576960586,241.18635942420684,-15.9836768679585,2.0833333333333335,3.7649311599408706,0.1,0.008795976638793945,0.18233227729797363,0.051281247,0.02799352,3.37935872716332,-0.07854937506878602,0.05228395826454731,2.0833333333333335,9600,1.2879245281219482,1.0017615892567644,0.8240161714528847,20.08988249322875,6.25
34,1.2257850170135498,4.544340237222211,37.403286683982714,192.98774613170133,-28.650533114203288,1.0416666666666667,3.9504404683119203,0.1,0.008414030075073242,0.18000245094299316,0.04742134,0.039051414,3.495856878169209,-0.0840534382376006,0.045529895095732735,1.0416666666666667,9600,1.2509722709655762,0.7687683249727043,0.7374433294520009,7.58134163331647,0.0
35,1.1891722679138184,7.890598790824892,56.71222474106737,329.68856027535037,-14.998234889945328,2.0833333333333335,4.035360571059237,0.1,0.00853419303894043,0.1990501880645752,0.05264677,0.028369421,3.9353310694347776,-0.08311583219381312,0.07771750113952025,2.0833333333333335,9600,1.283271074295044,0.8187133691720734,0.7727157737246696,22.83686847888544,6.25
36,1.2129676342010498,16.296971054615394,74.91540357558607,345.09360471618186,-14.852656750229704,5.208333333333333,4.527248530262225,0.1,0.008332014083862305,0.17946434020996094,0.05043446,0.020611087,5.171495067952839,-0.0798857308843287,0.16303093578233793,5.208333333333333,9600,1.2763183116912842,0.822549044153566,0.7368898556783381,26.28450136442958,6.25
37,1.1989691257476807,4.6907858721352875,34.92094195740244,232.52773691291029,-15.628213043975682,0.0,3.2478447832699735,0.1,0.009102821350097656,0.18903613090515137,0.048814997,0.033530254,5.123424148371084,-0.07469333688029464,0.04697332978637203,0.0,9600,1.2973284721374512,0.901644198263569,0.7361489044966759,-4.42477392366094,0.0
38,1.191213846206665,6.678582723529196,43.35735363062253,248.58226967829194,-17.346600722089832,3.125,4.578101814892935,0.1,0.008826494216918945,0.178863525390625,0.046599302,0.020946408,5.278940005886896,-0.08269797087853727,0.0668853624547961,3.125,9600,1.2725279331207275,0.7385164642801517,0.6813237104916268,-7.505167582367054,0.0
39,1.407583475112915,12.612922136172942,48.750857102761636,268.93177904521366,-14.036607961435488,3.125,4.196216782866694,0.1,0.008580446243286133,0.18076777458190918,0.05022943,0.026457025,6.012338218915501,-0.07382253388841602,0.12534413277825068,3.125,9600,1.270378589630127,0.7021192326055808,0.6705186912715442,-4.579668623708207,0.0
40,1.1975338459014893,13.470084944420952,48.05844834214522,252.25833904506555,-14.108885844415209,5.208333333333333,4.6088206282261766,0.1,0.008708000183105469,0.17907190322875977,0.052528985,0.023649685,6.7581128914660455,-0.06649720282666018,0.1339194638400065,5.208333333333333,9600,1.270557165145874,0.7533271494132613,0.6986826500207708,-4.46842183081198,0.0
41,1.238642930984497,0.9411871821811602,25.043078108886423,116.14463064473613,-16.037268975522807,1.0416666666666667,4.045628804597471,0.1,0.009106159210205078,0.18568158149719238,0.048413776,0.025568726,6.176420320537557,-0.0805087088907268,0.009491291109273199,1.0416666666666667,9600,1.286726474761963,0.8688049877274455,0.624649491956881,-4.407564345746483,0.0
42,1.2357063293457031,17.93542060677005,58.40385341227639,305.0319823745253,-14.282578926086872,3.125,4.064643461312399,0.1,0.008471250534057617,0.18850398063659668,0.050645515,0.028451517,7.352320349160807,-0.07807339737247394,0.17859326929419272,3.125,9600,1.2677733898162842,0.7008071165116053,0.5298940930328573,-1.8867249005135713,0.0
43,1.2210025787353516,9.045725616180455,38.672751178617304,187.90210091880553,-15.818701960518768,2.0833333333333335,4.227426308534708,0.1,0.008959054946899414,0.1977558135986328,0.051925823,0.023317033,7.521660875862771,-0.07280623539370351,0.09052709793962983,2.0833333333333335,9600,1.2709598541259766,0.8656046484983053,0.6398524338881525,-3.5368688767098915,0.0
44,1.1826715469360352,8.117180628193289,37.293003104973266,171.84506080838597,-14.608926454472547,2.0833333333333335,3.628818946892897,0.1,0.008525848388671875,0.18615341186523438,0.050044797,0.032406017,7.581212851095824,-0.07667481117146104,0.08082518882853897,2.0833333333333335,9600,1.2512996196746826,0.651573037629417,0.56639775788202,-2.959474784802729,0.0
45,1.2749629020690918,11.03147261739567,47.31405799012323,224.6409251859779,-13.959434592149202,5.208333333333333,3.534221374318674,0.1,0.00861668586730957,0.17916369438171387,0.053888664,0.029443374,7.9262388277258085,-0.07336553455446086,0.10996779877887247,5.208333333333333,9600,1.2243578433990479,0.5889428339487656,0.494803100316563,-2.658737374792789,0.0
46,1.270113229751587,6.963831921129937,37.18378029757724,176.37317959842844,-17.199242336001234,3.125,3.869759023002161,0.1,0.008735179901123047,0.18401575088500977,0.050568666,0.026452262,7.829998137066221,-0.07944603666865899,0.06805396333134102,3.125,9600,1.2301998138427734,0.6648548091756764,0.5197118865981464,-0.5672112358367709,0.0
47,1.1940386295318604,10.967498091663442,47.36705021840536,177.01680374279758,-14.986147616129287,7.291666666666667,3.6833488897377653,0.1,0.008441448211669922,0.17929577827453613,0.04741287,0.02950994,8.143748132525943,-0.07729420584756415,0.10978912748576918,7.291666666666667,9600,1.2046494483947754,0.5558217864254341,0.4704188938578086,-0.32791628431114894,0.0
48,1.214508056640625,25.102530618238706,57.84774360663411,253.0147386888732,-16.884296693026712,6.25,3.744567784028416,0.1,0.008525371551513672,0.18478870391845703,0.052891687,0.027557433,9.839626381097219,-0.07017247835843307,0.2502441883082336,6.25,9600,1.2250537872314453,0.4905405894309385,0.4126438659232083,1.8162557317434005,6.25
49,1.1931133270263672,21.25677177464685,63.19213642230542,385.48017601065504,-15.783916377371638,4.166666666666667,3.430461962734418,0.1,0.008676290512084961,0.17683124542236328,0.051067706,0.030364968,10.981340920452183,-0.07445299437340785,0.21221367229325883,4.166666666666667,9600,1.2626864910125732,0.5958410341666723,0.5385298308344866,1.352015489927823,6.25
50,1.2214384078979492,5.3225988322053714,38.39785247938945,205.0815671855256,-16.04847701591415,2.0833333333333335,3.65850704937285,0.1,0.0085296630859375,0.18009400367736816,0.05222904,0.029378917,10.415466711627502,-0.07630395414930623,0.053279379184027115,2.0833333333333335,9600,1.2427043914794922,0.7985492524709212,0.602180907731015,12.057091116876574,6.25
51,1.1978697776794434,16.549285974728992,54.42855118063509,252.34653423600318,-14.717499687839373,3.125,4.8575195135508045,0.1,0.008774757385253906,0.18883156776428223,0.052425135,0.021516543,11.028848637937651,-0.07319767058829875,0.1655523294117012,3.125,9600,1.267760992050171,0.6818072697540534,0.565538272669638,6.378540155723286,6.25
52,1.1819343566894531,16.321172253673698,47.33490081808508,228.79761593354414,-12.91999647401509,3.125,4.147288112304563,0.1,0.008790731430053711,0.18316960334777832,0.05350266,0.02721292,11.558080999511256,-0.06673696568265301,0.16242970098401366,3.125,9600,1.2671022415161133,0.5037415547272941,0.45080452223995054,3.10001584867453,6.25
53,1.2902863025665283,22.80794981108498,77.66690473055235,441.4660260713968,-14.338731297915697,7.291666666666667,4.294666494908336,0.1,0.00867772102355957,0.18172860145568848,0.053537127,0.024254829,12.683067880668629,-0.07518555578708037,0.22731444421291966,7.291666666666667,9600,1.2431516647338867,0.6358135995025049,0.5743344146687942,-2.6146193185777578,6.25
54,1.256209373474121,20.97591492791841,75.11191447422975,437.64812991744424,-15.8414022162563,5.208333333333333,3.6664149718911263,0.1,0.008386611938476562,0.18549227714538574,0.050836094,0.028614787,13.512352585393607,-0.07268813859646368,0.208978528070203,5.208333333333333,9600,1.2152891159057617,0.6092046899433963,0.5483512890500896,-1.062732712528939,6.25
55,1.2197880744934082,27.698163211969966,72.027349769804,329.5084468597347,-15.587186390507435,4.166666666666667,4.005482779837573,0.1,0.008862495422363281,0.1799790859222412,0.050740942,0.023440799,14.930933648051244,-0.067561249784865,0.2757720835484683,4.166666666666667,9600,1.1973927021026611,0.5159678979577774,0.47195846401807967,-0.23058086653555954,6.25
56,1.1950116157531738,13.892953112224733,51.5321863650388,264.68292177562734,-18.910941996964244,3.125,3.630144325016856,0.1,0.008884191513061523,0.18005013465881348,0.050676048,0.030578125,14.827135594468594,-0.07019314074445583,0.13814019258887753,3.125,9600,1.2168536186218262,0.6550388299454803,0.521023799201799,-3.6110563960209117,0.0
57,1.2027614116668701,25.278158137939773,73.43447542300865,501.84444496774495,-13.441050746383826,6.25,4.772498945102863,0.1,0.008615255355834961,0.18695688247680664,0.04629405,0.022967482,15.872237848815711,-0.06505916205933583,0.25285750460733086,6.25,9600,1.2378880977630615,0.5872998488422375,0.5147597691412904,-2.927421221305559,0.0
58,1.2066328525543213,23.62184169720581,63.390078115069336,317.0585128600211,-14.698346632953767,5.208333333333333,3.8541424733954197,0.1,0.010267972946166992,0.21378517150878906,0.052895546,0.026446916,16.64719823365472,-0.06832062746013452,0.2358460392065321,5.208333333333333,9600,1.5901150703430176,0.5315521219232646,0.4240918772408626,-4.748245020614005,0.0
59,1.2131521701812744,21.89500817192226,64.46522793331428,313.25958910627594,-14.995231596188374,4.166666666666667,4.52162351120564,0.1,0.008699655532836914,0.1807107925415039,0.05158526,0.022020964,17.171979227481476,-0.06805356790544316,0.21902976542789018,4.166666666666667,9600,1.250797986984253,0.5527389053134314,0.46512446210308334,-3.661207130355963,0.0
60,1.1901581287384033,22.738616343965685,65.45914221593307,373.48079553199796,-14.334314521943202,6.25,4.590895241156423,0.1,0.008440732955932617,0.183502197265625,0.05098552,0.02049272,17.728642939129898,-0.06758441709733655,0.22658224956933015,6.25,9600,1.2417688369750977,0.5772174101305565,0.5038806799392277,-1.7214712820280582,0.0
61,1.203059196472168,28.17517616601785,75.06555413558392,393.72725057921014,-14.367313885527727,5.208333333333333,4.850502182349525,0.1,0.009140253067016602,0.17932629585266113,0.048390962,0.020973116,18.773296261818693,-0.06735570161751389,0.28181096504915276,5.208333333333333,9600,1.2542965412139893,0.573952092259735,0.4359224290903978,1.6967126726551451,0.0
62,1.2803411483764648,24.51435120216585,68.46227418483062,309.2189835621473,-19.030759715517505,4.166666666666667,4.093552914702187,0.1,0.00882720947265625,0.18106675148010254,0.04759611,0.024580143,19.34740175585341,-0.070609680637908,0.24480698602875872,4.166666666666667,9600,1.2891361713409424,0.49062462928597056,0.4020423182679742,-0.18560198054448218,0.0
63,1.197113275527954,15.707013935989224,51.71789734978231,337.3436726126906,-14.382446716463633,3.125,4.129325215375222,0.1,0.009861230850219727,0.2140955924987793,0.051891554,0.023951204,18.983362973866996,-0.06911271291828587,0.15713728708171407,3.125,9600,1.6068387031555176,0.4730277919733906,0.4006638981078492,2.6147245524888625,0.0
64,1.1918208599090576,29.063222299769823,85.45953779426021,610.4082083489702,-14.981950379877333,7.291666666666667,4.19876434164645,0.1,0.010274887084960938,0.2152109146118164,0.052848123,0.026295107,19.99134890645728,-0.06847055311340389,0.2906961135532628,7.291666666666667,9600,1.6039037704467773,0.5554868880359668,0.5157648358848756,15.296390559416853,6.25
65,1.1891663074493408,21.824996437127396,61.28679754088797,220.5663897399903,-14.179258461894731,4.166666666666667,3.9414032128136163,0.1,0.010213136672973633,0.21769928932189941,0.051176034,0.025505478,20.17471365952429,-0.06752577291496349,0.21789089375170315,4.166666666666667,9600,1.6166408061981201,0.4710529832355694,0.4143590121828465,34.696829742045594,6.25
66,1.1871352195739746,38.57052346694946,81.30665640646254,293.35259097705534,-16.00398968824161,5.208333333333333,4.006605590407663,0.1,0.008542776107788086,0.1854405403137207,0.05330793,0.024414003,22.014294640266808,-0.0671650928906594,0.38533490710934065,5.208333333333333,9600,1.2733209133148193,0.3939479201432996,0.3172971392645448,9.914952564911054,0.0
67,1.234609603881836,47.384075220116586,101.88370848905048,377.33579717777656,-16.257718239020054,14.583333333333334,5.661919255878277,0.1,0.008750200271606445,0.17735505104064941,0.053968288,0.015181153,24.551272698251786,-0.06942932258804234,0.47348734407862425,14.583333333333334,9600,1.2970082759857178,0.4047906751149646,0.31187269165328607,12.708136782198302,6.25
68,1.2056286334991455,35.646229066054545,92.692485754935,453.7392417524689,-19.890151851420814,9.375,4.018984995131548,0.1,0.008339166641235352,0.1813828945159912,0.05339329,0.024080928,25.660768335032063,-0.0713577393605946,0.35530892730607205,9.375,9600,1.2854654788970947,0.4493917682228937,0.3564278356256431,26.856386967106538,6.25
69,1.2226197719573975,25.017510844330435,66.30346054050415,289.05604654256723,-14.751933673951859,5.208333333333333,3.5926296869900094,0.1,0.008762359619140625,0.1831355094909668,0.051397905,0.029778754,25.5964425859619,-0.07058784352073114,0.24857882314593552,5.208333333333333,9600,1.2934091091156006,0.37495785751067734,0.2831869263623419,22.829693359713282,12.5
70,1.375577688217163,30.460767424965965,76.16641097468802,353.22750916482534,-14.440890102541363,8.333333333333334,4.059939459118454,0.1,0.008382081985473633,0.17799830436706543,0.05244825,0.023515599,26.082875069862304,-0.06862801242314377,0.30387198757685624,8.333333333333334,9600,1.2928025722503662,0.4316098049382391,0.3406371949592118,31.829761463602754,12.5
71,1.232363224029541,26.99982487830455,79.88995964638697,510.0521670039633,-20.224760383039058,7.291666666666667,4.2879122693330975,0.1,0.008569002151489258,0.16932439804077148,0.052767724,0.022445913,26.174570050706528,-0.06996673675020569,0.2687832632497943,7.291666666666667,9600,1.328047275543213,0.5094883424737866,0.4585033801489254,35.78877880335691,12.5
72,1.264387845993042,19.761909588038673,59.08348139536349,273.1826271570377,-15.62757185372396,6.25,3.763701148866408,0.1,0.008939504623413086,0.1842329502105713,0.050173637,0.025407316,25.533304004439742,-0.0731643472292357,0.19725231943743096,6.25,9600,1.2873585224151611,0.3656099577924538,0.28062165350186014,80.13521498257555,18.75
73,1.2121434211730957,32.23748890573158,78.08840623693949,313.4064990806307,-13.119332353247103,7.291666666666667,4.513756399356586,0.1,0.008470773696899414,0.1825573444366455,0.051775556,0.022381473,26.20372249456893,-0.07088629510405238,0.32119703822928103,7.291666666666667,9600,1.2634191513061523,0.4572298103577105,0.352902114936527,39.00305018088337,12.5
74,1.2663662433624268,44.633283703329845,104.13085890868065,586.249951957717,-19.769233526142735,9.375,4.710893800238183,0.1,0.010101795196533203,0.2267436981201172,0.050379504,0.02250279,28.04667861544502,-0.06737502947196504,0.4451249705280349,9.375,9600,1.6098082065582275,0.375436198213589,0.29658906684872993,42.68314481989488,12.5
75,1.1989665031433105,30.819933017685898,84.22074945265184,377.1086714230902,-14.522123923706005,6.25,3.5487140467005416,0.1,0.008629322052001953,0.18291950225830078,0.047529526,0.033527497,28.32400405566911,-0.07131735570026247,0.3074326442997375,6.25,9600,1.2916667461395264,0.3575396338875631,0.2912541055013763,52.96115569175926,12.5
76,1.2020957469940186,48.992540048767694,96.09970970241373,413.555622763167,-13.476720377617536,9.375,4.165973907668545,0.1,0.009057044982910156,0.1830615997314453,0.05029224,0.024110593,30.39085765497897,-0.06295966174719696,0.489540338252803,9.375,9600,1.2867612838745117,0.40378302754901446,0.35460639880540595,95.54031387156367,12.5
77,1.2198877334594727,34.239771668709565,80.54265277902434,289.4077161844595,-14.946135086073053,12.5,3.478000918014465,0.1,0.010857105255126953,0.2164475917816162,0.05291208,0.028679615,30.775749056352026,-0.07005243073335599,0.3416142359333107,12.5,9600,1.618375539779663,0.4249898843243871,0.2822063053319758,79.36002594638111,6.25
78,1.2596750259399414,41.92270932991351,95.48364994069338,389.872405689222,-12.914873792947716,11.458333333333334,3.931594017011346,0.1,0.00989222526550293,0.21412014961242676,0.051746074,0.029789098,31.890445083708176,-0.06818919065739908,0.41806080934260087,11.458333333333334,9600,1.6289253234863281,0.37612825771734704,0.25864355613320383,87.53916087065612,12.5
79,1.2198143005371094,32.54712505991538,98.24077322409343,594.2280725121321,-14.625879230624973,6.25,3.83331398216406,0.1,0.008704185485839844,0.1813488006591797,0.052420452,0.027130287,31.956113081328898,-0.0703132486291899,0.32427008470414337,6.25,9600,1.302593469619751,0.5320947641800426,0.3845377798672159,32.972307436146984,12.5
80,1.2046935558319092,27.5175354292748,74.98538675109116,321.5842572123052,-13.94512155508374,6.25,4.023882516078003,0.1,0.0088653564453125,0.17946696281433105,0.050734315,0.021936119,31.51225531612349,-0.06892413700002115,0.27357586299997877,6.25,9600,1.294365406036377,0.39785796076054186,0.33911214905968307,20.319716330158904,0.0
81,1.1840639114379883,31.72359158432958,84.83635608645163,317.1152535312141,-13.591153856861103,5.208333333333333,4.178995274327405,0.1,0.008594989776611328,0.18400907516479492,0.04945262,0.02094505,31.5333889429441,-0.0701974451749869,0.31521922149167975,5.208333333333333,9600,1.2894608974456787,0.34277754308639774,0.2788033021217126,87.08013691960079,6.25
82,1.2049717903137207,54.638444543542136,124.46876594406574,618.3455590163499,-14.661714392973787,12.5,3.878896689227993,0.1,0.008430957794189453,0.1794602870941162,0.053149037,0.025800092,33.8438945030039,-0.06772203621577692,0.544777963784223,12.5,9600,1.2873611450195312,0.37056050161103116,0.3081656540111781,88.42879726097146,12.5
83,1.2310829162597656,44.82358006111585,100.27862738161052,405.2779384856289,-14.206445946630264,12.5,4.298686961585222,0.1,0.008394002914428711,0.17918944358825684,0.05025646,0.025581636,34.941863058815095,-0.06713059357864655,0.44703607308802007,12.5,9600,1.2979040145874023,0.35383166248551196,0.27404359274161066,48.53739434377438,6.25
84,1.2116026878356934,39.342677984360385,96.33651024252734,514.152780818656,-15.172262479589383,12.5,3.692750757888431,0.1,0.009090662002563477,0.17992401123046875,0.053920485,0.027863072,35.38194455136962,-0.06404691941516365,0.3922030805848364,12.5,9600,1.3041279315948486,0.3832418595131676,0.32384827554175355,19.90908317519813,12.5
85,1.2455780506134033,38.01546880010617,97.14781805298932,510.01525255430215,-13.493710599750202,7.291666666666667,3.9098452571106916,0.1,0.008851289749145508,0.18210959434509277,0.04960481,0.025053987,35.64529697624328,-0.06522183686042347,0.37977816313957646,7.291666666666667,9600,1.3031079769134521,0.38004817969373655,0.32498112846390936,29.349308604474007,6.25
86,1.218108892440796,46.93821778168151,106.17430633988677,457.9568373900704,-13.887887182061768,11.458333333333334,5.108438963216246,0.1,0.008400917053222656,0.17957615852355957,0.04947319,0.019950712,36.7745890567871,-0.06513756683222051,0.4681957665011128,11.458333333333334,9600,1.264930248260498,0.31270968944937877,0.25884045448663934,5.7083073876991435,0.0
87,1.477273941040039,73.04654497984853,138.7677047158072,457.8086395983283,-13.869828890615395,17.708333333333332,4.6140283936987565,0.1,0.009263277053833008,0.1839885711669922,0.04996316,0.023723252,40.401784649093244,-0.06200499624868918,0.7279950037513108,17.708333333333332,9600,1.2594127655029297,0.2866095096968637,0.25693236100170486,25.964287432583898,0.0
88,1.2356398105621338,69.60541091147114,128.80827606499867,441.5383443899118,-13.992613350007463,13.541666666666666,4.475514313215289,0.1,0.008991003036499023,0.18528270721435547,0.05216849,0.0215715,43.322147275331034,-0.06349244945958754,0.6948408838737459,13.541666666666666,9600,1.2673823833465576,0.2557119820991242,0.2170526372566585,55.500622462715185,12.5
89,1.2368249893188477,54.37886908528272,124.19834018095105,505.8962028422948,-13.750476655052509,13.541666666666666,3.950408459003733,0.1,0.008735179901123047,0.1790323257446289,0.05246539,0.024711976,44.427819456326205,-0.06490710118378294,0.5434262321495503,13.541666666666666,9600,1.2621312141418457,0.30622003886099414,0.25820264348347693,41.30192824478123,6.25
90,1.193774700164795,78.59132974378832,152.87614547575618,690.5461512036591,-13.690023107807622,15.625,4.398867989883277,0.1,0.008822917938232422,0.1789863109588623,0.05160039,0.022315603,47.84417048507242,-0.06197526811632633,0.7830247318836737,15.625,9600,1.2766072750091553,0.24858650616320752,0.20786443802684768,116.59342259345684,12.5
91,1.17521333694458,38.40921874444537,104.8210408309892,469.98705221107474,-13.662070709767537,9.375,3.736037029054087,0.1,0.009047269821166992,0.17693400382995605,0.04701043,0.027466498,46.900675311009714,-0.06793842591951688,0.3841449074138164,9.375,9600,1.279634714126587,0.4537023044189914,0.31243562958739896,70.90439950582322,12.5
92,1.2010877132415771,52.70135905335875,124.14923100468486,506.0117702487543,-13.518536300427723,11.458333333333334,4.385207036069332,0.1,0.008991003036499023,0.18274927139282227,0.052939035,0.025276124,47.48074368524462,-0.061255901344760035,0.52624409865524,11.458333333333334,9600,1.2921621799468994,0.40122139015671116,0.26774853859156594,40.87767968911152,6.25
93,1.2279689311981201,70.28551975630188,128.10514700443255,473.88901777273617,-14.619853701212916,12.5,5.084946578815749,0.1,0.00829458236694336,0.17289304733276367,0.049608447,0.019447409,49.76122129235034,-0.056686207590408044,0.7016471257429253,12.5,9600,1.3157129287719727,0.285629282634786,0.22306405449076502,76.06422434568344,6.25
94,1.1994867324829102,43.57134882955385,103.41131239115056,425.9911357909756,-12.73015311036455,9.375,3.730664475773591,0.1,0.008420944213867188,0.17229771614074707,0.051449478,0.023841254,49.1422340460707,-0.06299125944926472,0.43492540721740197,9.375,9600,1.3127493858337402,0.30975602437861766,0.20630662194424984,98.33409375882952,12.5
95,1.406759262084961,44.560941391632376,111.29641125864458,622.2825879336741,-12.953874749289161,9.375,3.9208253900741266,0.1,0.008775949478149414,0.18078207969665527,0.051573236,0.025566222,48.68410478062687,-0.06310155165701088,0.4443984483429891,9.375,9600,1.3047151565551758,0.41054574301275126,0.2787899593512278,90.50696332005832,6.25
96,1.2211103439331055,61.815354046069785,127.11363541572483,658.4291846904274,-13.885524058363305,12.5,3.8204320980695803,0.1,0.010403156280517578,0.21495723724365234,0.049718887,0.02714358,49.99722970717116,-0.05720772498305057,0.6169589416836162,12.5,9600,1.6326239109039307,0.3209217288476971,0.2358789000900024,80.0342456341669,12.5
97,1.2036466598510742,50.163515041696165,117.03320904729239,461.843768981707,-14.029018963572073,8.333333333333334,4.156289793392301,0.1,0.00880122184753418,0.17908024787902832,0.048656177,0.026074143,50.01385824062366,-0.06329655044968814,0.5012867828836453,8.333333333333334,9600,1.274061918258667,0.3507816362811455,0.2581225636799659,102.14958868662856,12.5
98,1.1879653930664062,51.56860021078449,116.10898215320306,474.24329002030845,-14.714563650059706,9.375,4.221312963674748,0.1,0.008732795715332031,0.18149805068969727,0.051764857,0.025326002,50.169332437639746,-0.06507925975513659,0.5149207402448633,9.375,9600,1.2757070064544678,0.2670196870748921,0.2079147006946727,130.2839110434844,12.5
99,1.2310481071472168,56.91219210309083,125.5659325131964,518.4118688812811,-14.156532424222316,12.5,3.7207033338349884,0.1,0.008839845657348633,0.18146777153015137,0.0507392,0.029514663,50.84361840418486,-0.06375507107364335,0.5674949289263568,12.5,9600,1.2609941959381104,0.2053214802905078,0.1566855070947564,112.2065922720654,12.5
100,1.218773603439331,73.39108253378795,125.55940199062545,449.931872788036,-14.994233101903927,13.541666666666666,4.825224013731618,0.1,0.00889134407043457,0.18477129936218262,0.050199017,0.024612706,53.09836481714517,-0.05898416672704095,0.7314324999396257,13.541666666666666,9600,1.2414703369140625,0.25574300240879383,0.19511831286054834,103.0254532222718,12.5
101,1.2027509212493896,47.82571723158605,122.79324593258247,485.9885064245978,-13.708371344130216,7.291666666666667,4.122819203521415,0.1,0.008179187774658203,0.17514872550964355,0.051483624,0.023589693,52.57110005858926,-0.06375605201273872,0.4774939479872613,7.291666666666667,9600,1.221686601638794,0.3064767025310623,0.23344264968306477,119.96003481199038,12.5
102,1.4162323474884033,49.21263069153466,103.10953630571785,454.10783626146815,-13.256496101881918,9.375,3.6672921161377823,0.1,0.00860142707824707,0.18506956100463867,0.04939592,0.028257895,52.2352531218838,-0.057828382123013854,0.49133828454365275,9.375,9600,1.2020556926727295,0.33439331658549043,0.20118990166783993,94.28668802819331,12.5
103,1.202883005142212,52.20907493925017,121.2094200458763,425.4813448611707,-14.564434603760061,10.416666666666666,4.276916154684331,0.1,0.00838613510131836,0.194077730178833,0.050247654,0.021573715,52.23263530362044,-0.06035928872554317,0.5213073779411236,10.416666666666666,9600,1.2185864448547363,0.3273525701138171,0.2654598141988095,88.3788625856222,6.25
104,1.2184028625488281,47.143219956696726,99.80377573187282,398.05510325655007,-14.3374398547603,9.375,4.195830448217774,0.1,0.009290933609008789,0.18963074684143066,0.053620014,0.024267463,51.72369376892807,-0.06433249003770664,0.4710841766289601,9.375,9600,1.208677053451538,0.26909319490631833,0.2070191293822569,115.8240691237178,18.75
105,1.1975841522216797,84.04669132364161,153.80511073295966,522.1008490884196,-13.68425231212982,14.583333333333334,4.105789544383909,0.1,0.008771419525146484,0.1925206184387207,0.048487276,0.021299617,54.95599352439943,-0.06073128226069354,0.8396853844059732,14.583333333333334,9600,1.2224719524383545,0.2500046928374851,0.19087857129872446,113.73399111951886,12.5
106,1.2150492668151855,45.9930581438472,102.15942841868429,353.6661218487246,-15.01360953566157,4.166666666666667,4.66674316986767,0.1,0.008553743362426758,0.1889786720275879,0.050289497,0.022882989,54.059699986344214,-0.0620958064810877,0.45873752685224556,4.166666666666667,9600,1.2229259014129639,0.3218845143491498,0.21220668915173807,113.23926715846034,12.5
107,1.2018611431121826,48.69074489172189,123.40348798128981,477.9801902203542,-14.13749180252572,10.416666666666666,4.705601606098779,0.1,0.00866389274597168,0.18307876586914062,0.049548935,0.023988051,53.52280447688199,-0.0638643066037271,0.48696902672960624,10.416666666666666,9600,1.235424280166626,0.36164088541281525,0.23138211546649498,93.15691783054872,6.25
108,1.2200727462768555,45.305574648920185,118.21624130514662,478.16246697499776,-14.737351477440686,9.375,3.910135301778173,0.1,0.008726119995117188,0.18259096145629883,0.050443124,0.030076344,52.70108149408581,-0.061060074152463645,0.45102325918086966,9.375,9600,1.2355351448059082,0.2899555211387599,0.20274167874390886,76.1989581363235,6.25
109,1.3146414756774902,72.98192923353385,129.3378767151672,454.0774712870858,-14.720349017813632,16.666666666666668,3.9179942105406376,0.1,0.008642911911010742,0.18654990196228027,0.051941954,0.023859702,54.72916626803062,-0.058483056506255404,0.7290169434937446,16.666666666666668,9600,1.217033863067627,0.27283966804813514,0.2095013718738944,67.21606172063814,6.25
110,1.2250771522521973,79.32200756751573,146.36695554011547,542.268300387211,-13.961333637919607,14.583333333333334,4.182235759773279,0.1,0.00854635238647461,0.1864032745361328,0.054237224,0.022728283,57.188450397979125,-0.05717240053621738,0.7903275994637826,14.583333333333334,9600,1.235023021697998,0.2284837462252162,0.1827386961452796,51.30134111051431,6.25
111,1.1992926597595215,64.7249472376411,139.61531351792215,542.431973997332,-13.666089185960066,12.5,3.345901095550475,0.1,0.008809328079223633,0.1792764663696289,0.050389897,0.04111191,57.94210008194533,-0.06019556215370966,0.6468877711796236,12.5,9600,1.2538323402404785,0.2634640029118233,0.19358552516843722,64.72636592540094,12.5
112,1.1955511569976807,80.04827370778433,158.2095143786973,682.4828097013967,-11.748195063160372,13.541666666666666,4.106152502208794,0.1,0.008898496627807617,0.1796722412109375,0.050176654,0.023476534,60.15271744452923,-0.053636404178719344,0.799696929154614,13.541666666666666,9600,1.2343745231628418,0.28663393978226354,0.20720429763355824,60.632382424373176,12.5
113,1.2187278270721436,70.74752033654916,139.80057978711878,514.1338142503346,-14.879056320942667,13.541666666666666,4.6130150947419635,0.1,0.009074687957763672,0.1884479522705078,0.048153087,0.02276426,61.21219773373122,-0.057903201453596564,0.7054301318797368,13.541666666666666,9600,1.2147507667541504,0.2675075710964776,0.16958606139492946,50.311304227635915,12.5
114,1.2420761585235596,75.04145260206434,150.46812749727977,538.2915408333212,-13.353022857607439,14.583333333333334,3.602127858941314,0.1,0.008729934692382812,0.18343377113342285,0.050280407,0.025294732,62.59512322056454,-0.05787273973294325,0.7500439269337233,14.583333333333334,9600,1.2349302768707275,0.18214432709557443,0.1495769311124195,67.7266200596442,12.5
115,1.19057297706604,72.48210569621327,136.0519445179335,466.262576285783,-14.578347755394104,12.5,4.12345340318299,0.1,0.00874018669128418,0.1839311122894287,0.050990924,0.022524012,63.583821468129415,-0.060536414381630065,0.7240469189517035,12.5,9600,1.2090883255004883,0.15907540390852182,0.13362245575093146,46.89272460766839,12.5
116,1.3406126499176025,70.4556962261815,150.25872601527504,650.5882346735939,-13.53523802064337,13.541666666666666,3.784023944456155,0.1,0.008825302124023438,0.18636012077331543,0.050020743,0.02471057,64.27100894393462,-0.05914995009963989,0.7041833832336933,13.541666666666666,9600,1.2086713314056396,0.22873555407735113,0.1907319623074182,22.99017504075867,6.25
117,1.377997875213623,99.81661572831786,161.39859881302644,610.5507240221332,-15.097917678213353,16.666666666666668,3.7281097462113846,0.1,0.008699655532836914,0.1845853328704834,0.05045089,0.03125162,67.82556962237294,-0.0522247203992553,0.996108612934078,16.666666666666668,9600,1.1993420124053955,0.23922430899325023,0.20317074743798494,21.50262524904173,12.5
118,1.1914312839508057,52.60108328394111,120.4817262264098,494.2424371253027,-12.707880379812996,6.25,3.3063806005374903,0.1,0.008691072463989258,0.18257474899291992,0.049141195,0.029457709,66.30312098852976,-0.060179325538591226,0.5252373411280754,6.25,9600,1.2277977466583252,0.19482486762847967,0.14731088518158655,23.778783257401166,6.25
119,1.2322072982788086,67.04663584679427,139.63231521519447,562.5822564168171,-13.727567002501777,11.458333333333334,3.6445801080665636,0.1,0.008541107177734375,0.17991852760314941,0.051473774,0.02812767,66.37747247435621,-0.05867349220260581,0.6688265077973942,11.458333333333334,9600,1.2180700302124023,0.20942432281090348,0.17003995365610647,46.22029800697064,12.5
120,1.2072186470031738,47.44248070682503,116.70414937242707,466.22314720100997,-12.624626512288874,9.375,3.2928291571815596,0.1,0.008718729019165039,0.17893338203430176,0.04937542,0.030354146,64.4839732976031,-0.061372396188223245,0.47362760381177677,9.375,9600,1.212930679321289,0.22330094328759376,0.1764577763775822,62.04569981961022,18.75
121,1.253692626953125,62.57530170723256,141.0777981809788,554.2941600997033,-14.142952775859483,8.333333333333334,4.006369304132528,0.1,0.008805990219116211,0.1826789379119873,0.051024944,0.029073838,64.29310613856605,-0.063764803817684,0.6249851961823161,8.333333333333334,9600,1.2283520698547363,0.20946005492914205,0.15567091592559992,70.89914106151414,12.5
122,1.2238478660583496,100.12573479418067,167.23837804822142,590.5085861753507,-13.893599279652744,14.583333333333334,4.028018978871367,0.1,0.008819818496704102,0.1855630874633789,0.046465192,0.028606595,67.87636900412751,-0.05745215816799485,0.9992145084986719,14.583333333333334,9600,1.201613426208496,0.15553254096189378,0.11368831487679126,67.70690156523068,18.75
123,1.2257544994354248,72.3025819171928,145.47709198508383,598.1755453044319,-13.868275704607827,15.625,2.796671416345988,0.1,0.008869647979736328,0.18250036239624023,0.05168767,0.059354924,68.31899029543405,-0.0586024477448851,0.7218142189217817,15.625,9600,1.2212958335876465,0.1884604438886011,0.1497892719903167,88.48811414027877,18.75
124,1.2565312385559082,68.49900401805469,144.03701810825407,506.32491254855876,-15.733244179625963,12.5,3.7902995460997806,0.1,0.009231328964233398,0.18570423126220703,0.05056684,0.026077852,68.33699166769611,-0.06161431691919813,0.6842190164141351,12.5,9600,1.2051177024841309,0.38316530766519463,0.21975702073812375,71.64479794945726,18.75
125,1.4015357494354248,49.786758380259585,117.26545441253617,542.530261071732,-13.470652433803858,9.375,3.599048118363774,0.1,0.008438348770141602,0.16709518432617188,0.05001831,0.027742941,66.48196833895246,-0.06289977311068952,0.49793356022264373,9.375,9600,1.2071781158447266,0.23995972241604352,0.1779321691559903,77.14438314985351,18.75
126,1.2132134437561035,64.11984212527665,140.1299030328791,514.1551150049094,-14.897045172486388,12.5,3.3531018747546795,0.1,0.00825953483581543,0.17104077339172363,0.048876017,0.029157264,66.24575571758488,-0.06042892195779428,0.6391544113755391,12.5,9600,1.2082924842834473,0.2974317930648143,0.22104047622181042,80.93729939166803,18.75
127,1.2163045406341553,82.51131068476934,150.08206193295857,622.4042679503228,-14.023931963437256,14.583333333333334,3.83707599940163,0.1,0.008699178695678711,0.18425631523132324,0.051488858,0.035886757,67.87231121430334,-0.058604338024056825,0.8234789953092765,14.583333333333334,9600,1.2414541244506836,0.21908634395594592,0.18019795861898064,80.27932352692075,18.75
128,1.22019362449646,59.362108124827124,128.28569588523,522.3593936025961,-14.638940034508499,9.375,3.2686798985246615,0.1,0.008735418319702148,0.19431185722351074,0.049500935,0.03373308,67.02129090535573,-0.06093267021293669,0.5911506631203967,9.375,9600,1.2509691715240479,0.14393603432993285,0.1009672559165691,84.83560705723808,18.75
129,1.2062344551086426,81.19625881784542,145.370610349196,522.3644027726118,-14.744579340869143,13.541666666666666,4.356814331118308,0.1,0.00879526138305664,0.1829204559326172,0.049021237,0.02463343,68.43878769660469,-0.05424708816111729,0.8111695785055494,13.541666666666666,9600,1.2694520950317383,0.2374330086012721,0.19683463965890802,92.80863150349404,18.75
130,1.2005913257598877,54.078121436722434,124.8238109149336,450.19527771058915,-14.075214676912296,9.375,3.632038395374838,0.1,0.008915185928344727,0.18402981758117676,0.051794898,0.027261503,67.00272107061646,-0.06498499369015666,0.5400150063098433,9.375,9600,1.252166509628296,0.18232704472319025,0.14047798622055685,100.0949568706891,18.75
131,1.2213265895843506,66.06943470313655,142.35526477384624,546.3430541304558,-14.89519821807531,12.5,3.3197224727366774,0.1,0.00998544692993164,0.21914434432983398,0.049956597,0.03424377,66.90939243386848,-0.06718510326381351,0.6582315634028532,12.5,9600,1.5725758075714111,0.18280395118516862,0.14516022285750396,98.05841154317437,18.75
132,1.3444535732269287,64.90094742142738,143.12055017684293,666.6657100546735,-15.225639326477898,12.5,4.212050142010493,0.1,0.008560657501220703,0.18185138702392578,0.049766943,0.020022523,66.70854793262437,-0.05722136717455121,0.6465286328254487,12.5,9600,1.2325940132141113,0.22120866281115611,0.1737234503092216,95.18825414656408,18.75
133,1.332512378692627,87.81287603154186,175.37995179636295,670.5050540831838,-13.44499353538032,17.708333333333332,4.202357911255275,0.1,0.008694887161254883,0.18684124946594238,0.051944107,0.033442833,68.81898074251612,-0.061005007599675455,0.8773283257336578,17.708333333333332,9600,1.2215447425842285,0.16240905922791435,0.11224060111557455,91.2029498341936,18.75
134,1.2055213451385498,61.89050034748275,131.18336350280902,446.00832444561297,-14.107819721078023,11.458333333333334,3.6921595218556056,0.1,0.008528470993041992,0.18487811088562012,0.049600758,0.025939735,68.12613270301279,-0.06231083106311101,0.6172725022702225,11.458333333333334,9600,1.204479694366455,0.22526745645494037,0.11646199920925093,102.78081197604394,18.75
135,1.206608533859253,74.93991031222261,159.33352247981256,650.4676339368372,-14.04351839593782,13.541666666666666,3.390555237560517,0.1,0.008817195892333984,0.18744826316833496,0.04773752,0.03228612,68.80751046393377,-0.060137374418123314,0.7486126255818766,13.541666666666666,9600,1.2065353393554688,0.2372239545770544,0.1711725212734119,79.61677563838862,18.75
136,1.1992847919464111,58.38341483495696,125.03923842946682,478.0471360648633,-14.612048258785977,7.291666666666667,3.7693786325843845,0.1,0.008699178695678711,0.1807231903076172,0.050408345,0.025968706,67.76510090103608,-0.06027725329165271,0.5830560800416807,7.291666666666667,9600,1.2134804725646973,0.2775368257393493,0.1908031677911923,76.6918414025468,18.75
137,1.1878063678741455,76.49566994459725,148.48098666008406,530.1930041291555,-14.633227076115078,13.541666666666666,3.768578344900618,0.1,0.008374691009521484,0.17843127250671387,0.054016367,0.024366654,68.6381578053922,-0.059991543341458814,0.764175123325208,13.541666666666666,9600,1.2238216400146484,0.24907973139003856,0.18371307717440793,79.66878303855597,18.75
138,1.2388741970062256,74.85674775325087,149.4370427330036,486.2763994539764,-14.466533199548559,12.5,3.8459973362452486,0.1,0.010068655014038086,0.22008895874023438,0.048912942,0.028151501,69.26001680017806,-0.05682855006121945,0.7469214499387805,12.5,9600,1.5785801410675049,0.19850652218330023,0.12534857919467765,80.72529805531309,18.75
139,1.1971724033355713,80.43939389257073,153.46486399200182,614.2535594249172,-14.268898038181964,10.416666666666666,3.7927833807523217,0.1,0.008528709411621094,0.1816103458404541,0.049760982,0.027411664,70.37795450941734,-0.05597935553419372,0.8040206444658061,10.416666666666666,9600,1.2585220336914062,0.22363817703673358,0.1805128606409135,78.45611678449421,18.75
140,1.2268922328948975,76.94041093987644,145.45910292362237,574.6437820705046,-14.211080662745672,11.458333333333334,2.9151688931787976,0.1,0.008669376373291016,0.18499088287353516,0.049945366,0.052759647,71.03420015246326,-0.0588906040659579,0.7677760626007087,11.458333333333334,9600,1.2790088653564453,0.18130076557709016,0.13944391750716173,63.54082335386736,12.5
141,1.397162675857544,41.7243097533537,123.41043082944036,566.5026987368404,-17.435077329224693,8.333333333333334,3.8891222202702282,0.1,0.008542299270629883,0.17939066886901855,0.048885293,0.024711166,68.1032111125523,-0.06729194607511328,0.4164580539248868,8.333333333333334,9600,1.2639703750610352,0.25953372457530266,0.17576510548209065,48.63010207520236,12.5
142,1.2036511898040771,86.29354110427103,150.82434278296546,461.6109027529324,-12.247828020753113,15.625,3.730354788214076,0.1,0.008585214614868164,0.182969331741333,0.050625786,0.027295062,69.92224411172418,-0.05454178281882327,0.8608748838478434,15.625,9600,1.2767884731292725,0.20904544991346977,0.13938630838784397,71.49146553725566,18.75
143,1.2094368934631348,83.00498888478604,156.02055205925134,518.1763575442515,-13.846075281958713,15.625,3.8878890680322824,0.1,0.008849382400512695,0.19364237785339355,0.05030541,0.025939818,71.23051858903037,-0.059096837107589895,0.8275698295590769,15.625,9600,1.2676289081573486,0.13961812226606735,0.11261459651282647,63.950682911693896,18.75
144,1.1979382038116455,60.83267918462666,139.01939830158832,706.7083885785623,-14.260712544796819,9.375,3.6555927317439463,0.1,0.008781909942626953,0.18171930313110352,0.050053496,0.025457127,70.19073464859,-0.05872563531144631,0.6071076980218871,9.375,9600,1.2739439010620117,0.24205209836956984,0.1610094261004658,74.97729727662114,18.75
145,1.2574284076690674,71.38573628609493,156.95183957833112,642.3140446488773,-14.631292934378308,11.458333333333334,4.130381047614257,0.1,0.008916378021240234,0.18169736862182617,0.050960977,0.024344515,70.3102348123405,-0.056099816336202285,0.7118168503304644,11.458333333333334,9600,1.2826945781707764,0.21379271554189047,0.17656279995977678,70.46972175387222,18.75
146,1.2350599765777588,79.62275042032704,157.86628525223895,546.3947809645997,-11.96352109492851,14.583333333333334,3.6344451436408916,0.1,0.009756803512573242,0.18689227104187012,0.04961314,0.026684204,71.24148637313915,-0.054982022961046574,0.79418464370562,14.583333333333334,9600,1.2591094970703125,0.24767843601212391,0.13814335964504132,73.99419064020115,18.75
147,1.2443139553070068,59.56188606780216,138.86234650709835,502.24481395966257,-17.281723244064988,10.416666666666666,3.509493696347095,0.1,0.009895086288452148,0.22121810913085938,0.04972349,0.04058933,70.07352634260546,-0.06225388327830452,0.5935794500550288,10.416666666666666,9600,1.589371681213379,0.23417328351403346,0.12037958796897301,59.39261457883382,12.5
148,1.1842961311340332,90.82973456712877,164.1637254905537,682.7554346700643,-14.449780312036227,11.458333333333334,3.7694252694220154,0.1,0.008660078048706055,0.18761253356933594,0.05033045,0.031744167,72.1491471650578,-0.05874818194202919,0.9058351513913042,11.458333333333334,9600,1.264456033706665,0.18171723807328624,0.13500479373491528,81.19183354036383,12.5
149,1.39292573928833,71.53502476629386,155.21492665770907,618.3078598086057,-13.964825457919218,12.5,3.1247792261877163,0.1,0.008536338806152344,0.18136000633239746,0.05106242,0.031596586,72.08773492518141,-0.05919163555882889,0.7141416977745042,12.5,9600,1.2770435810089111,0.15169993821120947,0.1188930411505704,94.45870924795226,12.5
150,1.2319328784942627,55.38966868744793,130.81659945145051,490.23853218976615,-13.344280904321696,8.333333333333334,4.40892320749089,0.1,0.008732795715332031,0.18573975563049316,0.050534047,0.019896446,70.41792830140807,-0.05813352267248142,0.5526998106608518,8.333333333333334,9600,1.282158374786377,0.2383363570457607,0.1854030213371386,92.6902107215488,12.5
151,1.2054719924926758,70.43286313818562,144.37028993553008,566.5434883849266,-14.304062720649092,13.541666666666666,4.010881228615685,0.1,0.008131980895996094,0.168471097946167,0.049265556,0.02317981,70.41942178508583,-0.056460718740382554,0.7022892812596174,13.541666666666666,9600,1.3002421855926514,0.24504850772375103,0.1908014871562723,91.48912685396952,12.5
152,1.2045156955718994,78.62420648676965,154.14686253137342,550.2065198826641,-14.754110855968882,13.541666666666666,3.514912840734528,0.1,0.008722543716430664,0.1779494285583496,0.051686082,0.039418086,71.23990025525421,-0.06080008675601104,0.7846165799106557,13.541666666666666,9600,1.2931931018829346,0.18280649768934348,0.12354709889768853,71.5472898143759,12.5
153,1.199777364730835,50.239202242897726,128.5815236676422,554.4975479237685,-15.039456280952434,8.333333333333334,3.84673227256941,0.1,0.008917093276977539,0.1882493495941162,0.049691156,0.020908296,69.13983045401856,-0.06506446220537086,0.5016022044612959,8.333333333333334,9600,1.3014137744903564,0.2523430798281204,0.1279666694838233,81.48923316120053,12.5
154,1.1989572048187256,74.04442539697158,155.81067369862427,526.3318242710092,-13.805127930137788,12.5,3.928466432264708,0.1,0.008939981460571289,0.18219566345214844,0.050322782,0.026982581,69.63028994831387,-0.061989887716373766,0.7396767789502929,12.5,9600,1.3084681034088135,0.13071741151799515,0.08631515108982672,83.72264253819317,12.5
155,1.1976385116577148,88.01582625691235,160.38173040227542,650.5553607738191,-13.195701685886364,14.583333333333334,3.8117389204270964,0.1,0.00834345817565918,0.18129777908325195,0.050675984,0.023011895,71.46884357917372,-0.05272437706645317,0.8793589562668801,14.583333333333334,9600,1.2907848358154297,0.21955880056282132,0.1625064627269421,63.91556114218678,18.75
156,1.3282747268676758,74.25906584358756,143.49540216512452,506.2337828294618,-14.783736551764338,11.458333333333334,3.8255178389188647,0.1,0.008394479751586914,0.18592190742492676,0.050179806,0.024160134,71.7478658056151,-0.0544670280797524,0.7405329719202477,11.458333333333334,9600,1.2876617908477783,0.2862756901969099,0.19005142942894215,88.46485738126435,12.5
157,1.2439866065979004,79.3317635587908,161.31551717660173,574.3088882340468,-14.467980238444584,15.625,3.7096042262909084,0.1,0.008612394332885742,0.1804521083831787,0.04906229,0.026857818,72.50625558093269,-0.05497877705343048,0.7929378896132363,15.625,9600,1.2637312412261963,0.14452501923791555,0.10479047489507418,61.64825582702474,12.5
158,1.2131435871124268,47.357032717080216,123.7313797602559,518.0889756250056,-14.774374836298092,7.291666666666667,3.1312850841265485,0.1,0.009002685546875,0.18257665634155273,0.048230182,0.0326492,69.99133329454745,-0.05680891912170407,0.473191080878296,7.291666666666667,9600,1.2537567615509033,0.2407770711507548,0.15979964125783536,69.09739215561581,12.5
159,1.2340564727783203,66.94871312767263,141.22826535935977,542.4767999400518,-13.57624693640264,9.375,4.016216492356142,0.1,0.008475542068481445,0.18227553367614746,0.05103991,0.025069358,69.68707127785997,-0.05797244685190689,0.6678608864814265,9.375,9600,1.2250876426696777,0.15133913810171243,0.10817584919629762,63.5447663438313,12.5
160,1.2038443088531494,68.55463871725087,145.14085543933606,634.5338339623058,-14.53985818542276,9.375,3.8230320139658898,0.1,0.008582830429077148,0.1799623966217041,0.05066411,0.022937175,69.57382802179906,-0.059833311903158715,0.6843333547635079,9.375,9600,1.2409698963165283,0.18246179144344207,0.14482088967210555,60.28091274162315,12.5
161,1.194385051727295,80.71297552808065,156.1147411688664,514.4183372353488,-14.242802212827515,14.583333333333334,3.748914200471166,0.1,0.00854945182800293,0.1784512996673584,0.051096212,0.025576064,70.68774277242721,-0.056590884289574185,0.8038257823770923,14.583333333333334,9600,1.231313943862915,0.16195294625160428,0.11678374693223612,62.12630816596255,12.5
162,1.2040584087371826,80.84739039031975,149.0872404934834,554.5794576196744,-12.603179330711413,15.625,4.351126344943994,0.1,0.009081363677978516,0.1852567195892334,0.050025064,0.023591967,71.70370753421648,-0.05440057401023041,0.8068494259897697,15.625,9600,1.2643311023712158,0.1980644132557639,0.14248955536394525,80.96156382262379,18.75
163,1.2056660652160645,42.86644099511515,119.2201819155699,498.08653494809386,-13.069046602246043,7.291666666666667,3.956043008493296,0.1,0.008907079696655273,0.18107151985168457,0.05027059,0.025884585,68.81998088030635,-0.06254950452963987,0.42786716213702686,7.291666666666667,9600,1.2453014850616455,0.29896713343631054,0.1416553716861495,75.94710490373063,18.75
164,1.2685985565185547,85.58969192479678,150.79465448721848,534.4527156044893,-14.170248770681974,14.583333333333334,3.8172335839925076,0.1,0.008877038955688477,0.18120455741882324,0.050062273,0.023140566,70.49695198475538,-0.0536514453058319,0.8538485546941681,14.583333333333334,9600,1.2848320007324219,0.20769047823805312,0.13132102700721127,79.67212562534428,18.75
165,1.4046313762664795,78.08947107222593,157.1340414671539,602.412638287932,-14.710181864586385,12.5,4.020244309318133,0.1,0.008993387222290039,0.1803145408630371,0.050041057,0.027159339,71.25620389350243,-0.06278758763341623,0.7780457456999171,12.5,9600,1.2938623428344727,0.17328813741688584,0.0889042197779887,86.90159165735392,18.75
166,1.1912002563476562,63.143405704741184,129.7582143206038,542.4187734623256,-13.78484423311709,10.416666666666666,3.940654994454246,0.1,0.00887608528137207,0.18426060676574707,0.04921807,0.0222388,70.4449240746263,-0.05892848246839394,0.6302381841982728,10.416666666666666,9600,1.3089845180511475,0.2332089649287023,0.14208479139832922,95.27955452262998,18.75
167,1.2273874282836914,105.44406350214267,177.09712670763219,578.6069945448597,-14.544327708777928,20.833333333333332,4.392113503791487,0.1,0.008660316467285156,0.18144750595092773,0.049542222,0.020702725,73.94483801737795,-0.05928304348150193,1.050716956518498,20.833333333333332,9600,1.3020398616790771,0.2102070779500205,0.13556361824540236,99.08346950199686,18.75
168,1.2279679775238037,77.23023506268144,151.2027945608718,522.5291208799011,-13.553351556476525,14.583333333333334,3.580623050356765,0.1,0.009675741195678711,0.21486449241638184,0.05059226,0.030630335,74.2733777219083,-0.055160089129991645,0.7710899108700083,14.583333333333334,9600,1.6403393745422363,0.21200400420937418,0.14272895153566298,108.91950166500413,18.75
169,1.220029354095459,118.99216462646712,168.79040547706262,630.7999982297459,-14.675034320704853,14.583333333333334,3.730655287991173,0.1,0.008823156356811523,0.17876982688903809,0.04902418,0.02602569,78.7452564123642,-0.052120541598829596,1.1874627917345038,14.583333333333334,9600,1.3072526454925537,0.16068080283858352,0.11575649832566932,93.05644965410958,18.75
170,1.2426574230194092,79.83235542987752,166.14531743693848,630.4941301979542,-14.847326817327827,14.583333333333334,3.641816321320891,0.1,0.009386539459228516,0.18922781944274902,0.049822822,0.02501962,78.85396631411554,-0.05580958845177716,0.7975237448815561,14.583333333333334,9600,1.3037872314453125,0.1594520224621423,0.08823095539777422,92.34395062179182,12.5
171,1.2463512420654297,77.72008961450167,159.166385286035,606.4195777286108,-12.061726576520682,12.5,3.4128286304802757,0.1,0.008963823318481445,0.1822059154510498,0.05003039,0.04482195,78.74057864415416,-0.058179143005254376,0.7751541903280791,12.5,9600,1.2980036735534668,0.16295389497804214,0.09435133692183297,93.23575115625883,18.75
172,1.28566312789917,51.61520853650998,115.22119173850722,442.17009651367766,-14.194935707194748,5.208333333333333,4.302208609004748,0.1,0.008945703506469727,0.17932534217834473,0.048809886,0.021854356,76.02804163338973,-0.060049491283005775,0.5145338420503275,5.208333333333333,9600,1.2852492332458496,0.525901860208269,0.23464024972787384,100.61234254134726,18.75
173,1.358107328414917,70.16626223398703,139.25433902134412,542.1512553988425,-14.13795084644222,9.375,4.191147373101502,0.1,0.008741378784179688,0.18044781684875488,0.049584486,0.02551985,75.44186369344946,-0.057036738481111515,0.6992132615188885,9.375,9600,1.27408766746521,0.26820068886039244,0.14331056389171395,100.91665419182557,18.75
174,1.2094168663024902,86.49061245691978,161.61854630888215,538.4668623381928,-14.193026524588342,17.708333333333332,3.580527178541961,0.1,0.008452177047729492,0.17812705039978027,0.04870662,0.026829064,76.5467385697965,-0.05796421174854005,0.8641191215847931,17.708333333333332,9600,1.2593986988067627,0.20672523494463468,0.14069423974779013,99.88768134111987,18.75
175,1.2414336204528809,95.96335834029333,174.90604559556672,646.5015476827582,-14.933980764896962,11.458333333333334,4.319938780760342,0.1,0.008382558822631836,0.17861533164978027,0.05013623,0.023499532,78.4884005468462,-0.05535014014641659,0.9567331931869166,11.458333333333334,9600,1.2474193572998047,0.1520862176715228,0.10282144478033865,126.71973231152748,18.75
176,1.2340643405914307,78.96146971989872,155.47331077111662,626.4879280781531,-15.193852745436201,11.458333333333334,3.4247079015162885,0.1,0.008509397506713867,0.17710256576538086,0.050319783,0.031271838,78.53570746415144,-0.05491922258887855,0.7888307774111215,11.458333333333334,9600,1.2188444137573242,0.20040469312384662,0.12607524136639342,115.23057755910014,18.75
177,1.2248153686523438,78.3635601076391,156.43071858058096,502.27155827159464,-13.924844499666733,15.625,3.774191339273476,0.1,0.009046316146850586,0.18939447402954102,0.04909852,0.024640312,78.5184927285002,-0.058831226147757376,0.7811687738522427,15.625,9600,1.2466213703155518,0.29552288996523096,0.17590401465737704,113.52802110784,18.75
178,1.210756778717041,78.10963458633775,171.08554509504168,638.3643431534817,-13.018558689067085,13.541666666666666,4.293102840754966,0.1,0.008857011795043945,0.1838672161102295,0.050280277,0.026030598,78.47760691428397,-0.058438847535663585,0.7807278191310031,13.541666666666666,9600,1.2620279788970947,0.20556146554734875,0.11905633971635227,112.48734870887219,18.75
179,1.233750343322754,45.38014340541691,111.18013357320417,430.06145672412435,-14.296212515875858,7.291666666666667,4.165376257585582,0.1,0.00825643539428711,0.16683316230773926,0.049457844,0.022850564,75.16786056339727,-0.06408503535686763,0.4534149646431323,7.291666666666667,9600,1.2533769607543945,0.5180094761253372,0.1495123490870333,104.72824992442442,18.75
180,1.191063404083252,102.97746094315202,180.22059409002878,558.5075798761192,-13.332826744289987,18.75,4.2032041479023405,0.1,0.00943446159362793,0.18369817733764648,0.050652456,0.021461781,77.94882060137274,-0.056867483073995716,1.0277158502593375,18.75,9600,1.2874696254730225,0.14871888118663962,0.074253796978436,96.10740216083981,18.75
181,1.2632570266723633,81.10778173991963,161.2402230301432,690.6533219863828,-14.924890617922914,15.625,3.8601908123143924,0.1,0.008576393127441406,0.1820662021636963,0.048838023,0.031807583,78.26471671522744,-0.060134072433494425,0.8098659275665057,15.625,9600,1.2634520530700684,0.14652576736437353,0.08492177262063234,97.88399980451291,18.75
182,1.2245824337005615,86.9271447637264,153.0304610561788,494.37743217449,-12.7964127063194,13.541666666666666,3.831467434947342,0.1,0.008396387100219727,0.1807246208190918,0.049407963,0.025489196,79.13095952007734,-0.05319523690314515,0.8672214297635215,13.541666666666666,9600,1.2615816593170166,0.14116511747108615,0.11236030383114422,101.96967287577888,18.75
183,1.2120702266693115,104.29376733684778,167.98153926011034,546.4563323315372,-14.242175169851546,16.666666666666668,3.53341028443491,0.1,0.008802413940429688,0.17857742309570312,0.049201023,0.032092933,81.64724030175438,-0.05245099515074175,1.0404656715159248,16.666666666666668,9600,1.2392051219940186,0.14817354747664002,0.09413667623403138,94.91336429473056,18.75
184,1.2112560272216797,59.67580926728484,148.062536028137,566.5493744505184,-13.824031938985115,9.375,4.235975985490801,0.1,0.008903980255126953,0.18057799339294434,0.04970632,0.023272568,79.45009719830743,-0.0627879503150781,0.5955453830182551,9.375,9600,1.2380852699279785,0.18972415663323267,0.14127738183648617,92.6407094293144,18.75
185,1.2240915298461914,59.0456689959365,136.12238529945262,486.20997836732755,-14.178434488498388,7.291666666666667,3.5986297568264165,0.1,0.008544445037841797,0.18114852905273438,0.05072844,0.024467453,77.40965437807034,-0.05784170611820486,0.590074960548462,7.291666666666667,9600,1.1928811073303223,0.19256848528753573,0.13320404737812383,94.8834206085489,12.5
186,1.211916446685791,115.96574435514994,189.5577534229507,630.7361094690233,-13.612485256983469,20.833333333333332,3.1293000081403104,0.1,0.009018182754516602,0.18041610717773438,0.049763534,0.033143993,81.2652633757783,-0.0515664726714632,1.1567668606618702,20.833333333333332,9600,1.195756435394287,0.13823091522497388,0.07571153132051757,70.30684581217824,6.25
187,1.225496530532837,87.78662517900136,164.56331215229852,622.7724286805332,-13.825628168630079,15.625,3.441281396761233,0.1,0.010116338729858398,0.21498370170593262,0.04997603,0.028007045,81.9173995561006,-0.05334109359958301,0.8766589064004172,15.625,9600,1.5110690593719482,0.13588711120798774,0.09952074473759405,81.83386728344247,6.25
188,1.3462231159210205,67.59214651405742,143.500438151736,566.4836516847344,-14.241124264645874,12.5,4.041213539174284,0.1,0.008803367614746094,0.17967724800109863,0.049005635,0.022833092,80.48487425189629,-0.06027049404236956,0.6751461726242972,12.5,9600,1.1780774593353271,0.192976595794469,0.1456537342456271,93.37868707294531,12.5
189,1.3915836811065674,102.69086134424249,181.66504694265424,662.5298762539343,-14.084562140023014,16.666666666666668,3.597165393246191,0.1,0.00858163833618164,0.18299508094787598,0.04983277,0.025079463,82.70547296113091,-0.053885890864584986,1.0256974424687484,16.666666666666668,9600,1.1867399215698242,0.1601514846176899,0.09848887716491991,90.10872936212411,18.75
190,1.231088399887085,100.49005463447081,183.46124423657199,614.6740505472885,-13.974930864247991,15.625,4.740449480766493,0.1,0.008648157119750977,0.17705678939819336,0.048170798,0.020735826,84.48393112846489,-0.053813220836856725,1.00410344582981,15.625,9600,1.193988561630249,0.13817133142925914,0.09347376026022704,88.62598763521893,18.75
191,1.2104287147521973,71.57808333000736,154.75082803233855,598.6711077390606,-15.17048936207006,11.458333333333334,3.4897264593823296,0.1,0.008758306503295898,0.18976330757141113,0.05090554,0.022260342,83.19334634861913,-0.06125927397454567,0.7141573926921209,11.458333333333334,9600,1.2420494556427002,0.13254207199857254,0.08465197381348391,69.51026427390494,12.5
192,1.2094330787658691,102.43954637092561,179.79596727339893,626.5083963219677,-14.601231746443295,13.541666666666666,5.153395479713132,0.1,0.008955001831054688,0.18201589584350586,0.05025922,0.023101995,85.11796635084977,-0.05139847245416165,1.0236015275458383,13.541666666666666,9600,1.2514631748199463,0.17294647780567796,0.11689159484821911,75.51815074342434,18.75
193,1.2060365676879883,80.62552209989839,155.09226049458061,570.3633007424869,-14.539671754458686,10.416666666666666,4.272364910560333,0.1,0.00882411003112793,0.18065762519836426,0.0508377,0.022487005,84.66872192575462,-0.05494206307615814,0.8046412702571751,10.416666666666666,9600,1.2365412712097168,0.1660105062889694,0.1027952705401254,75.77798434031413,12.5
194,1.193671464920044,88.76836318932688,164.6486605350342,542.3423170155169,-13.474474936097012,13.541666666666666,3.8791565234206185,0.1,0.009051799774169922,0.17958760261535645,0.049928084,0.022708785,85.07868605211185,-0.05394663688787473,0.8856366964454586,13.541666666666666,9600,1.241091251373291,0.14166234853871548,0.09670646844852125,70.01384882025744,6.25
195,1.233863115310669,90.99826618184464,163.46369968224474,586.527260691517,-13.38558897404147,15.625,3.623080042503281,0.1,0.008337020874023438,0.18514633178710938,0.05049059,0.030885966,85.67064406508513,-0.059150952832890825,0.9075157138337758,15.625,9600,1.2483782768249512,0.1287888819230533,0.10605116037832718,56.75841528510089,12.5
196,1.2837862968444824,85.98544471557462,164.38182505352347,574.3996372156624,-13.334674939054578,15.625,4.376378018679566,0.1,0.008735895156860352,0.1873030662536621,0.048792485,0.02090434,85.70212413013408,-0.055517912816437365,0.859065420516896,15.625,9600,1.215102195739746,0.12742042665681638,0.09527764195723216,54.17425306542955,6.25
197,1.3047845363616943,91.7322320572129,177.0617448633991,598.4361706625662,-11.87504604748537,15.625,3.9477158624716653,0.1,0.008605003356933594,0.17812776565551758,0.05053709,0.025149934,86.30513492284196,-0.05223429288701825,0.9152657071129818,15.625,9600,1.192765474319458,0.1391492356975725,0.10488361817709421,66.18169540940694,18.75
198,1.241093635559082,66.76131014650704,145.03879838404413,510.21809948266764,-14.5854786265554,11.458333333333334,3.9793610281031038,0.1,0.008797168731689453,0.1808633804321289,0.05076389,0.024967842,84.35075244520847,-0.05944210735506519,0.6659745593116014,11.458333333333334,9600,1.2245633602142334,0.2796271769404212,0.11429452870025575,64.73579852738087,18.75
199,1.2329955101013184,60.887796056400525,144.91639290480614,598.4752814445036,-14.241438428169273,11.458333333333334,4.161176074563826,0.1,0.008426666259765625,0.18058156967163086,0.051572874,0.024547283,82.00445680632768,-0.059406833908152844,0.6076764994251804,11.458333333333334,9600,1.205294132232666,0.17236350954670493,0.08786275993032018,66.39568596882896,12.5
200,1.2152423858642578,83.82856158809535,165.84576655435256,578.2242459718404,-13.008237168241472,12.5,4.102915072221077,0.1,0.008988142013549805,0.18099260330200195,0.047823332,0.026935557,82.18686728450444,-0.058735831976469255,0.8379308346901974,12.5,9600,1.2015995979309082,0.17118991700354794,0.12262582688646177,69.4595712121149,12.5
201,1.211874008178711,67.53982937741783,146.65509249138063,598.4536824830695,-13.647474041557139,8.333333333333334,3.652156717163673,0.1,0.008257627487182617,0.18088293075561523,0.050054036,0.02423222,80.72216349379579,-0.06122949806864872,0.674187168598018,8.333333333333334,9600,1.2056307792663574,0.21663627817113487,0.14762924300138316,75.29678940942357,12.5
202,1.197967290878296,94.68457356781971,179.7335383010427,606.4212972986828,-14.921236488322197,14.583333333333334,3.7217799016610513,0.1,0.008025407791137695,0.18036460876464844,0.049628418,0.02876719,82.11840450119819,-0.05771945174133488,0.9439472149253318,14.583333333333334,9600,1.2116925716400146,0.13963936451407777,0.09792050575123068,75.26222054992245,18.75
203,1.2646234035491943,68.12970141721898,153.6465012685954,610.6620022297762,-14.25541601921204,9.375,3.3042648652089324,0.1,0.008573532104492188,0.18681979179382324,0.05101669,0.029601688,80.71953419280027,-0.059918178261980114,0.6796651550713532,9.375,9600,1.2236082553863525,0.16055632404468018,0.10215272327272333,69.29636946120671,18.75
204,1.20454740524292,70.46439818971793,147.91384619064408,534.3829357636441,-13.942452009674101,10.416666666666666,4.326514196355654,0.1,0.008791685104370117,0.1828901767730713,0.05022733,0.024823701,79.69402059249204,-0.056990793642727335,0.7038425396906058,10.416666666666666,9600,1.2487120628356934,0.13915579450667914,0.08137181236159026,95.14803042871249,18.75
205,1.2234203815460205,81.56175905411285,158.38224202412098,610.3362064315847,-13.137849057185226,8.333333333333334,4.25002338328721,0.1,0.00834798812866211,0.19528770446777344,0.049307868,0.030511718,79.88079443865412,-0.05183977873377973,0.8148268879328869,8.333333333333334,9600,1.2399628162384033,0.1427300354691294,0.09196219693493182,103.20613315377446,18.75
206,1.268583059310913,86.83526103749756,162.64640424127282,594.6954792685323,-13.924943958369486,13.541666666666666,4.059090242704093,0.1,0.009677410125732422,0.22580552101135254,0.04923153,0.026428347,80.57624109853846,-0.05620731201455292,0.866292687985447,13.541666666666666,9600,1.5974199771881104,0.1361361446366699,0.08456855910504572,91.41894368057847,12.5
207,1.2201802730560303,64.33293389609501,142.5186584328785,562.5224032279847,-14.393914870139788,9.375,3.891176334575894,0.1,0.010097980499267578,0.22881484031677246,0.050388966,0.02900758,78.95191037829412,-0.06161727448728151,0.6429660588460518,9.375,9600,1.5964481830596924,0.21152615979910638,0.1000377195718987,85.64137669551263,12.5
208,1.216660499572754,42.89408517406705,123.12018385632071,546.4578212606414,-14.032765321231047,8.333333333333334,4.215831999365924,0.1,0.008638381958007812,0.19235491752624512,0.051869214,0.023350613,75.34612785787141,-0.06141819914973542,0.42774846751693124,8.333333333333334,9600,1.2889318466186523,0.2671026670154571,0.1222240687119686,83.88940471932348,12.5
209,1.2109761238098145,61.30442027608101,148.49358990304327,606.3292407607876,-14.48591510294204,9.375,3.78452840986959,0.1,0.008460283279418945,0.19446754455566406,0.05094224,0.023953812,73.94195709969237,-0.059835287787501544,0.6114147122124985,9.375,9600,1.2780873775482178,0.18738108667008646,0.096016536939743,86.36077249086254,12.5
210,1.2019782066345215,97.61355682313278,170.25885419001438,594.545251473786,-13.452306238490086,12.5,3.4339327645379005,0.1,0.008559465408325195,0.18666911125183105,0.05159482,0.03684148,76.30911707203641,-0.05466615797772099,0.9749171753556123,12.5,9600,1.2719380855560303,0.1422658880858957,0.0845470319186176,91.61653745188167,12.5
211,1.3343555927276611,104.24763034311938,175.2445258292222,678.6539973113278,-13.158041769909818,16.666666666666668,4.150291048078157,0.1,0.008584260940551758,0.19585061073303223,0.0491619,0.023837492,79.10296839914471,-0.05375818182184933,1.040825151511484,16.666666666666668,9600,1.2731378078460693,0.16206916621751635,0.10212119778822631,85.85073567954136,12.5
212,1.2204785346984863,53.243853527901145,134.9811398908971,590.5490664053642,-14.347088444514709,8.333333333333334,4.731315078573524,0.1,0.009098529815673828,0.1890566349029541,0.05118304,0.017783506,76.51705691202037,-0.05419987338943355,0.5308001266105664,8.333333333333334,9600,1.298724889755249,0.3947598563090658,0.11681893588494299,93.16834560466908,18.75
213,1.2109012603759766,108.6826273737247,189.17410157407693,558.5199224493805,-13.732813534948802,20.833333333333332,3.37911539497249,0.1,0.008759737014770508,0.18921804428100586,0.04956977,0.03054693,79.7336139581908,-0.055226404346015424,1.0847735956539843,20.833333333333332,9600,1.3136463165283203,0.1527436296116543,0.10246671528205235,102.43064668674836,18.75
214,1.2276628017425537,93.31539262840234,175.783898040294,678.7408903482919,-13.793080895093842,14.583333333333334,4.718860295597899,0.1,0.009231328964233398,0.1978137493133545,0.051121376,0.015363813,81.09179182521196,-0.05432414953945724,0.9310925171272094,14.583333333333334,9600,1.2848997116088867,0.13736294099822968,0.09394016655259803,92.12230818702648,12.5
215,1.2047109603881836,110.46388019745795,180.10134638926937,626.6535348849726,-13.244172496288622,17.708333333333332,3.8905217515924697,0.1,0.00863957405090332,0.18692231178283691,0.04928922,0.028276581,84.02900066243656,-0.05118480747498474,1.101315192525015,17.708333333333332,9600,1.2959482669830322,0.2173942637018756,0.1382032539901974,90.91330789671099,12.5
216,1.2197167873382568,102.3167144629518,178.55375454217187,642.7918179477945,-13.17424796521455,15.625,4.06955732225632,0.1,0.008471012115478516,0.18071866035461426,0.049169462,0.023074947,85.85777204248808,-0.05139916468481667,1.0211008353151834,15.625,9600,1.3078691959381104,0.10605186224076991,0.06637556919850214,102.4519841588,18.75
217,1.2060914039611816,60.4422086400126,133.62077356886454,566.5090460631872,-13.063581863231422,9.375,3.794385892368443,0.1,0.008577108383178711,0.17940497398376465,0.047487468,0.027001778,83.31621570224054,-0.056788511820657916,0.6040448215126754,9.375,9600,1.3118369579315186,0.24190795620623004,0.1150961690577864,106.71928215641991,18.75
218,1.266683578491211,64.76223360628866,126.83558403706697,485.91296669301687,-14.461986393615769,9.375,3.5431534592580296,0.1,0.00838017463684082,0.19037652015686035,0.051708978,0.027255066,81.46081749264535,-0.053598045633398074,0.6459852876999354,9.375,9600,1.3174560070037842,0.22454870648217753,0.13401518252322436,92.6883140002933,18.75
219,1.345846176147461,66.44532996496561,141.20618961371798,610.4227252034538,-12.443283765712767,11.458333333333334,3.76273502527739,0.1,0.010019302368164062,0.22004222869873047,0.04921755,0.027519027,79.95926873987737,-0.05718151542853294,0.6632351512381338,11.458333333333334,9600,1.6701123714447021,0.2118421315387457,0.13989260493944264,93.70918778626849,18.75
220,1.22658371925354,82.69502683469342,157.9882276101031,534.3275423309022,-14.266514545216022,15.625,3.6994942932192405,0.1,0.008414745330810547,0.19428396224975586,0.049460687,0.030685203,80.23284454935897,-0.05549206648643293,0.8253412668469005,15.625,9600,1.3520634174346924,0.1999501015573808,0.10595236863075422,86.59854949490814,18.75
221,1.1819546222686768,92.56335368565975,180.91734776440563,618.5877665512406,-12.92854081150202,15.625,4.135345998883823,0.1,0.008544445037841797,0.1867690086364746,0.050847,0.027585484,81.46589546298905,-0.056820951035466194,0.9252623822978672,15.625,9600,1.3510773181915283,0.1416490049680712,0.07161359532219447,86.89685490493311,18.75
222,1.2590925693511963,91.33732536976969,158.50737530667843,518.0161856800237,-12.62470897576709,14.583333333333334,4.141013868744343,0.1,0.008453607559204102,0.1933119297027588,0.049673013,0.024508875,82.45303845366712,-0.053249960470859926,0.9113333728624733,14.583333333333334,9600,1.3315517902374268,0.1360491895656038,0.0915845350265321,99.61041513862577,18.75
223,1.2246482372283936,75.58411997473009,147.21236567372196,586.3634342196045,-13.762252513675035,14.583333333333334,3.954873150842412,0.1,0.008226394653320312,0.18652105331420898,0.05004509,0.026076179,81.76614660577343,-0.05413367761378645,0.754199655719547,14.583333333333334,9600,1.3082764148712158,0.1503459951448412,0.12000571414355236,85.85909520296082,18.75
224,1.1851203441619873,66.56220102043973,147.00622010145364,634.6412475672997,-14.186109668803894,10.416666666666666,3.7292194436301447,0.1,0.008561134338378906,0.19038701057434082,0.05063799,0.025650902,80.24575204724006,-0.05974722040156977,0.6648361129317636,10.416666666666666,9600,1.3550746440887451,0.12234705729360307,0.10042718722742824,92.60439685898777,12.5
225,1.1796283721923828,86.84155726360905,161.74904540447,562.3548747643886,-13.833671759956488,14.583333333333334,3.745680500985792,0.1,0.008271932601928711,0.18946576118469238,0.049903397,0.02619074,80.90533256887696,-0.05529021795436895,0.8676264487122977,14.583333333333334,9600,1.359208345413208,0.11498218305713201,0.07168637619878312,88.32231956263996,18.75
226,1.2466318607330322,88.94948280808696,158.09331670896094,522.3805548601739,-11.928331980975729,14.583333333333334,3.2277036768031917,0.1,0.008526086807250977,0.1883549690246582,0.05109451,0.022526866,81.70974759279795,-0.05216403207373488,0.8874193012595984,14.583333333333334,9600,1.3222270011901855,0.12485625133971867,0.09501999307821568,86.78211964079782,12.5
227,1.225597620010376,63.73707422592404,133.05189688229441,502.1517266701352,-12.990559126075864,8.333333333333334,2.997930854238106,0.1,0.009113788604736328,0.1877901554107666,0.048918486,0.041414335,79.91248025611057,-0.05717681489360996,0.6357398517730567,8.333333333333334,9600,1.3067717552185059,0.2164195889274513,0.13145003597210939,97.09189318081913,18.75
228,1.2270252704620361,70.27567255836219,141.11847679628858,542.1327861945334,-13.219573882489975,9.375,4.137814084320939,0.1,0.010179996490478516,0.22676587104797363,0.050428335,0.021778008,78.94879948633573,-0.057607346886608866,0.7015593197800577,9.375,9600,1.674541711807251,0.17058717678336757,0.10145645778804888,122.16687476403492,18.75
229,1.227863073348999,100.68115006439014,186.2087073076361,602.5202843826227,-14.068108745425729,16.666666666666668,3.6063472242790118,0.1,0.008640050888061523,0.1981666088104248,0.049896717,0.031337857,81.12203454414117,-0.05813777980105398,1.0047788868656127,16.666666666666668,9600,1.34796142578125,0.10397239652742274,0.0697605615991394,110.10942603757796,18.75
230,1.2029197216033936,55.590226258290045,139.02885598703858,558.3088481010025,-12.279346797073464,7.291666666666667,3.586102224419826,0.1,0.008647680282592773,0.19002699851989746,0.05070537,0.025335006,78.56885371555606,-0.06157161035377523,0.5538450563128914,7.291666666666667,9600,1.362576961517334,0.14468428389411875,0.0670347786702796,124.66192150692393,18.75
231,1.2518937587738037,86.98158453859264,164.70790760093658,594.4477949348548,-13.624633837164927,14.583333333333334,3.46918193620803,0.1,0.008502721786499023,0.18895316123962402,0.04928908,0.043525815,79.41012679785972,-0.05930849985167438,0.8690248334816587,14.583333333333334,9600,1.3777356147766113,0.13342319086211232,0.077951162542317,124.70819669963069,18.75
232,1.202080249786377,96.69425942017824,164.24913802561738,562.20615081412,-12.712119188317038,13.541666666666666,4.827368246538937,0.1,0.008626699447631836,0.18817448616027832,0.04919021,0.020688692,81.13854006009157,-0.05469632968629384,0.965303670313706,13.541666666666666,9600,1.3796963691711426,0.1356756544007332,0.08691946102828783,116.68002508244633,18.75
233,1.219773769378662,74.84622851144782,150.98019255245822,574.398238836335,-12.626616989496988,10.416666666666666,3.708775480131021,0.1,0.008491277694702148,0.18854761123657227,0.048878852,0.023113037,80.5093089052272,-0.05233640455597557,0.7472469287773578,10.416666666666666,9600,1.371030569076538,0.1797034599433188,0.10667793059646694,116.45162565158225,18.75
234,1.1872544288635254,68.85946671884405,152.9154548078988,566.3597040528629,-13.717098714200876,11.458333333333334,4.119825154689487,0.1,0.008366107940673828,0.19713068008422852,0.05123137,0.022128984,79.34432468658889,-0.0621912789903932,0.68739205434294,11.458333333333334,9600,1.366823673248291,0.08798627170978644,0.06788979173782003,121.21509536164821,18.75
235,1.3315091133117676,99.66797620221841,179.8879335729334,634.6691134577968,-13.313169479717633,19.791666666666668,3.853818733497257,0.1,0.008525609970092773,0.19924521446228027,0.051624566,0.023167603,81.37668983815185,-0.055781489537911115,0.9950518437954222,19.791666666666668,9600,1.3892996311187744,0.12293005044111645,0.08872862098894893,135.53537357016663,18.75
236,1.3865246772766113,75.64329854062642,159.72365139095857,594.3602092554966,-13.525395965417681,10.416666666666666,4.160829022546426,0.1,0.00853586196899414,0.193953275680542,0.049957566,0.024651518,80.80335070839931,-0.05810196666119364,0.7556480333388063,10.416666666666666,9600,1.3707098960876465,0.13667714292477456,0.07927930575968894,135.77811501614772,18.75
237,1.2115294933319092,93.4730121569454,169.79405907283737,590.6095153572371,-14.052440775024884,16.666666666666668,2.920378016900643,0.1,0.008254289627075195,0.18381285667419434,0.051285107,0.03416872,82.07031685325393,-0.05774911101994851,0.9318342223133849,16.666666666666668,9600,1.3629150390625,0.09061692767113357,0.05960786786785825,124.74912626148695,18.75
238,1.2441742420196533,105.66159800030846,178.50218811589318,586.3438662319858,-13.446917904941632,16.666666666666668,4.263282567726299,0.1,0.008522987365722656,0.18765521049499512,0.050583046,0.022775909,84.42944496795938,-0.05333769918733078,1.054162300812669,16.666666666666668,9600,1.3668615818023682,0.1335697962097978,0.10443812013974949,119.70153980015603,18.75
239,1.2113888263702393,98.72784877179691,174.98235109221145,570.4325515208874,-13.674185505919505,16.666666666666668,3.4807846278831573,0.1,0.0083465576171875,0.19552230834960938,0.049559508,0.024226118,85.85928534834315,-0.05808679143740336,0.9848298752292631,16.666666666666668,9600,1.3865885734558105,0.12217099190803093,0.07365124535192864,108.9720436779721,18.75
240,1.1879026889801025,117.85024813056651,188.80094107965954,578.4744081434925,-14.708515109667246,19.791666666666668,3.997934333324791,0.1,0.015882015228271484,0.19941020011901855,0.049076423,0.025733408,89.05838162656549,-0.053541192292764106,1.1764588077072358,19.791666666666668,9600,1.362529993057251,0.11736313669991146,0.06725755598047248,113.93820964351994,18.75
241,1.2064716815948486,78.43400843101035,166.47811605171162,590.4919166074967,-13.258653273788017,10.416666666666666,3.756393332281988,0.1,0.008628368377685547,0.1999666690826416,0.050066113,0.025035279,87.99594430700998,-0.05855308488377864,0.7822802484495548,10.416666666666666,9600,1.3427042961120605,0.12447025051404464,0.07829656873841,111.25817666936194,18.75
242,1.2135086059570312,78.61475356603144,158.52728782262534,610.6063870104603,-12.86425508331476,12.5,4.100919890077281,0.1,0.008588790893554688,0.1863081455230713,0.049940687,0.023727331,87.05782523291214,-0.05589291462503982,0.7836904187082935,12.5,9600,1.3540525436401367,0.18774856484538302,0.1255025702020772,104.71379200339638,18.75
243,1.2108323574066162,92.94954384372791,174.55081824325018,618.5485417791178,-13.324153781495848,13.541666666666666,3.4624760861723534,0.1,0.008649349212646484,0.18706583976745605,0.05075745,0.02535779,87.64699709399372,-0.05464299345545296,0.927857006544547,13.541666666666666,9600,1.3230042457580566,0.10431359643771733,0.07029850182404364,105.24483229995536,18.75
244,1.3840820789337158,84.0021221914463,173.60494044536895,590.5950755738118,-13.6171320798081,15.625,3.8907858490282012,0.1,0.008357763290405273,0.1787431240081787,0.049284793,0.024575813,87.28250960373899,-0.0586982150447522,0.838385118288581,15.625,9600,1.328444242477417,0.07219514932773419,0.04958307089057221,107.23651513169273,18.75
245,1.199305772781372,99.3002069658772,172.09949247900707,606.3556854427151,-14.39354736856221,15.625,4.086859169973909,0.1,0.008780241012573242,0.181654691696167,0.04933746,0.023159986,88.4842793399528,-0.054476154684344864,0.9896905119823218,15.625,9600,1.3612711429595947,0.1528363724916993,0.09967328938924702,105.24557077277989,18.75
246,1.2182495594024658,100.69620390259608,183.11447453045818,602.2894299563527,-14.781352720778187,16.666666666666668,3.8109431828921934,0.1,0.0087432861328125,0.19282960891723633,0.05084953,0.028068226,89.70547179621713,-0.05716847724458502,1.005331522755415,16.666666666666668,9600,1.360872507095337,0.10238725084740825,0.06446258039892147,121.75945854114835,18.75
247,1.2170917987823486,64.41576926815236,142.94985187693027,602.3868336651338,-14.021113983228547,9.375,3.3335019182673467,0.1,0.008663415908813477,0.1875607967376709,0.05032491,0.025807649,87.17650154341065,-0.057890179910872565,0.6437764867557941,9.375,9600,1.3396952152252197,0.24763402435144313,0.1550531411786387,117.03165182218191,18.75
248,1.1921570301055908,74.40352389620274,159.3289085813078,582.4033373168193,-14.393409926221874,12.5,3.552346058039892,0.1,0.008255243301391602,0.19604110717773438,0.050369345,0.029090246,85.89920377868987,-0.05801948128023448,0.7419805187197656,12.5,9600,1.3459768295288086,0.22401530158845454,0.10457465229643757,117.51084281348878,18.75
249,1.2151451110839844,95.94935604312546,175.6111850094752,634.6024593495623,-14.292623653559515,16.666666666666668,4.293110946779642,0.1,0.008709192276000977,0.19147515296936035,0.049854018,0.024385767,86.90421900513343,-0.058362026977118585,0.958304639689548,16.666666666666668,9600,1.3228569030761719,0.12206046067778051,0.08447280403758614,98.90918416586915,12.5
250,1.2021534442901611,116.99802872893478,189.56210337636418,618.5911649217564,-12.976113840438158,17.708333333333332,3.9987594298509523,0.1,0.008249282836914062,0.1866452693939209,0.05107031,0.021784924,89.91359997751357,-0.04831834686021344,1.16751498647312,17.708333333333332,9600,1.324676513671875,0.12007002762633757,0.06509639727966395,91.13733599575724,18.75
251,1.2124261856079102,115.3687826133394,180.27952482982136,550.4669422193479,-15.24245283826303,18.75,3.9130785040088085,0.1,0.008693218231201172,0.18871569633483887,0.05207151,0.025444722,92.45911824109615,-0.05128633866037596,1.1507969946729573,18.75,9600,1.3132774829864502,0.1020821857445567,0.06377805860823729,104.49884118130352,18.75
252,1.3848025798797607,60.97400020495818,141.6909835817588,586.4196119100692,-14.281718506302594,6.25,3.944816068680387,0.1,0.008800268173217773,0.18473601341247559,0.050459202,0.02552754,89.31060643748236,-0.05897050389570013,0.6076961627709666,6.25,9600,1.2993366718292236,0.178895054688819,0.11332241562482691,102.97350508488121,18.75
253,1.2446649074554443,115.63488139452424,191.42602816499578,598.5645805529332,-13.69829958130962,19.791666666666668,4.492854199943079,0.1,0.008259057998657227,0.18889975547790527,0.049408164,0.024895642,91.94303393318654,-0.053176464097802384,1.1559902025688642,19.791666666666668,9600,1.3175616264343262,0.11946032565107706,0.07723926469835854,102.17796798788119,18.75
254,1.2394297122955322,51.87427018589225,130.4766581405385,570.3153407374612,-12.387779049279983,7.291666666666667,3.7505376334057443,0.1,0.008563995361328125,0.1898174285888672,0.048571598,0.02719235,87.93615755845713,-0.06163065854999173,0.5179526747833416,7.291666666666667,9600,1.318349838256836,0.10090631994204352,0.06397206643195599,92.64998264603517,18.75
255,1.220693826675415,86.96384439667251,155.3360304211252,538.3326488169604,-14.535210386813706,13.541666666666666,4.215361042630372,0.1,0.00872349739074707,0.1926252841949463,0.04833741,0.026677478,87.83892624227867,-0.059921112715727344,0.8671622206176061,13.541666666666666,9600,1.2889187335968018,0.08477829994268758,0.04594447256724444,99.38966183743167,18.75
256,1.2080888748168945,94.49722387842193,178.12878074503382,602.5118151740335,-13.92360266293308,15.625,3.7847727657873405,0.1,0.00844717025756836,0.1797502040863037,0.049506173,0.024908923,88.504756005893,-0.05541967088686348,0.9437469957798031,15.625,9600,1.320617914199829,0.1400868116730066,0.09659014450724974,112.4024850406327,18.75
257,1.243699312210083,66.83301341747976,155.4484471264885,590.4181288816668,-13.873100953477849,12.5,4.219919897632779,0.1,0.041219472885131836,0.1874990463256836,0.049137317,0.019539367,86.33758174705169,-0.062470199792623915,0.6662798002073761,12.5,9600,1.3111393451690674,0.09936258045379977,0.06864011175163884,102.36055389223233,12.5
258,1.2003180980682373,87.1793922286605,167.889670834527,590.4733743510534,-14.05351228027143,13.541666666666666,3.720611713350097,0.1,0.009099721908569336,0.20064306259155273,0.049959425,0.026407592,86.42176279521257,-0.056941441160285884,0.8688918921730474,13.541666666666666,9600,1.337071180343628,0.11769233910057031,0.07624034952798399,102.13982940286287,12.5
259,1.262526512145996,92.34569840752306,172.1972553725325,666.4321477758673,-13.20541135527742,14.583333333333334,3.772508883373192,0.1,0.008786916732788086,0.19051003456115723,0.049965087,0.026732573,87.01415635644362,-0.057737172775941946,0.9226794938907247,14.583333333333334,9600,1.3207993507385254,0.13393242318383655,0.07958426517132725,102.5405618939362,18.75
260,1.2633109092712402,129.91499505911483,192.51595875887674,606.2693809693736,-13.884034053495778,25.0,4.873100607032739,0.1,0.010377883911132812,0.22294259071350098,0.050434582,0.014889072,91.30424022671073,-0.055827514857753946,1.297089151808913,25.0,9600,1.64385986328125,0.12470068841664173,0.07330854942722646,101.3276676015986,12.5
261,1.214576005935669,87.50399464986349,166.73447235542753,594.2536812530991,-14.187209538106845,12.5,4.234656756861506,0.1,0.008575201034545898,0.1972959041595459,0.050380826,0.018953742,90.92421566902601,-0.05658331640214607,0.8725833502645206,12.5,9600,1.2990069389343262,0.11900970397253498,0.06841372688714172,104.57528071309385,18.75
262,1.1967189311981201,88.01819227371736,179.84747513522208,646.4584382861709,-13.198729229117118,15.625,4.159925484485084,0.1,0.009061574935913086,0.18669843673706055,0.049715325,0.023532018,90.63361332949515,-0.054784067091959654,0.8789659329080403,15.625,9600,1.3186218738555908,0.13527694801719709,0.08693658599480955,108.0940582758169,18.75
263,1.2374677658081055,87.96435969195755,172.21125940888854,646.5438585170461,-13.71944634035039,14.583333333333334,3.903511718524549,0.1,0.008338212966918945,0.19292449951171875,0.049940534,0.028827934,90.36668796574139,-0.05948089723607991,0.8776024360972533,14.583333333333334,9600,1.2914855480194092,0.12363003732971853,0.08025448551932568,118.55564902349096,18.75
264,1.2351808547973633,75.7244556325406,152.18491082952457,522.1022757819677,-14.376378951080127,12.5,3.995366471046893,0.1,0.008527755737304688,0.1824326515197754,0.049083587,0.025840849,88.90246473242132,-0.060232396409879006,0.7543509369234543,12.5,9600,1.3249537944793701,0.15166885889043222,0.11660611736682114,107.55297132976654,18.75
265,1.2035887241363525,99.77885564571123,169.3996522376125,622.4390336376456,-13.556568206252473,13.541666666666666,3.6759589563480795,0.1,0.008526325225830078,0.18871855735778809,0.04853353,0.0273286,89.99010382375032,-0.059246303552273914,0.9974203631143927,13.541666666666666,9600,1.2830219268798828,0.10216245655817933,0.06364853528553403,112.07057653255201,18.75
266,1.2254972457885742,87.29459668919098,160.44446973127873,610.4370779445862,-13.983146393748411,10.416666666666666,4.5659024700229836,0.1,0.008540153503417969,0.18576264381408691,0.050107013,0.021358233,89.72055311029439,-0.05286668379845982,0.8708833162015402,10.416666666666666,9600,1.253995418548584,0.14734564497375777,0.10260853129040519,99.28665413536298,18.75
267,1.3745720386505127,119.14360295863754,202.1639103948227,630.1498934513851,-12.447746061584187,19.791666666666668,4.37876361816173,0.1,0.008629083633422852,0.18846917152404785,0.050782286,0.01966514,92.66285809512871,-0.05351959556528083,1.1898137377680527,19.791666666666668,9600,1.2616496086120605,0.10076238274279144,0.06285138007192186,104.06153253063441,18.75
268,1.1943755149841309,112.15915956710366,182.94060536802965,578.239654239375,-14.109005479361839,14.583333333333334,4.658268219967759,0.1,0.008860111236572266,0.1882932186126709,0.050123304,0.024623604,94.61248824232621,-0.05629953421563497,1.1207837991176983,14.583333333333334,9600,1.2524785995483398,0.15013494602253982,0.07438749257284494,108.2703541666751,18.75
269,1.2384018898010254,64.61710357551945,138.06450037935224,534.2395265816651,-13.070395599491897,8.333333333333334,3.9177960783669667,0.1,0.009899616241455078,0.22368454933166504,0.04965268,0.021688793,91.61294977564555,-0.059615948585596636,0.6449673847477366,8.333333333333334,9600,1.5766966342926025,0.1533519227111694,0.07496146196323171,94.50275741047354,18.75
270,1.2137565612792969,86.10583685151335,166.48439663369138,554.0639544594579,-13.781916713986613,15.625,3.9834319115789674,0.1,0.008623600006103516,0.18165111541748047,0.049103763,0.021113487,91.06223848323233,-0.06142364912610713,0.8594096842072263,15.625,9600,1.228865385055542,0.10392204753287977,0.059334640802990814,100.21400551780037,18.75
271,1.2306883335113525,79.63564428548814,169.1673873453253,630.5624382155316,-12.874910447499088,14.583333333333334,3.903255682672993,0.1,0.008471012115478516,0.18624019622802734,0.050050095,0.02336097,89.91957906345792,-0.061111657668307694,0.7947216756650257,14.583333333333334,9600,1.2340497970581055,0.15331522169445372,0.09018028235853616,109.52318544921305,18.75
272,1.2652277946472168,70.81966325632833,166.61792802112024,598.1226911651509,-13.356642547630711,13.541666666666666,3.7591678404943023,0.1,0.00870656967163086,0.1842820644378662,0.049901713,0.031626537,88.00958748274496,-0.06341114371775775,0.7078388562822422,13.541666666666666,9600,1.262308120727539,0.11379114079744128,0.06331818420707451,124.2970707248404,18.75
273,1.1964490413665771,56.74133314012573,130.74194917472684,594.3138517010294,-13.529931078196755,10.416666666666666,3.766070093996371,0.1,0.008291959762573242,0.18369054794311523,0.05030629,0.028318772,84.88276204848304,-0.060844062248962015,0.5674892710843712,10.416666666666666,9600,1.2508997917175293,0.2858572777109623,0.13211520107241326,119.99003857231233,18.75
274,1.2528572082519531,95.72864367609674,181.04304005162956,634.3515627916368,-13.687293757017953,15.625,3.4184209819443496,0.1,0.008614540100097656,0.18186306953430176,0.048034027,0.028851544,85.96735021124441,-0.06099350600061054,0.9565064939993896,15.625,9600,1.2378649711608887,0.16275666842832265,0.0869216055560635,130.78685119292012,18.75
275,1.1915874481201172,85.10288701169422,171.37286395134055,565.9834385413618,-14.11179020767425,16.666666666666668,4.494412298804666,0.1,0.008742809295654297,0.19122934341430664,0.050213106,0.023293106,85.88090389128939,-0.05851649666410621,0.8481501700025603,16.666666666666668,9600,1.2069003582000732,0.13983560756442515,0.08778500077243115,134.60085472533035,18.75
276,1.2490715980529785,69.18643441922774,155.9132167216512,642.3995470927428,-12.63260409278763,9.375,3.879930899732147,0.1,0.00860285758972168,0.19607210159301758,0.047343012,0.026701821,84.21145694408322,-0.05809413854427301,0.6910725281223936,9.375,9600,1.2573485374450684,0.15593278492823076,0.12873790492341924,130.3390759877055,18.75
277,1.2233009338378906,105.27093380836118,186.10477617024455,586.2432664043095,-14.13341443422004,18.75,4.373877077606858,0.1,0.008798360824584961,0.18878746032714844,0.050385814,0.02355101,86.31740463051102,-0.05434691654948707,1.0502364167838463,18.75,9600,1.2476234436035156,0.10464624832438989,0.07165778802714354,128.33278779513174,18.75
278,1.199209213256836,86.69242618448237,161.82168678058557,538.0554504006549,-14.931073347225109,14.583333333333334,4.112520048600618,0.1,0.008499622344970703,0.18674969673156738,0.050103515,0.022916598,86.35490678590816,-0.057632926261886284,0.8652837404047805,14.583333333333334,9600,1.220064640045166,0.11561042198423802,0.0835179833789677,139.1606754067737,18.75
279,1.201484203338623,68.21651024037811,154.12765795138358,530.1292167790077,-13.374563827411409,11.458333333333334,3.8723600255121453,0.1,0.008445501327514648,0.18612980842590332,0.048906922,0.02833009,84.54106713135515,-0.06319235113653233,0.681390982196801,11.458333333333334,9600,1.21315598487854,0.09007195822327138,0.05985574805670956,119.34580902372635,18.75
280,1.204845666885376,97.49088333914983,162.6499757528832,582.105280075539,-14.295136942157193,12.5,4.242145174418489,0.1,0.008276224136352539,0.1796262264251709,0.05007708,0.023422437,85.83604875213462,-0.055892977732370785,0.9724403556009626,12.5,9600,1.2253711223602295,0.10787952564117495,0.07487094424806073,122.61039890223971,18.75
281,1.327610731124878,97.73091539860701,171.3346605600907,594.4633483736549,-12.060129257263105,15.625,3.5466452094672505,0.1,0.008849859237670898,0.18753695487976074,0.050409414,0.036153693,87.02553541678186,-0.05391743311580954,0.9748325668841905,15.625,9600,1.242037296295166,0.11812635730712705,0.07572172676456405,102.34203960471567,18.75
282,1.4009976387023926,83.8122553184861,169.38662161562831,594.3055751162216,-13.609464465542619,13.541666666666666,3.552245864712909,0.1,0.008240699768066406,0.18372893333435059,0.05068302,0.022671489,86.70420740695229,-0.05934496514818138,0.8364883681851522,13.541666666666666,9600,1.2406938076019287,0.08896631889421105,0.05583495241323828,90.95884526640432,18.75
283,1.1978495121002197,96.56432693512545,170.72160663398319,634.3722613792272,-12.406516129999039,18.75,4.224582048213029,0.1,0.008582115173339844,0.19360971450805664,0.048876557,0.023986291,87.69021935976961,-0.05267305039162625,0.9639936162750403,18.75,9600,1.2520711421966553,0.14741880115394732,0.08262067293192789,80.47757407610017,18.75
284,1.2121357917785645,93.99488909492898,172.56252366702228,622.6202045396809,-13.778101595103566,12.5,3.555591892543052,0.1,0.008213996887207031,0.18919157981872559,0.049831044,0.03136462,88.32068633328555,-0.05336813009441841,0.9370485365722483,12.5,9600,1.2384278774261475,0.16013308739592363,0.09349849648468517,70.48594203092628,18.75
285,1.2208847999572754,72.59383817396011,157.85222156898098,650.4456145365269,-12.452274698392715,10.416666666666666,3.574076291705961,0.1,0.008840322494506836,0.19005823135375977,0.048829935,0.05630611,86.74800151735302,-0.05780465709792556,0.7230286762354078,10.416666666666666,9600,1.2845783233642578,0.10314569607697309,0.08242322674258362,102.80087111727639,18.75
286,1.186079502105713,85.06415185019087,170.38164590291512,594.4617918663525,-14.303685412523404,15.625,4.4167657924756565,0.1,0.008621454238891602,0.18672490119934082,0.050879914,0.026584897,86.57961655063681,-0.058895850832446035,0.849854149167554,15.625,9600,1.2655181884765625,0.12493197478200894,0.0863559660350583,76.7205776307695,12.5
287,1.221348524093628,109.01581827724537,197.0914083857553,666.5788678795781,-13.06999491064924,16.666666666666668,3.8250834565677434,0.1,0.008934736251831055,0.19810771942138672,0.05056605,0.028490834,88.82323672329768,-0.0535622026454117,1.0876877973545884,16.666666666666668,9600,1.2947642803192139,0.09046471691567712,0.05645702927993328,67.69785745263057,12.5
288,1.2028326988220215,123.46456615590894,222.32622582102226,650.4627606756451,-12.767526259416385,21.875,3.753513523211721,0.1,0.008643865585327148,0.18330693244934082,0.049642786,0.028727558,92.28736966655882,-0.05576067987102454,1.2317393201289755,21.875,9600,1.3007733821868896,0.12193481635244538,0.06490885390092187,112.17336484872378,18.75
289,1.2346854209899902,98.0182121981017,166.13229224631905,598.6282122752573,-13.202751409817012,13.541666666666666,4.1757219619818855,0.1,0.008501768112182617,0.18807005882263184,0.049241845,0.025696393,92.86045391971311,-0.056874717429927724,0.9768752825700724,13.541666666666666,9600,1.299781322479248,0.13647661190631932,0.04806080604389566,96.62295737650292,18.75
290,1.3619961738586426,110.22260186929304,202.34777446796548,598.6211842592113,-13.951334122588586,17.708333333333332,4.3853503718441535,0.1,0.008548736572265625,0.18985986709594727,0.05091156,0.018397158,94.5966687146711,-0.053578127846060676,1.0989218721539393,17.708333333333332,9600,1.3252036571502686,0.05990103910471442,0.03985571797690683,88.44783263716212,18.75
291,1.2039597034454346,76.84828924332027,167.59956279529294,670.5952857251182,-13.455120742979268,10.416666666666666,3.5646530270214245,0.1,0.008477926254272461,0.18853354454040527,0.049875636,0.033572275,92.82183076753601,-0.053993067501289536,0.7672569324987105,10.416666666666666,9600,1.3334167003631592,0.13429924524361275,0.07997186049560187,89.16877670524427,12.5
292,1.242126226425171,76.83775876064318,148.87753004809133,614.528451590989,-12.729408081998054,6.25,3.7360118963268505,0.1,0.008558988571166992,0.1881260871887207,0.049133923,0.04604835,91.22342356684673,-0.05658970240206381,0.7671602975979361,6.25,9600,1.338052749633789,0.1435273392844034,0.08020469691011704,49.53468003243218,12.5
293,1.2052586078643799,108.41461887714782,192.67306510483667,618.5360086381224,-13.475574195158007,18.75,3.709908655211834,0.1,0.008458852767944336,0.19571185111999512,0.049463473,0.027734445,92.94254309787685,-0.054973448627530425,1.0812765513724696,18.75,9600,1.3295526504516602,0.07458964953125108,0.042104587897980564,82.9939384491943,12.5
294,1.1831018924713135,87.35467016813345,171.8520506887648,602.4697792196501,-13.663087579095045,13.541666666666666,4.56385159908215,0.1,0.00809335708618164,0.18916058540344238,0.049069386,0.02076504,92.3837558049025,-0.055603073044964514,0.8714802602883687,13.541666666666666,9600,1.3279218673706055,0.13115434113566563,0.06587097533023509,105.48998179151897,18.75
295,1.2089509963989258,78.2753993225733,149.72223010999494,614.2730462755899,-14.418451336408818,11.458333333333334,3.597673011741931,0.1,0.008492469787597656,0.18839383125305176,0.050416633,0.028810784,90.9729201566696,-0.05389775429813374,0.7790189123685329,11.458333333333334,9600,1.3150196075439453,0.17117868530908378,0.11937117785091883,96.54757263838235,12.5
296,1.2206699848175049,83.9199162224234,161.01572237540384,550.4124733035208,-14.211077897021251,12.5,4.513414490729843,0.1,0.008724689483642578,0.19179987907409668,0.05056956,0.021769002,90.267619763245,-0.05824362991002926,0.8384230367566374,12.5,9600,1.3416409492492676,0.12169846687147327,0.06346539556007073,82.96406788513173,12.5
297,1.2655692100524902,80.42196108296632,163.52604498782378,586.6163629723851,-14.68491252109939,10.416666666666666,4.064825938092636,0.1,0.008824348449707031,0.19652748107910156,0.049384806,0.023190463,89.28305389521714,-0.057837669478828846,0.8029956638545045,10.416666666666666,9600,1.3683817386627197,0.12230509148414227,0.08460754835053333,118.41200093209773,18.75
298,1.2713649272918701,98.9074749361145,183.90671411741084,626.8092908467181,-14.035965854596462,17.708333333333332,4.48749027754263,0.1,0.008416891098022461,0.18750500679016113,0.05163792,0.021570813,90.24549599930688,-0.05631857580914732,0.9874314241908527,17.708333333333332,9600,1.3414745330810547,0.08354319091117476,0.05085621787943652,132.43177687903295,18.75
299,1.2324495315551758,94.40797356877245,171.6692297499391,654.5407034975897,-14.48165161893467,13.541666666666666,4.030991003364006,0.1,0.008482694625854492,0.18413114547729492,0.049808033,0.018699095,90.66174375625344,-0.05590599742339177,0.9415940025766082,13.541666666666666,9600,1.370143175125122,0.10748114673877253,0.07354028098018657,135.89804702801726,18.75
300,1.2138397693634033,92.79322992381451,183.460063303571,650.7115324187871,-13.336464597092803,14.583333333333334,3.378663791359718,0.1,0.008489847183227539,0.18117284774780273,0.049273226,0.02950026,90.87489237300956,-0.05828455601914037,0.926298777314193,14.583333333333334,9600,1.3487088680267334,0.09212718938274755,0.056435659674875065,125.40496185551248,18.75
301,1.1985752582550049,110.73426797547955,199.58845202029082,646.4136097499858,-11.70857515048178,18.75,3.5526542056461596,0.1,0.00823831558227539,0.20471811294555664,0.05044682,0.030090017,92.86082993325655,-0.05428522001955782,1.1048814466471089,18.75,9600,1.3509082794189453,0.07209768140561401,0.049148987732536384,116.84594103825074,18.75
302,1.22159743309021,90.20948418911553,179.81957733283073,622.5383257291965,-13.55297521171057,13.541666666666666,4.003791441063617,0.1,0.008862018585205078,0.18407177925109863,0.049968686,0.027697092,92.59569535884246,-0.053302823550757966,0.8987805097825753,13.541666666666666,9600,1.3524653911590576,0.14073579471946895,0.08691021968061954,113.58069117521592,18.75
303,1.1871252059936523,94.75036443539528,180.9446001172215,614.4112783700833,-14.290562873516086,13.541666666666666,3.9228806988586675,0.1,0.008449792861938477,0.18762946128845215,0.049612503,0.026436897,92.81116226649775,-0.05828046635873437,0.9458862003079324,13.541666666666666,9600,1.3429529666900635,0.10422954818287207,0.07195818520075944,126.59487641780129,18.75
304,1.356541395187378,107.74694960353906,186.39574891799674,606.4570286514435,-14.148948136891761,16.666666666666668,4.188936378057155,0.1,0.008519887924194336,0.1846003532409668,0.050537154,0.025884952,94.30474100020189,-0.05499286749680926,1.0754237991698574,16.666666666666668,9600,1.3437800407409668,0.12898200661639764,0.0663603587975858,131.36206963922294,18.75
305,1.378516674041748,128.1126687586253,208.7598484891432,650.4895756606331,-13.218139478988867,17.708333333333332,3.8613377339393624,0.1,0.008507490158081055,0.18858933448791504,0.04961049,0.01776196,97.68553377604422,-0.049683250902509246,1.2790667490974907,17.708333333333332,9600,1.3219044208526611,0.07873375156906148,0.055842655025684126,125.36606027547043,18.75
306,1.2939238548278809,111.56049816204622,197.0328889538353,590.4111777311701,-13.784261630162828,18.75,4.010932157893037,0.1,0.008617162704467773,0.1812915802001953,0.05049173,0.02166908,99.07303021464443,-0.05266769688537792,1.1152489697812886,18.75,9600,1.3432128429412842,0.10721068252240101,0.06421343793820912,126.88210741602757,18.75
307,1.2119264602661133,57.244825478750386,150.25334088058435,626.5478003142995,-13.933849002387332,10.416666666666666,4.296966137650083,0.1,0.008794069290161133,0.18169736862182617,0.050417006,0.02129488,94.89020974105503,-0.06000588480478133,0.5712441151952187,10.416666666666666,9600,1.3710362911224365,0.25731184137226676,0.0818072803026786,130.66712660958706,18.75
308,1.193058729171753,85.40908646592914,176.78723096681907,610.367632702649,-14.094635605482248,12.5,4.797865413614546,0.1,0.00852060317993164,0.1853177547454834,0.04979185,0.019949086,93.94209741354244,-0.058364056852544664,0.8528859431474554,12.5,9600,1.3600938320159912,0.13446511108861914,0.06716027088656407,135.4486273966651,18.75
309,1.204981803894043,120.59019425163406,187.0377481993921,654.4818940862141,-13.424330735027285,16.666666666666668,4.226802701648765,0.1,0.008419275283813477,0.19896221160888672,0.04946151,0.025385808,96.60690709735161,-0.052392570836868456,1.2042740958297982,16.666666666666668,9600,1.3674561977386475,0.14741766491525382,0.07296890123168602,128.46785603302908,18.75
310,1.2184295654296875,121.39791995126865,185.79292329913068,622.4180557083129,-13.331874961088431,15.625,3.8771306032504746,0.1,0.008379220962524414,0.19362807273864746,0.050372984,0.025196936,99.08600838274332,-0.048498139632456465,1.2127518603675433,15.625,9600,1.3674955368041992,0.10004548070952839,0.055781273708178765,128.94973110895546,18.75
311,1.244063377380371,78.50371997435758,176.35538433226122,622.7022990545917,-14.681310239935936,11.458333333333334,4.799914400483188,0.1,0.008009195327758789,0.17980265617370605,0.047967166,0.02237637,97.02777954190475,-0.057436360640309825,0.7825636393596902,11.458333333333334,9600,1.3797473907470703,0.15062731903590573,0.07120111408714792,130.93384364115224,18.75
312,1.1942923069000244,64.86333121411418,144.28679614069688,598.6880887544221,-13.894785231192605,8.333333333333334,3.458189141799054,0.1,0.008587837219238281,0.18928050994873047,0.054425742,0.024932764,93.8113347091257,-0.05798933684575525,0.6474273298209114,8.333333333333334,9600,1.4059593677520752,0.09829679982318487,0.07242081397358413,138.19801145116173,18.75
313,1.3733022212982178,108.91671637077509,190.77965881902708,622.5157474199128,-13.436048145829186,15.625,4.2474779568319905,0.1,0.00856781005859375,0.1865079402923584,0.05138865,0.024176061,95.32187287529064,-0.05082242189487579,1.0870942447717908,15.625,9600,1.3565330505371094,0.09566541165690058,0.06466094539637347,132.93148294364448,18.75
314,1.2345061302185059,86.51641204230138,172.70848051013402,638.7062011273595,-13.818575258607094,12.5,4.197013526415603,0.1,0.0085296630859375,0.183243989944458,0.048291847,0.021658687,94.44132679199171,-0.05812178337622006,0.8635448832904467,12.5,9600,1.372793197631836,0.09139646134762137,0.046442956524151986,141.18613340697087,18.75
315,1.1762137413024902,134.25599668694662,196.91603045862894,598.4079768950891,-13.889651485075346,18.75,3.350118461196188,0.1,0.008776187896728516,0.19160056114196777,0.05051237,0.024903214,98.4227937814872,-0.05325260920363669,1.3409140574630298,18.75,9600,1.3656864166259766,0.10436506376450537,0.0586091064016577,136.42089735149037,18.75
316,1.2119605541229248,66.02148621859588,150.57496635413128,533.7740609129032,-13.988197435566965,11.458333333333334,4.570941480196509,0.1,0.008573532104492188,0.18095159530639648,0.0514587,0.020216988,95.18266302519807,-0.05974481962947248,0.6590051803705274,11.458333333333334,9600,1.3184387683868408,0.1498763185366902,0.08227629571254172,134.44469124520927,18.75
317,1.2233142852783203,101.8625067398508,174.45247054436172,598.5842357721709,-13.324713757971958,10.416666666666666,3.6027860871758497,0.1,0.00853419303894043,0.182464599609375,0.05014351,0.025256503,95.85064739666335,-0.050932467257238295,1.016567532742762,10.416666666666666,9600,1.3241043090820312,0.1028522439739478,0.07526466090757788,137.95445537480222,18.75
318,1.1828804016113281,92.38403410742848,178.36542707065107,626.356689330329,-12.536095895377963,11.458333333333334,3.597093002223686,0.1,0.00998687744140625,0.18108344078063965,0.050019413,0.027545571,95.50398606773986,-0.05487713647572395,0.9209561968576093,11.458333333333334,9600,1.3108019828796387,0.11948673422406986,0.051411905495842965,128.67251667985562,18.75
319,1.2132833003997803,98.52075888622653,178.90586734505024,626.5144925624817,-13.57799182509742,11.458333333333334,3.245861666804634,0.1,0.008462190628051758,0.17961454391479492,0.05043562,0.030200547,95.80566334958853,-0.054758848331853294,0.9835744850014801,11.458333333333334,9600,1.3242599964141846,0.17029013447269467,0.07880515668187768,133.15664954033514,18.75
320,1.2548718452453613,107.43542782255173,193.93953617848192,670.4852897422354,-14.313102440266936,16.666666666666668,3.7560663362486535,0.1,0.00830531120300293,0.18076729774475098,0.049826052,0.023108013,96.96863979688486,-0.058898088866799515,1.0723519111332005,16.666666666666668,9600,1.310084342956543,0.07569543785889347,0.047303365059028206,137.42204493908244,18.75
321,1.2674195766448975,88.20409109131442,176.0016865507904,610.4373209605427,-14.174573777281124,11.458333333333334,3.904546899292607,0.1,0.008541107177734375,0.18029212951660156,0.049945064,0.025715066,96.09218492632782,-0.055435525698821986,0.8803978076345113,11.458333333333334,9600,1.2922210693359375,0.0990744947258649,0.06988514926505218,131.1623661996808,18.75
322,1.198439121246338,103.24950179351849,191.1358580060529,686.6742940849333,-13.83472741900126,14.583333333333334,4.0345670489542735,0.1,0.008788824081420898,0.17899441719055176,0.05072455,0.023153337,96.80791661304688,-0.05497705850877425,1.0296062748245591,14.583333333333334,9600,1.301438808441162,0.07136954231580017,0.0535679386394394,132.94471793574644,18.75
323,1.2359793186187744,87.14427385582276,177.62408168626988,618.5235657998928,-13.116242837588837,11.458333333333334,3.6021280765857386,0.1,0.008370399475097656,0.18071722984313965,0.050040342,0.026502835,95.84155233732449,-0.05476053060809396,0.8706561360585727,11.458333333333334,9600,1.2928454875946045,0.07805393738163996,0.04839710839974276,129.96198120076747,18.75
324,1.2065989971160889,90.81981521016196,181.42153398468253,646.672428931126,-13.393755058814486,10.416666666666666,3.641815196731321,0.1,0.010186910629272461,0.23135709762573242,0.049020376,0.03256992,95.33937862460823,-0.05634575002225705,0.9069875833110762,10.416666666666666,9600,1.653733730316162,0.07215595301983387,0.045026145885088305,132.19434327093308,18.75
325,1.2135941982269287,79.69545910901775,173.75776400868997,610.3718008114953,-13.224032086525563,12.5,3.545614429948637,0.1,0.009033918380737305,0.18410968780517578,0.04975583,0.034661196,93.77498667304918,-0.05925519398283815,0.7949114726838284,12.5,9600,1.3061234951019287,0.06597489716047515,0.04084641632088857,133.19064717808763,18.75
326,1.2002384662628174,115.36641090813264,201.2637412897595,602.5954473768107,-14.628065402218205,18.75,4.073945650360451,0.1,0.008704662322998047,0.18302440643310547,0.0496664,0.029158732,95.93412909655753,-0.05627329186352916,1.1528933748031376,18.75,9600,1.2902443408966064,0.09789502078073209,0.04565061182914746,132.38211239859268,18.75
327,1.1914803981781006,139.19935489332372,213.01271046226287,638.6472417965448,-13.800238517415872,17.708333333333332,3.584151717133143,0.1,0.008664131164550781,0.18253636360168457,0.04943821,0.02462642,100.26065167623415,-0.05295502603751093,1.3903783072958227,17.708333333333332,9600,1.2762517929077148,0.09536569558913792,0.052714642996945324,130.38027538032756,18.75
328,1.2958040237426758,88.92481121626713,188.1205553809017,618.2802249880108,-14.983555905549592,11.458333333333334,3.069847903598084,0.1,0.008543014526367188,0.1876814365386963,0.050101243,0.02954012,99.12706763023745,-0.0577693082073313,0.888064025126002,11.458333333333334,9600,1.2835118770599365,0.0986729881467411,0.05957404266432361,129.3922351652516,18.75
329,1.2105598449707031,82.76963957195453,172.88557537191497,642.5720625712611,-13.657226305791736,9.375,4.0896149610440125,0.1,0.008565425872802734,0.18469643592834473,0.04996734,0.027193062,97.49132482440915,-0.056438263113978426,0.8256450702193548,9.375,9600,1.2577228546142578,0.11850172200480878,0.07684032088247368,120.3660535620388,18.75
330,1.2138702869415283,58.74034493213522,164.7736368261732,642.7336102771966,-13.153938973843102,9.375,4.076744951289623,0.1,0.008822202682495117,0.1837749481201172,0.050239403,0.023873074,93.61622683518176,-0.060460211881995796,0.5870397881180042,9.375,9600,1.2801711559295654,0.13811770418343688,0.07146517369080305,122.62197583353012,18.75
331,1.178839921951294,102.50723016054856,195.84770584801532,658.7350036409127,-13.691269052411036,16.666666666666668,3.3668562480187747,0.1,0.008597135543823242,0.18936610221862793,0.04897851,0.034299374,94.50532716771843,-0.05491571604347634,1.0230009506231903,16.666666666666668,9600,1.2863764762878418,0.07692764352139472,0.049796413603226675,124.62399525625109,18.75
332,1.2342205047607422,72.0994372607774,161.03015807863335,614.6530802455012,-14.258842647319145,9.375,3.5526151608288585,0.1,0.008825302124023438,0.18863868713378906,0.04906131,0.031108735,92.26473817702433,-0.05981700899906998,0.7180996576675968,9.375,9600,1.2919561862945557,0.10126339922513712,0.052446976638574096,125.12009019324076,18.75
333,1.19771146774292,124.10929787999237,201.96261032462738,646.7973660725285,-14.505272713687887,15.625,3.799322218350896,0.1,0.008194684982299805,0.18214654922485352,0.048891027,0.025957461,95.44919414732114,-0.05430701796106712,1.2356929820389329,15.625,9600,1.272256851196289,0.06516309248732292,0.04048582304372849,125.15048798982502,18.75
334,1.185673713684082,110.05026156063188,201.70928820795172,690.8496202718909,-13.873093723620968,15.625,4.355522499074882,0.1,0.008948802947998047,0.18758034706115723,0.05048173,0.02936936,96.90930088865221,-0.054460036578736624,1.0984566300879302,15.625,9600,1.294780969619751,0.0768575248567274,0.042297908395334365,122.66238752861115,18.75
335,1.279996633529663,86.07516816486259,173.02693359685853,654.6772733535298,-15.520879400340071,12.5,4.28844763024693,0.1,0.008472442626953125,0.179779052734375,0.05011289,0.022544952,95.82588761627325,-0.05752176511750124,0.8599782348824987,12.5,9600,1.2703874111175537,0.10196762088567735,0.04354409183770999,125.14404533192553,18.75
