iteration,time_sampling,stoc_pol_mean,stoc_pol_std,stoc_pol_max,stoc_pol_min,rollout_success,alpha,delta,time_vpg,time_npg,kl_dist,surr_improvement,running_score,rwd_sparse,rwd_dense,success_percentage,num_samples,time_VF,VF_error_before,VF_error_after,env_samples,eval_score,eval_success
0,1.8866817951202393,-44.95236988675566,5.739908407804032,-32.62708880350181,-53.278504109102634,0.0,0.39060266028151724,0.1,0.02480626106262207,0.1513664722442627,0.052631497,0.2782323,-44.95236988675566,-0.20311797550978353,-0.37163198779777956,0.0,1323,0.14250779151916504,0.998866467822378,0.914180614136303,1323,-33.33302747874492,0.0
1,1.5950701236724854,-44.472580161175664,5.8779769550545815,-28.95003102113188,-52.77745199257527,0.0,0.5396438144664607,0.1,0.0896308422088623,0.32245635986328125,0.049654376,0.2036337,-44.90439091419766,-0.20398703892158299,-0.36684076339412486,0.0,1311,0.12027478218078613,0.9135579061189222,0.3888294078149921,2634,-33.51126062921563,0.0
2,1.6246683597564697,-43.59556585244098,5.730525943986106,-32.385725989853384,-52.858028621274194,0.0,0.5502358774813005,0.1,0.04483199119567871,0.22759246826171875,0.05159978,0.20298155,-44.773508408021996,-0.19972443189112235,-0.35806322130018425,0.0,1342,0.16951894760131836,0.3825110835095097,0.02079493083575522,3976,-29.93306978875839,0.0
3,1.8273849487304688,-41.501099836663535,6.588532557304239,-21.680223599509528,-52.94421251542539,0.0,0.6058386138197716,0.1,0.04037785530090332,0.3526625633239746,0.051517885,0.16996278,-44.446267550886155,-0.19857801745270856,-0.3371213929320107,0.0,1420,0.16399121284484863,0.02836924614273447,0.01850430154172098,5396,-18.759723556227414,0.0
4,1.9132623672485352,-40.43251484396129,5.903342651310099,-24.541007418309626,-52.859993003774235,0.0,0.6338824769164824,0.1,0.0501561164855957,0.33931946754455566,0.057306338,0.15339012,-44.04489228019367,-0.19877784534770473,-0.3264367626538089,0.0,1482,0.16892051696777344,0.01612712413775891,0.01564258162882237,6878,-7.413954043388344,0.0
5,1.957172155380249,-37.27018592075232,6.478372911388335,-17.824893769348357,-53.75003012322366,0.0,0.5860915382928323,0.1,0.007272958755493164,0.44722580909729004,0.053186476,0.17843954,-43.36742164424954,-0.1914747120182093,-0.2948160715010077,0.0,1563,0.16686081886291504,0.02294530945815426,0.02047211660704864,8441,-2.9081093644150258,0.0
6,1.9595005512237549,-36.71140150126317,6.641048179367095,-21.24028241966432,-52.68619887419615,0.0,0.6196359007077599,0.1,0.05424141883850098,0.16089224815368652,0.053192154,0.16509901,-42.701819629950904,-0.18821680130142734,-0.28922820519019576,0.0,1572,0.14541864395141602,0.02270037455420812,0.021209379398849273,10013,4.861546527578014,0.0
7,2.0231778621673584,-37.1627391477715,7.479024471850101,-21.02250656645671,-52.97982683049242,0.0,0.6669923111503087,0.1,0.00830388069152832,0.38021183013916016,0.05050848,0.16021785,-42.14791158173296,-0.18979492428494693,-0.2937429738096145,0.0,1673,0.15634679794311523,0.02075106283300531,0.019433159307240135,11686,0.30384876909162273,0.0
8,1.975635290145874,-35.22575578616314,6.546669174430315,-20.70120114527232,-53.20736977977712,0.0,0.6675844256385178,0.1,0.04916238784790039,0.14992570877075195,0.051945664,0.15449351,-41.455696002175976,-0.19211599822807449,-0.2743723939925302,0.0,1667,0.17023611068725586,0.018228841197125693,0.016156810732650396,13353,-37.36106629145315,0.0
9,2.0894534587860107,-32.26308617622931,7.530258462713757,-11.160657554302205,-53.64257419676634,0.0,0.6958453023825344,0.1,0.006401538848876953,0.1445140838623047,0.05087003,0.1559783,-40.53643501958131,-0.18376478637695493,-0.24474624629732622,0.0,1973,0.18414640426635742,0.030717458160379355,0.02393104248784672,15326,-17.79557087984763,0.0
10,2.1858527660369873,-29.808129643081845,11.445289846636479,16.229300777689993,-52.7991081686168,0.0,0.6836727381844748,0.1,0.0061151981353759766,0.189253568649292,0.052451592,0.18127742,-39.46360448193137,-0.1823457737459028,-0.22019982898246263,0.0,1974,0.17798733711242676,0.05202337418054095,0.04312981643386489,17300,-60.86448187048048,0.0
11,2.3112757205963135,-25.65999388899102,11.745727693577264,12.9090438561904,-54.05727109594791,0.0,0.7518763725290233,0.1,0.025251150131225586,0.15859723091125488,0.05139292,0.15315063,-38.08324342263734,-0.18028283479699145,-0.17871488824551252,0.0,2216,0.20965194702148438,0.054860574778053166,0.044787643621640484,19516,-64.82201417380477,0.0
12,2.6508567333221436,-22.937728584505763,12.368618947331752,13.162072139036802,-53.76433968461831,0.0,0.8449417231351053,0.1,0.007281064987182617,0.29544734954833984,0.05123015,0.13023812,-36.56869193882418,-0.17512172610970364,-0.15149414388061716,0.0,2726,0.26047301292419434,0.049046665291629564,0.04350949299907001,22242,52.15793268480368,0.0
13,2.744344472885132,-17.41984684793685,16.974236444344214,42.64315245743308,-60.04410252610627,0.0,0.8505895863287551,0.1,0.04720497131347656,0.3661985397338867,0.051887013,0.12721965,-34.65380742973545,-0.17187039391200765,-0.09631588265124637,0.0,3052,0.2932322025299072,0.07914672571831467,0.06950710725267824,25294,83.95212662024474,0.0
14,3.209498167037964,-11.759483888548152,17.063090300147415,31.143129227938772,-52.85709475665389,0.0,1.0092533777318085,0.1,0.06850218772888184,0.23378515243530273,0.051763866,0.10356928,-32.36437507561672,-0.16789157537820798,-0.03971505200137107,0.0,3894,0.37467384338378906,0.0768082889497606,0.06856955941316668,29188,-18.159900072610707,0.0
15,3.819157838821411,-2.586065548236753,23.135907916783484,62.634782175439035,-62.76022904456278,0.0,1.1453241306524966,0.1,0.038286685943603516,0.2035219669342041,0.05184382,0.089279585,-29.386544122878725,-0.16193890000061714,0.052022344036176386,0.0,4989,0.46750521659851074,0.13877805337266141,0.11804706485980873,34177,-18.723668840225283,0.0
16,4.65274453163147,21.53089443330599,46.88016734332093,235.67702514794948,-60.973161726675414,0.0,1.3659359008876353,0.1,0.03842949867248535,0.6125569343566895,0.050489604,0.0753156,-24.294800267260253,-0.15368600164204302,0.27233803454398414,0.0,6270,0.6256217956542969,0.4728511497090485,0.3660251647039075,40447,-19.2436838642728,0.0
17,5.258974552154541,43.04496438955883,53.06419060647654,202.3107696446225,-60.70655899935164,0.0,1.3819568649972067,0.1,0.0872340202331543,0.48597192764282227,0.049308576,0.07140573,-17.560823801578344,-0.15089543372756406,0.4922667305109049,0.0,7026,0.7230968475341797,0.5441599739722971,0.4323737023804501,47473,-19.126654991323463,0.0
18,6.1934123039245605,115.46487073161092,87.31969472193613,369.407681148269,-60.383871781304535,0.0,1.450873770221711,0.1,0.00894784927368164,0.3407554626464844,0.04980111,0.06806715,-4.258254348259419,-0.14283454873822712,1.1803849419752324,0.0,8636,1.2922091484069824,0.634601669323204,0.41494754606813283,56109,-19.221420505742103,0.0
19,6.955215930938721,163.16455025197425,100.58750209008652,368.80392737891054,-16.92736007365786,0.0,1.5829394611145116,0.1,0.06194472312927246,0.6591339111328125,0.04353738,0.05749484,12.484026111763947,-0.13737550187594205,1.6340077332084,0.0,9052,1.3217525482177734,0.3974564086436969,0.3171863628703663,65161,-19.005743728405097,0.0
20,6.931617498397827,211.48322160464681,106.88603557635092,393.1646800764365,-24.883502248622225,0.0,1.661299690708585,0.1,0.013966798782348633,0.44357776641845703,0.04210198,0.05391049,32.38394566105224,-0.1301098114971152,2.1123704364812297,0.0,9518,1.4800059795379639,0.31359575115392035,0.2384766225519299,74679,-18.250110014207618,0.0
21,6.476868629455566,243.5911566103819,96.2312870216437,381.4104312049809,18.424665041518832,0.0,1.7448462105989855,0.1,0.012065410614013672,0.32543301582336426,0.049224235,0.058443796,53.5046667559852,-0.12663463354575694,2.4257064960377073,0.0,9596,1.45570707321167,0.17393206536539374,0.14744218034267814,84275,-17.741180149747596,0.0
22,7.1057493686676025,300.0822569921295,77.24315135945623,397.42035052543235,107.01145395219442,2.0833333333333335,1.6879150239403757,0.1,0.012359142303466797,0.35946178436279297,0.04919332,0.05867331,78.16242577959963,-0.12104829531877564,2.9910350380145574,2.0833333333333335,9600,1.5014324188232422,0.10873200066813475,0.07920524423560932,93875,-17.048551850573112,0.0
23,6.664234399795532,299.73419857594206,85.05547072889307,381.6357655757532,54.70815085353037,1.0416666666666667,1.692140636885369,0.1,0.01108407974243164,0.2667217254638672,0.05004127,0.058558527,100.31960305923388,-0.12120420211219828,2.9858791312211346,1.0416666666666667,9600,1.439997911453247,0.09775760124485822,0.08291205147945584,103475,3.8462503444968883,0.0
24,7.248294115066528,328.38070515978745,63.68009202280728,401.96985238629753,138.55661134043717,2.0833333333333335,1.6582133864041881,0.1,0.00921177864074707,0.2648749351501465,0.05014577,0.062135786,123.12571326928924,-0.11848198304080045,3.2744346836258664,2.0833333333333335,9600,1.5802440643310547,0.04878376293842068,0.03636975333014104,113075,65.60945554833036,0.0
25,6.80256724357605,340.411797075991,52.034169393951856,393.6341396568328,155.79070702333104,2.0833333333333335,1.7206634713972084,0.1,0.011246204376220703,0.23748993873596191,0.04765315,0.05290332,144.85432164995942,-0.11734741915932438,3.3939025808406753,2.0833333333333335,9600,1.42539644241333,0.038027502367466194,0.028622884312177653,122675,78.62820569138266,0.0
26,6.650432109832764,350.8804986341748,42.04685532623055,405.9289840041132,147.53695932683382,1.0416666666666667,1.6318328484677425,0.1,0.01484060287475586,0.25952887535095215,0.05120075,0.061168984,165.45693934838096,-0.11474336984715054,3.4985899634861823,1.0416666666666667,9600,1.4177663326263428,0.02010921793507882,0.0142052957672758,132275,102.87255454026284,0.0
27,7.066980600357056,355.8275316160263,45.29986207616511,385.8931417833173,134.68207134309745,1.0416666666666667,1.5727122861277811,0.1,0.011178970336914062,0.2569565773010254,0.050892152,0.057829067,184.4939985751455,-0.11361230240297941,3.5472210309303542,1.0416666666666667,9600,1.4731836318969727,0.019947294942933815,0.016086672609794544,141875,103.04422534610893,0.0
28,6.811206102371216,361.4512130325152,32.543097888094714,397.69634095815644,240.33487833179836,0.0,1.4766803141029266,0.1,0.016460180282592773,0.37563085556030273,0.05117845,0.072546646,202.18972002088248,-0.11238868162717948,3.6021946517061534,0.0,9600,1.5974743366241455,0.009263203275615502,0.007772029891799053,151475,111.42560257222992,0.0
29,7.215139389038086,352.6512894548494,53.03119053890853,417.8286486921853,72.06230039721417,3.125,1.4755927421542316,0.1,0.014792919158935547,0.42749476432800293,0.048032902,0.058144856,217.23587696427919,-0.11370710551753176,3.5154595611491346,3.125,9600,1.6229488849639893,0.027274123078608423,0.02127438542225618,161075,87.1661940679393,0.0
30,7.048147201538086,376.1715343566594,16.644212194364705,414.1678131993888,292.61067157104003,5.208333333333333,1.6582764915799488,0.1,0.012493133544921875,0.3618736267089844,0.04927977,0.06164207,233.1294427035172,-0.11018491237979698,3.7493984209535363,5.208333333333333,9600,1.4031963348388672,0.006709081183039586,0.0032317877739647047,170675,95.2189577196163,0.0
31,6.731323957443237,379.66064374437747,15.023332260096431,414.1743412842947,321.162825180932,6.25,1.4334789220605955,0.1,0.011786699295043945,0.34696078300476074,0.049776997,0.07901809,247.78256280760326,-0.10987344487941127,3.784293221787255,6.25,9600,1.4896905422210693,0.0022319583755493187,0.0017044636548661865,180275,127.73561350374197,0.0
32,7.168411731719971,380.36215642683857,11.764920315070013,401.7508408877806,317.500813848331,2.0833333333333335,1.566251653851499,0.1,0.012719154357910156,0.3865511417388916,0.0505854,0.063180335,261.04052216952675,-0.10827537816149617,3.791307955171837,2.0833333333333335,9600,1.3769786357879639,0.0018760839856122086,0.0015422546420241778,189875,63.16430859457619,0.0
33,7.1546385288238525,378.92760136915194,23.747346963582295,418.1322818303687,272.19778487877227,9.375,1.623312115673763,0.1,0.01141810417175293,0.32919907569885254,0.044612397,0.052754056,272.8292300894893,-0.10886791457387292,3.7773820854261273,9.375,9600,1.470505714416504,0.007512461803473043,0.006284891295519895,199475,50.193320600891326,0.0
34,6.958452939987183,387.5435162033161,18.358847740697136,414.25522371833756,268.5988542654161,17.708333333333332,1.5215212009825674,0.1,0.013592004776000977,0.3498375415802002,0.050502393,0.065370224,284.30065870087196,-0.10812692106432498,3.8631230789356756,17.708333333333332,9600,1.462756872177124,0.003241623894461659,0.0023244742474605104,209075,90.62405493265254,0.0
35,7.235201120376587,386.4119945059712,30.56660350881425,421.94753528711794,207.82902306561718,35.416666666666664,1.5838023381163795,0.1,0.012041091918945312,0.28007006645202637,0.050546702,0.056826014,294.5117922813819,-0.10694273049236451,3.851807269507636,35.416666666666664,9600,1.448909044265747,0.005581472269387862,0.004965406958754275,218675,82.96518719175181,0.0
36,6.564224720001221,392.2112631811511,27.05056098190959,438.8637386483899,264.55312070775216,42.708333333333336,1.4801822931028108,0.1,0.015872955322265625,0.343677282333374,0.051378325,0.07102386,304.2817393713588,-0.10686472533003272,3.910218608003301,42.708333333333336,9600,1.469813585281372,0.005406056244283154,0.004968396898806376,228275,95.56278796716265,0.0
37,7.2735068798065186,396.1536898194484,25.489246672511623,466.5153978328831,264.5335745536975,46.875,1.6353335175657626,0.1,0.010624885559082031,0.23578834533691406,0.050785717,0.06491944,313.4689344161678,-0.10619419391530184,3.9492224727513645,46.875,9600,1.4136357307434082,0.005093095191740122,0.004539071144057783,237875,103.26394201383178,0.0
38,6.7557213306427,404.80669737682086,22.56621387266595,458.93237192669596,328.8300895686667,66.66666666666667,1.6267351853010452,0.1,0.010545969009399414,0.27858924865722656,0.050812982,0.062876984,322.60271071223315,-0.10424789772658044,4.0357521022734195,66.66666666666667,9600,1.413602352142334,0.003302580206115467,0.0026357756003321927,247475,123.49780725296837,0.0
39,7.076965093612671,407.0732736030168,24.779471933978563,463.5191136513572,300.6182084076494,69.79166666666667,1.4770370105437989,0.1,0.010648965835571289,0.3795762062072754,0.05214512,0.065316655,331.0497670013115,-0.1024127006337125,4.058837299366288,69.79166666666667,9600,1.416358470916748,0.003066722138791178,0.0026240370803454313,257075,151.89215632220387,0.0
40,7.059942007064819,411.1723506221586,29.556074777663042,482.8771096625525,297.109011873136,73.95833333333333,1.3399940131478394,0.1,0.009919404983520508,0.2890474796295166,0.050102063,0.07916596,339.06202536339623,-0.1005940668536851,4.099822599812982,73.95833333333333,9600,1.4166505336761475,0.004866224953567294,0.004330333219118998,266675,191.96729314100796,0.0
41,6.685788154602051,417.3668448205917,24.771845643034613,472.00903510080593,365.54533323916246,78.125,1.3502965492545889,0.1,0.00926971435546875,0.2797408103942871,0.050967682,0.076933146,346.8925073091158,-0.09990280980429318,4.161347190195706,78.125,9600,1.4281108379364014,0.003719835815967331,0.0028411575020454234,276275,99.41127443832589,0.0
42,6.645134449005127,427.1447547078542,35.11327140609262,556.7305203292268,349.9958092865714,77.08333333333333,1.530980155907285,0.1,0.011915445327758789,0.2645113468170166,0.05132102,0.06358721,354.91773204898965,-0.0975343694550078,4.259548963878325,77.08333333333333,9600,1.6171414852142334,0.006480301553095248,0.005287961769321629,285875,389.5501160706688,0.0
43,6.539041042327881,436.6188012488812,44.97080168216262,564.8427016022143,324.58003005481794,81.25,1.5977599923693466,0.1,0.011862039566040039,0.3401768207550049,0.05050969,0.06427431,363.0878389689788,-0.0944672132631718,4.354282786736828,81.25,9600,1.461775779724121,0.009837878428465157,0.009525904750251786,295475,159.86786320142923,0.0
44,6.964946508407593,443.3202662126537,45.12174004046188,613.6962847938794,354.011304568523,80.20833333333333,1.665891055911724,0.1,0.010292768478393555,0.306520938873291,0.04786965,0.061806858,371.1110816933463,-0.09204000401556452,4.420876662651103,80.20833333333333,9600,1.439129114151001,0.011387102664633348,0.009599596650097887,305075,151.51345503378678,0.0
45,6.989774942398071,455.61417357924284,61.554174350871406,694.1688408392974,358.9981212680661,82.29166666666667,1.7047898596681723,0.1,0.010896921157836914,0.31800341606140137,0.05003853,0.058590554,379.56139088193595,-0.08868789091710307,4.543812109082897,82.29166666666667,9600,1.470261573791504,0.020300649915094816,0.018349444773585948,314675,85.94776963702489,0.0
46,6.817158222198486,445.9580250083355,57.49691459464764,674.006696481932,338.48198209742895,75.0,1.5058466072162213,0.1,0.012941837310791016,0.22170376777648926,0.049256794,0.0674834,386.2010542945759,-0.0885912619435475,4.447242071389785,75.0,9600,1.4442791938781738,0.017184996465221473,0.01475311158343083,324275,175.70882457207756,0.0
47,7.115990400314331,479.85677302828134,70.43911613766332,665.7077095223718,293.28916464025866,93.75,1.631394740979355,0.1,0.009931325912475586,0.30804872512817383,0.049688395,0.06207618,395.5666261679465,-0.0854282248980905,4.786655108435243,93.75,9600,1.468564510345459,0.02869416096261822,0.022301067082627284,333875,200.28326402657595,0.0
48,7.475806951522827,494.065078296808,82.75067144616999,746.5789385592277,353.44053926238354,85.41666666666667,1.8630721598030222,0.1,0.012501716613769531,0.3225417137145996,0.05079291,0.052371725,405.4164713808326,-0.08251606816352551,4.927900598503141,85.41666666666667,9600,1.4451444149017334,0.031670493975875985,0.02955390550375712,343475,195.7450130754608,0.0
49,7.050709247589111,508.25082082567405,88.69959549528892,726.5412220351105,340.84828088786844,90.625,1.7189719077019263,0.1,0.009627580642700195,0.3391716480255127,0.050932635,0.061307874,415.69990632531676,-0.08151304516948639,5.0689036214971805,90.625,9600,1.4017505645751953,0.03288208562315871,0.03071605459754954,353075,179.7918022647314,100.0
50,7.032822608947754,513.5067196571896,85.02668357247487,706.3096566560519,378.3674126023072,92.70833333333333,1.8039277637060043,0.1,0.009832382202148438,0.22468185424804688,0.049781427,0.0549477,425.4805876585041,-0.0814499817365677,5.122300018263432,92.70833333333333,9600,1.4140193462371826,0.02971527542242086,0.028875380394955016,362675,176.20224084715423,0.0
51,7.083425045013428,538.8846839248077,98.26298638459944,754.6679857298492,314.3719657206629,93.75,1.788852249523045,0.1,0.009774923324584961,0.2953765392303467,0.050645072,0.055321857,436.82099728513447,-0.07726637858438894,5.374816954748944,93.75,9600,1.4037525653839111,0.04026039674424763,0.03228393906682163,372275,126.912509298566,0.0
52,6.535809278488159,539.7468987352914,93.64849431359634,758.1153013949379,382.45571364121906,96.875,1.7737797089560445,0.1,0.009977340698242188,0.33240461349487305,0.050479177,0.054747213,447.1135874301502,-0.0769660656938372,5.384283934306164,96.875,9600,1.4135723114013672,0.030844138888523352,0.029351931486280167,381875,150.83374637917638,0.0
53,7.108513355255127,559.7122801514664,91.13423177202952,734.802217118252,349.00376613901926,97.91666666666667,1.6857197355345777,0.1,0.010194778442382812,0.26245975494384766,0.04841787,0.05780059,458.3734567022818,-0.07605614850190871,5.583527184831425,97.91666666666667,9600,1.403010606765747,0.030139049487149308,0.02571319259875384,391475,105.58271544014823,0.0
54,7.066419839859009,561.0965912492998,96.30271916465358,734.2248466101157,378.50016768143763,94.79166666666667,1.6076012046201402,0.1,0.01013636589050293,0.30607175827026367,0.050416637,0.058992088,468.64577015698364,-0.07639926450009452,5.595684068833239,94.79166666666667,9600,1.411484718322754,0.026206496031660503,0.023227270023659163,401075,97.40622325140619,0.0
55,7.5857093334198,614.1238242877536,88.21145541504833,762.661721827248,394.6545817919864,97.91666666666667,1.8656455488095842,0.1,0.01003575325012207,0.2715442180633545,0.050685667,0.05341186,483.19357557006066,-0.07072767025295461,6.125938996413713,97.91666666666667,9600,1.3939483165740967,0.027620066495678768,0.02121325550650581,410675,118.09465553245829,0.0
56,6.996444225311279,613.0470209069476,82.57339741988885,730.0473042437726,390.9497286178977,97.91666666666667,1.9250103621417596,0.1,0.011047840118408203,0.2767915725708008,0.049490232,0.049021296,496.17892010374936,-0.07108461761337997,6.11391538238662,97.91666666666667,9600,1.3925459384918213,0.020324597892593367,0.018638618115894914,420275,138.0445705758108,0.0
57,8.202449321746826,634.4973751595942,95.07100617798359,766.3615003075936,418.97924585357754,100.0,1.7657544862881842,0.1,0.009841442108154297,0.3451662063598633,0.049239617,0.05285085,510.0107656093339,-0.07032221046482669,6.329261122868506,100.0,9600,1.5047047138214111,0.021846687776587617,0.019255269714866387,429875,141.79121732260148,0.0
58,6.590147495269775,639.4353249846314,100.85474818685343,766.3650697307893,378.4919429806408,96.875,1.7931500675931136,0.1,0.009349346160888672,0.2708556652069092,0.04754673,0.052742638,522.9532215468637,-0.06969687010112431,6.377803129898875,96.875,9600,1.3877346515655518,0.02202389568817675,0.020499330878531383,439475,117.5284943777694,0.0
59,6.709624290466309,640.9304946112451,91.70871067906629,762.3046805361537,383.4407559479068,98.95833333333333,1.6544637437240055,0.1,0.009084939956665039,0.27844858169555664,0.047632057,0.05390974,534.7509488533019,-0.06974529447300996,6.393171372193656,98.95833333333333,9600,1.3972737789154053,0.018067857828418014,0.016878659082199602,449075,92.16594978304396,0.0
60,7.130204677581787,649.0371639642744,71.02840804727725,762.272832320753,383.86531051972855,98.95833333333333,1.7850808827474025,0.1,0.009124279022216797,0.22107791900634766,0.04843598,0.05323002,546.1795703643992,-0.06868409436333782,6.472149238969995,98.95833333333333,9600,1.4099500179290771,0.013024079943665565,0.011538926721335562,458675,97.42919816124487,0.0
61,6.690897226333618,644.008846193625,87.27111239186225,758.5570258604552,424.28929701672814,100.0,1.7359372720943074,0.1,0.010170698165893555,0.3300964832305908,0.04530741,0.05046093,555.9624979473217,-0.06896529724958937,6.42353470275041,100.0,9600,1.4050652980804443,0.017315133791276242,0.015782086156181145,468275,96.85953124399123,0.0
62,6.864171981811523,662.774536038147,78.02825705090484,758.3632946966976,431.1752018094221,100.0,1.8570389313646676,0.1,0.013113021850585938,0.25356435775756836,0.049102116,0.050396983,566.6437017564042,-0.06797854217081283,6.610771457829187,100.0,9600,1.418844223022461,0.015278397646099418,0.012777580500413608,477875,25.725927173427053,0.0
63,7.023653268814087,674.5613065473292,75.75814258372385,766.3723891996349,382.58856090821683,98.95833333333333,1.660819847367807,0.1,0.009503841400146484,0.25403404235839844,0.04642794,0.05158088,577.4354622354967,-0.06761516201544653,6.727801504651221,98.95833333333333,9600,1.4614553451538086,0.011175847352956288,0.009800075687895978,487475,75.95625249488835,0.0
64,6.79503607749939,675.9184871974147,81.07862666644617,762.4466771168111,403.6090612282355,100.0,1.830284268625956,0.1,0.009061574935913086,0.21995973587036133,0.046890296,0.04866376,587.2837647316886,-0.06737206062350151,6.7417946060431655,100.0,9600,1.4209306240081787,0.013887419349144085,0.012923472690683202,497075,23.381403264761538,0.0
65,7.178794622421265,694.7377383048012,54.6600975442624,766.7674027991111,464.26210543323134,100.0,1.681334636589974,0.1,0.009011030197143555,0.2200467586517334,0.048769046,0.05789493,598.0291620889999,-0.06626930497705087,6.9291473616896155,100.0,9600,1.401061773300171,0.007825439321358098,0.006701653735360867,506675,11.442605302754345,0.0
66,6.907423734664917,700.6920931864082,64.73514056036147,766.6885747564444,378.977938945805,98.95833333333333,1.5970744649483974,0.1,0.009895086288452148,0.24352073669433594,0.049469613,0.059980247,608.2954551987407,-0.06547541747954033,6.989107915853793,98.95833333333333,9600,1.3556554317474365,0.007462704354417439,0.0066319708449842345,516275,21.396511513132786,0.0
67,7.174823045730591,709.1262291246458,61.19981116637864,766.5923200477301,456.0585031099117,100.0,1.6328701780473729,0.1,0.01018524169921875,0.2609546184539795,0.049243473,0.058190048,618.3785325913312,-0.0648832226368503,7.0734501106964816,100.0,9600,1.3303461074829102,0.007202447002170817,0.006435378674602867,525875,17.624439101872582,0.0
68,6.581615209579468,703.6143050171678,57.79313240998361,766.7205585310182,489.08574708838125,100.0,1.7444065584647324,0.1,0.009000062942504883,0.22220444679260254,0.049560495,0.051919125,626.9021098339149,-0.06500217095973203,7.0183311623736016,100.0,9600,1.3077590465545654,0.0078053498913119536,0.006686532518201974,535475,19.522348846133447,0.0
69,6.720126152038574,715.0959474221495,55.74761297827591,770.8753624588544,468.95307465016674,100.0,1.5502521213531217,0.1,0.00937342643737793,0.33392834663391113,0.049301043,0.05968621,635.7214935927384,-0.0639389325000631,7.132311067499937,100.0,9600,1.3533093929290771,0.006716803741804916,0.006314630072962474,545075,75.71469665673906,0.0
70,6.686149597167969,694.4702373255292,83.68055690234456,766.6304596868056,432.21540715886954,100.0,1.633863991256491,0.1,0.009298563003540039,0.32175755500793457,0.04946694,0.053870127,641.5963679660175,-0.06519384047499403,6.92688949285834,100.0,9600,1.3533451557159424,0.012142771776292981,0.009559752557939017,554675,17.21709979989327,0.0
71,6.879210948944092,715.3456154893187,58.15519964203299,766.6427608405418,427.3944792542814,100.0,1.5560846094536085,0.1,0.011414051055908203,0.23277974128723145,0.04809453,0.057512555,648.9712927183476,-0.06393908399395694,7.13522758267271,100.0,9600,1.3838350772857666,0.005729242233433984,0.005326009552343298,564275,10.548686136269986,0.0
72,7.3062262535095215,717.806486826502,41.0480566592939,770.5750501770734,508.9535479188082,100.0,1.5932932152936499,0.1,0.010744571685791016,0.2570230960845947,0.049672443,0.061626714,655.8548121291631,-0.06391351519228608,7.1602531514743815,100.0,9600,1.4845407009124756,0.004005037358891073,0.0033074188675842253,573875,18.10700006040763,0.0
73,6.8758385181427,726.9438648434952,51.13217188626425,766.7330313706425,480.7493719391614,100.0,1.6194678257166584,0.1,0.009665966033935547,0.2364063262939453,0.04806056,0.055565413,662.9637174005962,-0.06295936959247354,7.252457297074192,100.0,9600,1.4104111194610596,0.00481855788409687,0.004215432554422361,583475,25.99269222503942,0.0
74,7.425001621246338,735.3973881634497,56.213332676880846,770.8635212675251,431.80456794973054,100.0,1.8129666065732097,0.1,0.010610818862915039,0.29921388626098633,0.046205692,0.04839073,670.2070844768816,-0.0621770936445172,7.335322906355484,100.0,9600,1.4192707538604736,0.004624543236469435,0.003896014110525129,593075,30.14636423945001,0.0
75,7.312287330627441,741.7165696629514,37.60972172909617,771.0642971979005,569.8495834070134,100.0,1.6747012076572,0.1,0.008983135223388672,0.22079229354858398,0.051120475,0.057064556,677.3580329954887,-0.06106837251309544,7.398098294153571,100.0,9600,1.4246060848236084,0.003295127409334661,0.003009761788729235,602675,33.868274890586086,0.0
76,7.3585288524627686,740.2501459712215,50.20649417206863,770.8649940700923,424.2523602351614,100.0,1.9517394488506687,0.1,0.009725093841552734,0.2811715602874756,0.05025549,0.04650638,683.6472442930619,-0.06157211426609549,7.383427885733905,100.0,9600,1.4574737548828125,0.003944482223236787,0.003655244288874402,612275,21.490659615495005,0.0
77,7.231079816818237,739.9809284622746,53.49650121797087,770.5147829462684,400.5479791753884,98.95833333333333,1.7017642600225522,0.1,0.011255979537963867,0.25977253913879395,0.04913212,0.049167518,689.2806127099832,-0.061345438720218526,7.3815712279464485,98.95833333333333,9600,1.6224210262298584,0.004349676729236855,0.00392594168764432,621875,43.59577657116601,0.0
78,7.300914764404297,736.2190034098908,63.76737755026617,771.1484303172394,439.24708975075674,100.0,1.625721181500635,0.1,0.009372234344482422,0.2870445251464844,0.049824644,0.053766236,693.974451779974,-0.06146568007046865,7.3431176532628655,100.0,9600,1.7031478881835938,0.006027919524267906,0.004554063424944609,631475,30.74926050558596,0.0
79,7.058779001235962,742.3663355437969,45.72860202934935,771.1406938048833,459.95872328494215,100.0,1.6986317302917286,0.1,0.008894205093383789,0.2151501178741455,0.0502075,0.05440056,698.8136401563563,-0.06082746366823957,7.4045892029984275,100.0,9600,1.4239842891693115,0.0038269298433087403,0.0031512249204883693,641075,22.314907699863184,0.0
80,6.7246644496917725,746.859964970381,35.76947361878981,766.9878127303418,480.6244109854057,100.0,1.6390576399048395,0.1,0.009237289428710938,0.2218766212463379,0.04923035,0.056891453,703.6182726377588,-0.06047289529374202,7.449527104706259,100.0,9600,1.419668197631836,0.0026932461323484805,0.002558840539213384,650675,26.14372088390759,0.0
81,7.595073461532593,749.7342554233688,30.849835256989092,771.0284062018465,529.2138258835939,100.0,1.7744866871668978,0.1,0.009098052978515625,0.23643708229064941,0.049423285,0.05143882,708.2298709163199,-0.060477207951151024,7.478689458715515,100.0,9600,1.4271769523620605,0.001973543189070166,0.0014432003302160261,660275,22.734810821241663,0.0
82,7.22612452507019,746.5540849485666,46.62518569139644,771.0503327132631,451.89125896949633,100.0,1.6496455268300523,0.1,0.009783267974853516,0.2810811996459961,0.04908434,0.051586743,712.0622923195447,-0.06061877414381019,7.446464559189525,100.0,9600,1.4569048881530762,0.0035492833984370454,0.003309383809661267,669875,31.986256560520207,0.0
83,7.3580687046051025,746.1821388691706,49.763236027347716,770.9656402245578,471.60992942932165,100.0,1.6224249959645078,0.1,0.009691715240478516,0.30708885192871094,0.049526863,0.05624807,715.4742769745072,-0.060583636461961715,7.4427496968713704,100.0,9600,1.4500176906585693,0.0037287319744484936,0.0030198165293946326,679475,39.38501264271148,0.0
84,7.453225612640381,747.722155095295,38.47427896196017,770.8511251289146,533.2898375524871,100.0,1.5008666877800694,0.1,0.010200023651123047,0.2248072624206543,0.04680333,0.056246974,718.699064786586,-0.06018320495422841,7.458150128379105,100.0,9600,1.4175865650177002,0.0023773174053546304,0.0018313774957954354,689075,30.17767649099587,0.0
85,7.3192949295043945,752.9259768457686,28.954150742677967,771.108658965734,549.3596549056718,100.0,1.7895520044109625,0.1,0.010144948959350586,0.2337019443511963,0.049502965,0.051474467,722.1217559925043,-0.060229571833788464,7.510603761499545,100.0,9600,1.387554407119751,0.001829330998283947,0.0014901094462091429,698675,35.57423012022889,0.0
86,6.7532525062561035,750.8215534725485,41.50517688713345,770.8668549145318,480.5867738069113,100.0,1.5650674140880696,0.1,0.008958101272583008,0.23722553253173828,0.048851416,0.05859691,724.9917357405088,-0.06002280194168613,7.489560531391647,100.0,9600,1.3966007232666016,0.0036298194950306934,0.0026751206334184358,708275,34.14325741488339,0.0
87,7.1931304931640625,751.6245078371936,33.65797350330937,770.3118493095424,528.6900648154084,100.0,1.6840504108410836,0.1,0.010302066802978516,0.22574949264526367,0.047332272,0.048935123,727.6550129501774,-0.0599114394496593,7.497171893883674,100.0,9600,1.4013092517852783,0.002138258825981361,0.0017210545630870452,717875,96.16323110578644,0.0
88,7.259415626525879,755.228198155492,38.756804328902476,771.0147055202447,484.36655142228255,100.0,1.714804034227183,0.1,0.009736299514770508,0.2647249698638916,0.052764684,0.04585696,730.4123314707088,-0.059289609286068544,7.533210390713932,100.0,9600,1.39237380027771,0.002237877637470606,0.001981797411751806,727475,96.30864089261591,0.0
89,6.645979404449463,754.6661728180588,26.960583193689203,771.0481081120581,569.5143002436504,100.0,1.697667332789598,0.1,0.009571075439453125,0.2261652946472168,0.048156664,0.051115733,732.8377156054437,-0.059494156630556995,7.528005843369443,100.0,9600,1.3997690677642822,0.0016071722351909275,0.0013462524111204316,737075,92.46691576734091,0.0
90,7.2550976276397705,755.518929767189,26.701984485263377,771.1074216952601,549.432852714459,100.0,1.7306964791208246,0.1,0.01181483268737793,0.2932858467102051,0.048204295,0.052580018,735.1058370216183,-0.059719706456246864,7.5361136268770865,100.0,9600,1.3609185218811035,0.0013963735023875144,0.001106031360884587,746675,112.86959546126546,0.0
91,7.127783536911011,755.9962653066067,18.96543535451918,771.018761363552,653.9598297140176,100.0,1.850004843265444,0.1,0.009268760681152344,0.24480342864990234,0.05110667,0.04935859,737.1948798501171,-0.059528362433538144,7.540888304233128,100.0,9600,1.3418936729431152,0.0008839250506737015,0.0007466387594932822,756275,169.80013258657831,100.0
92,7.341628551483154,757.2754576082492,22.434730003891378,771.3849979313759,617.5738909899926,100.0,1.7872863007790925,0.1,0.009118795394897461,0.25470924377441406,0.049652584,0.049450696,739.2029376259303,-0.05881961642486553,7.553680383575134,100.0,9600,1.3439221382141113,0.001194826201470734,0.0009850230040023807,765875,166.38953554357326,100.0
93,7.365238428115845,757.269370036755,29.49232668490093,771.1870903583704,557.4606571533704,100.0,1.8497853432957525,0.1,0.012212753295898438,0.2263495922088623,0.050117157,0.050012894,741.0095808670128,-0.058880685468590634,7.553619314531409,100.0,9600,1.3508248329162598,0.0019177786442298587,0.0014840548121913923,775475,149.87372621181746,100.0
94,7.265632152557373,753.3490734978704,40.859151708819795,771.0897170091419,459.91202708900823,100.0,1.6471252015660758,0.1,0.01318502426147461,0.22571325302124023,0.047208395,0.048543334,742.2435301300986,-0.059330763283033466,7.514419236716965,100.0,9600,1.3637113571166992,0.002298690067571705,0.002089696679135531,785075,133.78007271037652,0.0
95,7.360365390777588,764.5167004466315,7.0816114254939055,771.1236127249347,726.3315558051904,100.0,1.6478768352636923,0.1,0.009694337844848633,0.23722362518310547,0.050369747,0.06810636,744.470847161752,-0.05849063738920963,7.6260926959441235,100.0,9600,1.3685534000396729,0.0004828117730834232,0.00020540533251355394,794675,129.54581849316935,100.0
96,7.140621662139893,763.5521027533837,7.671583561436349,770.9646961049618,730.2953142741268,100.0,1.8349101540431338,0.1,0.011207103729248047,0.25355982780456543,0.049301688,0.04885165,746.3789727209152,-0.058135969966632554,7.6164473633667,100.0,9600,1.594670057296753,0.0002133007190023612,0.00021980216843625074,804275,178.4576118083228,100.0
97,6.86457085609436,759.9703571168735,26.42923154346533,771.1859484720295,533.4528992283322,100.0,1.6415031581018025,0.1,0.009268999099731445,0.24985527992248535,0.050372057,0.047467664,747.7381111605109,-0.05811999244847738,7.580630007551523,100.0,9600,1.36649489402771,0.001308364672337825,0.0011217227696053759,813875,170.1017892487071,100.0
98,6.927509307861328,759.0448538974784,38.704360288311236,771.3072545573581,500.71539948297556,100.0,1.6364291260955162,0.1,0.009296655654907227,0.2171313762664795,0.05017094,0.052537676,748.8687854342077,-0.058208097556704134,7.571375235776629,100.0,9600,1.3618712425231934,0.002650057997079284,0.001808749374147053,823475,182.71901729092573,100.0
99,7.068820476531982,758.1911596285289,37.9865081832318,771.1809231287399,467.99305353827737,100.0,1.7575448962017075,0.1,0.009946823120117188,0.2175765037536621,0.04604666,0.046165045,749.8010228536398,-0.05841054063366733,7.562839459366334,100.0,9600,1.3495070934295654,0.002374280684247066,0.001901001766439544,833075,186.75906895918058,100.0
100,6.68453049659729,764.3354191243785,13.3757330588122,771.1610932316738,674.0157426030192,100.0,1.6902803504691075,0.1,0.009442567825317383,0.2220308780670166,0.04771925,0.05620162,751.2544624807136,-0.057801908200603096,7.624698091799396,100.0,9600,1.4031579494476318,0.0007371225904335292,0.0005348916725442898,842675,195.13659428191949,100.0
101,6.990507364273071,765.4324937465381,6.992186287613092,771.1163571415085,734.4325053911608,100.0,1.7899394149080599,0.1,0.013906478881835938,0.22796225547790527,0.049871404,0.054676875,752.672265607296,-0.05766760770116728,7.635249058965499,100.0,9600,1.3790011405944824,0.0003657462693958205,0.00019029135411212047,852275,199.0148986167677,100.0
102,7.073009967803955,761.2673328116153,30.855682795315815,771.2571778371587,476.3527190275864,100.0,1.876804352088648,0.1,0.00938868522644043,0.230560302734375,0.049766697,0.043753877,753.531772327728,-0.057651915761654265,7.594014750905013,100.0,9600,1.3711013793945312,0.0019070150445732394,0.0014256241766285348,861875,162.18152285040006,100.0
103,7.245642423629761,765.602529633214,8.919007266786805,771.4000407617846,722.5846434941135,100.0,1.7688164741254366,0.1,0.011139154434204102,0.21473073959350586,0.049005385,0.058439273,754.7388480582767,-0.05722075900559376,7.636945907661072,100.0,9600,1.3448905944824219,0.0003701037008495531,0.00023440678010310515,871475,162.2546913327509,100.0
104,7.19632363319397,762.649100152546,38.7694033679408,771.2019418003027,460.85759543727846,100.0,1.6142110084577002,0.1,0.014252185821533203,0.2361314296722412,0.050422724,0.044938877,755.5298732677037,-0.05758470287220572,7.607831963794461,100.0,9600,1.414790153503418,0.0024107711860703917,0.0014289406203740022,881075,158.32621677691995,100.0
105,7.291331768035889,766.5293553077641,6.181025702223274,771.4315785185706,734.2934734858754,100.0,1.6602647180184817,0.1,0.00923609733581543,0.21342921257019043,0.048987042,0.05709424,756.6298214717098,-0.05670168573474302,7.646214980931924,100.0,9600,1.3860523700714111,0.0002919668311373958,0.00011087460580900737,890675,162.23003804263806,100.0
106,6.781513214111328,763.3184302612023,20.218778511390898,771.3105309118544,625.917962517518,100.0,1.7169175477704322,0.1,0.00858306884765625,0.21621489524841309,0.04923292,0.04693236,757.298682350659,-0.057145588552440084,7.61410441144756,100.0,9600,1.383561611175537,0.000683656736109393,0.0006120383348460903,900275,182.7582405854494,100.0
107,7.337824106216431,764.0984387683975,12.1903538041537,771.29228876474,697.8405344364231,100.0,1.7431825274809696,0.1,0.009799003601074219,0.31894755363464355,0.047073346,0.05103494,757.9786579924329,-0.0568414846668954,7.622325181999771,100.0,9600,1.4249844551086426,0.0005266070276209788,0.0004343083413160738,909875,186.9153140735257,100.0
108,7.19888710975647,767.4372382158599,5.635212760400516,771.3205941478169,738.4965622813833,100.0,1.8361560545682174,0.1,0.009902477264404297,0.305635929107666,0.04932407,0.054361656,758.9245160147756,-0.056372505662324345,7.655294161004342,100.0,9600,1.478980541229248,0.00013318308300171413,0.00010939872876443995,919475,170.59581963746106,100.0
109,6.810785293579102,765.6218015834361,32.367464216129115,771.5183584241053,451.75971663355676,100.0,1.754331249241153,0.1,0.009415388107299805,0.3049190044403076,0.05032563,0.03787572,759.5942445716416,-0.05618834457439636,7.637561655425603,100.0,9600,1.4572629928588867,0.001110825236613979,0.0009453993771521427,929075,150.21490852156305,100.0
110,6.780074596405029,766.7983845391674,7.953600318031751,771.2425502980169,718.3678777028882,100.0,1.7475651783083894,0.1,0.00916290283203125,0.2322554588317871,0.049217083,0.053147066,760.3146585683943,-0.056512634358605755,7.648904032308061,100.0,9600,1.4487028121948242,0.0002708175788895924,0.0001928812100587585,938675,150.32107017935792,100.0
111,6.862078905105591,763.4855598134445,32.46523076757624,771.2994280965595,464.9596115143727,100.0,1.5846849360620103,0.1,0.009566068649291992,0.3155224323272705,0.050401557,0.04566854,760.6317486928994,-0.056723004741226137,7.6157769952587735,100.0,9600,1.449509859085083,0.0014303086662634682,0.0011810336867181606,948275,162.72926098073935,100.0
112,7.226272821426392,767.913996530356,6.043261134873313,771.1970338358198,726.8853736305387,100.0,1.7992863421530336,0.1,0.009787559509277344,0.2774648666381836,0.049660016,0.05869251,761.359973476645,-0.05660209471901407,7.660064571947653,100.0,9600,1.4737868309020996,0.0004546502277461428,0.00011557726156292431,957875,158.52542470995772,100.0
113,8.014657020568848,766.9669516933336,8.556958468756445,771.2580233475267,706.188938925643,100.0,1.8461868796795486,0.1,0.01246953010559082,0.22099781036376953,0.0496946,0.049687106,761.9206712983139,-0.0564913725869951,7.650591960746337,100.0,9600,1.4837164878845215,0.00022980267745346028,0.00021039491882939612,967475,175.36186281912418,100.0
114,7.1129090785980225,765.8360665786695,13.987944038828742,771.2491705162823,657.9727576828026,100.0,1.836741868086041,0.1,0.01434636116027832,0.40428924560546875,0.04818614,0.049746394,762.3122108263495,-0.05655150343178516,7.639281829901549,100.0,9600,1.4918298721313477,0.0004151916899062298,0.00046590864044445963,977075,188.09181753222947,100.0
115,7.133532524108887,767.335568832988,7.524578645314444,771.3165150912027,730.6061068841042,100.0,1.7974909117327948,0.1,0.01220393180847168,0.2721848487854004,0.04766975,0.055749696,762.8145466270133,-0.05655448086457462,7.654278852468759,100.0,9600,1.7167365550994873,0.00030115935126070613,0.00019893743148232507,986675,224.3969115386953,100.0
116,7.449654579162598,767.2679989133975,6.5796812830877025,771.2356304761491,738.6236326921166,100.0,1.7549944766406624,0.1,0.009465456008911133,0.2818605899810791,0.049868718,0.051740207,763.2598918556517,-0.057232754699391784,7.653600578633942,100.0,9600,1.4907500743865967,0.0001947873979277475,0.00015532361003884937,996275,196.0552725842306,100.0
117,7.455066919326782,768.758045120591,5.197862233690664,771.2344540990894,734.5165843084865,100.0,1.7613710009414816,0.1,0.010262489318847656,0.313931941986084,0.050494935,0.053440038,763.8097071821456,-0.056495531701014345,7.668504468298985,100.0,9600,1.4965810775756836,0.00011260857712298688,8.355509140366905e-05,1005875,220.25462026631695,100.0
118,6.904480695724487,764.9392001374003,24.89944993083918,771.3223059515458,540.5690945672328,100.0,1.636623427539675,0.1,0.009166240692138672,0.2251148223876953,0.048783127,0.04591514,763.9226564776711,-0.056767961949261016,7.6303153713840715,100.0,9600,1.529444694519043,0.0010757884257614747,0.0007711816010138027,1015475,232.60822507744209,100.0
119,7.225910663604736,768.857235971809,3.6202813799667495,771.2646812365311,750.5738763485735,100.0,1.8087834468552781,0.1,0.01012110710144043,0.3273890018463135,0.049793612,0.05782811,764.416114427085,-0.05633836902461553,7.6694949643087185,100.0,9600,1.4465842247009277,0.0001836384607305042,7.916590186964241e-05,1025075,212.1283505489213,100.0
120,7.329412460327148,765.5305215146672,31.111357499509495,771.2227485254043,468.51678135440386,100.0,1.407101493063396,0.1,0.009666204452514648,0.22053241729736328,0.048373688,0.04583164,764.5275551358432,-0.0566900897208234,7.636643243612511,100.0,9600,1.5013198852539062,0.0016582719884169152,0.0008438841697049452,1034675,200.055640723419,100.0
121,7.0685715675354,766.5173905451284,28.37648152276176,771.392684693616,492.255679677299,100.0,1.7045981186824695,0.1,0.011528491973876953,0.25947022438049316,0.049764227,0.045333546,764.7265386767717,-0.056820208203831435,7.646096458462836,100.0,9600,1.7436308860778809,0.001105902887239251,0.0009390367404268246,1044275,175.59649470413922,100.0
122,8.326221466064453,767.4180086565788,9.338559525216851,771.2508540027401,714.095263738674,100.0,1.6865584508765115,0.1,0.011429309844970703,0.2741985321044922,0.049960196,0.051624566,764.9956856747524,-0.057394877968416746,7.655105122031583,100.0,9600,1.5939254760742188,0.00024614470875310526,0.000184597929835279,1053875,196.09485522045026,100.0
123,7.286115407943726,767.4361462465745,7.795695587726844,771.2002903633935,726.7019684330149,100.0,1.659942931493581,0.1,0.00944209098815918,0.24918484687805176,0.049407538,0.0536291,765.2397317319346,-0.05721366716208955,7.65528633283791,100.0,9600,1.498199462890625,0.00016260833563211855,0.00010649353660886208,1063475,179.52740663110797,100.0
124,7.0582263469696045,768.4026428429701,4.826776916903667,771.2780819276908,742.5972154884065,100.0,1.7384245704328123,0.1,0.009489297866821289,0.3320944309234619,0.04859095,0.057967365,765.5560228430381,-0.0567168719971247,7.664949794669542,100.0,9600,1.5068824291229248,0.00011299359399216793,8.633739502887383e-05,1073075,240.55486502194674,100.0
125,7.407822847366333,766.2530349278189,34.039997014119635,771.385023300231,435.8209732442441,100.0,1.408871254344816,0.1,0.009720087051391602,0.22208023071289062,0.049069185,0.041979756,765.6257240515163,-0.05612763501513606,7.6434556983181965,100.0,9600,1.5219848155975342,0.0010768158763486187,0.0007373094574948349,1082675,232.32543609799131,100.0
126,7.315068006515503,769.6554153682833,2.44314008036163,771.2919658120406,758.8237529747178,100.0,1.6272768493511574,0.1,0.010499238967895508,0.31885838508605957,0.049537484,0.0651586,766.028693183193,-0.05627401834560999,7.67747598165439,100.0,9600,1.4599361419677734,6.384977968277065e-05,3.234097320155307e-05,1092275,301.2309169760359,100.0
127,7.2148566246032715,768.4826261094325,5.77600099834305,771.2681976545108,742.7018205341548,100.0,1.8640799675919326,0.1,0.008765220642089844,0.23022246360778809,0.048714336,0.053205993,766.274086475817,-0.0563323434495333,7.665750989883801,100.0,9600,1.5429553985595703,0.00013547494706311617,0.00011582958915978046,1101875,442.0234750115889,100.0
128,7.400834798812866,768.6861260074262,4.417699162216845,771.3043788906607,746.6679798575499,100.0,1.777826507436863,0.1,0.009455442428588867,0.23999834060668945,0.049923826,0.053125177,766.5152904289779,-0.056382660050466715,7.667784006616199,100.0,9600,1.4982755184173584,7.786120138005597e-05,6.994138915675797e-05,1111475,285.08281064518724,100.0
129,7.134643077850342,769.4957669871529,4.520948870072876,771.2944164854881,730.6887082015352,100.0,1.688703379045829,0.1,0.008687973022460938,0.2164299488067627,0.049864803,0.04751742,766.8133380847954,-0.05620446276704046,7.675878870566293,100.0,9600,1.4431633949279785,4.006373608852294e-05,3.01868159265707e-05,1121075,297.12493234429166,100.0
130,6.8980536460876465,769.2232352603011,3.925879589816118,771.5602733443809,746.8892167057471,100.0,1.877644091217396,0.1,0.010245561599731445,0.337191104888916,0.049632534,0.04836533,767.054327802346,-0.05601151678306606,7.673155149883601,100.0,9600,1.4297630786895752,5.323051832411067e-05,5.270295531773734e-05,1130675,297.1673188554986,100.0
131,7.347530126571655,768.7685970904913,5.162622636596156,771.277122746305,746.7429869559159,100.0,1.79591739934993,0.1,0.01080179214477539,0.25879955291748047,0.0502782,0.049433347,767.2257547311606,-0.05597562261374748,7.668607710719585,100.0,9600,1.439223289489746,8.585273881802011e-05,9.691764044057614e-05,1140275,269.0639606998322,100.0
132,7.6966094970703125,769.5674257985411,5.10317786090269,771.3854765467835,730.5537928505897,100.0,1.8447220602751866,0.1,0.011574029922485352,0.41086864471435547,0.049131263,0.05056226,767.4599218378986,-0.05590200609268748,7.676597993907312,100.0,9600,1.4225876331329346,0.00012935832800792498,0.00012422688200700575,1149875,236.59963193709436,100.0
133,7.094648838043213,768.8885000415166,6.877377222883279,771.2883261230385,730.3900011246394,100.0,1.8386890652400487,0.1,0.011073589324951172,0.26703333854675293,0.048637625,0.04640811,767.6027796582604,-0.056024484987321245,7.669808848346011,100.0,9600,1.4208016395568848,0.00019075058793139167,0.00014509093733963875,1159475,252.85151953778904,100.0
134,7.3069798946380615,770.2601177338746,1.9766952731571628,771.3585126946621,762.6885743855329,100.0,1.8050448009079416,0.1,0.009405136108398438,0.2563619613647461,0.048620652,0.051916156,767.8685134658218,-0.05564163674912714,7.68352502991754,100.0,9600,1.4040765762329102,3.665489528981261e-05,1.8911978986880717e-05,1169075,264.86718610415807,100.0
135,6.794149160385132,769.3513025468941,4.625406263113718,771.4051165393419,738.7219661592675,100.0,1.8610659407421828,0.1,0.009032964706420898,0.28011631965637207,0.049297765,0.04785615,768.0167923739291,-0.055565140975023554,7.674434859024977,100.0,9600,1.3574929237365723,7.234907032900539e-05,6.795461633538124e-05,1178675,252.88847152411967,100.0
136,6.927555799484253,769.4663321378235,5.537412088024071,771.4488917744831,738.3074796607474,100.0,1.6230419167486505,0.1,0.010585784912109375,0.2527127265930176,0.048794124,0.05460554,768.1617463503185,-0.055250448353191095,7.675582884980142,100.0,9600,1.569718837738037,6.60711098055967e-05,6.399370537530235e-05,1188275,329.53207349263295,100.0
137,7.3390583992004395,770.0392935542504,6.29782502174984,771.4431839608444,710.3316290862674,100.0,1.5016880296010386,0.1,0.011344432830810547,0.2840559482574463,0.049513496,0.04950307,768.3495010707117,-0.0553532736009855,7.681313393065682,100.0,9600,1.4103729724884033,7.640662877918166e-05,5.993620746125851e-05,1197875,349.58627067078254,100.0
138,7.638475656509399,769.4213691690953,4.490774692437718,771.5160420525901,742.7089519081011,100.0,1.8998733024565235,0.1,0.011157751083374023,0.2589397430419922,0.0485502,0.047678933,768.4566878805501,-0.05528223340524332,7.675134433261423,100.0,9600,1.6318938732147217,6.490204173279464e-05,6.907906839564248e-05,1207475,361.8467009065871,100.0
139,6.939419746398926,769.2182286568641,7.197209860206528,771.3636072214897,714.1862828125905,100.0,1.6605455819233392,0.1,0.01509857177734375,0.2803380489349365,0.049816996,0.050087534,768.5328419581815,-0.055228780611688115,7.673104552721646,100.0,9600,1.4450819492340088,0.00014289508193302984,0.00012157823002332266,1217075,389.99975258815226,100.0
140,7.501270532608032,769.688664737468,4.5037132012979235,771.5166497267378,742.9477253739799,100.0,1.7757976159470734,0.1,0.01240396499633789,0.28667235374450684,0.04911869,0.054284673,768.6484242361103,-0.05511070842454791,7.677805958242118,100.0,9600,1.5697038173675537,0.00010315209219739957,4.802882239750064e-05,1226675,361.739331986787,100.0
141,7.5713183879852295,769.1368604573003,7.0013818394977125,771.4403395548101,722.7319972532625,100.0,1.6886192471597168,0.1,0.010766267776489258,0.2676072120666504,0.050586507,0.048219576,768.6972678582293,-0.05479584541041099,7.672287487922922,100.0,9600,1.613168716430664,0.0001255341821587371,0.00016437684976739055,1236275,442.8880751336616,100.0
142,7.06537938117981,767.0426757500537,21.004755020678314,771.5477542518166,589.9889260550442,100.0,1.6282833150483647,0.1,0.012417793273925781,0.29769039154052734,0.049895465,0.050528266,768.5318086474118,-0.05490266572936355,7.651347334270636,100.0,9600,1.4223051071166992,0.0012509435429222371,0.0008502940537963328,1245875,443.2872500959592,100.0
143,6.8461573123931885,770.660905005641,1.775375714491361,771.4857129388262,758.7810043985394,100.0,1.8366896435532256,0.1,0.017345905303955078,0.22290372848510742,0.04842927,0.054097984,768.7447182832348,-0.054554047425492025,7.68752928590784,100.0,9600,1.1511814594268799,0.0001365039495856398,3.285562234283699e-05,1255475,438.7439647975089,100.0
144,6.836717367172241,770.5827009995445,2.0542197909671382,771.5032345716706,755.080629183192,100.0,1.9277095176073282,0.1,0.008951425552368164,0.21636605262756348,0.049300753,0.051882487,768.9285165548658,-0.054919229579694195,7.686747437086972,100.0,9600,1.475966453552246,4.4682828921574566e-05,2.9697181514095662e-05,1265075,414.2804523584598,100.0
145,6.88932728767395,769.4167569744224,6.022886689456765,771.3872916835156,722.4015668493503,100.0,1.7864743871081668,0.1,0.00906515121459961,0.22241973876953125,0.049727038,0.046866793,768.9773405968215,-0.0553298681058435,7.675086798560822,100.0,9600,1.5086524486541748,7.619030767063977e-05,6.356753401210917e-05,1274675,337.73670149590606,100.0
146,7.301453351974487,769.7613237442168,4.17034565473592,771.3412547925105,742.6796879096777,100.0,1.979522616891189,0.1,0.00891733169555664,0.22237610816955566,0.050163396,0.046491135,769.0557389115611,-0.05563116323531558,7.678535503431351,100.0,9600,1.4661881923675537,7.280536215533646e-05,6.176001415436325e-05,1284275,406.1178149045653,100.0
147,7.24947452545166,769.9966964798074,4.159132467040867,771.5044035259331,746.8122860873389,100.0,1.9219682715267628,0.1,0.008960247039794922,0.32256054878234863,0.05020445,0.04583317,769.1498346683857,-0.055360631757619023,7.68088936824238,100.0,9600,1.4994313716888428,5.9121559320275484e-05,5.487762871235672e-05,1293875,438.3895893947167,100.0
148,7.200299501419067,768.4569877721573,9.252445035515306,771.3155253424144,706.4733249129558,100.0,1.5608811515906058,0.1,0.009287834167480469,0.23648595809936523,0.04868116,0.048708163,769.0805499787629,-0.05533841968403613,7.665911580315964,100.0,9600,1.387559413909912,0.00016776507801612476,0.00013090466321097978,1303475,438.28258354845315,100.0
149,7.429974555969238,769.3302427568341,6.4239119205829915,771.2972058207456,726.733423226238,100.0,1.8344177235794221,0.1,0.009709358215332031,0.3477950096130371,0.048828274,0.048581872,769.10551925657,-0.055360997281414644,7.674222336051919,100.0,9600,1.3582406044006348,0.0001322557943000452,0.0001070389427135875,1313075,438.7058014349995,100.0
150,7.394611835479736,769.0778325584361,11.9018350891723,771.3472659911405,657.9245855983731,100.0,1.5933968159009755,0.1,0.009113550186157227,0.22366905212402344,0.04915828,0.047876853,769.1027505867567,-0.05538617331946564,7.671697160013868,100.0,9600,1.3848750591278076,0.00032756558807809434,0.00020161181655955454,1322675,430.1267529671868,100.0
151,7.356483697891235,767.0076548847586,26.008454577216224,771.4854986787997,525.2657132728993,100.0,1.965933425467892,0.1,0.010019063949584961,0.3256866931915283,0.048514564,0.040400032,768.8932410165569,-0.055253674396354424,7.650996325603646,100.0,9600,1.365814447402954,0.001323928005147997,0.0009105234057785847,1332275,389.9357644278604,100.0
152,7.333601236343384,770.4405354872052,2.3207380450747075,771.4686518035147,758.7206059105727,100.0,2.0218628467349773,0.1,0.011161565780639648,0.2607412338256836,0.050269064,0.0507459,769.0479704636217,-0.05508978271943541,7.685326883947233,100.0,9600,1.5854802131652832,8.45383259600569e-05,3.088829658907838e-05,1341875,442.43385164483885,100.0
153,7.252909421920776,770.4445629986898,2.1828339594229846,771.5327122780766,758.8484569944649,100.0,1.7341370675188952,0.1,0.011507272720336914,0.39560556411743164,0.049636375,0.053655744,769.1876297171285,-0.05504449140679526,7.685788841926537,100.0,9600,1.5683538913726807,4.601944626243067e-05,2.371297385827882e-05,1351475,450.9077870453044,100.0
154,7.074579954147339,770.4987263582634,2.477972731345608,771.4512459635835,754.7862920600528,100.0,1.7287646755687154,0.1,0.009053468704223633,0.22343039512634277,0.049673747,0.049232855,769.318739381242,-0.055341962507664676,7.685908037492336,100.0,9600,1.400956153869629,2.3015793721187455e-05,1.85758241595333e-05,1361075,451.11233325369284,100.0
155,7.454501390457153,765.8362172362769,35.99832528146459,771.4064202499678,431.5380049666408,100.0,1.667502589385361,0.1,0.009345293045043945,0.23875904083251953,0.048665944,0.041386884,768.9704871667454,-0.055299341965848715,7.639283991367485,100.0,9600,1.3931643962860107,0.001640749851902343,0.0009564484513684191,1370675,446.60270333931885,100.0
156,6.890807151794434,768.249217554704,20.55157747751268,771.3468925230065,569.4842146391525,100.0,1.7721784338621183,0.1,0.008971691131591797,0.2344965934753418,0.04693905,0.045869127,768.8983602055414,-0.055339507058193044,7.663410492941806,100.0,9600,1.4438021183013916,0.0010628111181118407,0.0006271936648714162,1380275,430.3101449524941,100.0
157,7.5180277824401855,770.3803707801221,3.2091513496912856,771.3905080033837,750.8320033728053,100.0,1.869403764098574,0.1,0.009891510009765625,0.25662851333618164,0.049036685,0.056452632,769.0465612629996,-0.0548595470512822,7.684723786282052,100.0,9600,1.405470848083496,0.00012470150975151664,3.7683856582268574e-05,1389875,438.3317726928198,100.0
158,7.476921319961548,766.3706595625281,26.693962954355666,771.4290062698069,573.3279689789321,100.0,1.669669084468933,0.1,0.01067352294921875,0.22274255752563477,0.049601,0.04677973,768.7789710929525,-0.05536867676606819,7.645047989900598,100.0,9600,1.4266932010650635,0.0013882979826624466,0.0009038268632932431,1399475,438.64383714488855,100.0
159,7.5186450481414795,765.1559310116701,23.85996550377585,771.3921107324105,633.764127171609,100.0,1.6481569618820853,0.1,0.018468379974365234,0.3069727420806885,0.049391907,0.05058493,768.4166670848243,-0.055438590619452444,7.632478076047214,100.0,9600,1.6058402061462402,0.000727000192190621,0.0006179788523493131,1409075,434.42989923715993,100.0
160,7.668160438537598,768.73725628094,12.41486913079735,771.4277315965146,682.2894612316455,100.0,1.6800675178315323,0.1,0.012907266616821289,0.30091238021850586,0.04973939,0.059647698,768.4487260044359,-0.05545570483561776,7.668294295164382,100.0,9600,1.4892659187316895,0.0003594348642161602,0.0002785819147638809,1418675,434.63069221209577,100.0
161,7.033815145492554,770.5694389224418,3.1768481440543193,771.4371555781419,742.6986047367725,100.0,1.810163419027649,0.1,0.012325048446655273,0.3060429096221924,0.049788803,0.051167257,768.6607972962365,-0.05505008717776521,7.686616579488901,100.0,9600,1.6822857856750488,0.00011545590755710042,3.1521933411378374e-05,1428275,410.28986666318974,100.0
162,7.359266996383667,770.609514336084,1.776141774766484,771.5091037626667,759.0604212143497,100.0,1.8241722673800895,0.1,0.009438037872314453,0.3180582523345947,0.05088907,0.05507726,768.8556690002213,-0.054653194316149956,7.687013472350517,100.0,9600,1.4677670001983643,3.227926878398183e-05,2.2341996060541036e-05,1437875,406.1287196299383,100.0
163,7.422816753387451,770.4120208347034,1.9181351020717428,771.3889410712302,762.8384795708274,100.0,1.8331288850252119,0.1,0.01315164566040039,0.3719055652618408,0.049252894,0.05168403,769.0113041836695,-0.05496113852967469,7.685038861470325,100.0,9600,1.5888583660125732,2.9026678645046375e-05,2.3993354800963436e-05,1447475,365.8336745180112,100.0
164,8.030650854110718,770.7820247765527,1.1071391025086483,771.4510642518808,766.9688342686538,100.0,1.8658784879072325,0.1,0.016396284103393555,0.3079335689544678,0.04970866,0.05357817,769.1883762429578,-0.05459756437116816,7.6887357689621645,100.0,9600,1.4359080791473389,1.5222587687160376e-05,1.1702815975344246e-05,1457075,305.3313915077259,100.0
165,7.892160415649414,765.0553309512175,31.218676261832147,771.337741527364,581.4062173876379,100.0,1.728276388357627,0.1,0.011150836944580078,0.3673217296600342,0.051616553,0.04907608,768.7750717137839,-0.055600846698293155,7.632315819968373,100.0,9600,1.5521807670593262,0.001894626869232534,0.0011362556119038265,1466675,333.5599998085561,100.0
166,7.4605982303619385,770.1684526177864,3.325345752657794,771.3518994704863,750.7596862805988,100.0,1.8997209988428072,0.1,0.011337041854858398,0.44301915168762207,0.04821858,0.05114053,768.9144098041841,-0.055311098997516704,7.68260556766915,100.0,9600,1.6040465831756592,0.00033710005460854594,5.870682952554395e-05,1476275,409.8568360828278,100.0
167,7.113671779632568,769.1928546963968,6.223499487963765,771.3520380558425,718.524694815942,100.0,1.7581913267151423,0.1,0.012010574340820312,0.3109903335571289,0.049246646,0.05289324,768.9422542934054,-0.05548374453916922,7.672849588794165,100.0,9600,1.3707475662231445,0.00011841504630491926,0.00013120902552094018,1485875,438.83844174654706,100.0
168,7.602022647857666,770.0007410119748,2.910277233020333,771.3834064013878,758.8220576969661,100.0,1.6301319909648628,0.1,0.011728048324584961,0.30643439292907715,0.049578715,0.065693036,769.0481029652624,-0.055322162848901825,7.680927837151098,100.0,9600,1.6475870609283447,5.94905895957498e-05,2.614572010868046e-05,1495475,443.3631182432292,100.0
169,7.1949782371521,770.2849255551536,3.0318326527705395,771.5044792597198,750.713179735839,100.0,1.722733323219509,0.1,0.010977029800415039,0.2836737632751465,0.04993906,0.053444944,769.1717852242516,-0.05539636808771145,7.683770298578955,100.0,9600,1.4693093299865723,3.747792498294665e-05,3.088341286766152e-05,1505075,447.30502844360586,100.0
170,6.943267822265625,770.4972024120061,2.2701950690523094,771.3656388845187,754.7603493521011,100.0,1.8111331068325653,0.1,0.009543657302856445,0.28779101371765137,0.049893063,0.05542192,769.304326943027,-0.05535779084032647,7.685892209159673,100.0,9600,1.406816005706787,2.1353846744546854e-05,3.3126660282738114e-05,1514675,442.9808525512933,100.0
171,6.8857409954071045,770.3464070283932,3.5993352896020085,771.4863846789759,738.833725786657,100.0,1.7564926471900641,0.1,0.008783578872680664,0.22864699363708496,0.048821926,0.04801036,769.4085349515636,-0.0552004714732077,7.684382861860126,100.0,9600,1.5602726936340332,5.9273857589877476e-05,4.483840254290554e-05,1524275,443.15748334020225,100.0
172,6.888708114624023,769.5605852883164,4.10582791232025,771.3419257448272,746.9360548087399,100.0,1.6838933292394704,0.1,0.009961605072021484,0.3243446350097656,0.047589887,0.054661866,769.4237399852389,-0.05555921742547051,7.6765241159078625,100.0,9600,1.4947450160980225,7.789294974687909e-05,6.418718103517742e-05,1533875,438.73871167586725,100.0
173,7.198280096054077,770.1077528710897,3.231715759122041,771.4601620424086,754.9759681038072,100.0,1.7334159910196074,0.1,0.011577367782592773,0.2760937213897705,0.04949998,0.05250313,769.492141273824,-0.05550119095875632,7.681998809041244,100.0,9600,1.5027096271514893,4.288289977867544e-05,3.676280526834082e-05,1543475,438.8723783625989,100.0
174,7.470273733139038,769.7899358909222,3.770420315978256,771.2976597500802,750.6379603463577,100.0,1.7316437277580587,0.1,0.00907135009765625,0.29015469551086426,0.050020706,0.049494054,769.521920735534,-0.05534408584884557,7.67882258081782,100.0,9600,1.4644505977630615,3.437274996179404e-05,2.9415037642116897e-05,1553075,443.59632375666655,100.0
175,7.440034866333008,767.3701041245419,26.727133859105432,771.4083401311212,509.10117116407133,100.0,1.8415640962219353,0.1,0.009783506393432617,0.40297794342041016,0.050530948,0.040193763,769.3067390744347,-0.05537470286709925,7.655041963799566,100.0,9600,1.5967729091644287,0.0012845003477265544,0.0007090223710977634,1562675,452.4449529078737,100.0
176,7.487457513809204,770.0186308164712,3.442838257791351,771.4858712725212,750.6600487025588,100.0,1.7499500271384285,0.1,0.01082158088684082,0.34130263328552246,0.049836278,0.05589361,769.3779282486385,-0.055141033151308715,7.681108966848691,100.0,9600,1.6186506748199463,7.682108362654983e-05,3.406865366205322e-05,1572275,456.76023959403324,100.0
177,7.092994213104248,770.2817999007193,3.3760437136011547,771.4350205233533,742.9526968695642,100.0,1.6501941700989997,0.1,0.01140141487121582,0.35372161865234375,0.0503866,0.06122564,769.4683154138467,-0.05501259355361582,7.683737406446384,100.0,9600,1.435703992843628,3.644933623132642e-05,2.856798999163913e-05,1581875,452.73192257155654,100.0
178,7.696584463119507,769.988618016299,4.290785437696674,771.53245996817,742.5833852135798,100.0,1.4385222039877492,0.1,0.008970260620117188,0.2802920341491699,0.0497074,0.05705432,769.5203456740919,-0.055024348592541406,7.680808984740792,100.0,9600,1.496708869934082,3.3642965543921415e-05,2.905285188847741e-05,1591475,448.76305047795745,100.0
179,7.884767055511475,770.3700564911142,4.4927323871277824,771.5387000176835,730.8082405189436,100.0,1.365112894878964,0.1,0.014408588409423828,0.4311990737915039,0.050712444,0.04036263,769.6053167557941,-0.05454431132714934,7.684622355339517,100.0,9600,1.4933040142059326,2.744987089203409e-05,2.2188801888250475e-05,1601075,448.7307299839104,100.0
180,7.094921112060547,769.7062021004022,9.128238709174875,771.4084791006096,686.139461725128,100.0,1.6913414221731906,0.1,0.010882139205932617,0.290834903717041,0.05044595,0.0461971,769.6154052902549,-0.05493276910158296,7.677983897565082,100.0,9600,1.5038228034973145,0.0001591518448229356,0.0001311101333389482,1610675,448.9871651709512,100.0
181,6.897553205490112,770.9480121764633,1.0125157023310642,771.4909576999148,762.9136010714308,100.0,1.702185305314641,0.1,0.010070323944091797,0.33940792083740234,0.049633976,0.06203214,769.7486659788758,-0.054596787064488526,7.690403212935512,100.0,9600,1.4744513034820557,2.2439982275944248e-05,9.51313465738468e-06,1620275,469.0834770022933,100.0
182,7.494200706481934,770.1982038771774,4.2952508332130845,771.5205865462829,738.7821127135653,100.0,1.8007796443783526,0.1,0.008654117584228516,0.2627124786376953,0.047773264,0.048300203,769.7936197687061,-0.05418020847729956,7.6829031248560335,100.0,9600,1.4609055519104004,4.961809803812717e-05,4.437453157367319e-05,1629875,489.411939210592,100.0
183,7.3769896030426025,770.7156986767753,2.7458436653973792,771.52046023953,746.6408052980408,100.0,1.75537276534349,0.1,0.013736724853515625,0.40325045585632324,0.0490445,0.044695586,769.8858276595131,-0.054417933002379376,7.68808206699762,100.0,9600,1.4885966777801514,2.422619585796685e-05,2.117943408955833e-05,1639475,477.17243723187505,100.0
184,7.241431474685669,770.7926824103906,2.9926227790259863,771.6927834766609,742.2563490881603,100.0,1.6926357763287974,0.1,0.017496585845947266,0.344454288482666,0.04952832,0.04770254,769.976513134601,-0.0540664924498974,7.6888501742167685,100.0,9600,1.4658265113830566,1.995079314644863e-05,1.5332198667530735e-05,1649075,485.2349014195326,100.0
185,7.269161224365234,770.9376507106325,1.705139492085341,771.6854920258711,754.8970964074928,100.0,1.5621002797219337,0.1,0.011177301406860352,0.44041895866394043,0.049895212,0.05988965,770.0726268922041,-0.05428693247472834,7.690296400858604,100.0,9600,1.508941888809204,8.313225117304289e-06,9.86257328723061e-06,1658675,449.068343000061,100.0
186,7.398526668548584,769.7501643604437,7.683303796970937,771.4853543009997,698.2561679312901,100.0,1.8668188731580657,0.1,0.011998653411865234,0.2953164577484131,0.048728593,0.037968084,770.0403806390281,-0.054910742061069544,7.6784225912722635,100.0,9600,1.4765355587005615,0.00012634009889486066,9.523096460756966e-05,1668275,473.185233071493,100.0
187,6.9657065868377686,770.5742357084915,2.062045767345271,771.4984497984242,759.2041811277678,100.0,1.6789005648819457,0.1,0.011137247085571289,0.4150702953338623,0.049737774,0.05731624,770.0937661459743,-0.05500332770297719,7.686663338963689,100.0,9600,1.5824084281921387,2.6906282425187264e-05,1.0598439271319232e-05,1677875,525.4433472926445,100.0
188,7.2856574058532715,770.9360321044736,0.8576810099530704,771.5416135726538,766.6915718483016,100.0,1.8458812186425635,0.1,0.008750677108764648,0.22757887840270996,0.049787965,0.05149867,770.1779927418243,-0.054718418146296376,7.690281581853704,100.0,9600,1.4439406394958496,6.7957458005057576e-06,5.912998903484135e-06,1687475,493.40753204196915,100.0
189,7.3434178829193115,771.0839532842974,0.45526905150321917,771.5653460492642,766.989720126184,100.0,1.779870560971456,0.1,0.011493444442749023,0.22550201416015625,0.049767688,0.057067152,770.2685887960716,-0.05449111188896363,7.691758888111036,100.0,9600,1.5108435153961182,5.365997796672057e-06,6.342505168885082e-06,1697075,481.3804071132211,100.0
190,7.417418718338013,770.7466389985563,1.8650395409852922,771.5428376243982,758.9513364803898,100.0,1.700748702034973,0.1,0.008673667907714844,0.21479511260986328,0.049827784,0.058684424,770.3163938163201,-0.054529994557647156,7.6883866721090195,100.0,9600,1.4954783916473389,1.4976081457897572e-05,2.0137048565392322e-05,1706675,453.25035393602207,100.0
191,7.487530469894409,770.8470379148384,1.5834319290173973,771.4369847122484,758.5916290702996,100.0,1.751952405725878,0.1,0.00935220718383789,0.2257826328277588,0.049845926,0.056076087,770.369458226172,-0.05477444031727317,7.689392226349393,100.0,9600,1.4937160015106201,1.6006614475012945e-05,7.479524745304214e-06,1716275,452.9472056423881,100.0
192,7.196815013885498,770.7668070368733,2.6495638252011604,771.5789485691431,746.6511144719127,100.0,1.63772605062781,0.1,0.00900721549987793,0.2167198657989502,0.049735967,0.048419755,770.4091931072421,-0.05432914889274574,7.688587517773921,100.0,9600,1.5028738975524902,1.4466250307609192e-05,1.5446539239249892e-05,1725875,448.5027258529366,100.0
193,7.512454032897949,771.1435645644315,0.1259655891206949,771.3954214143309,770.8102596848056,100.0,1.6762685425836765,0.1,0.010999441146850586,0.25795698165893555,0.050652634,0.054918412,770.482630252961,-0.0543101552848038,7.692356511381863,100.0,9600,1.9445064067840576,5.454164291995481e-06,4.4463270905304255e-06,1735475,448.5258713513423,100.0
194,8.032757997512817,770.0514820739296,8.289217437296877,771.5803530358193,690.1915775739218,100.0,1.7781547206460304,0.1,0.012392759323120117,0.29644107818603516,0.05060058,0.038716525,770.4395154350578,-0.05481340954328284,7.681436590456717,100.0,9600,1.7051105499267578,0.0001312381564610625,9.892238753318679e-05,1745075,448.7329167623435,100.0
195,7.6463847160339355,771.0335373986708,0.45156592879846436,771.4685058778924,766.9205845629078,100.0,1.788417383660188,0.1,0.012034177780151367,0.38579702377319336,0.049758706,0.061848737,770.4989176314192,-0.05499363096957027,7.691256369030429,100.0,9600,1.9038641452789307,1.3293374417467523e-05,5.754307368149572e-06,1754675,448.8423411554616,100.0
196,8.04758620262146,770.8069554298544,1.4320260940607459,771.4377287176185,758.8858819244073,100.0,1.701130755902514,0.1,0.012259960174560547,0.3766303062438965,0.05014245,0.057138804,770.5297214112627,-0.055172995359964914,7.688993671306702,100.0,9600,1.8725740909576416,1.2166556095549463e-05,1.0558397807621772e-05,1764275,452.81094321894085,100.0
197,8.037002325057983,769.6157777304525,6.344515439320859,771.3882059648175,718.2306311656608,100.0,1.7076357321532172,0.1,0.01250457763671875,0.2832450866699219,0.049635652,0.04690353,770.4383270431817,-0.05541904914019632,7.6770809508598035,100.0,9600,1.782693862915039,9.605683793212111e-05,8.167007730010086e-05,1773875,473.4673285525882,100.0
198,7.615992307662964,770.9267130385593,1.3030090457506416,771.4963851636895,758.9940742012569,100.0,1.9075280050195502,0.1,0.011728763580322266,0.3601386547088623,0.050230835,0.050746277,770.4871656427196,-0.05481113672829994,7.6901888632717,100.0,9600,1.7279508113861084,1.3800454132880706e-05,7.188997939521526e-06,1783475,565.685122466433,100.0
199,7.58616042137146,769.7962178574777,11.930806625238551,771.4973382727079,654.1413436467612,100.0,1.8409883597707966,0.1,0.01264810562133789,0.3002784252166748,0.050126042,0.04112091,770.4180708641954,-0.05444484232837763,7.679305157671622,100.0,9600,1.4933702945709229,0.0003033513450573928,0.00016192959007253337,1793075,561.5989207411533,100.0
200,7.29638671875,770.8516453900456,1.8731441405258256,771.4297263475612,754.5617262867378,100.0,1.821681358708923,0.1,0.013098478317260742,0.4197094440460205,0.050224453,0.05470991,770.4614283167805,-0.05472748646071868,7.689439180205948,100.0,9600,1.4656686782836914,3.006492622010051e-05,9.246817022902218e-06,1802675,589.6308559805816,100.0
201,8.48288893699646,770.995844605713,0.8304202281666426,771.4435776424189,763.0331011292632,100.0,1.6880242252160662,0.1,0.012259483337402344,0.2667405605316162,0.049788747,0.05718233,770.5148699456738,-0.0549529822237523,7.690880351109581,100.0,9600,1.5290515422821045,4.221051351033446e-06,3.462851538921705e-06,1812275,529.411963463147,100.0
202,7.634910821914673,770.2695501410152,6.650860884353909,771.5482574123675,706.7334248595649,100.0,1.4655139257676382,0.1,0.0115966796875,0.40581464767456055,0.05031033,0.04916718,770.490337965208,-0.05472015562797609,7.683613177705357,100.0,9600,1.6556675434112549,0.00014817612245331184,0.00011249286535086221,1821875,521.2663445326957,100.0
203,7.629641056060791,770.9778337720496,1.1993084472473508,771.4263183213319,762.7752219619298,100.0,1.6325236954968894,0.1,0.012719392776489258,0.4029057025909424,0.04988916,0.061750114,770.5390875458922,-0.054299689413005274,7.690700310586995,100.0,9600,1.7317960262298584,2.7826874247664358e-05,4.5651174406942395e-06,1831475,509.04425710479467,100.0
204,7.283045530319214,771.0338651236707,0.7464564568769573,771.4848121868943,766.7679420343902,100.0,1.824451036163753,0.1,0.015454292297363281,0.31595706939697266,0.050037615,0.05472739,770.5885653036701,-0.05415791485569865,7.691258751810968,100.0,9600,1.4297430515289307,5.157621984650699e-06,4.322421099889108e-06,1841075,468.48288931755275,100.0
205,7.627519130706787,770.7110271482643,4.117516442684373,771.5547127767964,730.8778551272832,100.0,1.5795942000774066,0.1,0.012094259262084961,0.3250265121459961,0.047827773,0.042680643,770.6008114881296,-0.0540534301120608,7.688029903221273,100.0,9600,1.473663091659546,3.095114192187306e-05,2.935853684904366e-05,1850675,456.3836545261503,100.0
206,7.210333347320557,770.1658361622585,5.852628028982772,771.5961284287628,722.6712826267654,100.0,1.7958300132172484,0.1,0.010167360305786133,0.21861910820007324,0.049732525,0.055919528,770.5573139555424,-0.05408833331773737,7.682578333348929,100.0,9600,1.4645774364471436,6.170078880443256e-05,5.1523331665309475e-05,1860275,460.3858538344999,100.0
207,7.382411241531372,770.935684497861,1.7457270330497325,771.5149312501431,754.9588393478276,100.0,1.8634398925026814,0.1,0.00919485092163086,0.2625606060028076,0.050009284,0.04878889,770.5951510097743,-0.05388946257395442,7.6902772040927125,100.0,9600,1.5230846405029297,2.0203540523497963e-05,1.2387458147921046e-05,1869875,460.04624491403507,100.0
208,7.103009939193726,770.4747138283865,3.534792593333587,771.5267711370446,743.0374029134294,100.0,1.6957236556372084,0.1,0.009990215301513672,0.23451995849609375,0.04957716,0.048445504,770.5831072916357,-0.05433570652351858,7.685664293476481,100.0,9600,1.5260684490203857,2.5152430772535338e-05,1.902040075585641e-05,1879475,460.42070364515763,100.0
209,6.964175701141357,771.1526627799107,0.470612650397222,771.6022911062554,766.8968641096849,100.0,1.8057083543774992,0.1,0.008884429931640625,0.22583818435668945,0.049717102,0.06033749,770.6400628404632,-0.05380550924384548,7.692444490756155,100.0,9600,1.4793956279754639,5.543672084031535e-06,4.674399964754892e-06,1889075,468.6654015480409,100.0
210,7.521550893783569,771.0484396126403,0.7359259243201899,771.5321566250872,766.9834348039757,100.0,1.5682744081057076,0.1,0.009691715240478516,0.26277637481689453,0.04930213,0.098087594,770.6809005176809,-0.054012124578288766,7.691404542088378,100.0,9600,1.4400570392608643,5.309025117696365e-06,3.1412708877489375e-06,1898675,468.33465187924213,100.0
211,7.190874099731445,770.713474235556,3.52592498339022,771.6763113935442,738.9566414246422,100.0,1.9167913668476178,0.1,0.009580135345458984,0.2233884334564209,0.050274465,0.042774133,770.6841578894685,-0.05361102642429588,7.688055640242371,100.0,9600,1.4658069610595703,4.148940554744424e-05,3.960823509359668e-05,1908275,455.6804806953758,100.0
212,6.976932764053345,770.8290502234971,3.350901298545006,771.4829570486354,738.2033053324999,100.0,1.6293428093996787,0.1,0.013242483139038086,0.25379061698913574,0.049101118,0.043688186,770.6986471228713,-0.05412265968217425,7.689210673651158,100.0,9600,1.4181594848632812,1.926664228339628e-05,1.5502989450160963e-05,1917875,459.6081315624317,100.0
213,7.036208391189575,770.8153478897224,2.2275877146152943,771.4886595645193,754.6390421052699,100.0,1.8415836399242314,0.1,0.00945281982421875,0.22263288497924805,0.04977991,0.043424435,770.7103171995565,-0.053845103748520855,7.689071562918147,100.0,9600,1.3917744159698486,2.0877789572404878e-05,3.331575336923817e-05,1927475,500.6610910193811,100.0
214,7.540247440338135,769.9911784657775,8.1388567914128,771.690818750676,694.3140171337756,100.0,1.7327808925124029,0.1,0.0111846923828125,0.21937990188598633,0.05020186,0.043379657,770.6384033261786,-0.05291956056729719,7.680830439432704,100.0,9600,1.368797779083252,0.0002084903793281514,0.00011561379004000558,1937075,464.0691687948213,100.0
215,7.2935028076171875,771.157937758221,0.9448769050648262,771.6125661015558,762.8547789645697,100.0,1.7910600811041604,0.1,0.00906062126159668,0.2290019989013672,0.04963248,0.056678906,770.6903567693829,-0.05292089265172017,7.692495774014946,100.0,9600,1.3531551361083984,5.701359227267517e-05,1.1288886240574477e-05,1946675,460.4073004952574,100.0
216,7.700079441070557,771.0267654675557,1.7100200986329206,771.5170425161925,754.996975090143,100.0,1.8970346102057303,0.1,0.008962631225585938,0.21439146995544434,0.049482778,0.049940825,770.7239976392002,-0.05339441417931021,7.691188919154023,100.0,9600,1.3907148838043213,2.0463760169035073e-05,1.7146971176780497e-05,1956275,452.11421963543324,100.0
217,7.038742780685425,770.7334313011919,2.589892245234888,771.6093924867642,750.8388395467426,100.0,1.816444038945715,0.1,0.011048316955566406,0.25380921363830566,0.050707407,0.05079668,770.7249410053994,-0.05341376172409546,7.688252904942572,100.0,9600,1.5115578174591064,3.071557139676979e-05,2.010381437020009e-05,1965875,456.7494029233057,100.0
218,7.195612668991089,770.8452185351501,2.6706226750052537,771.5361956911987,746.6328971967993,100.0,1.5316882858457115,0.1,0.009825706481933594,0.2610750198364258,0.04977195,0.049718507,770.7369687583746,-0.05354383597120732,7.689372830695459,100.0,9600,1.395902395248413,1.6273969684025907e-05,1.989837357310986e-05,1975475,492.9387664371558,100.0
219,7.6582677364349365,771.2667388985689,0.4278190785137669,771.6759577444751,767.3594478819493,100.0,1.649554055872367,0.1,0.009867429733276367,0.25926661491394043,0.04992711,0.061603736,770.789945772394,-0.052662863622044025,7.693587136377957,100.0,9600,1.4396030902862549,1.5928949654170677e-05,2.7816105489128393e-06,1985075,460.8650033422787,100.0
220,7.1277077198028564,770.9868735680599,2.021436337137439,771.7386516620983,754.7721227166293,100.0,1.7858861228309948,0.1,0.008991479873657227,0.21615028381347656,0.05008061,0.047032584,770.8096385519606,-0.052545170223996095,7.690788163109336,100.0,9600,1.43800687789917,1.802987427936853e-05,1.7966551293060224e-05,1994675,456.67316719663324,100.0
221,7.188042640686035,771.1797453832152,0.9340333539198223,771.6214525307172,763.1579341820775,100.0,1.9078002049096292,0.1,0.010205984115600586,0.21737170219421387,0.050011244,0.05188347,770.846649235086,-0.05270027359751611,7.6927163930691504,100.0,9600,1.4670789241790771,5.356291369420036e-06,3.858735300616807e-06,2004275,468.97862298165353,100.0
222,7.040697813034058,771.3684599326434,0.14861889465013567,771.6621405829065,771.0558669471839,100.0,1.8523894069674482,0.1,0.00983881950378418,0.22117161750793457,0.049995165,0.055436924,770.8988303048418,-0.05206514969455833,7.694601516972109,100.0,9600,1.4908008575439453,4.087949633948822e-06,4.3489169003180345e-06,2013875,477.14499953253494,100.0
223,7.430811882019043,768.0572876272892,21.261701858306935,771.7008543072134,580.889845066188,100.0,1.695783874427074,0.1,0.009429216384887695,0.22497296333312988,0.049512774,0.04794777,770.6146760370865,-0.05267705546127848,7.661489611205389,100.0,9600,1.4603312015533447,0.001304568172818971,0.0009560136036926886,2023475,493.2840262360988,100.0
224,7.046572208404541,769.7768761659527,12.448632782940448,771.7704287844681,649.7596282243807,100.0,1.6879708312963284,0.1,0.011515378952026367,0.225569486618042,0.05073424,0.056354012,770.5308960499732,-0.0525632463685675,7.678686753631433,100.0,9600,1.4473090171813965,0.000468711339256492,0.00027428177533076435,2033075,485.34711942990657,100.0
225,7.646164417266846,771.3245365630382,0.14843266206312494,771.6619730029806,771.0236972308007,100.0,1.7713032796676738,0.1,0.009792804718017578,0.2154865264892578,0.04970032,0.056035683,770.6102601012797,-0.052504211015906944,7.694162455650759,100.0,9600,1.43892502784729,1.3565668752283209e-05,3.8253295896302045e-06,2042675,460.8591073983273,100.0
226,7.759484767913818,770.9261951791149,2.2671418453265626,771.7044511268668,750.8523497742145,100.0,1.7622597449615722,0.1,0.009919404983520508,0.2174694538116455,0.049689796,0.04938122,770.6418536090632,-0.053154737139890794,7.690178596193442,100.0,9600,1.46923828125,2.1414280365391e-05,2.6333725317059824e-05,2052275,456.6054509895345,100.0
227,6.969151973724365,771.2959623927144,0.16262000446783084,771.6071822756081,770.7157855408266,100.0,1.8597035630022674,0.1,0.009000539779663086,0.23517608642578125,0.049087666,0.05115901,770.7072644874283,-0.05278813523217198,7.693878531434495,100.0,9600,1.547243356704712,1.3682775794529472e-05,2.558527931068682e-06,2061875,452.38058342010356,100.0
228,7.197443008422852,771.1331446904875,0.9482097284356309,771.6838237693449,763.0183475620568,100.0,1.8172675639455713,0.1,0.009461402893066406,0.2352464199066162,0.0504426,0.055976175,770.7498525077343,-0.05316807921546649,7.692248587451201,100.0,9600,1.5400071144104004,6.7917897197138095e-06,4.8112007241477745e-06,2071475,452.4049625906896,100.0
229,7.210325002670288,771.1633860166036,0.9498027722832523,771.6812115090343,762.917546623877,100.0,1.9056994025358776,0.1,0.009076833724975586,0.24642014503479004,0.049444187,0.052173395,770.7912058586212,-0.05286344649379673,7.6925532201728695,100.0,9600,1.5156793594360352,5.3749268521650465e-06,4.847874146373361e-06,2081075,456.6927407906911,100.0
230,7.450083494186401,771.0294707928648,2.2111186439497077,771.6958873339418,751.0951440054636,100.0,1.4593876590687505,0.1,0.008977890014648438,0.21306109428405762,0.049879972,0.046899926,770.8150323520456,-0.05253922130562796,7.691210778694372,100.0,9600,1.5117874145507812,4.653972882197547e-06,6.69449405559174e-06,2090675,456.3139802076382,100.0
231,7.3857996463775635,771.2451588127851,0.48506517749253086,771.6998076038383,766.7956762753827,100.0,1.8741284172713395,0.1,0.010689973831176758,0.2773420810699463,0.049632285,0.061487872,770.8580449981196,-0.0528778961439037,7.693372103856096,100.0,9600,1.5540759563446045,6.047976628086592e-06,2.566472584362027e-06,2100275,452.1447548347236,100.0
232,7.383460521697998,771.0971971790941,1.6515407566406333,771.5827097760384,755.0719834108663,100.0,1.8953343959518674,0.1,0.008993864059448242,0.2730743885040283,0.04951447,0.048358455,770.8819602162171,-0.053109565948122724,7.691890434051877,100.0,9600,1.5262503623962402,1.5026054020402619e-05,1.2085755659141125e-05,2109875,456.31090399698314,100.0
233,7.571627616882324,771.0565712617603,1.400719798866942,771.6636036870107,759.395535006901,100.0,1.9298142889395484,0.1,0.01069188117980957,0.22342681884765625,0.048218694,0.0471469,770.8994213207714,-0.05267996335146685,7.691486703315199,100.0,9600,1.4853620529174805,1.0222021617883923e-05,9.44836326050786e-06,2119475,461.0025531504211,100.0
234,7.251369953155518,771.3452862004366,0.14082479669399647,771.6475658574406,770.9340822340506,100.0,1.8876189866756665,0.1,0.009200572967529297,0.21663451194763184,0.050667774,0.055228475,770.9440078087379,-0.0522987995814713,7.694367867085195,100.0,9600,1.5093958377838135,2.5892770098259053e-06,2.0592859330712325e-06,2129075,469.13433361615216,100.0
235,7.762024879455566,771.0784750915124,1.1052199631398334,771.6040293579634,763.0165113291308,100.0,1.7450711600845328,0.1,0.009299039840698242,0.29085469245910645,0.050029065,0.049665622,770.9574545370153,-0.05287782022803794,7.691705513105295,100.0,9600,1.543168067932129,4.077564720934998e-06,4.013725588843932e-06,2138675,469.11978969993476,100.0
236,7.154027938842773,770.9379113407622,4.50556189879397,771.686679189703,727.0405365213754,100.0,1.6349359705221689,0.1,0.009109973907470703,0.20652270317077637,0.04881587,0.036985543,770.9555002173901,-0.05178386262471902,7.690299470708616,100.0,9600,1.5029957294464111,7.997900493161843e-05,0.00010839829341256444,2148275,505.3650902835518,100.0
237,7.02660870552063,771.3519124441488,0.11271131893043712,771.6441965334648,771.0011254739035,100.0,2.0169999394619285,0.1,0.009052515029907227,0.23985624313354492,0.049096834,0.050586045,770.9951414400659,-0.05222829781828519,7.694438368848381,100.0,9600,1.5383033752441406,3.338834184139913e-05,1.5999888403583499e-06,2157875,529.3734803818753,100.0
238,6.925573110580444,771.3033819600993,0.16398040887833662,771.8016193568188,770.8267613445546,100.0,1.8207827818159459,0.1,0.008977413177490234,0.250164270401001,0.049938183,0.054666925,771.0259654920693,-0.05271373672549682,7.69395292994117,100.0,9600,1.4598541259765625,2.170497149806707e-06,1.901276899255125e-06,2167475,601.7396270255612,100.0
239,7.448287487030029,771.2544895619216,0.43910029259098415,771.6722453186641,767.2646529503286,100.0,1.8953441611652957,0.1,0.008925676345825195,0.28163790702819824,0.04932886,0.050966714,771.0488178990545,-0.05278741831723751,7.6934625816827635,100.0,9600,1.4654204845428467,2.37432634408596e-06,1.9987401058848667e-06,2177075,525.4637217876049,100.0
240,7.393082141876221,771.2339821724921,0.9406561063204015,771.6127106626733,763.1877051204895,100.0,1.7090131637777533,0.1,0.008945941925048828,0.22027945518493652,0.050790075,0.045656517,771.0673343263983,-0.052160635905740015,7.693256030760927,100.0,9600,1.4705431461334229,2.7809114624528803e-06,2.6707547738008833e-06,2186675,461.15566575927926,100.0
241,7.48874044418335,771.2709990739014,0.8593276870064348,771.7056745782353,763.0045168381683,100.0,1.8007938391199492,0.1,0.009148836135864258,0.2300097942352295,0.049620733,0.052074227,771.0877008011487,-0.052208676880366234,7.693624656452967,100.0,9600,1.449016809463501,3.05754996845081e-06,2.953647799715549e-06,2196275,485.3697552946724,100.0
242,7.814585447311401,771.3609263959064,0.14792031543109088,771.7355428181945,770.9780586127378,100.0,1.8642467268910796,0.1,0.00909876823425293,0.28379225730895996,0.04984361,0.05689792,771.1150233606245,-0.05214236146613121,7.694524305200535,100.0,9600,1.4520089626312256,1.7504499387467433e-06,1.7941495998592585e-06,2205875,557.6236555375458,100.0
243,7.524893283843994,771.3047337386944,0.8480438336892822,771.7620303558609,763.1539662551374,100.0,2.0244240001574036,0.1,0.008685111999511719,0.2297511100769043,0.050180834,0.04711963,771.1339943984315,-0.0518700202792188,7.693963313054115,100.0,9600,1.4505867958068848,4.219589684820947e-06,5.1101324372058614e-06,2215475,461.24708500595233,100.0
244,7.105944871902466,771.3729595201843,0.4290139598332915,771.8084254044763,767.37875775271,100.0,1.6168189945179707,0.1,0.010090827941894531,0.22921061515808105,0.0497449,0.05396637,771.1578909106069,-0.051608041748124424,7.694641958251875,100.0,9600,1.4510645866394043,4.0785443168090175e-06,2.8054529796417125e-06,2225075,457.1509921120634,100.0
245,7.682802438735962,771.1382496004944,1.3006940402378055,771.6782885660601,763.1773615860868,100.0,1.7624684509335744,0.1,0.008908271789550781,0.2149364948272705,0.050107215,0.049200263,771.1559267795956,-0.05187011903937622,7.69229654762729,100.0,9600,1.4256939888000488,4.852683565789737e-06,4.434633985940982e-06,2234675,461.065032173037,100.0
246,7.069859981536865,771.2940250088723,0.9341448678170071,771.7286330955802,763.2889771031266,100.0,1.7251705280316825,0.1,0.009389638900756836,0.2252516746520996,0.050058443,0.051785797,771.1697366025232,-0.05156313281298152,7.693853533853686,100.0,9600,1.4261093139648438,4.646372351265496e-06,4.1395447135559406e-06,2244275,456.91307741746266,100.0
247,7.334405183792114,771.3815785856863,0.4400126306013095,771.7861408568562,767.4000382132099,100.0,1.5921255472511318,0.1,0.009289741516113281,0.22467970848083496,0.049789164,0.056394458,771.1909208008396,-0.05151580850633524,7.694734191493665,100.0,9600,1.4653890132904053,2.8039459301041384e-06,1.7159288626606773e-06,2253875,497.2513549794762,100.0
248,7.523782968521118,771.161828855276,1.8902456046712668,771.6973294607666,754.6533399064261,100.0,1.8007416846112736,0.1,0.010817527770996094,0.22962045669555664,0.050321605,0.050570942,771.1880116062832,-0.051633133622717486,7.6925335330439495,100.0,9600,1.461308240890503,1.0004963214969114e-05,8.927196268575607e-06,2263475,500.9707863647482,100.0
249,7.772049903869629,771.2902349308193,1.6489083199740058,771.7465195083321,755.2858444771983,100.0,1.8262259921756012,0.1,0.010631799697875977,0.2512984275817871,0.050353147,0.045762476,771.1982339387368,-0.051179889434333305,7.693820110565667,100.0,9600,1.4654009342193604,1.0386449920834111e-05,1.0302062003412306e-05,2273075,448.39618304019405,100.0
250,7.68252420425415,771.445974459576,0.12411937104636121,771.6977062914272,771.1083524675616,100.0,1.7335950112725864,0.1,0.009013652801513672,0.22275733947753906,0.05000012,0.0613702,771.2230079908209,-0.051290239877051315,7.695376426789615,100.0,9600,1.524540662765503,2.763478074522339e-06,1.7663042466585479e-06,2282675,448.0286167746372,100.0
251,7.477139949798584,767.0761454802591,28.321654423230253,771.7940409316994,540.9476446579424,100.0,1.6161815393112249,0.1,0.018310546875,0.23271918296813965,0.05012591,0.051905546,770.8083217397648,-0.051657080680504654,7.6516762526528295,100.0,9600,1.5077970027923584,0.0017735391618998145,0.0011228240311884764,2292275,448.1797219390427,100.0
252,7.608286619186401,770.8807175907386,5.343514430785019,771.7479927936874,718.8202556439423,100.0,1.963063487200507,0.1,0.01023244857788086,0.251162052154541,0.05004002,0.052712694,770.8155613248622,-0.05152635155696317,7.689723648443038,100.0,9600,1.4799258708953857,0.0001544160231199188,9.601747410044327e-05,2301875,460.51491717319374,100.0
253,7.383558511734009,771.3319557104754,0.8505643000590691,771.7680070906778,763.1680414840417,100.0,1.9627625786389054,0.1,0.009593963623046875,0.22409987449645996,0.049900938,0.054323476,770.8672007634235,-0.051597212319490715,7.694236121013842,100.0,9600,1.5239498615264893,1.4907939998097047e-05,6.315461564238118e-06,2311475,481.0788554871311,100.0
254,7.360064744949341,771.1317480611727,2.9038003831717667,771.7472960865751,742.8581682732422,100.0,1.693605010847831,0.1,0.008942127227783203,0.20968198776245117,0.049769204,0.04383552,770.8936554931985,-0.05151778566071172,7.692232214339289,100.0,9600,1.5234520435333252,2.0504375510995883e-05,1.918214402380453e-05,2321075,477.1524858484302,100.0
255,7.215831995010376,771.3712917329962,0.8252335154162431,771.7519015655001,763.4378715927002,100.0,1.8960354650935787,0.1,0.009150028228759766,0.21953034400939941,0.04940693,0.04967932,770.9414191171783,-0.05120713177222285,7.69462620156111,100.0,9600,1.531081199645996,4.645679878614032e-06,3.6586418242778934e-06,2330675,501.3308007162832,100.0
256,7.584653854370117,771.390901666576,0.13152276424677875,771.7660946915321,771.1196188184283,100.0,1.8672038043461532,0.1,0.01077723503112793,0.2542135715484619,0.04910038,0.05182602,770.9863673721181,-0.05184113397097837,7.694825532695688,100.0,9600,1.5261609554290771,2.5609850016526578e-06,2.935386483770231e-06,2340275,480.99518656575475,100.0
257,7.070751190185547,769.6564150181122,15.981834909840996,771.6971373931441,614.00168854352,100.0,2.0983349106645335,0.1,0.009247541427612305,0.21646785736083984,0.04946227,0.03607729,770.8533721367176,-0.052103709960175194,7.677479623373158,100.0,9600,1.5440607070922852,0.000748451919370307,0.0005856999977507217,2349875,464.45787187404756,100.0
258,7.501463174819946,771.3299352928376,0.46269620092033026,771.7229067398725,767.0785080817122,100.0,1.8932257967213197,0.1,0.009089231491088867,0.21773386001586914,0.049704563,0.054458044,770.9010284523296,-0.052035788567945995,7.694214211432054,100.0,9600,1.6651966571807861,3.7411343775734704e-05,8.806646281311357e-06,2359475,476.5585651207859,100.0
259,7.687826156616211,771.0223199650712,2.353930111488931,771.6612356151725,754.8419240271254,100.0,1.717421648573327,0.1,0.00991368293762207,0.247664213180542,0.049935915,0.047199037,770.9131576036037,-0.05219515601598188,7.6911381773173515,100.0,9600,1.5406222343444824,2.0114661922663668e-05,1.65073055141562e-05,2369075,485.08789369760626,100.0
260,7.251989126205444,770.607351602804,5.271511194034739,771.6993545975013,730.562888506627,100.0,1.547278526147728,0.1,0.009878396987915039,0.22126555442810059,0.04902212,0.04193332,770.8825770035238,-0.052177508644890624,7.686989158021775,100.0,9600,1.534501075744629,7.054761031928249e-05,4.535089339021476e-05,2378675,533.3108110834547,100.0
261,7.403783559799194,771.4516608236166,0.12891656570019147,771.7287205117907,771.1469431158255,100.0,1.7310863230121942,0.1,0.009670019149780273,0.22132110595703125,0.048859905,0.06068842,770.9394853855331,-0.05123579682061727,7.695430869846049,100.0,9600,1.5208637714385986,1.758481328909311e-05,3.198460455459203e-06,2388275,561.5589879614212,100.0
262,7.7085747718811035,771.3856714471473,0.1565340829129933,771.7539486582552,770.9574589816808,100.0,1.8501610701218258,0.1,0.010867118835449219,0.295928955078125,0.05018933,0.052044153,770.9841039916946,-0.05189299116409903,7.694773675502567,100.0,9600,1.5225515365600586,3.048685947489083e-06,2.4253048599591325e-06,2397875,509.41569651678253,100.0
263,7.967578172683716,771.3264150129544,0.4554577256118629,771.6396206144715,767.072530205159,100.0,1.927801591203369,0.1,0.009418487548828125,0.21684622764587402,0.05004142,0.054914746,771.0183350938206,-0.05206927239878595,7.694180727601214,100.0,9600,1.576514482498169,8.057346799422783e-06,3.571429410329031e-06,2407475,456.60584771711785,100.0
264,7.363679885864258,771.3479968905825,0.45768740217837,771.636361156768,767.0079428655966,100.0,1.877727078932283,0.1,0.009537935256958008,0.22844958305358887,0.050040584,0.052977704,771.0513012734968,-0.05185427525068398,7.694395724749317,100.0,9600,1.489840030670166,3.52478396651381e-06,4.4887786745443614e-06,2417075,452.04194264919994,100.0
265,7.755759239196777,770.8361631395824,3.8833932729270777,771.6567507827235,734.9993218565958,100.0,1.7112804009270415,0.1,0.009462594985961914,0.2283635139465332,0.0498057,0.043034118,771.0297874601055,-0.05238903931236085,7.689277627354305,100.0,9600,1.514578104019165,3.395802729499556e-05,3.390347714498829e-05,2426675,452.3215784184676,100.0
266,7.602169513702393,771.2056034558244,0.7369110233564923,771.663805853973,766.9606049439877,100.0,1.7781491703952934,0.1,0.009791851043701172,0.2267618179321289,0.04981984,0.052157763,771.0473690596774,-0.05244352955513065,7.692973137111537,100.0,9600,1.511514663696289,1.0344820761811823e-05,3.4874322831067754e-06,2436275,448.12338431417396,100.0
267,7.817253828048706,771.123900744282,1.0226438495678554,771.6625213268522,762.9835075596465,100.0,1.8105164504847107,0.1,0.011575698852539062,0.24763703346252441,0.049448803,0.052129984,771.0550222281379,-0.05284368118750667,7.6921563188124935,100.0,9600,1.5085105895996094,5.103923493946057e-06,4.376197951124469e-06,2445875,447.99153613305424,100.0
268,7.434998989105225,771.1878481806671,0.8481160988759122,771.581148293247,763.02222525936,100.0,1.8358065985937904,0.1,0.009933948516845703,0.2250354290008545,0.049353782,0.05059328,771.0683048233908,-0.053039448650614995,7.692793884682718,100.0,9600,1.5417723655700684,5.338497019900533e-06,6.46688872609694e-06,2455475,452.0890118058899,100.0
269,7.7083234786987305,770.9544108432436,2.584088675854701,771.7323042776397,747.0843792892501,100.0,1.6917233924299755,0.1,0.009500265121459961,0.2642242908477783,0.04988404,0.04320841,771.056915425376,-0.052872489023046886,7.690460844310286,100.0,9600,1.561065673828125,3.0594185388676374e-05,3.059805201855795e-05,2465075,472.9233916329584,100.0
270,7.73478889465332,771.1246858596196,1.7253047386615556,771.6087892384057,754.816982711816,100.0,1.8339021377381677,0.1,0.01105642318725586,0.22132587432861328,0.049875334,0.05055854,771.0636924688005,-0.05242032917884121,7.692163004154492,100.0,9600,1.5637624263763428,1.3749427998345766e-05,9.465608743466566e-06,2474675,537.3775725036509,100.0
271,7.7777557373046875,771.2193390035121,1.2477123638849281,771.6806784189062,759.1402680177646,100.0,2.0572663523485533,0.1,0.009078502655029297,0.22929883003234863,0.049953636,0.044501424,771.0792571222717,-0.05230800415714582,7.693108662509521,100.0,9600,1.5095841884613037,5.822544246697671e-06,4.424452508528392e-06,2484275,698.1506994013239,100.0
272,7.995874881744385,771.1479372277776,1.0540093101455148,771.6740139567288,762.944891217034,100.0,1.6209079370962187,0.1,0.01056528091430664,0.22661924362182617,0.04996288,0.05529866,771.0861251328223,-0.05260834686431578,7.692391653135684,100.0,9600,1.502899408340454,3.7102908039070762e-06,7.1907494661862466e-06,2493875,694.2409648498651,100.0
273,7.548521995544434,770.4734611953246,6.005537630572266,771.6229062033431,714.485317271896,100.0,1.3992424110696253,0.1,0.008988142013549805,0.2198035717010498,0.04993549,0.040757082,771.0248587390726,-0.052682831500565484,7.685650501832768,100.0,9600,1.5075712203979492,4.573318171158459e-05,5.022371572006067e-05,2503475,694.2375150417682,100.0
274,7.669774055480957,771.2387106907391,0.6209465450363497,771.6146144015372,766.9256434562278,100.0,1.9675259703539267,0.1,0.008970260620117188,0.21862387657165527,0.050115336,0.056669388,771.0462439342393,-0.0525293541969812,7.693303979136353,100.0,9600,1.4648261070251465,1.6172395729402166e-05,3.0338306234940738e-06,2513075,641.9347306901896,100.0
275,7.362081289291382,771.2138847986731,0.8312534365773625,771.6154735724547,763.2266077574195,100.0,1.8453780319798203,0.1,0.009347200393676758,0.21779584884643555,0.049189247,0.05137688,771.0630080206827,-0.05277693845419778,7.693056394879136,100.0,9600,1.4811649322509766,5.549641002190843e-06,4.7667374680804076e-06,2522675,505.48597263527824,100.0
276,7.444437265396118,771.3093418827597,0.4418749214642037,771.7045403747668,767.1944957610083,100.0,1.4951648700770845,0.1,0.009711980819702148,0.21798062324523926,0.049815856,0.061365724,771.0876414068904,-0.05223839272601646,7.694011607273985,100.0,9600,1.4986391067504883,3.3275706766772673e-06,2.078997020581142e-06,2532275,505.6313476775661,100.0
277,7.346984386444092,771.3927890997275,0.14759488642160373,771.6712282171156,770.760210951492,100.0,1.7909284623346082,0.1,0.010238885879516602,0.22121357917785645,0.05016337,0.055604436,771.1181561761741,-0.05182566840206767,7.694840998264598,100.0,9600,1.5504472255706787,2.430295746174772e-06,1.979763101856065e-06,2541875,485.1116530977292,100.0
278,7.453444480895996,771.259293636128,0.9360996364461387,771.6504263389544,763.176620665141,100.0,1.6911754444988238,0.1,0.009163618087768555,0.2391049861907959,0.049269646,0.048137393,771.1322699221696,-0.05190769637055156,7.693508970296115,100.0,9600,1.5098600387573242,3.8799843176038946e-06,4.51344223824463e-06,2551475,455.0814979746909,100.0
279,7.469774007797241,770.2166777487731,11.499005035666718,771.6518679962769,658.1460508434869,100.0,1.7030909909139158,0.1,0.01374053955078125,0.23170113563537598,0.04929475,0.042850338,771.04071070483,-0.051918027736417884,7.683081972263582,100.0,9600,1.5298488140106201,0.00034854039726828364,0.0002397328638219512,2561075,476.64102991544576,100.0
280,7.474900960922241,769.0843518398237,18.254805694396367,771.7211574822238,597.7767301006037,100.0,1.5996968940142502,0.1,0.00986027717590332,0.22883057594299316,0.05090932,0.04806311,770.8450748183294,-0.05199153423882571,7.671758465761173,100.0,9600,1.502229928970337,0.0007160250247179848,0.0004769935066314699,2570675,468.8750323419529,100.0
281,7.84334135055542,770.039144338463,10.36409742799268,771.7364826990346,674.311903511643,100.0,1.8046725165801476,0.1,0.00956273078918457,0.2477884292602539,0.04963543,0.05440909,770.7644817703427,-0.052026827106562,7.681306506226772,100.0,9600,1.4484138488769531,0.0003056912233599688,0.00020634053057594975,2580275,468.8784235151479,100.0
282,7.982165336608887,768.4419888927304,21.30879328584123,771.667921115962,573.8090724779041,100.0,1.9155170824579013,0.1,0.009400129318237305,0.22016334533691406,0.05030407,0.0420508,770.5322324825814,-0.052997336762983495,7.66533599657035,100.0,9600,1.4238886833190918,0.0009411461731744177,0.0008275250471828558,2589875,485.0771260217686,100.0
283,7.704119682312012,771.0450621094111,1.776732448368615,771.6082457630943,758.7849335747125,100.0,1.8841114955869767,0.1,0.009181499481201172,0.21974444389343262,0.05063335,0.053834926,770.5835154452643,-0.05280037440765797,7.6913662922590085,100.0,9600,1.4503583908081055,0.00013790249136314892,2.8068310068638913e-05,2599475,485.00575983970936,100.0
284,7.025830268859863,771.1849431435206,0.6125421896984462,771.6610845792474,767.1290433002291,100.0,1.7632011908933398,0.1,0.009310245513916016,0.3050270080566406,0.049081344,0.05513358,770.64365821509,-0.05306764001924241,7.692765693314091,100.0,9600,1.505445957183838,1.9344142616743725e-05,1.3676265090014871e-05,2609075,521.3545581637499,100.0
285,7.237406492233276,768.8000502567544,23.405196416409535,771.651953123788,540.7165809017068,100.0,1.5524126377801661,0.1,0.009355306625366211,0.22862720489501953,0.049981307,0.04683819,770.4592974192565,-0.05358355131626771,7.668916448683731,100.0,9600,1.4730544090270996,0.0013818301165850584,0.0010393819754623442,2618675,456.5331337091997,100.0
286,7.55620002746582,767.7365570939482,34.51035139569483,771.685851521206,431.3751134881864,100.0,1.5408610944134218,0.1,0.01063847541809082,0.2271888256072998,0.04963561,0.053937964,770.1870233867256,-0.05338358929040684,7.65828307737626,100.0,9600,1.5319173336029053,0.0019834238296981507,0.0015551646029646612,2628275,485.06663034677416,100.0
287,7.758040428161621,771.2459669536747,0.16113329723091488,771.6263289471203,770.8667825803367,100.0,1.9304217338056817,0.1,0.009765386581420898,0.21908235549926758,0.049147386,0.05203653,770.2929177434205,-0.053288784737999424,7.693377881928668,100.0,9600,1.5533454418182373,0.0002201043638080593,2.2206577236842114e-05,2637875,517.386329753688,100.0
288,7.181503057479858,771.1594970875998,0.8251052987839784,771.5963885822737,763.2268013914494,100.0,1.6940774387082886,0.1,0.009071111679077148,0.2183547019958496,0.05123285,0.05762207,770.3795756778385,-0.05332223551877576,7.692511097814557,100.0,9600,1.5529847145080566,2.515540058415975e-05,1.594525231951179e-05,2647475,468.9496713950662,100.0
289,7.042347192764282,771.249741156996,0.15723619351654977,771.5770321564402,770.8883092907528,100.0,1.9638598858533467,0.1,0.009278297424316406,0.21377801895141602,0.049872648,0.048137937,770.4665922257543,-0.05325340224077499,7.6934132644258915,100.0,9600,1.5231645107269287,1.2705556543488826e-05,1.0039480699352788e-05,2657075,456.5458091083785,100.0
290,7.163951396942139,771.0758179912849,0.8383977571089907,771.6141539791947,766.9502313507858,100.0,1.9195047229560518,0.1,0.009533405303955078,0.22088241577148438,0.04934876,0.0538298,770.5275148023075,-0.05332586369463843,7.691674136305362,100.0,9600,1.4798097610473633,1.9125898326102894e-05,1.1113508942598225e-05,2666675,452.1031150301601,100.0
291,7.359913110733032,771.2085136625507,0.47204913149995165,771.7730382204257,766.914506937597,100.0,1.687404952288536,0.1,0.008934974670410156,0.21199393272399902,0.049969796,0.057887867,770.5956146883318,-0.053248267168587715,7.693001732831412,100.0,9600,1.4443154335021973,1.037207813163412e-05,8.476266990070638e-06,2676275,460.67757520568614,100.0
292,7.556288003921509,771.2282667744213,0.4505424813034414,771.6420579293366,767.0741864352965,100.0,1.8889421797660677,0.1,0.009575605392456055,0.22580313682556152,0.049984053,0.052578796,770.6588798969408,-0.05304763902437942,7.693202360975621,100.0,9600,1.4874885082244873,1.0907039684188657e-05,7.498258515674456e-06,2685875,476.8517408787459,100.0
293,7.26314115524292,771.1348143226622,0.5965847021425266,771.558902881093,767.1901415498398,100.0,2.0404000345948647,0.1,0.009357929229736328,0.2347240447998047,0.05008685,0.047179926,770.706473339513,-0.05356670313979505,7.692266630193537,100.0,9600,1.668743371963501,8.276346908609015e-06,9.054315266502205e-06,2695475,460.4003557832395,100.0
294,7.5359930992126465,771.2016661452518,0.1424622961561768,771.5517741882306,770.8742513918565,100.0,1.7746386568667016,0.1,0.008962392807006836,0.22403740882873535,0.049756493,0.05489556,770.7559926200869,-0.05373191468144512,7.692934751985223,100.0,9600,1.471365213394165,8.12474236627183e-06,4.9757032350347475e-06,2705075,468.66461346562033,100.0
295,7.643761396408081,770.6192041338054,3.7941759091384806,771.4713515438161,734.7708713682731,100.0,1.7758615591612525,0.1,0.009281635284423828,0.21989941596984863,0.049392127,0.041434582,770.7423137714587,-0.054554656686318266,7.687112009980347,100.0,9600,1.5235254764556885,5.55841472104907e-05,5.6217016725652975e-05,2714675,468.71490747327124,100.0
296,7.371606826782227,770.7542190647858,2.1396235895011113,771.4911128848203,754.9790665591798,100.0,1.6961829519305365,0.1,0.009266376495361328,0.21283197402954102,0.049261734,0.052784868,770.7435043007914,-0.05445684287385064,7.688459823792816,100.0,9600,1.4945697784423828,1.905064270702598e-05,1.2601235742324365e-05,2724275,456.4537512244035,100.0
297,7.62489128112793,771.1063770165862,0.1438112270646163,771.4465494151239,770.7104660338821,100.0,1.8583294099850514,0.1,0.009127140045166016,0.3455972671508789,0.049880587,0.05251148,770.7797915723709,-0.05468559876580777,7.691981067900859,100.0,9600,1.509192943572998,6.052978824759248e-06,4.359164182869638e-06,2733875,477.0249222444788,100.0
298,7.620302438735962,770.9011678723458,1.0250317753859484,771.4780703378149,762.9685859530379,100.0,1.7851309995380982,0.1,0.00928354263305664,0.2238750457763672,0.048407655,0.051285837,770.7919292023684,-0.05506584537140819,7.689934154628593,100.0,9600,1.5046303272247314,5.7632711219854865e-06,1.029872179257215e-05,2743475,473.03296317000195,100.0
299,7.916374206542969,770.9351583028323,1.3263218205348135,771.4977202948725,758.5988237528846,100.0,1.8561002583477335,0.1,0.00917673110961914,0.21255111694335938,0.050096318,0.053086832,770.8062521124148,-0.054730102999818064,7.690269897000182,100.0,9600,1.486954689025879,1.419890935503792e-05,1.8239703295618482e-05,2753075,473.14802599667564,100.0
300,7.2732932567596436,770.8088070950301,1.3726388976961987,771.5334057500129,762.7439969268976,100.0,1.704754976079575,0.1,0.009002447128295898,0.2740473747253418,0.050212458,0.05233319,770.8065076106764,-0.054741634784302114,7.689008365215698,100.0,9600,1.4611928462982178,1.8384264886490243e-05,1.33972432088782e-05,2762675,460.8158253514933,100.0
301,7.362926959991455,771.0104598284369,0.6134303402759573,771.4485203958371,766.8171323447642,100.0,1.8282349917440033,0.1,0.008651256561279297,0.2612476348876953,0.048716143,0.051756274,770.8269028324523,-0.05480818851349673,7.691025144819837,100.0,9600,1.4524166584014893,1.0377695813085773e-05,3.5908476400164024e-06,2772275,468.84908233732284,100.0
302,7.708831548690796,771.055701224398,0.9403386454420559,771.6088848338375,763.0109440130666,100.0,1.7887816688450706,0.1,0.011289596557617188,0.2193131446838379,0.049878325,0.055340964,770.8497826716468,-0.05394191899475743,7.691474747671909,100.0,9600,1.4631295204162598,6.540756263917024e-06,6.507505102972522e-06,2781875,468.99862857578387,100.0
303,7.315438508987427,771.0610659455086,0.6210889183847168,771.5238151246978,766.9573969857069,100.0,1.8289801274135395,0.1,0.014823436737060547,0.35538792610168457,0.049576078,0.05338031,770.8709109990331,-0.05430468124676576,7.691528652086567,100.0,9600,1.452847957611084,4.2854683752756246e-06,3.366804296769009e-06,2791475,473.2996412387278,100.0
304,7.120759725570679,770.9811663715092,1.0299436121466912,771.5202587477098,762.980796785566,100.0,1.7851981817308973,0.1,0.009586811065673828,0.21754670143127441,0.049645662,0.054697633,770.8819365362807,-0.05427165076722424,7.690728349232775,100.0,9600,1.440908432006836,5.7164354157531295e-06,7.757677450447245e-06,2801075,465.0158539546368,100.0
305,7.676911354064941,770.1689288278236,7.3828830649014785,771.5963248056029,705.8807293744042,100.0,2.0620268816833334,0.1,0.009003162384033203,0.21447443962097168,0.04931791,0.041212905,770.810635765435,-0.05405862735276153,7.682608039313905,100.0,9600,1.4815051555633545,0.00021432098540804972,0.00013705333196732195,2810675,460.5941473219245,100.0
306,7.561618804931641,770.9862886168991,1.3700104130962643,771.5557837778435,759.0744383311455,100.0,1.8404952013939893,0.1,0.009147405624389648,0.2239232063293457,0.049281232,0.05301652,770.8282010505815,-0.05380224643859455,7.690781086894741,100.0,9600,1.4416038990020752,2.3043231327368356e-05,8.600525028195232e-06,2820275,464.817289194594,100.0
307,7.570275068283081,771.0465481157439,0.7420394160623023,771.5643956829979,766.9474235394209,100.0,1.8406355572462185,0.1,0.008760452270507812,0.22910332679748535,0.049257345,0.05334158,770.8500357570978,-0.05403211353260059,7.691384553134067,100.0,9600,1.4684419631958008,7.1160261198586954e-06,3.138820678003531e-06,2829875,460.790170066485,100.0
308,7.574838876724243,771.0067243061161,1.5315443091397836,771.6361680659147,758.7520423205897,100.0,1.722521565626723,0.1,0.009668827056884766,0.31105589866638184,0.05018209,0.045504443,770.8657046119997,-0.0536001527695327,7.6909831805638005,100.0,9600,1.4791243076324463,5.122427079090567e-06,4.8669087205731535e-06,2839475,460.86611065031616,100.0
309,7.80142879486084,770.8104684859404,3.3989707366010733,771.6303583525987,737.9948439168003,100.0,1.874801667077142,0.1,0.009073972702026367,0.23259878158569336,0.049913455,0.04628094,770.8601809993938,-0.05389207737383687,7.68902458929283,100.0,9600,1.461134672164917,3.5892600792680465e-05,4.9074090151131045e-05,2849075,456.38506103288006,100.0
310,7.319442987442017,770.8976533110214,1.5664521539277643,771.652102314842,758.8562027484721,100.0,1.7775344615658109,0.1,0.0102386474609375,0.2738814353942871,0.04948616,0.060344078,770.8639282305567,-0.05427121438787896,7.689895452278788,100.0,9600,1.548306941986084,4.070466462793669e-05,1.2385249496562232e-05,2858675,460.39378662109266,100.0
311,7.848101854324341,771.1974233815531,0.16796371469492405,771.4798687308173,770.6110764708022,100.0,1.7085776492971412,0.1,0.009412050247192383,0.25164103507995605,0.0493396,0.06281156,770.8972777456563,-0.05377350754711901,7.692893159119547,100.0,9600,1.5924952030181885,5.40603819134271e-06,2.5612584586666723e-06,2868275,456.489178789523,100.0
312,7.645375490188599,771.1364857665529,0.46675986358904714,771.57320919707,766.9044037696716,100.0,1.9070466065072427,0.1,0.01032114028930664,0.22952008247375488,0.050267868,0.0500584,770.9211985477459,-0.053966586049850766,7.6922834139501495,100.0,9600,1.6507267951965332,2.8494102501758304e-06,3.493165940913732e-06,2877875,456.0315821368205,100.0
313,7.2947447299957275,770.9663166988084,1.8783668547389911,771.6602943020135,754.9721170907525,100.0,2.0359573782414295,0.1,0.010245084762573242,0.252368688583374,0.05013685,0.04400755,770.9257103628522,-0.053586792542291206,7.690579874124374,100.0,9600,1.570664405822754,1.4483099147347726e-05,1.346223603898627e-05,2887475,456.01182113684973,100.0
314,7.350515127182007,771.1809780282459,0.4115043244067535,771.6026862411697,767.4727724783627,100.0,1.8717842160549185,0.1,0.009056568145751953,0.2181558609008789,0.04968567,0.052366424,770.9512371293915,-0.05352561820432634,7.692724381795673,100.0,9600,1.5784754753112793,3.84835694906329e-06,2.249150297298216e-06,2897075,459.9483065052226,100.0
315,7.180901050567627,771.2113532762654,0.44089864332745377,771.6362548471297,767.140297575099,100.0,1.7652221003478095,0.1,0.012758016586303711,0.3029913902282715,0.049898848,0.053239904,770.977248744079,-0.05322039370980804,7.6930296062901915,100.0,9600,1.750805139541626,2.179704140323079e-06,2.766350536297335e-06,2906675,455.9504972521671,100.0
316,7.392139434814453,771.2275740674642,0.41767506360659407,771.5725155296624,767.295203769468,100.0,1.8368288996355333,0.1,0.01336216926574707,0.2889692783355713,0.050088864,0.052185886,771.0022812764175,-0.05305743683863834,7.693192563161362,100.0,9600,1.9010095596313477,3.0809970857435693e-06,1.7904371634276715e-06,2916275,455.9473809658348,100.0
317,7.351079225540161,770.9894932345247,2.47801750311918,771.5045662377772,746.8735873585516,100.0,1.6689198902483027,0.1,0.011993408203125,0.2886970043182373,0.050276592,0.044602707,771.0010024722283,-0.05335591952510194,7.6908107471415645,100.0,9600,1.8595836162567139,1.2743713758931694e-05,2.2686978823170208e-05,2925875,456.26191322262366,100.0
318,7.984188795089722,771.2862480761347,0.1435409449536732,771.5933128606612,770.8877342338833,100.0,1.916397304270077,0.1,0.01887035369873047,0.46003174781799316,0.05011136,0.053995024,771.029527032619,-0.05289010670844995,7.693776559958216,100.0,9600,2.0729360580444336,1.4875021977958357e-05,3.773722942807769e-06,2935475,456.87939142887643,100.0
319,7.083932638168335,771.3087352847488,0.13350030973007945,771.6452601851372,770.9689695671456,100.0,1.8713710545633289,0.1,0.012551546096801758,0.3081026077270508,0.049729526,0.05347036,771.057447857832,-0.05266092738171719,7.6940057392849495,100.0,9600,1.9566316604614258,3.819586677557861e-06,1.764397506882399e-06,2945075,452.7721663921566,100.0
320,7.610743045806885,770.980145121582,2.909611007872936,771.7040952895468,742.6689567606754,100.0,1.803881896429336,0.1,0.013006210327148438,0.2997703552246094,0.049231585,0.04023784,771.0497175842071,-0.05303383239322712,7.690716167606773,100.0,9600,1.8096818923950195,2.143217901610073e-05,2.3173539114553736e-05,2954675,452.7651440501333,100.0
321,7.220841884613037,771.2265816124442,0.8459486151639078,771.649644507776,763.1121981746312,100.0,1.7077091952164287,0.1,0.011709928512573242,0.3106069564819336,0.049009413,0.05698482,771.0674039870308,-0.052652729734013394,7.693180603599319,100.0,9600,2.3128182888031006,7.79511766666653e-06,3.7399442856729126e-06,2964275,452.8791016092113,100.0
322,7.553027629852295,771.1941823188957,1.1793924010345083,771.6353978112517,763.1076616323987,100.0,1.7523187078291746,0.1,0.014161348342895508,0.3677206039428711,0.05010036,0.045010928,771.0800818202173,-0.05214491942474525,7.692855080575256,100.0,9600,1.8392996788024902,4.60732714253687e-06,3.379639004028917e-06,2973875,448.4024482455167,100.0
323,7.978701591491699,771.1655692188818,1.3424408253070081,771.6696389991813,759.3387420200775,100.0,1.9139045507045351,0.1,0.015440225601196289,0.5554788112640381,0.04990616,0.049450733,771.0886305600837,-0.05201208518007002,7.6925712481532615,100.0,9600,1.891343593597412,7.7979033718449e-06,1.8463761395787665e-05,2983475,456.91058145321676,100.0
324,7.117342472076416,771.3621643632192,0.15977317175949063,771.6205755673612,770.9683892819531,100.0,1.8421992358766879,0.1,0.01195216178894043,0.39719390869140625,0.048840735,0.051285077,771.1159839403973,-0.0521281326557833,7.694538534010884,100.0,9600,1.6909306049346924,1.4265795404162136e-05,2.9588171139154093e-06,2993075,452.59704695655455,100.0
325,7.376163959503174,771.3510933939033,0.13949797150515497,771.6184980632149,771.0172985443753,100.0,1.9198280138341988,0.1,0.013918876647949219,0.3564770221710205,0.049493454,0.052740842,771.139494885748,-0.052241700554907004,7.69442496611176,100.0,9600,1.7062499523162842,2.6234389665988394e-06,1.3348495706093203e-06,3002675,456.4897031889625,100.0
326,8.383530378341675,771.2483111945098,0.6230234004457466,771.6697562156222,766.8159074754404,100.0,1.761799365539164,0.1,0.021123170852661133,0.3124210834503174,0.05074991,0.053543173,771.1503765166242,-0.05243628315814911,7.693397050175183,100.0,9600,1.7056608200073242,2.0328239696300204e-06,2.7990225980177778e-06,3012275,452.55600249030726,100.0
327,8.215248584747314,771.3734027861605,0.14068174056854812,771.6450247629614,770.9508972706618,100.0,1.7531708275494589,0.1,0.01377415657043457,0.34944725036621094,0.049916323,0.054970995,771.1726791435779,-0.05201926643895092,7.694647400227716,100.0,9600,2.055464744567871,2.4285192411703505e-06,1.338982224453844e-06,3021875,452.6704875707821,100.0
328,8.365175485610962,771.3551260531221,0.4286145825121142,771.6511153305348,767.4151596377726,100.0,1.7064618887138125,0.1,0.01115107536315918,0.3042149543762207,0.049659695,0.056400575,771.1909238345323,-0.0517854751731868,7.694464524826813,100.0,9600,1.490011215209961,1.486972328361979e-06,1.8728725607449901e-06,3031475,472.800648870831,100.0
329,8.049216747283936,771.3572634841552,0.4454230042601364,771.702331586943,767.216331238977,100.0,1.6147191586525091,0.1,0.012641429901123047,0.33910393714904785,0.04906799,0.057741813,771.2075577994947,-0.05176364693461418,7.694486353065386,100.0,9600,2.019826650619507,1.9995851465924902e-06,4.651936793028621e-06,3041075,464.8426269869129,100.0
330,8.773390054702759,771.3932582418782,0.1353977058838514,771.7218033137754,771.0613879713396,100.0,1.731705243464461,0.1,0.011230230331420898,0.2791478633880615,0.04998525,0.046469413,771.226127843733,-0.051820822572777016,7.69484584409389,100.0,9600,1.6475238800048828,4.492532521918963e-06,1.0814405631528355e-06,3050675,448.91288120705656,100.0
331,7.691709041595459,771.4095790665166,0.12248616663452425,771.674098538828,771.0487704383938,100.0,1.810781484086691,0.1,0.026894092559814453,0.5426380634307861,0.049583375,0.053583976,771.2444729660115,-0.051658132641496456,7.69500853402517,100.0,9600,1.6719319820404053,1.1590116098497215e-06,1.280737780797855e-06,3060275,449.01981117787847,100.0
332,7.677137613296509,771.4208940200848,0.10759594798292815,771.6482040963895,771.1415409483602,100.0,1.7710738285348135,0.1,0.027593374252319336,0.5166196823120117,0.04999364,0.06491156,771.2621150714187,-0.05154307303756395,7.695123593629103,100.0,9600,2.736412763595581,1.4663980677215579e-06,1.3807657627735777e-06,3069875,452.65078102168485,100.0
333,7.3431947231292725,771.4032197598144,0.12919734129316432,771.6621142126687,770.9165969257,100.0,1.8481829405084131,0.1,0.017345666885375977,0.3614046573638916,0.04976207,0.061454862,771.2762255402583,-0.05172120742300479,7.694945459243662,100.0,9600,1.7453060150146484,1.4648974958663231e-06,3.2248404667603206e-06,3079475,452.79081261093125,100.0
334,8.421453475952148,771.3827733108469,0.12539324917320532,771.6346666365113,770.9834249390002,100.0,1.9345515251744627,0.1,0.021419286727905273,0.44278430938720703,0.050014023,0.054091264,771.2868803173172,-0.05192449974407193,7.694742166922595,100.0,9600,2.9616661071777344,3.346276474477158e-06,1.0991059601799242e-06,3089075,452.9127239056157,100.0
335,7.236477375030518,771.3568619576258,0.5827148682077536,771.7372243589774,767.387758552813,100.0,1.7905391263119717,0.1,0.017437219619750977,0.42586851119995117,0.050119136,0.053274535,771.2938784813481,-0.051350308737988216,7.694483024595345,100.0,9600,1.5589792728424072,1.270879264225937e-06,1.3383018617832624e-06,3098675,456.51970249316827,100.0
336,8.500105619430542,771.4241801933135,0.12438829317728456,771.6933027464006,771.00442295928,100.0,1.8568735023902143,0.1,0.015706539154052734,0.35511040687561035,0.05007626,0.053434946,771.3069086525446,-0.05151067703643592,7.69515598963023,100.0,9600,1.515500783920288,1.3112467549240401e-06,1.952482970831132e-06,3108275,448.1871371451054,100.0
337,8.994376182556152,771.4525330774269,0.13853500814861539,771.689031199965,770.9929365645856,100.0,1.977324029510871,0.1,0.018283605575561523,0.39724206924438477,0.049087644,0.049290434,771.3214710950328,-0.051228496642639114,7.695438170024029,100.0,9600,1.4433138370513916,1.9424610817345713e-06,5.04666012730447e-06,3117875,452.6742435530921,100.0
338,8.17298150062561,770.8099305186456,5.8430802094796,771.6454209052066,714.0157115471136,100.0,1.3904096547262297,0.1,0.01841592788696289,0.5769567489624023,0.049926203,0.036231376,771.2703170373941,-0.05140376216265705,7.6890129045040085,100.0,9600,2.38724422454834,4.1118942251773976e-05,3.287398494551547e-05,3127475,456.87634789743316,100.0
339,8.826631307601929,771.4105910261284,0.44688571007345734,771.7721286269157,767.2220044120403,100.0,1.8167195583288251,0.1,0.017474889755249023,0.4337735176086426,0.050673038,0.055726133,771.2843444362676,-0.051231075345179095,7.695018924654821,100.0,9600,1.430497646331787,4.278017260938454e-06,1.955362272014164e-06,3137075,452.92388832481623,100.0
