Iter | Sampling Pol | Evaluation Pol | Best (Sampled) 
   0 -25.30 -25.19 -100000000.00 
   1 -25.02 -23.86 -25.30 
   2 -24.03 -20.15 -25.02 
   3 -20.93 -16.66 -24.03 
   4 -17.54 -14.90 -20.93 
   5 -15.68 -13.31 -17.54 
   6 -14.08 -12.19 -15.68 
   7 -12.79 -11.55 -14.08 
   8 -11.98 -11.13 -12.79 
   9 -11.41 -10.91 -11.98 
  10 -11.07 -10.91 -11.41 
  11 -10.97 -10.92 -11.07 
  12 -10.93 -10.91 -10.97 
  13 -10.93 -10.91 -10.93 
  14 -10.86 -10.91 -10.93 
  15 -10.85 -10.93 -10.86 
  16 -10.86 -10.96 -10.85 
  17 -10.85 -10.89 -10.85 
  18 -10.79 -10.88 -10.85 
  19 -10.78 -10.87 -10.79 
  20 -10.75 -10.85 -10.78 
  21 -10.72 -10.80 -10.75 
  22 -10.69 -10.69 -10.72 
  23 -10.58 -10.57 -10.69 
  24 -10.48 -10.58 -10.58 
  25 -10.51 -10.60 -10.48 
  26 -10.49 -10.53 -10.48 
  27 -10.46 -10.42 -10.48 
  28 -10.38 -10.39 -10.46 
  29 -10.36 -10.33 -10.38 
  30 -10.32 -10.27 -10.36 
  31 -10.26 -10.19 -10.32 
  32 -10.23 -10.14 -10.26 
  33 -10.20 -10.14 -10.23 
  34 -10.20 -10.11 -10.20 
  35 -10.18 -10.05 -10.20 
  36 -10.13 -10.04 -10.18 
  37 -10.13 -10.01 -10.13 
  38 -10.09 -10.01 -10.13 
  39 -10.08 -10.00 -10.09 
  40 -10.06 -9.97 -10.08 
  41 -10.04 -9.96 -10.06 
  42 -10.03 -9.95 -10.04 
  43 -10.02 -9.94 -10.03 
  44 -10.02 -9.92 -10.02 
  45 -9.99 -9.92 -10.02 
  46 -9.99 -9.92 -9.99 
  47 -10.00 -9.88 -9.99 
  48 -9.98 -9.88 -9.99 
  49 -9.97 -9.86 -9.98 
  50 -9.97 -9.86 -9.97 
  51 -9.97 -9.86 -9.97 
  52 -9.97 -9.84 -9.97 
  53 -9.94 -9.84 -9.97 
  54 -9.94 -9.82 -9.94 
  55 -9.91 -9.81 -9.94 
  56 -9.90 -9.83 -9.91 
  57 -9.94 -9.81 -9.90 
  58 -9.90 -9.81 -9.90 
  59 -9.91 -9.81 -9.90 
  60 -9.92 -9.85 -9.90 
  61 -9.96 -9.83 -9.90 
  62 -9.94 -9.84 -9.90 
  63 -9.95 -9.81 -9.90 
  64 -9.91 -9.81 -9.90 
  65 -9.91 -9.80 -9.90 
  66 -9.91 -9.81 -9.90 
  67 -9.90 -9.80 -9.90 
  68 -9.90 -9.79 -9.90 
  69 -9.90 -9.78 -9.90 
  70 -9.88 -9.78 -9.90 
  71 -9.87 -9.79 -9.88 
  72 -9.87 -9.78 -9.87 
  73 -9.87 -9.79 -9.87 
  74 -9.87 -9.78 -9.87 
  75 -9.87 -9.79 -9.87 
  76 -9.88 -9.78 -9.87 
  77 -9.86 -9.79 -9.87 
  78 -9.88 -9.80 -9.86 
  79 -9.89 -9.79 -9.86 
  80 -9.87 -9.78 -9.86 
  81 -9.85 -9.78 -9.86 
  82 -9.85 -9.78 -9.85 
  83 -9.86 -9.78 -9.85 
  84 -9.86 -9.78 -9.85 
  85 -9.86 -9.78 -9.85 
  86 -9.86 -9.79 -9.85 
  87 -9.87 -9.79 -9.85 
  88 -9.88 -9.80 -9.85 
  89 -9.88 -9.80 -9.85 
  90 -9.88 -9.80 -9.85 
  91 -9.88 -9.79 -9.85 
  92 -9.86 -9.79 -9.85 
  93 -9.87 -9.80 -9.85 
  94 -9.89 -9.80 -9.85 
  95 -9.90 -9.80 -9.85 
  96 -9.90 -9.79 -9.85 
  97 -9.88 -9.79 -9.85 
  98 -9.88 -9.78 -9.85 
  99 -9.86 -9.79 -9.85 
 100 -9.87 -9.78 -9.85 
 101 -9.88 -9.77 -9.85 
 102 -9.86 -9.77 -9.85 
 103 -9.86 -9.77 -9.85 
 104 -9.85 -9.77 -9.85 
 105 -9.84 -9.77 -9.85 
 106 -9.84 -9.76 -9.84 
 107 -9.85 -9.75 -9.84 
 108 -9.82 -9.76 -9.84 
 109 -9.83 -9.75 -9.82 
 110 -9.81 -9.75 -9.82 
 111 -9.81 -9.75 -9.81 
 112 -9.81 -9.75 -9.81 
 113 -9.82 -9.75 -9.81 
 114 -9.81 -9.75 -9.81 
 115 -9.82 -9.75 -9.81 
 116 -9.81 -9.76 -9.81 
 117 -9.82 -9.76 -9.81 
 118 -9.82 -9.76 -9.81 
 119 -9.82 -9.75 -9.81 
 120 -9.82 -9.76 -9.81 
 121 -9.82 -9.76 -9.81 
 122 -9.82 -9.75 -9.81 
 123 -9.81 -9.76 -9.81 
 124 -9.81 -9.75 -9.81 
 125 -9.80 -9.75 -9.81 
 126 -9.80 -9.75 -9.80 
 127 -9.79 -9.76 -9.80 
 128 -9.80 -9.76 -9.79 
 129 -9.80 -9.75 -9.79 
 130 -9.79 -9.75 -9.79 
 131 -9.79 -9.75 -9.79 
 132 -9.80 -9.76 -9.79 
 133 -9.81 -9.75 -9.79 
 134 -9.81 -9.75 -9.79 
 135 -9.81 -9.75 -9.79 
 136 -9.81 -9.76 -9.79 
 137 -9.82 -9.76 -9.79 
 138 -9.84 -9.76 -9.79 
 139 -9.83 -9.77 -9.79 
 140 -9.85 -9.78 -9.79 
 141 -9.85 -9.77 -9.79 
 142 -9.85 -9.77 -9.79 
 143 -9.85 -9.76 -9.79 
 144 -9.84 -9.78 -9.79 
 145 -9.84 -9.77 -9.79 
 146 -9.84 -9.77 -9.79 
 147 -9.84 -9.78 -9.79 
 148 -9.85 -9.77 -9.79 
 149 -9.84 -9.76 -9.79 
 150 -9.83 -9.77 -9.79 
 151 -9.84 -9.77 -9.79 
 152 -9.84 -9.77 -9.79 
 153 -9.83 -9.76 -9.79 
 154 -9.83 -9.76 -9.79 
 155 -9.83 -9.77 -9.79 
 156 -9.82 -9.78 -9.79 
 157 -9.84 -9.77 -9.79 
 158 -9.83 -9.76 -9.79 
 159 -9.82 -9.77 -9.79 
 160 -9.81 -9.77 -9.79 
 161 -9.82 -9.77 -9.79 
 162 -9.81 -9.76 -9.79 
 163 -9.81 -9.76 -9.79 
 164 -9.82 -9.76 -9.79 
 165 -9.82 -9.77 -9.79 
 166 -9.82 -9.77 -9.79 
 167 -9.82 -9.77 -9.79 
 168 -9.83 -9.78 -9.79 
 169 -9.84 -9.78 -9.79 
 170 -9.84 -9.78 -9.79 
 171 -9.83 -9.78 -9.79 
 172 -9.83 -9.77 -9.79 
 173 -9.82 -9.77 -9.79 
 174 -9.82 -9.77 -9.79 
 175 -9.82 -9.77 -9.79 
 176 -9.82 -9.77 -9.79 
 177 -9.82 -9.77 -9.79 
 178 -9.82 -9.77 -9.79 
 179 -9.81 -9.77 -9.79 
 180 -9.82 -9.77 -9.79 
 181 -9.82 -9.78 -9.79 
 182 -9.82 -9.77 -9.79 
 183 -9.82 -9.77 -9.79 
 184 -9.82 -9.77 -9.79 
 185 -9.83 -9.77 -9.79 
 186 -9.81 -9.77 -9.79 
 187 -9.82 -9.77 -9.79 
 188 -9.82 -9.77 -9.79 
 189 -9.82 -9.76 -9.79 
 190 -9.81 -9.76 -9.79 
 191 -9.82 -9.76 -9.79 
 192 -9.80 -9.76 -9.79 
 193 -9.80 -9.76 -9.79 
 194 -9.81 -9.77 -9.79 
 195 -9.81 -9.77 -9.79 
 196 -9.81 -9.76 -9.79 
 197 -9.81 -9.76 -9.79 
 198 -9.81 -9.77 -9.79 
 199 -9.82 -9.77 -9.79 
 200 -9.81 -9.78 -9.79 
 201 -9.82 -9.78 -9.79 
 202 -9.82 -9.77 -9.79 
 203 -9.82 -9.77 -9.79 
 204 -9.81 -9.78 -9.79 
 205 -9.83 -9.78 -9.79 
 206 -9.84 -9.77 -9.79 
 207 -9.82 -9.77 -9.79 
 208 -9.81 -9.76 -9.79 
 209 -9.82 -9.77 -9.79 
 210 -9.83 -9.77 -9.79 
 211 -9.84 -9.75 -9.79 
 212 -9.82 -9.74 -9.79 
 213 -9.80 -9.75 -9.79 
 214 -9.81 -9.76 -9.79 
 215 -9.82 -9.76 -9.79 
 216 -9.83 -9.77 -9.79 
 217 -9.84 -9.78 -9.79 
 218 -9.85 -9.77 -9.79 
 219 -9.83 -9.78 -9.79 
 220 -9.84 -9.75 -9.79 
 221 -9.81 -9.75 -9.79 
 222 -9.81 -9.75 -9.79 
 223 -9.81 -9.75 -9.79 
 224 -9.82 -9.76 -9.79 
 225 -9.83 -9.76 -9.79 
 226 -9.82 -9.77 -9.79 
 227 -9.83 -9.78 -9.79 
 228 -9.83 -9.77 -9.79 
 229 -9.83 -9.81 -9.79 
 230 -9.87 -9.78 -9.79 
 231 -9.86 -9.79 -9.79 
 232 -9.85 -9.79 -9.79 
 233 -9.86 -9.80 -9.79 
 234 -9.85 -9.81 -9.79 
 235 -9.86 -9.79 -9.79 
 236 -9.86 -9.78 -9.79 
 237 -9.84 -9.79 -9.79 
 238 -9.85 -9.80 -9.79 
 239 -9.84 -9.79 -9.79 
 240 -9.84 -9.77 -9.79 
 241 -9.83 -9.77 -9.79 
 242 -9.83 -9.78 -9.79 
 243 -9.83 -9.78 -9.79 
 244 -9.83 -9.78 -9.79 
 245 -9.84 -9.80 -9.79 
 246 -9.85 -9.80 -9.79 
 247 -9.84 -9.78 -9.79 
 248 -9.84 -9.79 -9.79 
 249 -9.83 -9.78 -9.79 
 250 -9.83 -9.77 -9.79 
 251 -9.83 -9.77 -9.79 
 252 -9.83 -9.76 -9.79 
 253 -9.83 -9.76 -9.79 
 254 -9.82 -9.75 -9.79 
 255 -9.82 -9.74 -9.79 
 256 -9.82 -9.73 -9.79 
 257 -9.81 -9.75 -9.79 
 258 -9.82 -9.75 -9.79 
 259 -9.83 -9.73 -9.79 
 260 -9.81 -9.73 -9.79 
 261 -9.82 -9.73 -9.79 
 262 -9.81 -9.73 -9.79 
 263 -9.80 -9.73 -9.79 
 264 -9.79 -9.73 -9.79 
 265 -9.80 -9.74 -9.79 
 266 -9.80 -9.74 -9.79 
 267 -9.80 -9.74 -9.79 
 268 -9.80 -9.74 -9.79 
 269 -9.80 -9.74 -9.79 
 270 -9.79 -9.73 -9.79 
 271 -9.79 -9.74 -9.79 
 272 -9.78 -9.74 -9.79 
 273 -9.79 -9.74 -9.78 
 274 -9.79 -9.75 -9.78 
 275 -9.80 -9.75 -9.78 
 276 -9.80 -9.76 -9.78 
 277 -9.80 -9.76 -9.78 
 278 -9.81 -9.76 -9.78 
 279 -9.81 -9.75 -9.78 
 280 -9.80 -9.75 -9.78 
 281 -9.81 -9.75 -9.78 
 282 -9.79 -9.75 -9.78 
 283 -9.80 -9.74 -9.78 
 284 -9.80 -9.75 -9.78 
 285 -9.80 -9.75 -9.78 
 286 -9.80 -9.75 -9.78 
 287 -9.79 -9.76 -9.78 
 288 -9.80 -9.75 -9.78 
 289 -9.81 -9.75 -9.78 
 290 -9.81 -9.75 -9.78 
 291 -9.80 -9.74 -9.78 
 292 -9.80 -9.75 -9.78 
 293 -9.79 -9.75 -9.78 
 294 -9.80 -9.74 -9.78 
 295 -9.78 -9.73 -9.78 
 296 -9.78 -9.73 -9.78 
 297 -9.78 -9.73 -9.78 
 298 -9.78 -9.72 -9.78 
 299 -9.78 -9.73 -9.78 
 300 -9.78 -9.72 -9.78 
 301 -9.78 -9.72 -9.78 
 302 -9.78 -9.72 -9.78 
 303 -9.78 -9.73 -9.78 
 304 -9.78 -9.73 -9.78 
 305 -9.79 -9.73 -9.78 
 306 -9.78 -9.73 -9.78 
 307 -9.78 -9.73 -9.78 
 308 -9.79 -9.73 -9.78 
 309 -9.78 -9.73 -9.78 
 310 -9.78 -9.73 -9.78 
 311 -9.78 -9.73 -9.78 
 312 -9.78 -9.74 -9.78 
 313 -9.78 -9.74 -9.78 
 314 -9.78 -9.75 -9.78 
 315 -9.79 -9.75 -9.78 
 316 -9.79 -9.75 -9.78 
 317 -9.79 -9.74 -9.78 
 318 -9.79 -9.74 -9.78 
 319 -9.78 -9.73 -9.78 
 320 -9.78 -9.73 -9.78 
 321 -9.77 -9.73 -9.78 
 322 -9.78 -9.74 -9.77 
 323 -9.78 -9.74 -9.77 
 324 -9.79 -9.74 -9.77 
 325 -9.79 -9.74 -9.77 
 326 -9.79 -9.73 -9.77 
 327 -9.79 -9.72 -9.77 
 328 -9.78 -9.72 -9.77 
 329 -9.78 -9.73 -9.77 
 330 -9.78 -9.73 -9.77 
 331 -9.78 -9.74 -9.77 
 332 -9.79 -9.74 -9.77 
 333 -9.79 -9.73 -9.77 
 334 -9.79 -9.73 -9.77 
 335 -9.78 -9.72 -9.77 
 336 -9.78 -9.73 -9.77 
 337 -9.79 -9.72 -9.77 
 338 -9.79 -9.72 -9.77 
 339 -9.79 -9.73 -9.77 
 340 -9.79 -9.73 -9.77 
 341 -9.80 -9.73 -9.77 
 342 -9.80 -9.74 -9.77 
 343 -9.80 -9.73 -9.77 
 344 -9.79 -9.73 -9.77 
 345 -9.79 -9.73 -9.77 
 346 -9.79 -9.73 -9.77 
 347 -9.79 -9.72 -9.77 
 348 -9.79 -9.72 -9.77 
 349 -9.79 -9.73 -9.77 
 350 -9.79 -9.72 -9.77 
 351 -9.79 -9.72 -9.77 
 352 -9.80 -9.73 -9.77 
 353 -9.79 -9.73 -9.77 
 354 -9.80 -9.73 -9.77 
 355 -9.80 -9.74 -9.77 
 356 -9.80 -9.73 -9.77 
 357 -9.80 -9.74 -9.77 
 358 -9.81 -9.73 -9.77 
 359 -9.80 -9.74 -9.77 
 360 -9.81 -9.74 -9.77 
 361 -9.81 -9.75 -9.77 
 362 -9.82 -9.75 -9.77 
 363 -9.82 -9.75 -9.77 
 364 -9.82 -9.76 -9.77 
 365 -9.83 -9.75 -9.77 
 366 -9.82 -9.77 -9.77 
 367 -9.83 -9.77 -9.77 
 368 -9.84 -9.76 -9.77 
 369 -9.83 -9.76 -9.77 
 370 -9.82 -9.76 -9.77 
 371 -9.83 -9.76 -9.77 
 372 -9.82 -9.75 -9.77 
 373 -9.81 -9.75 -9.77 
 374 -9.81 -9.76 -9.77 
 375 -9.82 -9.75 -9.77 
 376 -9.80 -9.75 -9.77 
 377 -9.80 -9.76 -9.77 
 378 -9.81 -9.76 -9.77 
 379 -9.82 -9.76 -9.77 
 380 -9.82 -9.76 -9.77 
 381 -9.82 -9.77 -9.77 
 382 -9.82 -9.78 -9.77 
 383 -9.83 -9.78 -9.77 
 384 -9.83 -9.79 -9.77 
 385 -9.84 -9.81 -9.77 
 386 -9.84 -9.81 -9.77 
 387 -9.84 -9.79 -9.77 
 388 -9.83 -9.79 -9.77 
 389 -9.82 -9.79 -9.77 
 390 -9.82 -9.78 -9.77 
 391 -9.81 -9.77 -9.77 
 392 -9.81 -9.77 -9.77 
 393 -9.81 -9.77 -9.77 
 394 -9.81 -9.76 -9.77 
 395 -9.80 -9.76 -9.77 
 396 -9.80 -9.76 -9.77 
 397 -9.79 -9.76 -9.77 
 398 -9.79 -9.76 -9.77 
 399 -9.80 -9.77 -9.77 
 400 -9.80 -9.77 -9.77 
 401 -9.80 -9.77 -9.77 
 402 -9.80 -9.76 -9.77 
 403 -9.80 -9.76 -9.77 
 404 -9.80 -9.77 -9.77 
 405 -9.80 -9.77 -9.77 
 406 -9.80 -9.77 -9.77 
 407 -9.80 -9.77 -9.77 
 408 -9.80 -9.76 -9.77 
 409 -9.79 -9.76 -9.77 
 410 -9.79 -9.75 -9.77 
 411 -9.79 -9.75 -9.77 
 412 -9.78 -9.75 -9.77 
 413 -9.78 -9.75 -9.77 
 414 -9.79 -9.75 -9.77 
 415 -9.79 -9.74 -9.77 
 416 -9.78 -9.74 -9.77 
 417 -9.78 -9.74 -9.77 
 418 -9.79 -9.74 -9.77 
 419 -9.78 -9.73 -9.77 
 420 -9.79 -9.74 -9.77 
 421 -9.78 -9.74 -9.77 
 422 -9.79 -9.76 -9.77 
 423 -9.80 -9.76 -9.77 
 424 -9.81 -9.76 -9.77 
 425 -9.82 -9.75 -9.77 
 426 -9.80 -9.76 -9.77 
 427 -9.80 -9.77 -9.77 
 428 -9.81 -9.75 -9.77 
 429 -9.80 -9.76 -9.77 
 430 -9.81 -9.78 -9.77 
 431 -9.82 -9.79 -9.77 
 432 -9.83 -9.79 -9.77 
 433 -9.83 -9.81 -9.77 
 434 -9.84 -9.81 -9.77 
 435 -9.84 -9.81 -9.77 
 436 -9.84 -9.79 -9.77 
 437 -9.82 -9.77 -9.77 
 438 -9.81 -9.77 -9.77 
 439 -9.80 -9.77 -9.77 
 440 -9.81 -9.76 -9.77 
 441 -9.80 -9.75 -9.77 
 442 -9.79 -9.76 -9.77 
 443 -9.80 -9.77 -9.77 
 444 -9.81 -9.76 -9.77 
 445 -9.79 -9.76 -9.77 
 446 -9.79 -9.76 -9.77 
 447 -9.79 -9.76 -9.77 
 448 -9.80 -9.76 -9.77 
 449 -9.80 -9.76 -9.77 
 450 -9.79 -9.76 -9.77 
 451 -9.79 -9.76 -9.77 
 452 -9.79 -9.76 -9.77 
 453 -9.79 -9.76 -9.77 
 454 -9.79 -9.76 -9.77 
 455 -9.79 -9.75 -9.77 
 456 -9.79 -9.75 -9.77 
 457 -9.79 -9.75 -9.77 
 458 -9.79 -9.75 -9.77 
 459 -9.79 -9.75 -9.77 
 460 -9.78 -9.75 -9.77 
 461 -9.79 -9.77 -9.77 
 462 -9.80 -9.76 -9.77 
 463 -9.80 -9.76 -9.77 
 464 -9.79 -9.77 -9.77 
 465 -9.80 -9.76 -9.77 
 466 -9.80 -9.76 -9.77 
 467 -9.79 -9.76 -9.77 
 468 -9.79 -9.77 -9.77 
 469 -9.80 -9.76 -9.77 
 470 -9.79 -9.76 -9.77 
 471 -9.79 -9.75 -9.77 
 472 -9.79 -9.76 -9.77 
 473 -9.79 -9.75 -9.77 
 474 -9.79 -9.76 -9.77 
 475 -9.79 -9.76 -9.77 
 476 -9.79 -9.76 -9.77 
 477 -9.79 -9.77 -9.77 
 478 -9.80 -9.77 -9.77 
 479 -9.80 -9.76 -9.77 
 480 -9.80 -9.76 -9.77 
 481 -9.80 -9.76 -9.77 
 482 -9.80 -9.76 -9.77 
 483 -9.80 -9.76 -9.77 
 484 -9.80 -9.76 -9.77 
 485 -9.79 -9.76 -9.77 
 486 -9.80 -9.76 -9.77 
 487 -9.80 -9.76 -9.77 
 488 -9.79 -9.75 -9.77 
 489 -9.79 -9.75 -9.77 
 490 -9.79 -9.75 -9.77 
 491 -9.79 -9.76 -9.77 
 492 -9.81 -9.80 -9.77 
 493 -9.85 -9.79 -9.77 
 494 -9.84 -9.76 -9.77 
 495 -9.80 -9.76 -9.77 
 496 -9.80 -9.79 -9.77 
 497 -9.84 -9.78 -9.77 
 498 -9.83 -9.76 -9.77 
 499 -9.81 -9.76 -9.77 
 500 -9.80 -9.76 -9.77 
 501 -9.79 -9.76 -9.77 
 502 -9.79 -9.76 -9.77 
 503 -9.79 -9.77 -9.77 
 504 -9.79 -9.76 -9.77 
 505 -9.79 -9.76 -9.77 
 506 -9.80 -9.78 -9.77 
 507 -9.81 -9.78 -9.77 
 508 -9.81 -9.79 -9.77 
 509 -9.83 -9.78 -9.77 
 510 -9.82 -9.79 -9.77 
 511 -9.82 -9.78 -9.77 
 512 -9.82 -9.79 -9.77 
 513 -9.82 -9.79 -9.77 
 514 -9.83 -9.78 -9.77 
 515 -9.81 -9.79 -9.77 
 516 -9.82 -9.79 -9.77 
 517 -9.81 -9.79 -9.77 
 518 -9.81 -9.79 -9.77 
 519 -9.81 -9.79 -9.77 
 520 -9.81 -9.79 -9.77 
 521 -9.81 -9.80 -9.77 
 522 -9.82 -9.79 -9.77 
 523 -9.82 -9.79 -9.77 
 524 -9.81 -9.79 -9.77 
 525 -9.81 -9.78 -9.77 
 526 -9.80 -9.79 -9.77 
 527 -9.82 -9.80 -9.77 
 528 -9.82 -9.79 -9.77 
 529 -9.81 -9.79 -9.77 
 530 -9.81 -9.81 -9.77 
 531 -9.83 -9.79 -9.77 
 532 -9.82 -9.80 -9.77 
 533 -9.82 -9.80 -9.77 
 534 -9.83 -9.82 -9.77 
 535 -9.83 -9.82 -9.77 
 536 -9.84 -9.80 -9.77 
 537 -9.82 -9.81 -9.77 
 538 -9.82 -9.81 -9.77 
 539 -9.82 -9.81 -9.77 
 540 -9.83 -9.81 -9.77 
 541 -9.82 -9.82 -9.77 
 542 -9.84 -9.83 -9.77 
 543 -9.85 -9.81 -9.77 
 544 -9.83 -9.80 -9.77 
 545 -9.82 -9.80 -9.77 
 546 -9.82 -9.80 -9.77 
 547 -9.81 -9.80 -9.77 
 548 -9.81 -9.79 -9.77 
 549 -9.82 -9.79 -9.77 
 550 -9.82 -9.79 -9.77 
 551 -9.81 -9.79 -9.77 
 552 -9.81 -9.80 -9.77 
 553 -9.82 -9.80 -9.77 
 554 -9.83 -9.80 -9.77 
 555 -9.83 -9.80 -9.77 
 556 -9.82 -9.79 -9.77 
 557 -9.82 -9.79 -9.77 
 558 -9.81 -9.79 -9.77 
 559 -9.81 -9.79 -9.77 
 560 -9.81 -9.79 -9.77 
 561 -9.81 -9.79 -9.77 
 562 -9.80 -9.78 -9.77 
 563 -9.80 -9.79 -9.77 
 564 -9.80 -9.79 -9.77 
 565 -9.80 -9.79 -9.77 
 566 -9.81 -9.80 -9.77 
 567 -9.81 -9.80 -9.77 
 568 -9.81 -9.80 -9.77 
 569 -9.82 -9.80 -9.77 
 570 -9.82 -9.80 -9.77 
 571 -9.81 -9.80 -9.77 
 572 -9.81 -9.80 -9.77 
 573 -9.81 -9.81 -9.77 
 574 -9.82 -9.81 -9.77 
 575 -9.82 -9.81 -9.77 
 576 -9.83 -9.81 -9.77 
 577 -9.82 -9.81 -9.77 
 578 -9.82 -9.81 -9.77 
 579 -9.82 -9.81 -9.77 
 580 -9.82 -9.80 -9.77 
 581 -9.82 -9.80 -9.77 
 582 -9.81 -9.79 -9.77 
 583 -9.81 -9.80 -9.77 
 584 -9.81 -9.79 -9.77 
 585 -9.81 -9.80 -9.77 
 586 -9.81 -9.80 -9.77 
 587 -9.81 -9.79 -9.77 
 588 -9.81 -9.80 -9.77 
 589 -9.82 -9.80 -9.77 
 590 -9.81 -9.79 -9.77 
 591 -9.81 -9.79 -9.77 
 592 -9.82 -9.79 -9.77 
 593 -9.81 -9.80 -9.77 
 594 -9.82 -9.80 -9.77 
 595 -9.82 -9.80 -9.77 
 596 -9.82 -9.79 -9.77 
 597 -9.81 -9.80 -9.77 
 598 -9.81 -9.80 -9.77 
 599 -9.81 -9.80 -9.77 
 600 -9.81 -9.80 -9.77 
 601 -9.81 -9.80 -9.77 
 602 -9.81 -9.80 -9.77 
 603 -9.81 -9.80 -9.77 
 604 -9.81 -9.80 -9.77 
 605 -9.82 -9.80 -9.77 
 606 -9.82 -9.79 -9.77 
 607 -9.81 -9.79 -9.77 
 608 -9.82 -9.79 -9.77 
 609 -9.81 -9.79 -9.77 
 610 -9.81 -9.79 -9.77 
 611 -9.82 -9.79 -9.77 
 612 -9.83 -9.79 -9.77 
 613 -9.83 -9.79 -9.77 
 614 -9.83 -9.80 -9.77 
 615 -9.83 -9.80 -9.77 
 616 -9.83 -9.80 -9.77 
 617 -9.83 -9.80 -9.77 
 618 -9.83 -9.79 -9.77 
 619 -9.82 -9.78 -9.77 
 620 -9.82 -9.78 -9.77 
 621 -9.82 -9.78 -9.77 
 622 -9.82 -9.78 -9.77 
 623 -9.81 -9.78 -9.77 
 624 -9.81 -9.77 -9.77 
 625 -9.80 -9.77 -9.77 
 626 -9.80 -9.77 -9.77 
 627 -9.80 -9.77 -9.77 
 628 -9.79 -9.77 -9.77 
 629 -9.80 -9.77 -9.77 
 630 -9.80 -9.77 -9.77 
 631 -9.80 -9.77 -9.77 
 632 -9.80 -9.78 -9.77 
 633 -9.81 -9.78 -9.77 
 634 -9.81 -9.78 -9.77 
 635 -9.81 -9.78 -9.77 
 636 -9.81 -9.78 -9.77 
 637 -9.82 -9.78 -9.77 
 638 -9.81 -9.78 -9.77 
 639 -9.81 -9.78 -9.77 
 640 -9.81 -9.78 -9.77 
 641 -9.81 -9.78 -9.77 
 642 -9.81 -9.77 -9.77 
 643 -9.80 -9.77 -9.77 
 644 -9.80 -9.77 -9.77 
 645 -9.80 -9.77 -9.77 
 646 -9.80 -9.77 -9.77 
 647 -9.80 -9.77 -9.77 
 648 -9.81 -9.78 -9.77 
 649 -9.82 -9.78 -9.77 
 650 -9.82 -9.78 -9.77 
 651 -9.82 -9.79 -9.77 
 652 -9.83 -9.78 -9.77 
 653 -9.82 -9.78 -9.77 
 654 -9.82 -9.78 -9.77 
 655 -9.82 -9.80 -9.77 
 656 -9.83 -9.77 -9.77 
 657 -9.82 -9.76 -9.77 
 658 -9.80 -9.77 -9.77 
 659 -9.81 -9.76 -9.77 
 660 -9.80 -9.76 -9.77 
 661 -9.79 -9.76 -9.77 
 662 -9.79 -9.76 -9.77 
 663 -9.79 -9.75 -9.77 
 664 -9.78 -9.75 -9.77 
 665 -9.78 -9.76 -9.77 
 666 -9.79 -9.76 -9.77 
 667 -9.79 -9.77 -9.77 
 668 -9.80 -9.76 -9.77 
 669 -9.79 -9.77 -9.77 
 670 -9.80 -9.76 -9.77 
 671 -9.79 -9.75 -9.77 
 672 -9.78 -9.76 -9.77 
 673 -9.79 -9.76 -9.77 
 674 -9.81 -9.76 -9.77 
 675 -9.79 -9.77 -9.77 
 676 -9.81 -9.75 -9.77 
 677 -9.78 -9.75 -9.77 
 678 -9.78 -9.74 -9.77 
 679 -9.77 -9.74 -9.77 
 680 -9.77 -9.74 -9.77 
 681 -9.77 -9.75 -9.77 
 682 -9.77 -9.75 -9.77 
 683 -9.77 -9.75 -9.77 
 684 -9.77 -9.75 -9.77 
 685 -9.78 -9.75 -9.77 
 686 -9.78 -9.75 -9.77 
 687 -9.79 -9.76 -9.77 
 688 -9.79 -9.76 -9.77 
 689 -9.79 -9.75 -9.77 
 690 -9.78 -9.75 -9.77 
 691 -9.78 -9.75 -9.77 
 692 -9.77 -9.74 -9.77 
 693 -9.77 -9.74 -9.77 
 694 -9.77 -9.74 -9.77 
 695 -9.77 -9.75 -9.77 
 696 -9.77 -9.74 -9.77 
 697 -9.78 -9.74 -9.77 
 698 -9.78 -9.74 -9.77 
 699 -9.77 -9.74 -9.77 
 700 -9.78 -9.75 -9.77 
 701 -9.78 -9.77 -9.77 
 702 -9.80 -9.77 -9.77 
 703 -9.80 -9.76 -9.77 
 704 -9.80 -9.75 -9.77 
 705 -9.79 -9.74 -9.77 
 706 -9.78 -9.75 -9.77 
 707 -9.79 -9.76 -9.77 
 708 -9.79 -9.76 -9.77 
 709 -9.79 -9.75 -9.77 
 710 -9.78 -9.75 -9.77 
 711 -9.78 -9.75 -9.77 
 712 -9.78 -9.75 -9.77 
 713 -9.78 -9.75 -9.77 
 714 -9.78 -9.76 -9.77 
 715 -9.78 -9.76 -9.77 
 716 -9.79 -9.76 -9.77 
 717 -9.78 -9.75 -9.77 
 718 -9.78 -9.75 -9.77 
 719 -9.78 -9.76 -9.77 
 720 -9.78 -9.75 -9.77 
 721 -9.78 -9.75 -9.77 
 722 -9.78 -9.75 -9.77 
 723 -9.78 -9.76 -9.77 
 724 -9.79 -9.77 -9.77 
 725 -9.79 -9.77 -9.77 
 726 -9.79 -9.77 -9.77 
 727 -9.79 -9.78 -9.77 
 728 -9.80 -9.78 -9.77 
 729 -9.81 -9.78 -9.77 
 730 -9.81 -9.77 -9.77 
 731 -9.79 -9.76 -9.77 
 732 -9.79 -9.75 -9.77 
 733 -9.78 -9.76 -9.77 
 734 -9.79 -9.75 -9.77 
 735 -9.79 -9.75 -9.77 
 736 -9.78 -9.75 -9.77 
 737 -9.78 -9.75 -9.77 
 738 -9.78 -9.76 -9.77 
 739 -9.79 -9.76 -9.77 
 740 -9.79 -9.76 -9.77 
 741 -9.79 -9.76 -9.77 
 742 -9.79 -9.77 -9.77 
 743 -9.80 -9.80 -9.77 
 744 -9.83 -9.81 -9.77 
 745 -9.84 -9.78 -9.77 
 746 -9.81 -9.79 -9.77 
 747 -9.82 -9.82 -9.77 
 748 -9.84 -9.84 -9.77 
 749 -9.87 -9.83 -9.77 
 750 -9.86 -9.81 -9.77 
 751 -9.84 -9.81 -9.77 
 752 -9.84 -9.81 -9.77 
 753 -9.83 -9.82 -9.77 
 754 -9.84 -9.82 -9.77 
 755 -9.84 -9.82 -9.77 
 756 -9.85 -9.82 -9.77 
 757 -9.84 -9.81 -9.77 
 758 -9.84 -9.81 -9.77 
 759 -9.84 -9.82 -9.77 
 760 -9.84 -9.81 -9.77 
 761 -9.84 -9.80 -9.77 
 762 -9.83 -9.80 -9.77 
 763 -9.82 -9.80 -9.77 
 764 -9.83 -9.78 -9.77 
 765 -9.81 -9.77 -9.77 
 766 -9.80 -9.77 -9.77 
 767 -9.80 -9.77 -9.77 
 768 -9.81 -9.78 -9.77 
 769 -9.81 -9.77 -9.77 
 770 -9.80 -9.77 -9.77 
 771 -9.80 -9.77 -9.77 
 772 -9.80 -9.78 -9.77 
 773 -9.81 -9.77 -9.77 
 774 -9.80 -9.78 -9.77 
 775 -9.80 -9.77 -9.77 
 776 -9.81 -9.78 -9.77 
 777 -9.81 -9.78 -9.77 
 778 -9.81 -9.78 -9.77 
 779 -9.81 -9.78 -9.77 
 780 -9.80 -9.78 -9.77 
 781 -9.81 -9.78 -9.77 
 782 -9.81 -9.78 -9.77 
 783 -9.80 -9.78 -9.77 
 784 -9.80 -9.78 -9.77 
 785 -9.80 -9.78 -9.77 
 786 -9.80 -9.78 -9.77 
 787 -9.80 -9.78 -9.77 
 788 -9.80 -9.78 -9.77 
 789 -9.81 -9.78 -9.77 
 790 -9.81 -9.78 -9.77 
 791 -9.81 -9.79 -9.77 
 792 -9.82 -9.79 -9.77 
 793 -9.82 -9.80 -9.77 
 794 -9.83 -9.80 -9.77 
 795 -9.82 -9.79 -9.77 
 796 -9.82 -9.79 -9.77 
 797 -9.82 -9.79 -9.77 
 798 -9.82 -9.79 -9.77 
 799 -9.81 -9.79 -9.77 
 800 -9.81 -9.79 -9.77 
 801 -9.81 -9.78 -9.77 
 802 -9.81 -9.79 -9.77 
 803 -9.81 -9.78 -9.77 
 804 -9.80 -9.79 -9.77 
 805 -9.81 -9.79 -9.77 
 806 -9.81 -9.79 -9.77 
 807 -9.81 -9.79 -9.77 
 808 -9.81 -9.78 -9.77 
 809 -9.81 -9.78 -9.77 
 810 -9.81 -9.79 -9.77 
 811 -9.81 -9.79 -9.77 
 812 -9.82 -9.78 -9.77 
 813 -9.81 -9.78 -9.77 
 814 -9.81 -9.78 -9.77 
 815 -9.81 -9.78 -9.77 
 816 -9.81 -9.78 -9.77 
 817 -9.81 -9.78 -9.77 
 818 -9.81 -9.78 -9.77 
 819 -9.82 -9.79 -9.77 
 820 -9.82 -9.80 -9.77 
 821 -9.83 -9.80 -9.77 
 822 -9.83 -9.80 -9.77 
 823 -9.83 -9.80 -9.77 
 824 -9.83 -9.80 -9.77 
 825 -9.83 -9.80 -9.77 
 826 -9.83 -9.80 -9.77 
 827 -9.83 -9.80 -9.77 
 828 -9.83 -9.80 -9.77 
 829 -9.83 -9.80 -9.77 
 830 -9.83 -9.79 -9.77 
 831 -9.83 -9.80 -9.77 
 832 -9.83 -9.79 -9.77 
 833 -9.83 -9.79 -9.77 
 834 -9.82 -9.79 -9.77 
 835 -9.82 -9.79 -9.77 
 836 -9.82 -9.79 -9.77 
 837 -9.82 -9.79 -9.77 
 838 -9.82 -9.80 -9.77 
 839 -9.82 -9.79 -9.77 
 840 -9.82 -9.80 -9.77 
 841 -9.82 -9.79 -9.77 
 842 -9.82 -9.80 -9.77 
 843 -9.82 -9.80 -9.77 
 844 -9.82 -9.80 -9.77 
 845 -9.83 -9.80 -9.77 
 846 -9.83 -9.80 -9.77 
 847 -9.83 -9.80 -9.77 
 848 -9.83 -9.79 -9.77 
 849 -9.83 -9.79 -9.77 
 850 -9.83 -9.79 -9.77 
 851 -9.83 -9.78 -9.77 
 852 -9.82 -9.78 -9.77 
 853 -9.82 -9.78 -9.77 
 854 -9.82 -9.78 -9.77 
 855 -9.81 -9.79 -9.77 
 856 -9.82 -9.78 -9.77 
 857 -9.82 -9.78 -9.77 
 858 -9.82 -9.78 -9.77 
 859 -9.82 -9.78 -9.77 
 860 -9.82 -9.78 -9.77 
 861 -9.81 -9.78 -9.77 
 862 -9.82 -9.78 -9.77 
 863 -9.82 -9.78 -9.77 
 864 -9.82 -9.78 -9.77 
 865 -9.82 -9.78 -9.77 
 866 -9.81 -9.78 -9.77 
 867 -9.82 -9.78 -9.77 
 868 -9.82 -9.78 -9.77 
 869 -9.82 -9.78 -9.77 
 870 -9.82 -9.78 -9.77 
 871 -9.82 -9.78 -9.77 
 872 -9.82 -9.78 -9.77 
 873 -9.81 -9.78 -9.77 
 874 -9.81 -9.78 -9.77 
 875 -9.82 -9.78 -9.77 
 876 -9.81 -9.78 -9.77 
 877 -9.81 -9.78 -9.77 
 878 -9.81 -9.77 -9.77 
 879 -9.81 -9.78 -9.77 
 880 -9.81 -9.77 -9.77 
 881 -9.81 -9.78 -9.77 
 882 -9.81 -9.78 -9.77 
 883 -9.81 -9.77 -9.77 
 884 -9.81 -9.77 -9.77 
 885 -9.80 -9.77 -9.77 
 886 -9.80 -9.77 -9.77 
 887 -9.81 -9.77 -9.77 
 888 -9.81 -9.77 -9.77 
 889 -9.81 -9.77 -9.77 
 890 -9.81 -9.77 -9.77 
 891 -9.81 -9.77 -9.77 
 892 -9.81 -9.77 -9.77 
 893 -9.81 -9.77 -9.77 
 894 -9.81 -9.77 -9.77 
 895 -9.81 -9.78 -9.77 
 896 -9.81 -9.78 -9.77 
 897 -9.81 -9.77 -9.77 
 898 -9.81 -9.78 -9.77 
 899 -9.81 -9.78 -9.77 
 900 -9.81 -9.78 -9.77 
 901 -9.81 -9.78 -9.77 
 902 -9.82 -9.78 -9.77 
 903 -9.81 -9.79 -9.77 
 904 -9.82 -9.78 -9.77 
 905 -9.81 -9.78 -9.77 
 906 -9.82 -9.79 -9.77 
 907 -9.81 -9.79 -9.77 
 908 -9.82 -9.79 -9.77 
 909 -9.82 -9.79 -9.77 
 910 -9.82 -9.79 -9.77 
 911 -9.83 -9.80 -9.77 
 912 -9.83 -9.80 -9.77 
 913 -9.83 -9.80 -9.77 
 914 -9.83 -9.80 -9.77 
 915 -9.82 -9.80 -9.77 
 916 -9.83 -9.80 -9.77 
 917 -9.83 -9.80 -9.77 
 918 -9.83 -9.81 -9.77 
 919 -9.84 -9.81 -9.77 
 920 -9.84 -9.80 -9.77 
 921 -9.84 -9.80 -9.77 
 922 -9.83 -9.80 -9.77 
 923 -9.83 -9.80 -9.77 
 924 -9.83 -9.80 -9.77 
 925 -9.83 -9.81 -9.77 
 926 -9.84 -9.80 -9.77 
 927 -9.82 -9.79 -9.77 
 928 -9.83 -9.79 -9.77 
 929 -9.82 -9.79 -9.77 
 930 -9.82 -9.79 -9.77 
 931 -9.82 -9.79 -9.77 
 932 -9.82 -9.79 -9.77 
 933 -9.83 -9.79 -9.77 
 934 -9.83 -9.82 -9.77 
 935 -9.85 -9.82 -9.77 
 936 -9.85 -9.81 -9.77 
 937 -9.84 -9.80 -9.77 
 938 -9.84 -9.80 -9.77 
 939 -9.83 -9.81 -9.77 
 940 -9.84 -9.82 -9.77 
 941 -9.86 -9.81 -9.77 
 942 -9.84 -9.81 -9.77 
 943 -9.85 -9.80 -9.77 
 944 -9.83 -9.79 -9.77 
 945 -9.83 -9.79 -9.77 
 946 -9.82 -9.78 -9.77 
 947 -9.81 -9.79 -9.77 
 948 -9.81 -9.79 -9.77 
 949 -9.81 -9.79 -9.77 
 950 -9.81 -9.79 -9.77 
 951 -9.82 -9.79 -9.77 
 952 -9.82 -9.79 -9.77 
 953 -9.83 -9.79 -9.77 
 954 -9.83 -9.79 -9.77 
 955 -9.83 -9.80 -9.77 
 956 -9.84 -9.81 -9.77 
 957 -9.85 -9.80 -9.77 
 958 -9.84 -9.79 -9.77 
 959 -9.83 -9.79 -9.77 
 960 -9.83 -9.80 -9.77 
 961 -9.84 -9.79 -9.77 
 962 -9.83 -9.79 -9.77 
 963 -9.82 -9.79 -9.77 
 964 -9.82 -9.79 -9.77 
 965 -9.83 -9.80 -9.77 
 966 -9.83 -9.79 -9.77 
 967 -9.82 -9.80 -9.77 
 968 -9.83 -9.80 -9.77 
 969 -9.83 -9.80 -9.77 
 970 -9.83 -9.80 -9.77 
 971 -9.83 -9.80 -9.77 
 972 -9.83 -9.80 -9.77 
 973 -9.83 -9.80 -9.77 
 974 -9.83 -9.81 -9.77 
 975 -9.83 -9.81 -9.77 
 976 -9.84 -9.81 -9.77 
 977 -9.83 -9.81 -9.77 
 978 -9.84 -9.81 -9.77 
 979 -9.84 -9.81 -9.77 
 980 -9.83 -9.81 -9.77 
 981 -9.83 -9.80 -9.77 
 982 -9.83 -9.80 -9.77 
 983 -9.83 -9.80 -9.77 
 984 -9.82 -9.80 -9.77 
 985 -9.82 -9.80 -9.77 
 986 -9.82 -9.80 -9.77 
 987 -9.81 -9.80 -9.77 
 988 -9.81 -9.80 -9.77 
 989 -9.82 -9.80 -9.77 
 990 -9.81 -9.80 -9.77 
 991 -9.82 -9.80 -9.77 
 992 -9.82 -9.80 -9.77 
 993 -9.82 -9.80 -9.77 
 994 -9.82 -9.80 -9.77 
 995 -9.82 -9.80 -9.77 
 996 -9.81 -9.80 -9.77 
 997 -9.81 -9.80 -9.77 
 998 -9.81 -9.80 -9.77 
 999 -9.82 -9.79 -9.77 
1000 -9.81 -9.80 -9.77 
1001 -9.81 -9.80 -9.77 
1002 -9.81 -9.80 -9.77 
1003 -9.82 -9.80 -9.77 
1004 -9.82 -9.80 -9.77 
1005 -9.82 -9.80 -9.77 
1006 -9.82 -9.79 -9.77 
1007 -9.81 -9.79 -9.77 
1008 -9.82 -9.79 -9.77 
1009 -9.82 -9.80 -9.77 
1010 -9.82 -9.80 -9.77 
1011 -9.82 -9.79 -9.77 
1012 -9.81 -9.79 -9.77 
1013 -9.81 -9.79 -9.77 
1014 -9.81 -9.79 -9.77 
1015 -9.81 -9.79 -9.77 
1016 -9.81 -9.79 -9.77 
1017 -9.81 -9.79 -9.77 
1018 -9.81 -9.79 -9.77 
1019 -9.82 -9.79 -9.77 
1020 -9.82 -9.79 -9.77 
1021 -9.82 -9.79 -9.77 
1022 -9.81 -9.79 -9.77 
1023 -9.82 -9.80 -9.77 
1024 -9.83 -9.80 -9.77 
1025 -9.83 -9.80 -9.77 
1026 -9.83 -9.81 -9.77 
1027 -9.84 -9.80 -9.77 
1028 -9.83 -9.82 -9.77 
1029 -9.85 -9.82 -9.77 
1030 -9.85 -9.80 -9.77 
1031 -9.83 -9.81 -9.77 
1032 -9.83 -9.80 -9.77 
1033 -9.83 -9.80 -9.77 
1034 -9.82 -9.80 -9.77 
1035 -9.83 -9.80 -9.77 
1036 -9.82 -9.80 -9.77 
1037 -9.83 -9.82 -9.77 
1038 -9.85 -9.80 -9.77 
1039 -9.83 -9.80 -9.77 
1040 -9.83 -9.79 -9.77 
1041 -9.82 -9.81 -9.77 
1042 -9.84 -9.81 -9.77 
1043 -9.84 -9.83 -9.77 
1044 -9.86 -9.82 -9.77 
1045 -9.85 -9.86 -9.77 
1046 -9.88 -9.90 -9.77 
1047 -9.92 -9.93 -9.77 
1048 -9.95 -9.98 -9.77 
1049 -10.00 -9.97 -9.77 
1050 -9.99 -9.94 -9.77 
1051 -9.96 -9.94 -9.77 
1052 -9.96 -9.96 -9.77 
1053 -9.99 -9.93 -9.77 
1054 -9.95 -9.92 -9.77 
1055 -9.94 -9.93 -9.77 
1056 -9.95 -9.92 -9.77 
1057 -9.95 -9.91 -9.77 
1058 -9.93 -9.94 -9.77 
1059 -9.96 -9.93 -9.77 
1060 -9.95 -9.88 -9.77 
1061 -9.90 -9.89 -9.77 
1062 -9.91 -9.87 -9.77 
1063 -9.90 -9.85 -9.77 
1064 -9.87 -9.83 -9.77 
1065 -9.86 -9.82 -9.77 
1066 -9.85 -9.83 -9.77 
1067 -9.86 -9.82 -9.77 
1068 -9.85 -9.82 -9.77 
1069 -9.85 -9.82 -9.77 
1070 -9.85 -9.81 -9.77 
1071 -9.85 -9.81 -9.77 
1072 -9.83 -9.81 -9.77 
1073 -9.84 -9.82 -9.77 
1074 -9.85 -9.82 -9.77 
1075 -9.85 -9.82 -9.77 
1076 -9.85 -9.82 -9.77 
1077 -9.85 -9.81 -9.77 
1078 -9.84 -9.81 -9.77 
1079 -9.84 -9.82 -9.77 
1080 -9.84 -9.81 -9.77 
1081 -9.84 -9.81 -9.77 
1082 -9.84 -9.82 -9.77 
1083 -9.84 -9.82 -9.77 
1084 -9.84 -9.82 -9.77 
1085 -9.84 -9.82 -9.77 
1086 -9.84 -9.83 -9.77 
1087 -9.85 -9.83 -9.77 
1088 -9.84 -9.84 -9.77 
1089 -9.85 -9.83 -9.77 
1090 -9.84 -9.83 -9.77 
1091 -9.84 -9.82 -9.77 
1092 -9.84 -9.82 -9.77 
1093 -9.84 -9.82 -9.77 
1094 -9.84 -9.81 -9.77 
1095 -9.84 -9.81 -9.77 
1096 -9.84 -9.81 -9.77 
1097 -9.83 -9.81 -9.77 
1098 -9.83 -9.81 -9.77 
1099 -9.84 -9.81 -9.77 
1100 -9.84 -9.80 -9.77 
1101 -9.84 -9.80 -9.77 
1102 -9.83 -9.81 -9.77 
1103 -9.84 -9.81 -9.77 
1104 -9.85 -9.81 -9.77 
1105 -9.84 -9.82 -9.77 
1106 -9.85 -9.81 -9.77 
1107 -9.84 -9.81 -9.77 
1108 -9.84 -9.81 -9.77 
1109 -9.83 -9.81 -9.77 
1110 -9.83 -9.81 -9.77 
1111 -9.83 -9.81 -9.77 
1112 -9.84 -9.80 -9.77 
1113 -9.83 -9.80 -9.77 
1114 -9.83 -9.80 -9.77 
1115 -9.83 -9.81 -9.77 
1116 -9.83 -9.80 -9.77 
1117 -9.83 -9.80 -9.77 
1118 -9.82 -9.80 -9.77 
1119 -9.82 -9.80 -9.77 
1120 -9.82 -9.80 -9.77 
1121 -9.82 -9.80 -9.77 
1122 -9.83 -9.80 -9.77 
1123 -9.83 -9.80 -9.77 
1124 -9.83 -9.80 -9.77 
1125 -9.82 -9.79 -9.77 
1126 -9.82 -9.80 -9.77 
1127 -9.82 -9.80 -9.77 
1128 -9.82 -9.81 -9.77 
1129 -9.84 -9.83 -9.77 
1130 -9.86 -9.81 -9.77 
1131 -9.83 -9.83 -9.77 
1132 -9.85 -9.83 -9.77 
1133 -9.85 -9.82 -9.77 
1134 -9.85 -9.81 -9.77 
1135 -9.83 -9.84 -9.77 
1136 -9.86 -9.84 -9.77 
1137 -9.86 -9.83 -9.77 
1138 -9.85 -9.84 -9.77 
1139 -9.86 -9.85 -9.77 
1140 -9.88 -9.83 -9.77 
1141 -9.86 -9.83 -9.77 
1142 -9.86 -9.81 -9.77 
1143 -9.84 -9.82 -9.77 
1144 -9.84 -9.81 -9.77 
1145 -9.83 -9.80 -9.77 
1146 -9.83 -9.79 -9.77 
1147 -9.82 -9.79 -9.77 
1148 -9.81 -9.80 -9.77 
1149 -9.82 -9.79 -9.77 
1150 -9.81 -9.80 -9.77 
1151 -9.82 -9.80 -9.77 
1152 -9.82 -9.81 -9.77 
1153 -9.82 -9.81 -9.77 
1154 -9.83 -9.80 -9.77 
1155 -9.83 -9.81 -9.77 
1156 -9.83 -9.83 -9.77 
1157 -9.85 -9.82 -9.77 
1158 -9.84 -9.80 -9.77 
1159 -9.83 -9.82 -9.77 
1160 -9.85 -9.81 -9.77 
1161 -9.84 -9.80 -9.77 
1162 -9.82 -9.80 -9.77 
1163 -9.83 -9.80 -9.77 
1164 -9.83 -9.81 -9.77 
1165 -9.83 -9.81 -9.77 
1166 -9.84 -9.83 -9.77 
1167 -9.86 -9.84 -9.77 
1168 -9.86 -9.84 -9.77 
1169 -9.86 -9.83 -9.77 
1170 -9.86 -9.82 -9.77 
1171 -9.85 -9.82 -9.77 
1172 -9.85 -9.80 -9.77 
1173 -9.84 -9.81 -9.77 
1174 -9.84 -9.80 -9.77 
1175 -9.83 -9.80 -9.77 
1176 -9.83 -9.79 -9.77 
1177 -9.83 -9.81 -9.77 
1178 -9.84 -9.80 -9.77 
1179 -9.83 -9.80 -9.77 
1180 -9.83 -9.80 -9.77 
1181 -9.83 -9.81 -9.77 
1182 -9.84 -9.80 -9.77 
1183 -9.83 -9.81 -9.77 
1184 -9.84 -9.81 -9.77 
1185 -9.83 -9.81 -9.77 
1186 -9.83 -9.81 -9.77 
1187 -9.83 -9.81 -9.77 
1188 -9.82 -9.81 -9.77 
1189 -9.82 -9.81 -9.77 
1190 -9.83 -9.81 -9.77 
1191 -9.82 -9.81 -9.77 
1192 -9.82 -9.81 -9.77 
1193 -9.83 -9.81 -9.77 
1194 -9.83 -9.81 -9.77 
1195 -9.83 -9.82 -9.77 
1196 -9.84 -9.82 -9.77 
1197 -9.84 -9.81 -9.77 
1198 -9.83 -9.81 -9.77 
1199 -9.82 -9.81 -9.77 
1200 -9.83 -9.81 -9.77 
1201 -9.83 -9.82 -9.77 
1202 -9.83 -9.82 -9.77 
1203 -9.83 -9.82 -9.77 
1204 -9.83 -9.81 -9.77 
1205 -9.82 -9.81 -9.77 
1206 -9.82 -9.81 -9.77 
1207 -9.82 -9.81 -9.77 
1208 -9.82 -9.80 -9.77 
1209 -9.82 -9.81 -9.77 
1210 -9.83 -9.81 -9.77 
1211 -9.83 -9.81 -9.77 
1212 -9.83 -9.81 -9.77 
1213 -9.83 -9.81 -9.77 
1214 -9.83 -9.81 -9.77 
1215 -9.83 -9.81 -9.77 
1216 -9.82 -9.82 -9.77 
1217 -9.83 -9.81 -9.77 
1218 -9.83 -9.82 -9.77 
1219 -9.83 -9.82 -9.77 
1220 -9.83 -9.82 -9.77 
1221 -9.83 -9.82 -9.77 
1222 -9.83 -9.82 -9.77 
1223 -9.82 -9.82 -9.77 
1224 -9.83 -9.82 -9.77 
1225 -9.83 -9.81 -9.77 
1226 -9.82 -9.81 -9.77 
1227 -9.82 -9.81 -9.77 
1228 -9.83 -9.81 -9.77 
1229 -9.83 -9.81 -9.77 
1230 -9.83 -9.80 -9.77 
1231 -9.83 -9.80 -9.77 
1232 -9.83 -9.81 -9.77 
1233 -9.84 -9.80 -9.77 
1234 -9.84 -9.81 -9.77 
1235 -9.84 -9.80 -9.77 
1236 -9.83 -9.79 -9.77 
1237 -9.82 -9.79 -9.77 
1238 -9.82 -9.79 -9.77 
1239 -9.82 -9.80 -9.77 
1240 -9.83 -9.80 -9.77 
1241 -9.83 -9.79 -9.77 
1242 -9.82 -9.80 -9.77 
1243 -9.83 -9.80 -9.77 
1244 -9.83 -9.81 -9.77 
1245 -9.83 -9.82 -9.77 
1246 -9.84 -9.82 -9.77 
1247 -9.84 -9.82 -9.77 
1248 -9.84 -9.83 -9.77 
1249 -9.85 -9.83 -9.77 
1250 -9.85 -9.83 -9.77 
1251 -9.84 -9.86 -9.77 
1252 -9.87 -9.85 -9.77 
1253 -9.87 -9.82 -9.77 
1254 -9.84 -9.82 -9.77 
1255 -9.83 -9.83 -9.77 
1256 -9.85 -9.84 -9.77 
1257 -9.86 -9.83 -9.77 
1258 -9.85 -9.82 -9.77 
1259 -9.84 -9.81 -9.77 
1260 -9.83 -9.80 -9.77 
1261 -9.83 -9.79 -9.77 
1262 -9.81 -9.80 -9.77 
1263 -9.81 -9.80 -9.77 
1264 -9.82 -9.80 -9.77 
1265 -9.82 -9.80 -9.77 
1266 -9.82 -9.81 -9.77 
1267 -9.82 -9.80 -9.77 
1268 -9.82 -9.81 -9.77 
1269 -9.82 -9.81 -9.77 
1270 -9.83 -9.81 -9.77 
1271 -9.83 -9.82 -9.77 
1272 -9.83 -9.82 -9.77 
1273 -9.83 -9.82 -9.77 
1274 -9.83 -9.81 -9.77 
1275 -9.82 -9.81 -9.77 
1276 -9.83 -9.81 -9.77 
1277 -9.83 -9.81 -9.77 
1278 -9.83 -9.81 -9.77 
1279 -9.82 -9.80 -9.77 
1280 -9.82 -9.80 -9.77 
1281 -9.82 -9.80 -9.77 
1282 -9.82 -9.80 -9.77 
1283 -9.82 -9.80 -9.77 
1284 -9.82 -9.80 -9.77 
1285 -9.83 -9.80 -9.77 
1286 -9.82 -9.79 -9.77 
1287 -9.83 -9.79 -9.77 
1288 -9.82 -9.79 -9.77 
1289 -9.82 -9.79 -9.77 
1290 -9.82 -9.79 -9.77 
1291 -9.81 -9.79 -9.77 
1292 -9.81 -9.79 -9.77 
1293 -9.81 -9.79 -9.77 
1294 -9.81 -9.79 -9.77 
1295 -9.82 -9.79 -9.77 
1296 -9.82 -9.79 -9.77 
1297 -9.82 -9.78 -9.77 
1298 -9.81 -9.78 -9.77 
1299 -9.81 -9.79 -9.77 
1300 -9.81 -9.79 -9.77 
1301 -9.81 -9.80 -9.77 
1302 -9.81 -9.81 -9.77 
1303 -9.82 -9.80 -9.77 
1304 -9.82 -9.81 -9.77 
1305 -9.83 -9.81 -9.77 
1306 -9.82 -9.81 -9.77 
1307 -9.83 -9.81 -9.77 
1308 -9.83 -9.81 -9.77 
1309 -9.83 -9.81 -9.77 
1310 -9.83 -9.81 -9.77 
1311 -9.84 -9.81 -9.77 
1312 -9.83 -9.81 -9.77 
1313 -9.82 -9.81 -9.77 
1314 -9.82 -9.81 -9.77 
1315 -9.84 -9.82 -9.77 
1316 -9.84 -9.84 -9.77 
1317 -9.86 -9.81 -9.77 
1318 -9.84 -9.83 -9.77 
1319 -9.85 -9.87 -9.77 
1320 -9.89 -9.86 -9.77 
1321 -9.88 -9.88 -9.77 
1322 -9.90 -9.88 -9.77 
1323 -9.89 -9.86 -9.77 
1324 -9.88 -9.86 -9.77 
1325 -9.88 -9.82 -9.77 
1326 -9.84 -9.81 -9.77 
1327 -9.83 -9.82 -9.77 
1328 -9.85 -9.80 -9.77 
1329 -9.83 -9.80 -9.77 
1330 -9.82 -9.80 -9.77 
1331 -9.82 -9.79 -9.77 
1332 -9.82 -9.80 -9.77 
1333 -9.82 -9.80 -9.77 
1334 -9.82 -9.80 -9.77 
1335 -9.82 -9.80 -9.77 
1336 -9.82 -9.79 -9.77 
1337 -9.82 -9.79 -9.77 
1338 -9.82 -9.79 -9.77 
1339 -9.82 -9.80 -9.77 
1340 -9.81 -9.80 -9.77 
1341 -9.81 -9.80 -9.77 
1342 -9.81 -9.80 -9.77 
1343 -9.81 -9.80 -9.77 
1344 -9.81 -9.80 -9.77 
1345 -9.81 -9.80 -9.77 
1346 -9.81 -9.79 -9.77 
1347 -9.80 -9.79 -9.77 
1348 -9.80 -9.79 -9.77 
1349 -9.80 -9.79 -9.77 
1350 -9.81 -9.79 -9.77 
1351 -9.81 -9.79 -9.77 
1352 -9.81 -9.79 -9.77 
1353 -9.82 -9.79 -9.77 
1354 -9.81 -9.78 -9.77 
1355 -9.81 -9.78 -9.77 
1356 -9.81 -9.79 -9.77 
1357 -9.81 -9.79 -9.77 
1358 -9.81 -9.79 -9.77 
1359 -9.81 -9.80 -9.77 
1360 -9.82 -9.80 -9.77 
1361 -9.82 -9.80 -9.77 
1362 -9.82 -9.80 -9.77 
1363 -9.82 -9.80 -9.77 
1364 -9.82 -9.80 -9.77 
1365 -9.82 -9.79 -9.77 
1366 -9.81 -9.80 -9.77 
1367 -9.82 -9.80 -9.77 
1368 -9.82 -9.80 -9.77 
1369 -9.82 -9.79 -9.77 
1370 -9.81 -9.79 -9.77 
1371 -9.82 -9.79 -9.77 
1372 -9.82 -9.79 -9.77 
1373 -9.81 -9.79 -9.77 
1374 -9.81 -9.79 -9.77 
1375 -9.81 -9.79 -9.77 
1376 -9.81 -9.79 -9.77 
1377 -9.81 -9.79 -9.77 
1378 -9.82 -9.79 -9.77 
1379 -9.82 -9.79 -9.77 
1380 -9.83 -9.79 -9.77 
1381 -9.83 -9.79 -9.77 
1382 -9.84 -9.79 -9.77 
1383 -9.83 -9.79 -9.77 
1384 -9.82 -9.79 -9.77 
1385 -9.82 -9.79 -9.77 
1386 -9.82 -9.79 -9.77 
1387 -9.82 -9.79 -9.77 
1388 -9.83 -9.80 -9.77 
1389 -9.84 -9.79 -9.77 
1390 -9.83 -9.79 -9.77 
1391 -9.83 -9.79 -9.77 
1392 -9.82 -9.79 -9.77 
1393 -9.82 -9.79 -9.77 
1394 -9.82 -9.80 -9.77 
1395 -9.82 -9.80 -9.77 
1396 -9.82 -9.80 -9.77 
1397 -9.82 -9.80 -9.77 
1398 -9.82 -9.80 -9.77 
1399 -9.82 -9.80 -9.77 
1400 -9.82 -9.80 -9.77 
1401 -9.81 -9.80 -9.77 
1402 -9.82 -9.80 -9.77 
1403 -9.82 -9.80 -9.77 
1404 -9.82 -9.81 -9.77 
1405 -9.82 -9.80 -9.77 
1406 -9.82 -9.80 -9.77 
1407 -9.82 -9.80 -9.77 
1408 -9.82 -9.81 -9.77 
1409 -9.82 -9.81 -9.77 
1410 -9.82 -9.81 -9.77 
1411 -9.83 -9.82 -9.77 
1412 -9.84 -9.82 -9.77 
1413 -9.84 -9.82 -9.77 
1414 -9.84 -9.82 -9.77 
1415 -9.84 -9.82 -9.77 
1416 -9.84 -9.81 -9.77 
1417 -9.84 -9.81 -9.77 
1418 -9.83 -9.81 -9.77 
1419 -9.83 -9.81 -9.77 
1420 -9.84 -9.82 -9.77 
1421 -9.84 -9.83 -9.77 
1422 -9.85 -9.84 -9.77 
1423 -9.86 -9.84 -9.77 
1424 -9.87 -9.83 -9.77 
1425 -9.85 -9.83 -9.77 
1426 -9.86 -9.83 -9.77 
1427 -9.86 -9.84 -9.77 
1428 -9.86 -9.83 -9.77 
1429 -9.85 -9.81 -9.77 
1430 -9.84 -9.82 -9.77 
1431 -9.84 -9.83 -9.77 
1432 -9.85 -9.82 -9.77 
1433 -9.84 -9.82 -9.77 
1434 -9.84 -9.83 -9.77 
1435 -9.85 -9.82 -9.77 
1436 -9.83 -9.81 -9.77 
1437 -9.83 -9.81 -9.77 
1438 -9.83 -9.81 -9.77 
1439 -9.83 -9.81 -9.77 
1440 -9.84 -9.83 -9.77 
1441 -9.85 -9.81 -9.77 
1442 -9.84 -9.81 -9.77 
1443 -9.83 -9.80 -9.77 
1444 -9.82 -9.80 -9.77 
1445 -9.82 -9.80 -9.77 
1446 -9.83 -9.80 -9.77 
1447 -9.82 -9.80 -9.77 
1448 -9.82 -9.80 -9.77 
1449 -9.82 -9.80 -9.77 
1450 -9.81 -9.80 -9.77 
1451 -9.82 -9.80 -9.77 
1452 -9.82 -9.80 -9.77 
1453 -9.82 -9.80 -9.77 
1454 -9.82 -9.80 -9.77 
1455 -9.82 -9.80 -9.77 
1456 -9.81 -9.80 -9.77 
1457 -9.81 -9.79 -9.77 
1458 -9.81 -9.79 -9.77 
1459 -9.81 -9.80 -9.77 
1460 -9.82 -9.79 -9.77 
1461 -9.82 -9.79 -9.77 
1462 -9.82 -9.79 -9.77 
1463 -9.81 -9.79 -9.77 
1464 -9.81 -9.79 -9.77 
1465 -9.81 -9.79 -9.77 
1466 -9.81 -9.79 -9.77 
1467 -9.81 -9.78 -9.77 
1468 -9.81 -9.79 -9.77 
1469 -9.82 -9.78 -9.77 
1470 -9.81 -9.78 -9.77 
1471 -9.81 -9.78 -9.77 
1472 -9.81 -9.79 -9.77 
1473 -9.82 -9.79 -9.77 
1474 -9.81 -9.79 -9.77 
1475 -9.81 -9.79 -9.77 
1476 -9.81 -9.79 -9.77 
1477 -9.82 -9.79 -9.77 
1478 -9.82 -9.80 -9.77 
1479 -9.82 -9.79 -9.77 
1480 -9.81 -9.79 -9.77 
1481 -9.81 -9.80 -9.77 
1482 -9.82 -9.80 -9.77 
1483 -9.82 -9.79 -9.77 
1484 -9.81 -9.80 -9.77 
1485 -9.81 -9.79 -9.77 
1486 -9.81 -9.79 -9.77 
1487 -9.81 -9.79 -9.77 
1488 -9.81 -9.79 -9.77 
1489 -9.81 -9.79 -9.77 
1490 -9.81 -9.79 -9.77 
1491 -9.81 -9.79 -9.77 
1492 -9.81 -9.78 -9.77 
1493 -9.80 -9.78 -9.77 
1494 -9.80 -9.78 -9.77 
1495 -9.80 -9.78 -9.77 
1496 -9.80 -9.79 -9.77 
1497 -9.80 -9.79 -9.77 
1498 -9.80 -9.79 -9.77 
1499 -9.81 -9.79 -9.77 
1500 -9.80 -9.79 -9.77 
1501 -9.81 -9.79 -9.77 
1502 -9.81 -9.79 -9.77 
1503 -9.80 -9.79 -9.77 
1504 -9.80 -9.79 -9.77 
1505 -9.80 -9.79 -9.77 
1506 -9.81 -9.79 -9.77 
1507 -9.81 -9.79 -9.77 
1508 -9.81 -9.79 -9.77 
1509 -9.81 -9.79 -9.77 
1510 -9.81 -9.79 -9.77 
1511 -9.81 -9.79 -9.77 
1512 -9.81 -9.79 -9.77 
1513 -9.81 -9.79 -9.77 
1514 -9.81 -9.79 -9.77 
1515 -9.81 -9.79 -9.77 
1516 -9.81 -9.79 -9.77 
1517 -9.81 -9.79 -9.77 
1518 -9.81 -9.79 -9.77 
1519 -9.80 -9.79 -9.77 
1520 -9.81 -9.79 -9.77 
1521 -9.80 -9.79 -9.77 
1522 -9.81 -9.79 -9.77 
1523 -9.81 -9.79 -9.77 
1524 -9.81 -9.79 -9.77 
1525 -9.81 -9.79 -9.77 
1526 -9.81 -9.79 -9.77 
1527 -9.81 -9.79 -9.77 
1528 -9.81 -9.79 -9.77 
1529 -9.81 -9.79 -9.77 
1530 -9.81 -9.79 -9.77 
1531 -9.81 -9.79 -9.77 
1532 -9.81 -9.78 -9.77 
1533 -9.80 -9.79 -9.77 
1534 -9.80 -9.78 -9.77 
1535 -9.80 -9.78 -9.77 
1536 -9.80 -9.78 -9.77 
1537 -9.80 -9.78 -9.77 
1538 -9.80 -9.78 -9.77 
1539 -9.80 -9.78 -9.77 
1540 -9.80 -9.78 -9.77 
1541 -9.80 -9.78 -9.77 
1542 -9.80 -9.78 -9.77 
1543 -9.80 -9.78 -9.77 
1544 -9.79 -9.78 -9.77 
1545 -9.80 -9.78 -9.77 
1546 -9.80 -9.77 -9.77 
1547 -9.79 -9.78 -9.77 
1548 -9.80 -9.78 -9.77 
1549 -9.79 -9.77 -9.77 
1550 -9.79 -9.77 -9.77 
1551 -9.79 -9.78 -9.77 
1552 -9.80 -9.78 -9.77 
1553 -9.79 -9.78 -9.77 
1554 -9.80 -9.78 -9.77 
1555 -9.80 -9.78 -9.77 
1556 -9.80 -9.78 -9.77 
1557 -9.80 -9.78 -9.77 
1558 -9.80 -9.78 -9.77 
1559 -9.80 -9.78 -9.77 
1560 -9.80 -9.78 -9.77 
1561 -9.80 -9.78 -9.77 
1562 -9.80 -9.77 -9.77 
1563 -9.80 -9.78 -9.77 
1564 -9.80 -9.77 -9.77 
1565 -9.79 -9.77 -9.77 
1566 -9.79 -9.77 -9.77 
1567 -9.79 -9.78 -9.77 
1568 -9.79 -9.78 -9.77 
1569 -9.79 -9.77 -9.77 
1570 -9.80 -9.78 -9.77 
1571 -9.81 -9.78 -9.77 
1572 -9.82 -9.77 -9.77 
1573 -9.82 -9.77 -9.77 
1574 -9.81 -9.77 -9.77 
1575 -9.79 -9.77 -9.77 
1576 -9.79 -9.76 -9.77 
1577 -9.79 -9.77 -9.77 
1578 -9.79 -9.77 -9.77 
1579 -9.79 -9.77 -9.77 
1580 -9.79 -9.77 -9.77 
1581 -9.79 -9.77 -9.77 
1582 -9.80 -9.77 -9.77 
1583 -9.79 -9.77 -9.77 
1584 -9.80 -9.77 -9.77 
1585 -9.80 -9.78 -9.77 
1586 -9.81 -9.78 -9.77 
1587 -9.80 -9.78 -9.77 
1588 -9.81 -9.78 -9.77 
1589 -9.80 -9.78 -9.77 
1590 -9.80 -9.78 -9.77 
1591 -9.80 -9.78 -9.77 
1592 -9.80 -9.78 -9.77 
1593 -9.80 -9.78 -9.77 
1594 -9.80 -9.78 -9.77 
1595 -9.80 -9.78 -9.77 
1596 -9.81 -9.78 -9.77 
1597 -9.81 -9.78 -9.77 
1598 -9.81 -9.79 -9.77 
1599 -9.81 -9.79 -9.77 
1600 -9.81 -9.79 -9.77 
1601 -9.81 -9.79 -9.77 
1602 -9.81 -9.79 -9.77 
1603 -9.81 -9.79 -9.77 
1604 -9.81 -9.79 -9.77 
1605 -9.81 -9.79 -9.77 
1606 -9.81 -9.80 -9.77 
1607 -9.81 -9.80 -9.77 
1608 -9.81 -9.80 -9.77 
1609 -9.82 -9.80 -9.77 
1610 -9.82 -9.80 -9.77 
1611 -9.82 -9.80 -9.77 
1612 -9.82 -9.80 -9.77 
1613 -9.82 -9.81 -9.77 
1614 -9.82 -9.81 -9.77 
1615 -9.82 -9.81 -9.77 
1616 -9.82 -9.81 -9.77 
1617 -9.82 -9.81 -9.77 
1618 -9.82 -9.81 -9.77 
1619 -9.83 -9.81 -9.77 
1620 -9.83 -9.81 -9.77 
1621 -9.83 -9.82 -9.77 
1622 -9.83 -9.81 -9.77 
1623 -9.83 -9.82 -9.77 
1624 -9.83 -9.81 -9.77 
1625 -9.84 -9.82 -9.77 
1626 -9.84 -9.82 -9.77 
1627 -9.84 -9.82 -9.77 
1628 -9.84 -9.82 -9.77 
1629 -9.84 -9.83 -9.77 
1630 -9.87 -9.82 -9.77 
1631 -9.85 -9.82 -9.77 
1632 -9.85 -9.82 -9.77 
1633 -9.84 -9.82 -9.77 
1634 -9.84 -9.82 -9.77 
1635 -9.85 -9.82 -9.77 
1636 -9.85 -9.83 -9.77 
1637 -9.85 -9.83 -9.77 
1638 -9.85 -9.83 -9.77 
1639 -9.85 -9.82 -9.77 
1640 -9.85 -9.82 -9.77 
1641 -9.84 -9.83 -9.77 
1642 -9.85 -9.83 -9.77 
1643 -9.85 -9.83 -9.77 
1644 -9.85 -9.83 -9.77 
1645 -9.84 -9.82 -9.77 
1646 -9.84 -9.82 -9.77 
1647 -9.84 -9.82 -9.77 
1648 -9.84 -9.82 -9.77 
1649 -9.84 -9.82 -9.77 
1650 -9.84 -9.82 -9.77 
1651 -9.84 -9.82 -9.77 
1652 -9.84 -9.82 -9.77 
1653 -9.84 -9.82 -9.77 
1654 -9.85 -9.82 -9.77 
1655 -9.85 -9.82 -9.77 
1656 -9.84 -9.82 -9.77 
1657 -9.84 -9.82 -9.77 
1658 -9.84 -9.82 -9.77 
1659 -9.84 -9.82 -9.77 
1660 -9.84 -9.83 -9.77 
1661 -9.85 -9.83 -9.77 
1662 -9.85 -9.82 -9.77 
1663 -9.84 -9.82 -9.77 
1664 -9.84 -9.82 -9.77 
1665 -9.84 -9.82 -9.77 
1666 -9.84 -9.82 -9.77 
1667 -9.84 -9.82 -9.77 
1668 -9.84 -9.82 -9.77 
1669 -9.84 -9.83 -9.77 
1670 -9.85 -9.83 -9.77 
1671 -9.85 -9.83 -9.77 
1672 -9.85 -9.83 -9.77 
1673 -9.85 -9.83 -9.77 
1674 -9.85 -9.83 -9.77 
1675 -9.85 -9.83 -9.77 
1676 -9.85 -9.82 -9.77 
1677 -9.84 -9.82 -9.77 
1678 -9.84 -9.81 -9.77 
1679 -9.83 -9.81 -9.77 
1680 -9.83 -9.81 -9.77 
1681 -9.83 -9.82 -9.77 
1682 -9.84 -9.82 -9.77 
1683 -9.84 -9.82 -9.77 
1684 -9.83 -9.82 -9.77 
1685 -9.83 -9.82 -9.77 
1686 -9.83 -9.82 -9.77 
1687 -9.83 -9.82 -9.77 
1688 -9.83 -9.82 -9.77 
1689 -9.83 -9.82 -9.77 
1690 -9.83 -9.81 -9.77 
1691 -9.83 -9.81 -9.77 
1692 -9.83 -9.82 -9.77 
1693 -9.83 -9.82 -9.77 
1694 -9.83 -9.82 -9.77 
1695 -9.83 -9.81 -9.77 
1696 -9.82 -9.81 -9.77 
1697 -9.82 -9.81 -9.77 
1698 -9.82 -9.81 -9.77 
1699 -9.82 -9.81 -9.77 
1700 -9.82 -9.81 -9.77 
1701 -9.82 -9.81 -9.77 
1702 -9.82 -9.81 -9.77 
1703 -9.82 -9.81 -9.77 
1704 -9.82 -9.81 -9.77 
1705 -9.82 -9.81 -9.77 
1706 -9.82 -9.81 -9.77 
1707 -9.82 -9.81 -9.77 
1708 -9.82 -9.81 -9.77 
1709 -9.82 -9.81 -9.77 
1710 -9.82 -9.81 -9.77 
1711 -9.82 -9.80 -9.77 
1712 -9.82 -9.80 -9.77 
1713 -9.81 -9.80 -9.77 
1714 -9.81 -9.80 -9.77 
1715 -9.81 -9.80 -9.77 
1716 -9.81 -9.80 -9.77 
1717 -9.81 -9.80 -9.77 
1718 -9.81 -9.80 -9.77 
1719 -9.81 -9.80 -9.77 
1720 -9.81 -9.80 -9.77 
1721 -9.81 -9.80 -9.77 
1722 -9.81 -9.80 -9.77 
1723 -9.81 -9.79 -9.77 
1724 -9.80 -9.79 -9.77 
1725 -9.80 -9.80 -9.77 
1726 -9.81 -9.80 -9.77 
1727 -9.81 -9.80 -9.77 
1728 -9.81 -9.80 -9.77 
1729 -9.81 -9.80 -9.77 
1730 -9.81 -9.80 -9.77 
1731 -9.81 -9.79 -9.77 
1732 -9.81 -9.79 -9.77 
1733 -9.80 -9.80 -9.77 
1734 -9.80 -9.79 -9.77 
1735 -9.80 -9.80 -9.77 
1736 -9.81 -9.80 -9.77 
1737 -9.81 -9.80 -9.77 
1738 -9.81 -9.80 -9.77 
1739 -9.81 -9.80 -9.77 
1740 -9.81 -9.80 -9.77 
1741 -9.81 -9.80 -9.77 
1742 -9.81 -9.80 -9.77 
1743 -9.81 -9.79 -9.77 
1744 -9.81 -9.79 -9.77 
1745 -9.80 -9.80 -9.77 
1746 -9.81 -9.79 -9.77 
1747 -9.81 -9.79 -9.77 
1748 -9.81 -9.79 -9.77 
1749 -9.81 -9.79 -9.77 
1750 -9.81 -9.80 -9.77 
1751 -9.81 -9.80 -9.77 
1752 -9.81 -9.80 -9.77 
1753 -9.81 -9.80 -9.77 
1754 -9.82 -9.80 -9.77 
1755 -9.81 -9.80 -9.77 
1756 -9.81 -9.81 -9.77 
1757 -9.82 -9.82 -9.77 
1758 -9.83 -9.82 -9.77 
1759 -9.84 -9.82 -9.77 
1760 -9.84 -9.82 -9.77 
1761 -9.83 -9.82 -9.77 
1762 -9.84 -9.81 -9.77 
1763 -9.83 -9.82 -9.77 
1764 -9.83 -9.82 -9.77 
1765 -9.84 -9.82 -9.77 
1766 -9.83 -9.81 -9.77 
1767 -9.83 -9.82 -9.77 
1768 -9.84 -9.82 -9.77 
1769 -9.83 -9.81 -9.77 
1770 -9.82 -9.81 -9.77 
1771 -9.82 -9.81 -9.77 
1772 -9.82 -9.81 -9.77 
1773 -9.82 -9.81 -9.77 
1774 -9.82 -9.81 -9.77 
1775 -9.82 -9.82 -9.77 
1776 -9.83 -9.82 -9.77 
1777 -9.83 -9.81 -9.77 
1778 -9.82 -9.82 -9.77 
1779 -9.83 -9.83 -9.77 
1780 -9.84 -9.82 -9.77 
1781 -9.83 -9.83 -9.77 
1782 -9.84 -9.83 -9.77 
1783 -9.84 -9.83 -9.77 
1784 -9.84 -9.83 -9.77 
1785 -9.84 -9.84 -9.77 
1786 -9.84 -9.84 -9.77 
1787 -9.84 -9.84 -9.77 
1788 -9.85 -9.84 -9.77 
1789 -9.85 -9.84 -9.77 
1790 -9.85 -9.84 -9.77 
1791 -9.84 -9.84 -9.77 
1792 -9.85 -9.84 -9.77 
1793 -9.85 -9.84 -9.77 
1794 -9.85 -9.84 -9.77 
1795 -9.85 -9.83 -9.77 
1796 -9.84 -9.83 -9.77 
1797 -9.84 -9.82 -9.77 
1798 -9.83 -9.83 -9.77 
1799 -9.84 -9.82 -9.77 
1800 -9.83 -9.82 -9.77 
1801 -9.83 -9.82 -9.77 
1802 -9.83 -9.82 -9.77 
1803 -9.83 -9.83 -9.77 
1804 -9.84 -9.83 -9.77 
1805 -9.83 -9.82 -9.77 
1806 -9.83 -9.82 -9.77 
1807 -9.83 -9.82 -9.77 
1808 -9.82 -9.81 -9.77 
1809 -9.82 -9.82 -9.77 
1810 -9.82 -9.82 -9.77 
1811 -9.82 -9.81 -9.77 
1812 -9.82 -9.82 -9.77 
1813 -9.83 -9.82 -9.77 
1814 -9.83 -9.82 -9.77 
1815 -9.83 -9.82 -9.77 
1816 -9.83 -9.82 -9.77 
1817 -9.83 -9.82 -9.77 
1818 -9.83 -9.83 -9.77 
1819 -9.83 -9.83 -9.77 
1820 -9.84 -9.83 -9.77 
1821 -9.84 -9.82 -9.77 
1822 -9.83 -9.82 -9.77 
1823 -9.83 -9.82 -9.77 
1824 -9.83 -9.82 -9.77 
1825 -9.83 -9.82 -9.77 
1826 -9.83 -9.82 -9.77 
1827 -9.83 -9.82 -9.77 
1828 -9.83 -9.82 -9.77 
1829 -9.83 -9.82 -9.77 
1830 -9.83 -9.82 -9.77 
1831 -9.82 -9.82 -9.77 
1832 -9.83 -9.82 -9.77 
1833 -9.83 -9.82 -9.77 
1834 -9.83 -9.82 -9.77 
1835 -9.83 -9.82 -9.77 
1836 -9.83 -9.82 -9.77 
1837 -9.83 -9.82 -9.77 
1838 -9.83 -9.81 -9.77 
1839 -9.82 -9.82 -9.77 
1840 -9.83 -9.82 -9.77 
1841 -9.82 -9.82 -9.77 
1842 -9.82 -9.82 -9.77 
1843 -9.82 -9.82 -9.77 
1844 -9.83 -9.82 -9.77 
1845 -9.83 -9.82 -9.77 
1846 -9.83 -9.81 -9.77 
1847 -9.82 -9.81 -9.77 
1848 -9.82 -9.81 -9.77 
1849 -9.82 -9.81 -9.77 
1850 -9.82 -9.81 -9.77 
1851 -9.82 -9.81 -9.77 
1852 -9.82 -9.81 -9.77 
1853 -9.82 -9.81 -9.77 
1854 -9.82 -9.81 -9.77 
1855 -9.82 -9.81 -9.77 
1856 -9.82 -9.81 -9.77 
1857 -9.81 -9.81 -9.77 
1858 -9.82 -9.81 -9.77 
1859 -9.82 -9.82 -9.77 
1860 -9.83 -9.81 -9.77 
1861 -9.82 -9.81 -9.77 
1862 -9.82 -9.81 -9.77 
1863 -9.82 -9.81 -9.77 
1864 -9.82 -9.81 -9.77 
1865 -9.81 -9.80 -9.77 
1866 -9.81 -9.80 -9.77 
1867 -9.81 -9.80 -9.77 
1868 -9.81 -9.80 -9.77 
1869 -9.81 -9.80 -9.77 
1870 -9.81 -9.80 -9.77 
1871 -9.81 -9.80 -9.77 
1872 -9.81 -9.80 -9.77 
1873 -9.81 -9.80 -9.77 
1874 -9.81 -9.80 -9.77 
1875 -9.81 -9.80 -9.77 
1876 -9.81 -9.80 -9.77 
1877 -9.80 -9.80 -9.77 
1878 -9.81 -9.80 -9.77 
1879 -9.81 -9.80 -9.77 
1880 -9.81 -9.80 -9.77 
1881 -9.81 -9.81 -9.77 
1882 -9.82 -9.81 -9.77 
1883 -9.82 -9.81 -9.77 
1884 -9.81 -9.81 -9.77 
1885 -9.82 -9.81 -9.77 
1886 -9.82 -9.82 -9.77 
1887 -9.82 -9.82 -9.77 
1888 -9.82 -9.81 -9.77 
1889 -9.82 -9.81 -9.77 
1890 -9.82 -9.81 -9.77 
1891 -9.81 -9.80 -9.77 
1892 -9.81 -9.80 -9.77 
1893 -9.81 -9.80 -9.77 
1894 -9.82 -9.80 -9.77 
1895 -9.82 -9.81 -9.77 
1896 -9.82 -9.80 -9.77 
1897 -9.81 -9.80 -9.77 
1898 -9.81 -9.80 -9.77 
1899 -9.81 -9.80 -9.77 
1900 -9.82 -9.80 -9.77 
1901 -9.82 -9.80 -9.77 
1902 -9.81 -9.80 -9.77 
1903 -9.81 -9.80 -9.77 
1904 -9.81 -9.80 -9.77 
1905 -9.81 -9.80 -9.77 
1906 -9.82 -9.80 -9.77 
1907 -9.81 -9.80 -9.77 
1908 -9.82 -9.80 -9.77 
1909 -9.82 -9.79 -9.77 
1910 -9.81 -9.80 -9.77 
1911 -9.82 -9.81 -9.77 
1912 -9.83 -9.80 -9.77 
1913 -9.82 -9.80 -9.77 
1914 -9.81 -9.80 -9.77 
1915 -9.82 -9.80 -9.77 
1916 -9.82 -9.80 -9.77 
1917 -9.82 -9.82 -9.77 
1918 -9.83 -9.81 -9.77 
1919 -9.83 -9.80 -9.77 
1920 -9.82 -9.80 -9.77 
1921 -9.82 -9.79 -9.77 
1922 -9.81 -9.80 -9.77 
1923 -9.82 -9.80 -9.77 
1924 -9.83 -9.80 -9.77 
1925 -9.83 -9.79 -9.77 
1926 -9.81 -9.79 -9.77 
1927 -9.81 -9.79 -9.77 
1928 -9.81 -9.79 -9.77 
1929 -9.81 -9.80 -9.77 
1930 -9.82 -9.79 -9.77 
1931 -9.82 -9.79 -9.77 
1932 -9.81 -9.79 -9.77 
1933 -9.81 -9.79 -9.77 
1934 -9.80 -9.78 -9.77 
1935 -9.80 -9.79 -9.77 
1936 -9.81 -9.79 -9.77 
1937 -9.81 -9.79 -9.77 
1938 -9.81 -9.79 -9.77 
1939 -9.81 -9.79 -9.77 
1940 -9.82 -9.79 -9.77 
1941 -9.81 -9.79 -9.77 
1942 -9.81 -9.79 -9.77 
1943 -9.81 -9.79 -9.77 
1944 -9.81 -9.79 -9.77 
1945 -9.81 -9.79 -9.77 
1946 -9.81 -9.79 -9.77 
1947 -9.82 -9.79 -9.77 
1948 -9.82 -9.79 -9.77 
1949 -9.81 -9.79 -9.77 
1950 -9.81 -9.78 -9.77 
1951 -9.80 -9.79 -9.77 
1952 -9.81 -9.78 -9.77 
1953 -9.81 -9.78 -9.77 
1954 -9.80 -9.78 -9.77 
1955 -9.80 -9.78 -9.77 
1956 -9.81 -9.79 -9.77 
1957 -9.82 -9.78 -9.77 
1958 -9.81 -9.78 -9.77 
1959 -9.80 -9.78 -9.77 
1960 -9.80 -9.78 -9.77 
1961 -9.80 -9.78 -9.77 
1962 -9.80 -9.78 -9.77 
1963 -9.80 -9.78 -9.77 
1964 -9.80 -9.78 -9.77 
1965 -9.81 -9.79 -9.77 
1966 -9.80 -9.79 -9.77 
1967 -9.81 -9.79 -9.77 
1968 -9.81 -9.79 -9.77 
1969 -9.81 -9.78 -9.77 
1970 -9.81 -9.78 -9.77 
1971 -9.80 -9.79 -9.77 
1972 -9.81 -9.79 -9.77 
1973 -9.81 -9.79 -9.77 
1974 -9.81 -9.79 -9.77 
1975 -9.81 -9.79 -9.77 
1976 -9.81 -9.78 -9.77 
1977 -9.80 -9.78 -9.77 
1978 -9.81 -9.78 -9.77 
1979 -9.80 -9.77 -9.77 
1980 -9.80 -9.78 -9.77 
1981 -9.80 -9.78 -9.77 
1982 -9.80 -9.78 -9.77 
1983 -9.80 -9.77 -9.77 
1984 -9.80 -9.77 -9.77 
1985 -9.80 -9.77 -9.77 
1986 -9.80 -9.77 -9.77 
1987 -9.79 -9.77 -9.77 
1988 -9.80 -9.77 -9.77 
1989 -9.80 -9.77 -9.77 
1990 -9.80 -9.77 -9.77 
1991 -9.80 -9.77 -9.77 
1992 -9.80 -9.77 -9.77 
1993 -9.80 -9.77 -9.77 
1994 -9.80 -9.77 -9.77 
1995 -9.79 -9.77 -9.77 
1996 -9.79 -9.77 -9.77 
1997 -9.79 -9.77 -9.77 
1998 -9.79 -9.77 -9.77 
1999 -9.80 -9.77 -9.77 
2000 -9.79 -9.77 -9.77 
2001 -9.79 -9.76 -9.77 
2002 -9.79 -9.76 -9.77 
2003 -9.79 -9.76 -9.77 
2004 -9.79 -9.76 -9.77 
2005 -9.79 -9.76 -9.77 
2006 -9.79 -9.76 -9.77 
2007 -9.79 -9.76 -9.77 
2008 -9.79 -9.76 -9.77 
2009 -9.79 -9.76 -9.77 
2010 -9.79 -9.76 -9.77 
2011 -9.79 -9.76 -9.77 
2012 -9.79 -9.76 -9.77 
2013 -9.79 -9.76 -9.77 
2014 -9.80 -9.76 -9.77 
2015 -9.80 -9.76 -9.77 
2016 -9.80 -9.76 -9.77 
2017 -9.80 -9.76 -9.77 
2018 -9.79 -9.76 -9.77 
2019 -9.80 -9.77 -9.77 
2020 -9.80 -9.77 -9.77 
2021 -9.81 -9.77 -9.77 
2022 -9.80 -9.77 -9.77 
2023 -9.80 -9.77 -9.77 
2024 -9.80 -9.78 -9.77 
2025 -9.81 -9.78 -9.77 
2026 -9.81 -9.78 -9.77 
2027 -9.81 -9.78 -9.77 
2028 -9.81 -9.78 -9.77 
2029 -9.82 -9.77 -9.77 
2030 -9.80 -9.76 -9.77 
2031 -9.80 -9.76 -9.77 
2032 -9.80 -9.76 -9.77 
2033 -9.80 -9.75 -9.77 
2034 -9.79 -9.75 -9.77 
2035 -9.79 -9.75 -9.77 
2036 -9.79 -9.75 -9.77 
2037 -9.79 -9.75 -9.77 
2038 -9.79 -9.75 -9.77 
2039 -9.79 -9.75 -9.77 
2040 -9.79 -9.76 -9.77 
2041 -9.79 -9.75 -9.77 
2042 -9.79 -9.75 -9.77 
2043 -9.79 -9.76 -9.77 
2044 -9.79 -9.76 -9.77 
2045 -9.78 -9.75 -9.77 
2046 -9.78 -9.75 -9.77 
2047 -9.78 -9.75 -9.77 
2048 -9.78 -9.75 -9.77 
2049 -9.78 -9.75 -9.77 
2050 -9.78 -9.75 -9.77 
2051 -9.78 -9.75 -9.77 
2052 -9.78 -9.75 -9.77 
2053 -9.78 -9.75 -9.77 
2054 -9.78 -9.75 -9.77 
2055 -9.78 -9.75 -9.77 
2056 -9.78 -9.75 -9.77 
2057 -9.78 -9.75 -9.77 
2058 -9.78 -9.75 -9.77 
2059 -9.78 -9.75 -9.77 
2060 -9.78 -9.75 -9.77 
2061 -9.78 -9.75 -9.77 
2062 -9.78 -9.75 -9.77 
2063 -9.79 -9.75 -9.77 
2064 -9.79 -9.75 -9.77 
2065 -9.79 -9.75 -9.77 
2066 -9.79 -9.75 -9.77 
2067 -9.79 -9.75 -9.77 
2068 -9.79 -9.75 -9.77 
2069 -9.79 -9.76 -9.77 
2070 -9.79 -9.75 -9.77 
2071 -9.79 -9.75 -9.77 
2072 -9.79 -9.75 -9.77 
2073 -9.78 -9.75 -9.77 
2074 -9.78 -9.75 -9.77 
2075 -9.78 -9.75 -9.77 
2076 -9.79 -9.75 -9.77 
2077 -9.79 -9.75 -9.77 
2078 -9.79 -9.75 -9.77 
2079 -9.78 -9.75 -9.77 
2080 -9.78 -9.75 -9.77 
2081 -9.78 -9.75 -9.77 
2082 -9.78 -9.75 -9.77 
2083 -9.78 -9.75 -9.77 
2084 -9.78 -9.75 -9.77 
2085 -9.79 -9.76 -9.77 
2086 -9.79 -9.76 -9.77 
2087 -9.79 -9.75 -9.77 
2088 -9.79 -9.75 -9.77 
2089 -9.79 -9.76 -9.77 
2090 -9.79 -9.75 -9.77 
2091 -9.79 -9.75 -9.77 
2092 -9.78 -9.76 -9.77 
2093 -9.79 -9.76 -9.77 
2094 -9.79 -9.76 -9.77 
2095 -9.79 -9.76 -9.77 
2096 -9.79 -9.77 -9.77 
2097 -9.80 -9.77 -9.77 
2098 -9.80 -9.77 -9.77 
2099 -9.80 -9.76 -9.77 
2100 -9.80 -9.77 -9.77 
2101 -9.81 -9.79 -9.77 
2102 -9.84 -9.83 -9.77 
2103 -9.87 -9.85 -9.77 
2104 -9.90 -9.81 -9.77 
2105 -9.86 -9.80 -9.77 
2106 -9.85 -9.77 -9.77 
2107 -9.83 -9.78 -9.77 
2108 -9.83 -9.79 -9.77 
2109 -9.84 -9.78 -9.77 
2110 -9.84 -9.77 -9.77 
2111 -9.82 -9.77 -9.77 
2112 -9.81 -9.77 -9.77 
2113 -9.81 -9.77 -9.77 
2114 -9.83 -9.78 -9.77 
2115 -9.83 -9.77 -9.77 
2116 -9.83 -9.77 -9.77 
2117 -9.82 -9.77 -9.77 
2118 -9.81 -9.77 -9.77 
2119 -9.81 -9.77 -9.77 
2120 -9.81 -9.77 -9.77 
2121 -9.81 -9.77 -9.77 
2122 -9.81 -9.77 -9.77 
2123 -9.82 -9.77 -9.77 
2124 -9.82 -9.78 -9.77 
2125 -9.83 -9.78 -9.77 
2126 -9.83 -9.78 -9.77 
2127 -9.83 -9.78 -9.77 
2128 -9.83 -9.78 -9.77 
2129 -9.82 -9.78 -9.77 
2130 -9.82 -9.78 -9.77 
2131 -9.82 -9.78 -9.77 
2132 -9.83 -9.80 -9.77 
2133 -9.85 -9.82 -9.77 
2134 -9.87 -9.82 -9.77 
2135 -9.87 -9.81 -9.77 
2136 -9.86 -9.81 -9.77 
2137 -9.86 -9.82 -9.77 
2138 -9.87 -9.82 -9.77 
2139 -9.87 -9.80 -9.77 
2140 -9.85 -9.80 -9.77 
2141 -9.85 -9.80 -9.77 
2142 -9.85 -9.80 -9.77 
2143 -9.84 -9.78 -9.77 
2144 -9.82 -9.78 -9.77 
2145 -9.81 -9.78 -9.77 
2146 -9.82 -9.78 -9.77 
2147 -9.83 -9.78 -9.77 
2148 -9.83 -9.79 -9.77 
2149 -9.83 -9.81 -9.77 
2150 -9.86 -9.81 -9.77 
2151 -9.87 -9.81 -9.77 
2152 -9.86 -9.80 -9.77 
2153 -9.85 -9.81 -9.77 
2154 -9.86 -9.80 -9.77 
2155 -9.84 -9.80 -9.77 
2156 -9.84 -9.79 -9.77 
2157 -9.83 -9.80 -9.77 
2158 -9.84 -9.80 -9.77 
2159 -9.84 -9.81 -9.77 
2160 -9.84 -9.80 -9.77 
2161 -9.84 -9.80 -9.77 
2162 -9.84 -9.80 -9.77 
2163 -9.84 -9.80 -9.77 
2164 -9.85 -9.80 -9.77 
2165 -9.85 -9.81 -9.77 
2166 -9.86 -9.80 -9.77 
2167 -9.85 -9.79 -9.77 
2168 -9.83 -9.79 -9.77 
2169 -9.84 -9.80 -9.77 
2170 -9.84 -9.79 -9.77 
2171 -9.84 -9.79 -9.77 
2172 -9.84 -9.79 -9.77 
2173 -9.84 -9.80 -9.77 
2174 -9.84 -9.81 -9.77 
2175 -9.85 -9.82 -9.77 
2176 -9.86 -9.81 -9.77 
2177 -9.86 -9.80 -9.77 
2178 -9.85 -9.81 -9.77 
2179 -9.86 -9.80 -9.77 
2180 -9.85 -9.80 -9.77 
2181 -9.86 -9.81 -9.77 
2182 -9.86 -9.82 -9.77 
2183 -9.86 -9.82 -9.77 
2184 -9.87 -9.81 -9.77 
2185 -9.86 -9.80 -9.77 
2186 -9.85 -9.80 -9.77 
2187 -9.85 -9.80 -9.77 
2188 -9.84 -9.81 -9.77 
2189 -9.84 -9.80 -9.77 
2190 -9.84 -9.81 -9.77 
2191 -9.86 -9.80 -9.77 
2192 -9.84 -9.79 -9.77 
2193 -9.84 -9.81 -9.77 
2194 -9.86 -9.80 -9.77 
2195 -9.85 -9.80 -9.77 
2196 -9.84 -9.80 -9.77 
2197 -9.84 -9.80 -9.77 
2198 -9.84 -9.80 -9.77 
2199 -9.83 -9.80 -9.77 
2200 -9.84 -9.80 -9.77 
2201 -9.84 -9.80 -9.77 
2202 -9.84 -9.80 -9.77 
2203 -9.84 -9.80 -9.77 
2204 -9.83 -9.79 -9.77 
2205 -9.83 -9.80 -9.77 
2206 -9.84 -9.80 -9.77 
2207 -9.83 -9.79 -9.77 
2208 -9.83 -9.79 -9.77 
2209 -9.82 -9.79 -9.77 
2210 -9.83 -9.79 -9.77 
2211 -9.83 -9.79 -9.77 
2212 -9.82 -9.79 -9.77 
2213 -9.82 -9.79 -9.77 
2214 -9.82 -9.80 -9.77 
2215 -9.83 -9.79 -9.77 
2216 -9.82 -9.80 -9.77 
2217 -9.83 -9.80 -9.77 
2218 -9.83 -9.81 -9.77 
2219 -9.83 -9.81 -9.77 
2220 -9.83 -9.81 -9.77 
2221 -9.83 -9.81 -9.77 
2222 -9.83 -9.80 -9.77 
2223 -9.83 -9.80 -9.77 
2224 -9.83 -9.80 -9.77 
2225 -9.83 -9.80 -9.77 
2226 -9.83 -9.80 -9.77 
2227 -9.83 -9.80 -9.77 
2228 -9.83 -9.79 -9.77 
2229 -9.83 -9.80 -9.77 
2230 -9.82 -9.80 -9.77 
2231 -9.83 -9.80 -9.77 
2232 -9.83 -9.80 -9.77 
2233 -9.83 -9.79 -9.77 
2234 -9.82 -9.79 -9.77 
2235 -9.82 -9.79 -9.77 
2236 -9.83 -9.79 -9.77 
2237 -9.83 -9.79 -9.77 
2238 -9.83 -9.79 -9.77 
2239 -9.82 -9.79 -9.77 
2240 -9.83 -9.79 -9.77 
2241 -9.84 -9.80 -9.77 
2242 -9.85 -9.81 -9.77 
2243 -9.86 -9.80 -9.77 
2244 -9.84 -9.80 -9.77 
2245 -9.83 -9.80 -9.77 
2246 -9.84 -9.80 -9.77 
2247 -9.84 -9.81 -9.77 
2248 -9.85 -9.80 -9.77 
2249 -9.84 -9.80 -9.77 
2250 -9.83 -9.81 -9.77 
2251 -9.85 -9.82 -9.77 
2252 -9.86 -9.82 -9.77 
2253 -9.88 -9.80 -9.77 
2254 -9.85 -9.82 -9.77 
2255 -9.87 -9.81 -9.77 
2256 -9.85 -9.81 -9.77 
2257 -9.85 -9.81 -9.77 
2258 -9.86 -9.82 -9.77 
2259 -9.85 -9.83 -9.77 
2260 -9.88 -9.84 -9.77 
2261 -9.89 -9.85 -9.77 
2262 -9.89 -9.85 -9.77 
2263 -9.89 -9.84 -9.77 
2264 -9.89 -9.84 -9.77 
2265 -9.89 -9.84 -9.77 
2266 -9.89 -9.81 -9.77 
2267 -9.85 -9.81 -9.77 
2268 -9.85 -9.81 -9.77 
2269 -9.85 -9.81 -9.77 
2270 -9.85 -9.82 -9.77 
2271 -9.86 -9.80 -9.77 
2272 -9.84 -9.80 -9.77 
2273 -9.84 -9.78 -9.77 
2274 -9.84 -9.78 -9.77 
2275 -9.83 -9.77 -9.77 
2276 -9.83 -9.78 -9.77 
2277 -9.83 -9.78 -9.77 
2278 -9.83 -9.78 -9.77 
2279 -9.83 -9.79 -9.77 
2280 -9.83 -9.79 -9.77 
2281 -9.82 -9.79 -9.77 
2282 -9.83 -9.79 -9.77 
2283 -9.82 -9.79 -9.77 
2284 -9.82 -9.78 -9.77 
2285 -9.82 -9.79 -9.77 
2286 -9.82 -9.78 -9.77 
2287 -9.82 -9.78 -9.77 
2288 -9.82 -9.79 -9.77 
2289 -9.82 -9.78 -9.77 
2290 -9.81 -9.78 -9.77 
2291 -9.81 -9.78 -9.77 
2292 -9.81 -9.78 -9.77 
2293 -9.81 -9.78 -9.77 
2294 -9.81 -9.78 -9.77 
2295 -9.81 -9.77 -9.77 
2296 -9.81 -9.77 -9.77 
2297 -9.80 -9.77 -9.77 
2298 -9.80 -9.77 -9.77 
2299 -9.80 -9.77 -9.77 
2300 -9.80 -9.77 -9.77 
2301 -9.80 -9.77 -9.77 
2302 -9.81 -9.77 -9.77 
2303 -9.80 -9.78 -9.77 
2304 -9.80 -9.77 -9.77 
2305 -9.80 -9.78 -9.77 
2306 -9.81 -9.77 -9.77 
2307 -9.80 -9.77 -9.77 
2308 -9.80 -9.77 -9.77 
2309 -9.80 -9.78 -9.77 
2310 -9.80 -9.77 -9.77 
2311 -9.80 -9.77 -9.77 
2312 -9.80 -9.77 -9.77 
2313 -9.80 -9.77 -9.77 
2314 -9.80 -9.77 -9.77 
2315 -9.80 -9.77 -9.77 
2316 -9.80 -9.77 -9.77 
2317 -9.80 -9.77 -9.77 
2318 -9.81 -9.77 -9.77 
2319 -9.80 -9.77 -9.77 
2320 -9.80 -9.76 -9.77 
2321 -9.80 -9.76 -9.77 
2322 -9.80 -9.76 -9.77 
2323 -9.80 -9.76 -9.77 
2324 -9.80 -9.76 -9.77 
2325 -9.79 -9.76 -9.77 
2326 -9.79 -9.76 -9.77 
2327 -9.79 -9.76 -9.77 
2328 -9.80 -9.76 -9.77 
2329 -9.80 -9.76 -9.77 
2330 -9.80 -9.76 -9.77 
2331 -9.80 -9.76 -9.77 
2332 -9.80 -9.76 -9.77 
2333 -9.80 -9.77 -9.77 
2334 -9.80 -9.77 -9.77 
2335 -9.80 -9.77 -9.77 
2336 -9.80 -9.77 -9.77 
2337 -9.80 -9.77 -9.77 
2338 -9.80 -9.77 -9.77 
2339 -9.81 -9.77 -9.77 
2340 -9.80 -9.77 -9.77 
2341 -9.80 -9.77 -9.77 
2342 -9.80 -9.77 -9.77 
2343 -9.80 -9.77 -9.77 
2344 -9.80 -9.77 -9.77 
2345 -9.81 -9.77 -9.77 
2346 -9.81 -9.77 -9.77 
2347 -9.81 -9.78 -9.77 
2348 -9.82 -9.79 -9.77 
2349 -9.82 -9.79 -9.77 
2350 -9.82 -9.78 -9.77 
2351 -9.82 -9.79 -9.77 
2352 -9.82 -9.79 -9.77 
2353 -9.83 -9.80 -9.77 
2354 -9.83 -9.79 -9.77 
2355 -9.83 -9.79 -9.77 
2356 -9.83 -9.78 -9.77 
2357 -9.82 -9.78 -9.77 
2358 -9.83 -9.79 -9.77 
2359 -9.83 -9.78 -9.77 
2360 -9.82 -9.78 -9.77 
2361 -9.82 -9.78 -9.77 
2362 -9.81 -9.77 -9.77 
2363 -9.81 -9.78 -9.77 
2364 -9.81 -9.77 -9.77 
2365 -9.81 -9.77 -9.77 
2366 -9.81 -9.77 -9.77 
2367 -9.81 -9.77 -9.77 
2368 -9.81 -9.77 -9.77 
2369 -9.81 -9.77 -9.77 
2370 -9.81 -9.76 -9.77 
2371 -9.80 -9.76 -9.77 
2372 -9.80 -9.77 -9.77 
2373 -9.81 -9.78 -9.77 
2374 -9.83 -9.77 -9.77 
2375 -9.82 -9.77 -9.77 
2376 -9.82 -9.78 -9.77 
2377 -9.83 -9.78 -9.77 
2378 -9.83 -9.80 -9.77 
2379 -9.85 -9.79 -9.77 
2380 -9.83 -9.80 -9.77 
2381 -9.84 -9.82 -9.77 
2382 -9.85 -9.82 -9.77 
2383 -9.86 -9.82 -9.77 
2384 -9.86 -9.81 -9.77 
2385 -9.85 -9.82 -9.77 
2386 -9.86 -9.84 -9.77 
2387 -9.88 -9.83 -9.77 
2388 -9.86 -9.81 -9.77 
2389 -9.85 -9.80 -9.77 
2390 -9.84 -9.80 -9.77 
2391 -9.84 -9.81 -9.77 
2392 -9.84 -9.81 -9.77 
2393 -9.84 -9.80 -9.77 
2394 -9.84 -9.80 -9.77 
2395 -9.83 -9.80 -9.77 
2396 -9.83 -9.80 -9.77 
2397 -9.82 -9.79 -9.77 
2398 -9.82 -9.79 -9.77 
2399 -9.82 -9.79 -9.77 
2400 -9.82 -9.78 -9.77 
2401 -9.81 -9.79 -9.77 
2402 -9.82 -9.78 -9.77 
2403 -9.82 -9.79 -9.77 
2404 -9.82 -9.79 -9.77 
2405 -9.81 -9.79 -9.77 
2406 -9.81 -9.79 -9.77 
2407 -9.82 -9.79 -9.77 
2408 -9.82 -9.78 -9.77 
2409 -9.81 -9.78 -9.77 
2410 -9.82 -9.79 -9.77 
2411 -9.82 -9.79 -9.77 
2412 -9.82 -9.79 -9.77 
2413 -9.82 -9.80 -9.77 
2414 -9.82 -9.80 -9.77 
2415 -9.83 -9.80 -9.77 
2416 -9.82 -9.80 -9.77 
2417 -9.82 -9.81 -9.77 
2418 -9.83 -9.81 -9.77 
2419 -9.83 -9.80 -9.77 
2420 -9.82 -9.80 -9.77 
2421 -9.82 -9.80 -9.77 
2422 -9.82 -9.81 -9.77 
2423 -9.83 -9.81 -9.77 
2424 -9.83 -9.81 -9.77 
2425 -9.83 -9.81 -9.77 
2426 -9.83 -9.80 -9.77 
2427 -9.82 -9.80 -9.77 
2428 -9.83 -9.80 -9.77 
2429 -9.83 -9.80 -9.77 
2430 -9.83 -9.80 -9.77 
2431 -9.83 -9.81 -9.77 
2432 -9.83 -9.81 -9.77 
2433 -9.83 -9.81 -9.77 
2434 -9.83 -9.80 -9.77 
2435 -9.83 -9.80 -9.77 
2436 -9.83 -9.79 -9.77 
2437 -9.82 -9.80 -9.77 
2438 -9.82 -9.80 -9.77 
2439 -9.82 -9.79 -9.77 
2440 -9.82 -9.79 -9.77 
2441 -9.82 -9.79 -9.77 
2442 -9.82 -9.79 -9.77 
2443 -9.82 -9.79 -9.77 
2444 -9.82 -9.79 -9.77 
2445 -9.81 -9.79 -9.77 
2446 -9.81 -9.79 -9.77 
2447 -9.82 -9.78 -9.77 
2448 -9.81 -9.79 -9.77 
2449 -9.82 -9.79 -9.77 
2450 -9.82 -9.79 -9.77 
2451 -9.82 -9.79 -9.77 
2452 -9.82 -9.79 -9.77 
2453 -9.82 -9.78 -9.77 
2454 -9.82 -9.78 -9.77 
2455 -9.81 -9.78 -9.77 
2456 -9.82 -9.78 -9.77 
2457 -9.82 -9.78 -9.77 
2458 -9.81 -9.78 -9.77 
2459 -9.81 -9.78 -9.77 
2460 -9.82 -9.78 -9.77 
2461 -9.81 -9.78 -9.77 
2462 -9.81 -9.78 -9.77 
2463 -9.82 -9.78 -9.77 
2464 -9.81 -9.78 -9.77 
2465 -9.82 -9.79 -9.77 
2466 -9.83 -9.79 -9.77 
2467 -9.83 -9.79 -9.77 
2468 -9.83 -9.80 -9.77 
2469 -9.84 -9.80 -9.77 
2470 -9.84 -9.80 -9.77 
2471 -9.83 -9.80 -9.77 
2472 -9.83 -9.80 -9.77 
2473 -9.83 -9.80 -9.77 
2474 -9.83 -9.80 -9.77 
2475 -9.84 -9.80 -9.77 
2476 -9.84 -9.80 -9.77 
2477 -9.84 -9.80 -9.77 
2478 -9.84 -9.80 -9.77 
2479 -9.83 -9.80 -9.77 
2480 -9.83 -9.80 -9.77 
2481 -9.83 -9.80 -9.77 
2482 -9.84 -9.80 -9.77 
2483 -9.83 -9.80 -9.77 
2484 -9.83 -9.80 -9.77 
2485 -9.83 -9.81 -9.77 
2486 -9.84 -9.81 -9.77 
2487 -9.84 -9.81 -9.77 
2488 -9.84 -9.81 -9.77 
2489 -9.84 -9.81 -9.77 
2490 -9.84 -9.82 -9.77 
2491 -9.86 -9.81 -9.77 
2492 -9.85 -9.80 -9.77 
2493 -9.84 -9.80 -9.77 
2494 -9.84 -9.80 -9.77 
2495 -9.84 -9.82 -9.77 
2496 -9.86 -9.82 -9.77 
2497 -9.86 -9.84 -9.77 
2498 -9.87 -9.83 -9.77 
2499 -9.86 -9.83 -9.77 
2500 -9.87 -9.83 -9.77 
2501 -9.87 -9.82 -9.77 
2502 -9.86 -9.82 -9.77 
2503 -9.86 -9.82 -9.77 
2504 -9.86 -9.83 -9.77 
2505 -9.86 -9.83 -9.77 
2506 -9.87 -9.82 -9.77 
2507 -9.87 -9.82 -9.77 
2508 -9.87 -9.81 -9.77 
2509 -9.85 -9.81 -9.77 
2510 -9.85 -9.80 -9.77 
2511 -9.84 -9.80 -9.77 
2512 -9.85 -9.81 -9.77 
2513 -9.85 -9.81 -9.77 
2514 -9.86 -9.81 -9.77 
2515 -9.86 -9.82 -9.77 
2516 -9.86 -9.83 -9.77 
2517 -9.87 -9.84 -9.77 
2518 -9.88 -9.83 -9.77 
2519 -9.87 -9.81 -9.77 
2520 -9.85 -9.80 -9.77 
2521 -9.84 -9.80 -9.77 
2522 -9.84 -9.80 -9.77 
2523 -9.83 -9.80 -9.77 
2524 -9.84 -9.80 -9.77 
2525 -9.84 -9.80 -9.77 
2526 -9.83 -9.80 -9.77 
2527 -9.83 -9.80 -9.77 
2528 -9.83 -9.80 -9.77 
2529 -9.83 -9.80 -9.77 
2530 -9.84 -9.80 -9.77 
2531 -9.84 -9.80 -9.77 
2532 -9.84 -9.80 -9.77 
2533 -9.84 -9.81 -9.77 
2534 -9.84 -9.81 -9.77 
2535 -9.84 -9.80 -9.77 
2536 -9.84 -9.80 -9.77 
2537 -9.84 -9.80 -9.77 
2538 -9.84 -9.81 -9.77 
2539 -9.84 -9.80 -9.77 
2540 -9.83 -9.80 -9.77 
2541 -9.83 -9.80 -9.77 
2542 -9.83 -9.80 -9.77 
2543 -9.83 -9.80 -9.77 
2544 -9.83 -9.80 -9.77 
2545 -9.82 -9.81 -9.77 
2546 -9.83 -9.81 -9.77 
2547 -9.84 -9.81 -9.77 
2548 -9.84 -9.82 -9.77 
2549 -9.84 -9.81 -9.77 
2550 -9.84 -9.82 -9.77 
2551 -9.85 -9.83 -9.77 
2552 -9.85 -9.83 -9.77 
2553 -9.86 -9.83 -9.77 
2554 -9.86 -9.84 -9.77 
2555 -9.86 -9.84 -9.77 
2556 -9.86 -9.84 -9.77 
2557 -9.86 -9.84 -9.77 
2558 -9.86 -9.84 -9.77 
2559 -9.87 -9.85 -9.77 
2560 -9.86 -9.85 -9.77 
2561 -9.87 -9.85 -9.77 
2562 -9.86 -9.84 -9.77 
2563 -9.86 -9.84 -9.77 
2564 -9.86 -9.85 -9.77 
2565 -9.86 -9.84 -9.77 
2566 -9.86 -9.84 -9.77 
2567 -9.86 -9.84 -9.77 
2568 -9.85 -9.84 -9.77 
2569 -9.85 -9.84 -9.77 
2570 -9.85 -9.84 -9.77 
2571 -9.86 -9.84 -9.77 
2572 -9.85 -9.84 -9.77 
2573 -9.86 -9.83 -9.77 
2574 -9.86 -9.83 -9.77 
2575 -9.86 -9.84 -9.77 
2576 -9.87 -9.84 -9.77 
2577 -9.87 -9.83 -9.77 
2578 -9.87 -9.82 -9.77 
2579 -9.85 -9.83 -9.77 
2580 -9.87 -9.83 -9.77 
2581 -9.86 -9.83 -9.77 
2582 -9.87 -9.83 -9.77 
2583 -9.87 -9.83 -9.77 
2584 -9.87 -9.84 -9.77 
2585 -9.86 -9.84 -9.77 
2586 -9.86 -9.83 -9.77 
2587 -9.86 -9.83 -9.77 
2588 -9.86 -9.83 -9.77 
2589 -9.86 -9.83 -9.77 
2590 -9.86 -9.83 -9.77 
2591 -9.86 -9.82 -9.77 
2592 -9.85 -9.82 -9.77 
2593 -9.85 -9.82 -9.77 
2594 -9.85 -9.82 -9.77 
2595 -9.84 -9.82 -9.77 
2596 -9.85 -9.82 -9.77 
2597 -9.85 -9.82 -9.77 
2598 -9.85 -9.81 -9.77 
2599 -9.84 -9.81 -9.77 
2600 -9.84 -9.81 -9.77 
2601 -9.84 -9.81 -9.77 
2602 -9.84 -9.81 -9.77 
2603 -9.84 -9.81 -9.77 
2604 -9.84 -9.81 -9.77 
2605 -9.84 -9.81 -9.77 
2606 -9.84 -9.81 -9.77 
2607 -9.84 -9.80 -9.77 
2608 -9.83 -9.80 -9.77 
2609 -9.83 -9.80 -9.77 
2610 -9.83 -9.81 -9.77 
2611 -9.83 -9.81 -9.77 
2612 -9.83 -9.81 -9.77 
2613 -9.83 -9.81 -9.77 
2614 -9.83 -9.81 -9.77 
2615 -9.84 -9.82 -9.77 
2616 -9.85 -9.82 -9.77 
2617 -9.84 -9.82 -9.77 
2618 -9.85 -9.82 -9.77 
2619 -9.85 -9.82 -9.77 
2620 -9.85 -9.82 -9.77 
2621 -9.85 -9.81 -9.77 
2622 -9.84 -9.80 -9.77 
2623 -9.83 -9.80 -9.77 
2624 -9.84 -9.80 -9.77 
2625 -9.84 -9.80 -9.77 
2626 -9.85 -9.80 -9.77 
2627 -9.84 -9.81 -9.77 
2628 -9.86 -9.80 -9.77 
2629 -9.85 -9.81 -9.77 
2630 -9.85 -9.80 -9.77 
2631 -9.85 -9.79 -9.77 
2632 -9.84 -9.80 -9.77 
2633 -9.85 -9.82 -9.77 
2634 -9.87 -9.80 -9.77 
2635 -9.84 -9.80 -9.77 
2636 -9.85 -9.80 -9.77 
2637 -9.84 -9.79 -9.77 
2638 -9.83 -9.80 -9.77 
2639 -9.84 -9.80 -9.77 
2640 -9.83 -9.80 -9.77 
2641 -9.83 -9.79 -9.77 
2642 -9.82 -9.80 -9.77 
2643 -9.82 -9.79 -9.77 
2644 -9.81 -9.79 -9.77 
2645 -9.81 -9.79 -9.77 
2646 -9.81 -9.79 -9.77 
2647 -9.81 -9.80 -9.77 
2648 -9.81 -9.80 -9.77 
2649 -9.82 -9.80 -9.77 
2650 -9.82 -9.80 -9.77 
2651 -9.82 -9.79 -9.77 
2652 -9.82 -9.79 -9.77 
2653 -9.82 -9.79 -9.77 
2654 -9.81 -9.80 -9.77 
2655 -9.81 -9.79 -9.77 
2656 -9.81 -9.79 -9.77 
2657 -9.81 -9.79 -9.77 
2658 -9.81 -9.79 -9.77 
2659 -9.81 -9.78 -9.77 
2660 -9.81 -9.78 -9.77 
2661 -9.81 -9.78 -9.77 
2662 -9.80 -9.78 -9.77 
2663 -9.81 -9.79 -9.77 
2664 -9.81 -9.79 -9.77 
2665 -9.81 -9.79 -9.77 
2666 -9.81 -9.79 -9.77 
2667 -9.81 -9.79 -9.77 
2668 -9.81 -9.79 -9.77 
2669 -9.81 -9.79 -9.77 
2670 -9.81 -9.79 -9.77 
2671 -9.80 -9.78 -9.77 
2672 -9.80 -9.79 -9.77 
2673 -9.80 -9.79 -9.77 
2674 -9.81 -9.80 -9.77 
2675 -9.81 -9.79 -9.77 
2676 -9.81 -9.79 -9.77 
2677 -9.81 -9.79 -9.77 
2678 -9.81 -9.80 -9.77 
2679 -9.81 -9.79 -9.77 
2680 -9.81 -9.79 -9.77 
2681 -9.81 -9.79 -9.77 
2682 -9.81 -9.79 -9.77 
2683 -9.81 -9.79 -9.77 
2684 -9.81 -9.79 -9.77 
2685 -9.81 -9.78 -9.77 
2686 -9.80 -9.78 -9.77 
2687 -9.80 -9.78 -9.77 
2688 -9.80 -9.77 -9.77 
2689 -9.80 -9.78 -9.77 
2690 -9.80 -9.78 -9.77 
2691 -9.80 -9.78 -9.77 
2692 -9.80 -9.78 -9.77 
2693 -9.80 -9.78 -9.77 
2694 -9.80 -9.78 -9.77 
2695 -9.80 -9.78 -9.77 
2696 -9.80 -9.78 -9.77 
2697 -9.81 -9.77 -9.77 
2698 -9.80 -9.77 -9.77 
2699 -9.80 -9.77 -9.77 
2700 -9.79 -9.77 -9.77 
2701 -9.80 -9.76 -9.77 
2702 -9.79 -9.76 -9.77 
2703 -9.79 -9.76 -9.77 
2704 -9.79 -9.76 -9.77 
2705 -9.79 -9.76 -9.77 
2706 -9.79 -9.76 -9.77 
2707 -9.79 -9.76 -9.77 
2708 -9.79 -9.76 -9.77 
2709 -9.79 -9.76 -9.77 
2710 -9.79 -9.77 -9.77 
2711 -9.79 -9.76 -9.77 
2712 -9.79 -9.76 -9.77 
2713 -9.79 -9.76 -9.77 
2714 -9.79 -9.76 -9.77 
2715 -9.79 -9.76 -9.77 
2716 -9.79 -9.76 -9.77 
2717 -9.79 -9.76 -9.77 
2718 -9.80 -9.76 -9.77 
2719 -9.79 -9.77 -9.77 
2720 -9.80 -9.77 -9.77 
2721 -9.80 -9.78 -9.77 
2722 -9.81 -9.76 -9.77 
2723 -9.79 -9.76 -9.77 
2724 -9.80 -9.76 -9.77 
2725 -9.79 -9.76 -9.77 
2726 -9.79 -9.75 -9.77 
2727 -9.79 -9.75 -9.77 
2728 -9.78 -9.75 -9.77 
2729 -9.79 -9.76 -9.77 
2730 -9.80 -9.79 -9.77 
2731 -9.82 -9.79 -9.77 
2732 -9.83 -9.76 -9.77 
2733 -9.80 -9.75 -9.77 
2734 -9.80 -9.75 -9.77 
2735 -9.79 -9.75 -9.77 
2736 -9.79 -9.76 -9.77 
2737 -9.80 -9.76 -9.77 
2738 -9.80 -9.76 -9.77 
2739 -9.80 -9.76 -9.77 
2740 -9.79 -9.76 -9.77 
2741 -9.80 -9.76 -9.77 
2742 -9.79 -9.75 -9.77 
2743 -9.79 -9.75 -9.77 
2744 -9.78 -9.75 -9.77 
2745 -9.78 -9.75 -9.77 
2746 -9.78 -9.75 -9.77 
2747 -9.78 -9.75 -9.77 
2748 -9.78 -9.75 -9.77 
2749 -9.78 -9.75 -9.77 
2750 -9.78 -9.75 -9.77 
2751 -9.78 -9.76 -9.77 
2752 -9.78 -9.76 -9.77 
2753 -9.78 -9.76 -9.77 
2754 -9.78 -9.76 -9.77 
2755 -9.78 -9.76 -9.77 
2756 -9.78 -9.76 -9.77 
2757 -9.79 -9.76 -9.77 
2758 -9.79 -9.76 -9.77 
2759 -9.78 -9.76 -9.77 
2760 -9.79 -9.77 -9.77 
2761 -9.79 -9.77 -9.77 
2762 -9.80 -9.77 -9.77 
2763 -9.80 -9.77 -9.77 
2764 -9.80 -9.77 -9.77 
2765 -9.80 -9.77 -9.77 
2766 -9.80 -9.77 -9.77 
2767 -9.79 -9.77 -9.77 
2768 -9.79 -9.77 -9.77 
2769 -9.79 -9.77 -9.77 
2770 -9.80 -9.77 -9.77 
2771 -9.79 -9.77 -9.77 
2772 -9.80 -9.78 -9.77 
2773 -9.80 -9.78 -9.77 
2774 -9.80 -9.78 -9.77 
2775 -9.80 -9.78 -9.77 
2776 -9.80 -9.78 -9.77 
2777 -9.80 -9.78 -9.77 
2778 -9.80 -9.78 -9.77 
2779 -9.80 -9.78 -9.77 
2780 -9.80 -9.77 -9.77 
2781 -9.80 -9.77 -9.77 
2782 -9.80 -9.77 -9.77 
2783 -9.80 -9.77 -9.77 
2784 -9.79 -9.77 -9.77 
2785 -9.79 -9.76 -9.77 
2786 -9.79 -9.77 -9.77 
2787 -9.79 -9.77 -9.77 
2788 -9.79 -9.77 -9.77 
2789 -9.79 -9.77 -9.77 
2790 -9.79 -9.77 -9.77 
2791 -9.79 -9.77 -9.77 
2792 -9.79 -9.76 -9.77 
2793 -9.79 -9.76 -9.77 
2794 -9.78 -9.76 -9.77 
2795 -9.78 -9.76 -9.77 
2796 -9.78 -9.76 -9.77 
2797 -9.78 -9.76 -9.77 
2798 -9.78 -9.76 -9.77 
2799 -9.78 -9.76 -9.77 
2800 -9.78 -9.76 -9.77 
2801 -9.78 -9.77 -9.77 
2802 -9.78 -9.77 -9.77 
2803 -9.78 -9.77 -9.77 
2804 -9.78 -9.77 -9.77 
2805 -9.78 -9.77 -9.77 
2806 -9.78 -9.77 -9.77 
2807 -9.78 -9.77 -9.77 
2808 -9.78 -9.77 -9.77 
2809 -9.78 -9.76 -9.77 
2810 -9.78 -9.77 -9.77 
2811 -9.78 -9.77 -9.77 
2812 -9.78 -9.77 -9.77 
2813 -9.79 -9.77 -9.77 
2814 -9.79 -9.77 -9.77 
2815 -9.79 -9.77 -9.77 
2816 -9.79 -9.77 -9.77 
2817 -9.79 -9.77 -9.77 
2818 -9.78 -9.76 -9.77 
2819 -9.78 -9.77 -9.77 
2820 -9.78 -9.77 -9.77 
2821 -9.79 -9.77 -9.77 
2822 -9.79 -9.77 -9.77 
2823 -9.79 -9.77 -9.77 
2824 -9.79 -9.76 -9.77 
2825 -9.78 -9.76 -9.77 
2826 -9.78 -9.76 -9.77 
2827 -9.78 -9.76 -9.77 
2828 -9.78 -9.76 -9.77 
2829 -9.78 -9.77 -9.77 
2830 -9.78 -9.77 -9.77 
2831 -9.78 -9.77 -9.77 
2832 -9.78 -9.77 -9.77 
2833 -9.78 -9.77 -9.77 
2834 -9.79 -9.77 -9.77 
2835 -9.79 -9.76 -9.77 
2836 -9.78 -9.77 -9.77 
2837 -9.79 -9.77 -9.77 
2838 -9.79 -9.77 -9.77 
2839 -9.79 -9.77 -9.77 
2840 -9.79 -9.77 -9.77 
2841 -9.79 -9.77 -9.77 
2842 -9.79 -9.77 -9.77 
2843 -9.79 -9.77 -9.77 
2844 -9.79 -9.77 -9.77 
2845 -9.79 -9.77 -9.77 
2846 -9.79 -9.77 -9.77 
2847 -9.79 -9.77 -9.77 
2848 -9.79 -9.77 -9.77 
2849 -9.79 -9.77 -9.77 
2850 -9.79 -9.77 -9.77 
2851 -9.79 -9.77 -9.77 
2852 -9.79 -9.77 -9.77 
2853 -9.79 -9.77 -9.77 
2854 -9.79 -9.77 -9.77 
2855 -9.79 -9.77 -9.77 
2856 -9.79 -9.77 -9.77 
2857 -9.79 -9.77 -9.77 
2858 -9.79 -9.77 -9.77 
2859 -9.78 -9.77 -9.77 
2860 -9.79 -9.77 -9.77 
2861 -9.79 -9.77 -9.77 
2862 -9.79 -9.77 -9.77 
2863 -9.79 -9.77 -9.77 
2864 -9.79 -9.77 -9.77 
2865 -9.79 -9.78 -9.77 
2866 -9.79 -9.78 -9.77 
2867 -9.80 -9.78 -9.77 
2868 -9.80 -9.78 -9.77 
2869 -9.80 -9.78 -9.77 
2870 -9.80 -9.78 -9.77 
2871 -9.80 -9.78 -9.77 
2872 -9.80 -9.78 -9.77 
2873 -9.80 -9.78 -9.77 
2874 -9.80 -9.78 -9.77 
2875 -9.79 -9.78 -9.77 
2876 -9.79 -9.78 -9.77 
2877 -9.79 -9.78 -9.77 
2878 -9.79 -9.78 -9.77 
2879 -9.79 -9.78 -9.77 
2880 -9.80 -9.78 -9.77 
2881 -9.80 -9.78 -9.77 
2882 -9.80 -9.79 -9.77 
2883 -9.80 -9.79 -9.77 
2884 -9.81 -9.79 -9.77 
2885 -9.81 -9.79 -9.77 
2886 -9.81 -9.79 -9.77 
2887 -9.81 -9.79 -9.77 
2888 -9.81 -9.79 -9.77 
2889 -9.81 -9.79 -9.77 
2890 -9.81 -9.79 -9.77 
2891 -9.81 -9.79 -9.77 
2892 -9.81 -9.79 -9.77 
2893 -9.80 -9.79 -9.77 
2894 -9.80 -9.79 -9.77 
2895 -9.81 -9.79 -9.77 
2896 -9.81 -9.79 -9.77 
2897 -9.81 -9.79 -9.77 
2898 -9.81 -9.79 -9.77 
2899 -9.81 -9.79 -9.77 
2900 -9.80 -9.79 -9.77 
2901 -9.81 -9.79 -9.77 
2902 -9.81 -9.79 -9.77 
2903 -9.80 -9.78 -9.77 
2904 -9.80 -9.79 -9.77 
2905 -9.81 -9.79 -9.77 
2906 -9.81 -9.79 -9.77 
2907 -9.81 -9.79 -9.77 
2908 -9.81 -9.79 -9.77 
2909 -9.81 -9.79 -9.77 
2910 -9.81 -9.79 -9.77 
2911 -9.81 -9.78 -9.77 
2912 -9.80 -9.78 -9.77 
2913 -9.80 -9.78 -9.77 
2914 -9.80 -9.78 -9.77 
2915 -9.80 -9.78 -9.77 
2916 -9.80 -9.78 -9.77 
2917 -9.80 -9.78 -9.77 
2918 -9.80 -9.78 -9.77 
2919 -9.80 -9.78 -9.77 
2920 -9.80 -9.78 -9.77 
2921 -9.80 -9.78 -9.77 
2922 -9.80 -9.78 -9.77 
2923 -9.80 -9.78 -9.77 
2924 -9.80 -9.78 -9.77 
2925 -9.81 -9.78 -9.77 
2926 -9.81 -9.78 -9.77 
2927 -9.81 -9.79 -9.77 
2928 -9.81 -9.79 -9.77 
2929 -9.81 -9.78 -9.77 
2930 -9.80 -9.78 -9.77 
2931 -9.80 -9.78 -9.77 
2932 -9.80 -9.78 -9.77 
2933 -9.81 -9.78 -9.77 
2934 -9.80 -9.78 -9.77 
2935 -9.80 -9.78 -9.77 
2936 -9.80 -9.78 -9.77 
2937 -9.80 -9.78 -9.77 
2938 -9.80 -9.78 -9.77 
2939 -9.80 -9.78 -9.77 
2940 -9.81 -9.79 -9.77 
2941 -9.81 -9.79 -9.77 
2942 -9.81 -9.80 -9.77 
2943 -9.82 -9.80 -9.77 
2944 -9.82 -9.80 -9.77 
2945 -9.82 -9.80 -9.77 
2946 -9.82 -9.80 -9.77 
2947 -9.82 -9.80 -9.77 
2948 -9.82 -9.80 -9.77 
2949 -9.82 -9.80 -9.77 
2950 -9.82 -9.79 -9.77 
2951 -9.82 -9.79 -9.77 
2952 -9.82 -9.79 -9.77 
2953 -9.82 -9.79 -9.77 
2954 -9.82 -9.79 -9.77 
2955 -9.81 -9.79 -9.77 
2956 -9.81 -9.79 -9.77 
2957 -9.81 -9.79 -9.77 
2958 -9.82 -9.80 -9.77 
2959 -9.82 -9.79 -9.77 
2960 -9.81 -9.80 -9.77 
2961 -9.81 -9.80 -9.77 
2962 -9.82 -9.79 -9.77 
2963 -9.81 -9.79 -9.77 
2964 -9.81 -9.79 -9.77 
2965 -9.81 -9.80 -9.77 
2966 -9.82 -9.80 -9.77 
2967 -9.82 -9.80 -9.77 
2968 -9.82 -9.80 -9.77 
2969 -9.82 -9.80 -9.77 
2970 -9.82 -9.81 -9.77 
2971 -9.83 -9.80 -9.77 
2972 -9.82 -9.80 -9.77 
2973 -9.82 -9.80 -9.77 
2974 -9.82 -9.80 -9.77 
2975 -9.82 -9.80 -9.77 
2976 -9.82 -9.80 -9.77 
2977 -9.82 -9.81 -9.77 
2978 -9.82 -9.80 -9.77 
2979 -9.82 -9.80 -9.77 
2980 -9.82 -9.80 -9.77 
2981 -9.82 -9.80 -9.77 
2982 -9.81 -9.80 -9.77 
2983 -9.82 -9.80 -9.77 
2984 -9.82 -9.80 -9.77 
2985 -9.81 -9.80 -9.77 
2986 -9.81 -9.80 -9.77 
2987 -9.81 -9.79 -9.77 
2988 -9.81 -9.79 -9.77 
2989 -9.81 -9.79 -9.77 
2990 -9.81 -9.79 -9.77 
2991 -9.81 -9.79 -9.77 
2992 -9.81 -9.79 -9.77 
2993 -9.81 -9.79 -9.77 
2994 -9.81 -9.79 -9.77 
2995 -9.81 -9.79 -9.77 
2996 -9.81 -9.80 -9.77 
2997 -9.81 -9.80 -9.77 
2998 -9.81 -9.79 -9.77 
2999 -9.81 -9.79 -9.77 
3000 -9.81 -9.79 -9.77 
3001 -9.81 -9.79 -9.77 
3002 -9.81 -9.79 -9.77 
3003 -9.81 -9.79 -9.77 
3004 -9.80 -9.79 -9.77 
3005 -9.80 -9.79 -9.77 
3006 -9.80 -9.79 -9.77 
3007 -9.81 -9.78 -9.77 
3008 -9.80 -9.79 -9.77 
3009 -9.80 -9.79 -9.77 
3010 -9.80 -9.79 -9.77 
3011 -9.81 -9.79 -9.77 
3012 -9.80 -9.78 -9.77 
3013 -9.80 -9.79 -9.77 
3014 -9.80 -9.79 -9.77 
3015 -9.80 -9.79 -9.77 
3016 -9.81 -9.79 -9.77 
3017 -9.80 -9.79 -9.77 
3018 -9.80 -9.79 -9.77 
3019 -9.80 -9.79 -9.77 
3020 -9.80 -9.79 -9.77 
3021 -9.80 -9.79 -9.77 
3022 -9.80 -9.79 -9.77 
3023 -9.80 -9.79 -9.77 
3024 -9.80 -9.79 -9.77 
3025 -9.80 -9.78 -9.77 
3026 -9.80 -9.79 -9.77 
3027 -9.80 -9.78 -9.77 
3028 -9.80 -9.78 -9.77 
3029 -9.79 -9.78 -9.77 
3030 -9.79 -9.78 -9.77 
3031 -9.79 -9.78 -9.77 
3032 -9.79 -9.78 -9.77 
3033 -9.80 -9.78 -9.77 
3034 -9.79 -9.78 -9.77 
3035 -9.79 -9.78 -9.77 
3036 -9.79 -9.77 -9.77 
3037 -9.79 -9.77 -9.77 
3038 -9.79 -9.77 -9.77 
3039 -9.79 -9.77 -9.77 
3040 -9.79 -9.76 -9.77 
3041 -9.78 -9.76 -9.77 
3042 -9.78 -9.76 -9.77 
3043 -9.78 -9.76 -9.77 
3044 -9.78 -9.76 -9.77 
3045 -9.78 -9.76 -9.77 
3046 -9.78 -9.77 -9.77 
3047 -9.79 -9.77 -9.77 
3048 -9.79 -9.77 -9.77 
3049 -9.79 -9.77 -9.77 
3050 -9.79 -9.76 -9.77 
3051 -9.78 -9.76 -9.77 
3052 -9.78 -9.76 -9.77 
3053 -9.78 -9.76 -9.77 
3054 -9.78 -9.76 -9.77 
3055 -9.78 -9.76 -9.77 
3056 -9.78 -9.76 -9.77 
3057 -9.78 -9.77 -9.77 
3058 -9.78 -9.77 -9.77 
3059 -9.79 -9.76 -9.77 
3060 -9.78 -9.77 -9.77 
3061 -9.79 -9.77 -9.77 
3062 -9.79 -9.77 -9.77 
3063 -9.79 -9.77 -9.77 
3064 -9.79 -9.77 -9.77 
3065 -9.79 -9.78 -9.77 
3066 -9.80 -9.78 -9.77 
3067 -9.79 -9.78 -9.77 
3068 -9.79 -9.78 -9.77 
3069 -9.79 -9.77 -9.77 
3070 -9.79 -9.78 -9.77 
3071 -9.79 -9.78 -9.77 
3072 -9.79 -9.78 -9.77 
3073 -9.79 -9.78 -9.77 
3074 -9.79 -9.78 -9.77 
3075 -9.79 -9.77 -9.77 
3076 -9.79 -9.77 -9.77 
3077 -9.79 -9.78 -9.77 
3078 -9.79 -9.78 -9.77 
3079 -9.79 -9.77 -9.77 
3080 -9.79 -9.77 -9.77 
3081 -9.79 -9.77 -9.77 
3082 -9.79 -9.77 -9.77 
3083 -9.79 -9.77 -9.77 
3084 -9.79 -9.77 -9.77 
3085 -9.79 -9.77 -9.77 
3086 -9.79 -9.77 -9.77 
3087 -9.79 -9.78 -9.77 
3088 -9.79 -9.78 -9.77 
3089 -9.79 -9.78 -9.77 
3090 -9.80 -9.79 -9.77 
3091 -9.80 -9.78 -9.77 
3092 -9.80 -9.78 -9.77 
3093 -9.80 -9.79 -9.77 
3094 -9.80 -9.79 -9.77 
3095 -9.80 -9.78 -9.77 
3096 -9.80 -9.78 -9.77 
3097 -9.80 -9.78 -9.77 
3098 -9.80 -9.79 -9.77 
3099 -9.80 -9.78 -9.77 
3100 -9.80 -9.79 -9.77 
3101 -9.80 -9.79 -9.77 
3102 -9.80 -9.79 -9.77 
3103 -9.80 -9.79 -9.77 
3104 -9.80 -9.79 -9.77 
3105 -9.81 -9.79 -9.77 
3106 -9.80 -9.79 -9.77 
3107 -9.81 -9.79 -9.77 
3108 -9.81 -9.79 -9.77 
3109 -9.80 -9.79 -9.77 
3110 -9.80 -9.78 -9.77 
3111 -9.80 -9.78 -9.77 
3112 -9.80 -9.78 -9.77 
3113 -9.80 -9.79 -9.77 
3114 -9.80 -9.79 -9.77 
3115 -9.80 -9.78 -9.77 
3116 -9.80 -9.78 -9.77 
3117 -9.80 -9.78 -9.77 
3118 -9.80 -9.78 -9.77 
3119 -9.80 -9.78 -9.77 
3120 -9.80 -9.78 -9.77 
3121 -9.80 -9.78 -9.77 
3122 -9.80 -9.78 -9.77 
3123 -9.80 -9.78 -9.77 
3124 -9.80 -9.78 -9.77 
3125 -9.80 -9.77 -9.77 
3126 -9.80 -9.77 -9.77 
3127 -9.79 -9.77 -9.77 
3128 -9.79 -9.77 -9.77 
3129 -9.79 -9.76 -9.77 
3130 -9.79 -9.77 -9.77 
3131 -9.79 -9.77 -9.77 
3132 -9.79 -9.77 -9.77 
3133 -9.79 -9.77 -9.77 
3134 -9.79 -9.78 -9.77 
3135 -9.80 -9.78 -9.77 
3136 -9.80 -9.78 -9.77 
3137 -9.80 -9.79 -9.77 
3138 -9.80 -9.78 -9.77 
3139 -9.80 -9.78 -9.77 
3140 -9.80 -9.78 -9.77 
3141 -9.80 -9.78 -9.77 
3142 -9.80 -9.79 -9.77 
3143 -9.80 -9.79 -9.77 
3144 -9.80 -9.79 -9.77 
3145 -9.81 -9.80 -9.77 
3146 -9.82 -9.79 -9.77 
3147 -9.81 -9.80 -9.77 
3148 -9.82 -9.81 -9.77 
3149 -9.82 -9.83 -9.77 
3150 -9.84 -9.82 -9.77 
3151 -9.83 -9.81 -9.77 
3152 -9.83 -9.80 -9.77 
3153 -9.82 -9.81 -9.77 
3154 -9.83 -9.80 -9.77 
3155 -9.82 -9.81 -9.77 
3156 -9.83 -9.79 -9.77 
3157 -9.81 -9.79 -9.77 
3158 -9.81 -9.79 -9.77 
3159 -9.82 -9.79 -9.77 
3160 -9.81 -9.79 -9.77 
3161 -9.81 -9.80 -9.77 
3162 -9.82 -9.79 -9.77 
3163 -9.81 -9.79 -9.77 
3164 -9.81 -9.79 -9.77 
3165 -9.82 -9.79 -9.77 
3166 -9.81 -9.79 -9.77 
3167 -9.81 -9.80 -9.77 
3168 -9.82 -9.80 -9.77 
3169 -9.81 -9.79 -9.77 
3170 -9.81 -9.80 -9.77 
3171 -9.82 -9.80 -9.77 
3172 -9.83 -9.81 -9.77 
3173 -9.83 -9.81 -9.77 
3174 -9.83 -9.81 -9.77 
3175 -9.84 -9.81 -9.77 
3176 -9.83 -9.80 -9.77 
3177 -9.82 -9.80 -9.77 
3178 -9.82 -9.79 -9.77 
3179 -9.81 -9.79 -9.77 
3180 -9.81 -9.79 -9.77 
3181 -9.81 -9.79 -9.77 
3182 -9.81 -9.79 -9.77 
3183 -9.81 -9.79 -9.77 
3184 -9.80 -9.79 -9.77 
3185 -9.80 -9.78 -9.77 
3186 -9.80 -9.78 -9.77 
3187 -9.80 -9.78 -9.77 
3188 -9.80 -9.78 -9.77 
3189 -9.80 -9.78 -9.77 
3190 -9.81 -9.78 -9.77 
3191 -9.81 -9.78 -9.77 
3192 -9.81 -9.78 -9.77 
3193 -9.80 -9.78 -9.77 
3194 -9.80 -9.78 -9.77 
3195 -9.80 -9.78 -9.77 
3196 -9.80 -9.78 -9.77 
3197 -9.80 -9.78 -9.77 
3198 -9.80 -9.79 -9.77 
3199 -9.81 -9.78 -9.77 
3200 -9.80 -9.79 -9.77 
3201 -9.81 -9.79 -9.77 
3202 -9.81 -9.78 -9.77 
3203 -9.80 -9.78 -9.77 
3204 -9.80 -9.78 -9.77 
3205 -9.80 -9.78 -9.77 
3206 -9.80 -9.79 -9.77 
3207 -9.80 -9.79 -9.77 
3208 -9.81 -9.79 -9.77 
3209 -9.80 -9.79 -9.77 
3210 -9.81 -9.78 -9.77 
3211 -9.80 -9.78 -9.77 
3212 -9.80 -9.78 -9.77 
3213 -9.80 -9.78 -9.77 
3214 -9.81 -9.78 -9.77 
3215 -9.81 -9.78 -9.77 
3216 -9.81 -9.78 -9.77 
3217 -9.81 -9.78 -9.77 
3218 -9.81 -9.78 -9.77 
3219 -9.81 -9.78 -9.77 
3220 -9.81 -9.79 -9.77 
3221 -9.81 -9.79 -9.77 
3222 -9.81 -9.79 -9.77 
3223 -9.81 -9.79 -9.77 
3224 -9.81 -9.79 -9.77 
3225 -9.81 -9.79 -9.77 
3226 -9.81 -9.79 -9.77 
3227 -9.81 -9.79 -9.77 
3228 -9.81 -9.78 -9.77 
3229 -9.81 -9.78 -9.77 
3230 -9.81 -9.78 -9.77 
3231 -9.81 -9.78 -9.77 
3232 -9.81 -9.78 -9.77 
3233 -9.81 -9.78 -9.77 
3234 -9.81 -9.78 -9.77 
3235 -9.81 -9.78 -9.77 
3236 -9.81 -9.78 -9.77 
3237 -9.80 -9.78 -9.77 
3238 -9.81 -9.78 -9.77 
3239 -9.81 -9.78 -9.77 
3240 -9.81 -9.78 -9.77 
3241 -9.81 -9.78 -9.77 
3242 -9.81 -9.78 -9.77 
3243 -9.81 -9.78 -9.77 
3244 -9.82 -9.77 -9.77 
3245 -9.81 -9.78 -9.77 
3246 -9.82 -9.77 -9.77 
3247 -9.81 -9.78 -9.77 
3248 -9.81 -9.78 -9.77 
3249 -9.82 -9.78 -9.77 
3250 -9.81 -9.78 -9.77 
3251 -9.82 -9.78 -9.77 
3252 -9.82 -9.78 -9.77 
3253 -9.81 -9.78 -9.77 
3254 -9.82 -9.78 -9.77 
3255 -9.82 -9.78 -9.77 
3256 -9.82 -9.78 -9.77 
3257 -9.82 -9.78 -9.77 
3258 -9.82 -9.78 -9.77 
3259 -9.82 -9.78 -9.77 
3260 -9.82 -9.78 -9.77 
3261 -9.82 -9.79 -9.77 
3262 -9.82 -9.79 -9.77 
3263 -9.83 -9.79 -9.77 
3264 -9.82 -9.79 -9.77 
3265 -9.83 -9.79 -9.77 
3266 -9.83 -9.79 -9.77 
3267 -9.83 -9.79 -9.77 
3268 -9.83 -9.79 -9.77 
3269 -9.83 -9.79 -9.77 
3270 -9.83 -9.79 -9.77 
3271 -9.83 -9.80 -9.77 
3272 -9.83 -9.80 -9.77 
3273 -9.83 -9.80 -9.77 
3274 -9.84 -9.79 -9.77 
3275 -9.83 -9.79 -9.77 
3276 -9.83 -9.79 -9.77 
3277 -9.82 -9.79 -9.77 
3278 -9.83 -9.79 -9.77 
3279 -9.82 -9.79 -9.77 
3280 -9.82 -9.79 -9.77 
3281 -9.83 -9.79 -9.77 
3282 -9.82 -9.78 -9.77 
3283 -9.82 -9.78 -9.77 
3284 -9.82 -9.78 -9.77 
3285 -9.82 -9.78 -9.77 
3286 -9.82 -9.78 -9.77 
3287 -9.82 -9.78 -9.77 
3288 -9.82 -9.77 -9.77 
3289 -9.81 -9.77 -9.77 
3290 -9.80 -9.77 -9.77 
3291 -9.80 -9.77 -9.77 
3292 -9.80 -9.77 -9.77 
3293 -9.80 -9.77 -9.77 
3294 -9.80 -9.77 -9.77 
3295 -9.80 -9.77 -9.77 
3296 -9.81 -9.77 -9.77 
3297 -9.80 -9.77 -9.77 
3298 -9.80 -9.77 -9.77 
3299 -9.80 -9.77 -9.77 
3300 -9.80 -9.77 -9.77 
3301 -9.80 -9.77 -9.77 
3302 -9.80 -9.76 -9.77 
3303 -9.79 -9.76 -9.77 
3304 -9.79 -9.76 -9.77 
3305 -9.79 -9.75 -9.77 
3306 -9.79 -9.75 -9.77 
3307 -9.78 -9.75 -9.77 
3308 -9.78 -9.75 -9.77 
3309 -9.78 -9.76 -9.77 
3310 -9.78 -9.76 -9.77 
3311 -9.79 -9.76 -9.77 
3312 -9.79 -9.76 -9.77 
3313 -9.79 -9.76 -9.77 
3314 -9.79 -9.76 -9.77 
3315 -9.79 -9.76 -9.77 
3316 -9.79 -9.76 -9.77 
3317 -9.79 -9.76 -9.77 
3318 -9.79 -9.76 -9.77 
3319 -9.79 -9.76 -9.77 
3320 -9.79 -9.76 -9.77 
3321 -9.79 -9.77 -9.77 
3322 -9.79 -9.76 -9.77 
3323 -9.79 -9.76 -9.77 
3324 -9.79 -9.76 -9.77 
3325 -9.79 -9.76 -9.77 
3326 -9.78 -9.76 -9.77 
3327 -9.78 -9.76 -9.77 
3328 -9.79 -9.76 -9.77 
3329 -9.79 -9.76 -9.77 
3330 -9.79 -9.76 -9.77 
3331 -9.79 -9.76 -9.77 
3332 -9.78 -9.76 -9.77 
3333 -9.79 -9.76 -9.77 
3334 -9.79 -9.76 -9.77 
3335 -9.79 -9.76 -9.77 
3336 -9.79 -9.75 -9.77 
3337 -9.78 -9.75 -9.77 
3338 -9.78 -9.76 -9.77 
3339 -9.79 -9.76 -9.77 
3340 -9.79 -9.76 -9.77 
3341 -9.79 -9.76 -9.77 
3342 -9.79 -9.77 -9.77 
3343 -9.80 -9.76 -9.77 
3344 -9.79 -9.76 -9.77 
3345 -9.79 -9.76 -9.77 
3346 -9.78 -9.76 -9.77 
3347 -9.79 -9.76 -9.77 
3348 -9.79 -9.76 -9.77 
3349 -9.79 -9.76 -9.77 
3350 -9.79 -9.76 -9.77 
3351 -9.79 -9.75 -9.77 
3352 -9.79 -9.76 -9.77 
3353 -9.79 -9.75 -9.77 
3354 -9.79 -9.76 -9.77 
3355 -9.80 -9.77 -9.77 
3356 -9.81 -9.76 -9.77 
3357 -9.80 -9.76 -9.77 
3358 -9.80 -9.79 -9.77 
3359 -9.82 -9.80 -9.77 
3360 -9.84 -9.78 -9.77 
3361 -9.82 -9.75 -9.77 
3362 -9.80 -9.75 -9.77 
3363 -9.78 -9.75 -9.77 
3364 -9.78 -9.75 -9.77 
3365 -9.79 -9.77 -9.77 
3366 -9.81 -9.75 -9.77 
3367 -9.79 -9.75 -9.77 
3368 -9.79 -9.74 -9.77 
3369 -9.78 -9.74 -9.77 
3370 -9.78 -9.74 -9.77 
3371 -9.78 -9.74 -9.77 
3372 -9.78 -9.75 -9.77 
3373 -9.78 -9.75 -9.77 
3374 -9.78 -9.75 -9.77 
3375 -9.78 -9.75 -9.77 
3376 -9.78 -9.75 -9.77 
3377 -9.78 -9.75 -9.77 
3378 -9.78 -9.75 -9.77 
3379 -9.78 -9.75 -9.77 
3380 -9.79 -9.76 -9.77 
3381 -9.79 -9.76 -9.77 
3382 -9.79 -9.75 -9.77 
3383 -9.78 -9.76 -9.77 
3384 -9.78 -9.75 -9.77 
3385 -9.79 -9.76 -9.77 
3386 -9.79 -9.75 -9.77 
3387 -9.79 -9.76 -9.77 
3388 -9.79 -9.75 -9.77 
3389 -9.79 -9.76 -9.77 
3390 -9.80 -9.76 -9.77 
3391 -9.79 -9.76 -9.77 
3392 -9.80 -9.76 -9.77 
3393 -9.80 -9.76 -9.77 
3394 -9.80 -9.76 -9.77 
3395 -9.80 -9.76 -9.77 
3396 -9.80 -9.76 -9.77 
3397 -9.80 -9.76 -9.77 
3398 -9.80 -9.76 -9.77 
3399 -9.81 -9.76 -9.77 
3400 -9.81 -9.77 -9.77 
3401 -9.81 -9.76 -9.77 
3402 -9.81 -9.76 -9.77 
3403 -9.81 -9.77 -9.77 
3404 -9.81 -9.76 -9.77 
3405 -9.81 -9.77 -9.77 
3406 -9.81 -9.77 -9.77 
3407 -9.81 -9.77 -9.77 
3408 -9.82 -9.77 -9.77 
3409 -9.82 -9.77 -9.77 
3410 -9.82 -9.77 -9.77 
3411 -9.82 -9.77 -9.77 
3412 -9.81 -9.77 -9.77 
3413 -9.81 -9.77 -9.77 
3414 -9.81 -9.77 -9.77 
3415 -9.81 -9.77 -9.77 
3416 -9.81 -9.77 -9.77 
3417 -9.81 -9.76 -9.77 
3418 -9.80 -9.76 -9.77 
3419 -9.80 -9.76 -9.77 
3420 -9.80 -9.76 -9.77 
3421 -9.80 -9.76 -9.77 
3422 -9.81 -9.76 -9.77 
3423 -9.81 -9.77 -9.77 
3424 -9.81 -9.76 -9.77 
3425 -9.80 -9.77 -9.77 
3426 -9.80 -9.77 -9.77 
3427 -9.81 -9.77 -9.77 
3428 -9.81 -9.77 -9.77 
3429 -9.81 -9.78 -9.77 
3430 -9.81 -9.78 -9.77 
3431 -9.82 -9.78 -9.77 
3432 -9.82 -9.79 -9.77 
3433 -9.82 -9.79 -9.77 
3434 -9.82 -9.78 -9.77 
3435 -9.81 -9.78 -9.77 
3436 -9.81 -9.77 -9.77 
3437 -9.81 -9.77 -9.77 
3438 -9.81 -9.78 -9.77 
3439 -9.82 -9.78 -9.77 
3440 -9.82 -9.78 -9.77 
3441 -9.83 -9.78 -9.77 
3442 -9.82 -9.78 -9.77 
3443 -9.82 -9.78 -9.77 
3444 -9.82 -9.78 -9.77 
3445 -9.82 -9.79 -9.77 
3446 -9.82 -9.78 -9.77 
3447 -9.82 -9.79 -9.77 
3448 -9.82 -9.79 -9.77 
3449 -9.83 -9.79 -9.77 
3450 -9.83 -9.80 -9.77 
3451 -9.83 -9.80 -9.77 
3452 -9.84 -9.80 -9.77 
3453 -9.84 -9.81 -9.77 
3454 -9.86 -9.82 -9.77 
3455 -9.86 -9.82 -9.77 
3456 -9.87 -9.81 -9.77 
3457 -9.85 -9.81 -9.77 
3458 -9.84 -9.81 -9.77 
3459 -9.84 -9.81 -9.77 
3460 -9.85 -9.82 -9.77 
3461 -9.86 -9.81 -9.77 
3462 -9.85 -9.81 -9.77 
3463 -9.85 -9.81 -9.77 
3464 -9.84 -9.80 -9.77 
3465 -9.84 -9.80 -9.77 
3466 -9.84 -9.80 -9.77 
3467 -9.84 -9.80 -9.77 
3468 -9.83 -9.79 -9.77 
3469 -9.83 -9.80 -9.77 
3470 -9.83 -9.79 -9.77 
3471 -9.83 -9.79 -9.77 
3472 -9.83 -9.79 -9.77 
3473 -9.83 -9.79 -9.77 
3474 -9.83 -9.79 -9.77 
3475 -9.83 -9.79 -9.77 
3476 -9.82 -9.79 -9.77 
3477 -9.83 -9.78 -9.77 
3478 -9.82 -9.79 -9.77 
3479 -9.83 -9.79 -9.77 
3480 -9.83 -9.79 -9.77 
3481 -9.83 -9.80 -9.77 
3482 -9.83 -9.81 -9.77 
3483 -9.84 -9.80 -9.77 
3484 -9.83 -9.81 -9.77 
3485 -9.83 -9.80 -9.77 
3486 -9.83 -9.81 -9.77 
3487 -9.83 -9.80 -9.77 
3488 -9.82 -9.80 -9.77 
3489 -9.83 -9.80 -9.77 
3490 -9.83 -9.80 -9.77 
3491 -9.83 -9.81 -9.77 
3492 -9.84 -9.81 -9.77 
3493 -9.84 -9.80 -9.77 
3494 -9.83 -9.79 -9.77 
3495 -9.83 -9.79 -9.77 
3496 -9.82 -9.79 -9.77 
3497 -9.83 -9.79 -9.77 
3498 -9.83 -9.79 -9.77 
3499 -9.83 -9.79 -9.77 
3500 -9.83 -9.79 -9.77 
3501 -9.83 -9.79 -9.77 
3502 -9.83 -9.79 -9.77 
3503 -9.83 -9.79 -9.77 
3504 -9.83 -9.80 -9.77 
3505 -9.83 -9.80 -9.77 
3506 -9.84 -9.80 -9.77 
3507 -9.83 -9.79 -9.77 
3508 -9.82 -9.79 -9.77 
3509 -9.83 -9.79 -9.77 
3510 -9.83 -9.79 -9.77 
3511 -9.83 -9.79 -9.77 
3512 -9.82 -9.79 -9.77 
3513 -9.82 -9.80 -9.77 
3514 -9.83 -9.79 -9.77 
3515 -9.83 -9.79 -9.77 
3516 -9.83 -9.79 -9.77 
3517 -9.83 -9.79 -9.77 
3518 -9.82 -9.79 -9.77 
3519 -9.82 -9.79 -9.77 
3520 -9.82 -9.78 -9.77 
3521 -9.82 -9.78 -9.77 
3522 -9.82 -9.79 -9.77 
3523 -9.83 -9.78 -9.77 
3524 -9.82 -9.78 -9.77 
3525 -9.82 -9.78 -9.77 
3526 -9.82 -9.78 -9.77 
3527 -9.82 -9.77 -9.77 
3528 -9.81 -9.78 -9.77 
3529 -9.81 -9.78 -9.77 
3530 -9.81 -9.78 -9.77 
3531 -9.82 -9.79 -9.77 
3532 -9.82 -9.79 -9.77 
3533 -9.82 -9.79 -9.77 
3534 -9.83 -9.79 -9.77 
3535 -9.83 -9.79 -9.77 
3536 -9.83 -9.79 -9.77 
3537 -9.83 -9.78 -9.77 
3538 -9.82 -9.78 -9.77 
3539 -9.83 -9.78 -9.77 
3540 -9.82 -9.77 -9.77 
3541 -9.81 -9.77 -9.77 
3542 -9.81 -9.77 -9.77 
3543 -9.82 -9.77 -9.77 
3544 -9.82 -9.77 -9.77 
3545 -9.82 -9.77 -9.77 
3546 -9.82 -9.78 -9.77 
3547 -9.83 -9.78 -9.77 
3548 -9.83 -9.78 -9.77 
3549 -9.83 -9.78 -9.77 
3550 -9.83 -9.78 -9.77 
3551 -9.83 -9.78 -9.77 
3552 -9.82 -9.78 -9.77 
3553 -9.83 -9.79 -9.77 
3554 -9.83 -9.78 -9.77 
3555 -9.83 -9.78 -9.77 
3556 -9.83 -9.78 -9.77 
3557 -9.83 -9.79 -9.77 
3558 -9.83 -9.78 -9.77 
3559 -9.83 -9.78 -9.77 
3560 -9.82 -9.78 -9.77 
3561 -9.82 -9.78 -9.77 
3562 -9.81 -9.78 -9.77 
3563 -9.82 -9.78 -9.77 
3564 -9.82 -9.77 -9.77 
3565 -9.81 -9.77 -9.77 
3566 -9.81 -9.77 -9.77 
3567 -9.81 -9.77 -9.77 
3568 -9.80 -9.77 -9.77 
3569 -9.80 -9.77 -9.77 
3570 -9.80 -9.77 -9.77 
3571 -9.80 -9.77 -9.77 
3572 -9.81 -9.77 -9.77 
3573 -9.81 -9.77 -9.77 
3574 -9.81 -9.77 -9.77 
3575 -9.80 -9.77 -9.77 
3576 -9.80 -9.78 -9.77 
3577 -9.81 -9.77 -9.77 
3578 -9.80 -9.77 -9.77 
3579 -9.80 -9.77 -9.77 
3580 -9.80 -9.77 -9.77 
3581 -9.80 -9.77 -9.77 
3582 -9.80 -9.77 -9.77 
3583 -9.80 -9.77 -9.77 
3584 -9.80 -9.77 -9.77 
3585 -9.80 -9.77 -9.77 
3586 -9.79 -9.77 -9.77 
3587 -9.80 -9.78 -9.77 
3588 -9.80 -9.78 -9.77 
3589 -9.80 -9.78 -9.77 
3590 -9.80 -9.78 -9.77 
3591 -9.80 -9.78 -9.77 
3592 -9.80 -9.78 -9.77 
3593 -9.80 -9.78 -9.77 
3594 -9.80 -9.78 -9.77 
3595 -9.80 -9.78 -9.77 
3596 -9.80 -9.78 -9.77 
3597 -9.80 -9.78 -9.77 
3598 -9.79 -9.78 -9.77 
3599 -9.79 -9.78 -9.77 
3600 -9.79 -9.78 -9.77 
3601 -9.79 -9.78 -9.77 
3602 -9.80 -9.78 -9.77 
3603 -9.79 -9.78 -9.77 
3604 -9.79 -9.78 -9.77 
3605 -9.79 -9.78 -9.77 
3606 -9.79 -9.77 -9.77 
3607 -9.79 -9.77 -9.77 
3608 -9.78 -9.77 -9.77 
3609 -9.78 -9.77 -9.77 
3610 -9.78 -9.76 -9.77 
3611 -9.78 -9.77 -9.77 
3612 -9.78 -9.77 -9.77 
3613 -9.79 -9.77 -9.77 
3614 -9.78 -9.76 -9.77 
3615 -9.78 -9.76 -9.77 
3616 -9.78 -9.76 -9.77 
3617 -9.78 -9.77 -9.77 
3618 -9.78 -9.76 -9.77 
3619 -9.78 -9.76 -9.77 
3620 -9.78 -9.77 -9.77 
3621 -9.78 -9.76 -9.77 
3622 -9.78 -9.76 -9.77 
3623 -9.78 -9.76 -9.77 
3624 -9.78 -9.76 -9.77 
3625 -9.78 -9.77 -9.77 
3626 -9.79 -9.76 -9.77 
3627 -9.78 -9.76 -9.77 
3628 -9.78 -9.76 -9.77 
3629 -9.77 -9.76 -9.77 
3630 -9.78 -9.76 -9.77 
3631 -9.78 -9.76 -9.77 
3632 -9.77 -9.76 -9.77 
3633 -9.78 -9.76 -9.77 
3634 -9.78 -9.77 -9.77 
3635 -9.79 -9.77 -9.77 
3636 -9.79 -9.77 -9.77 
3637 -9.79 -9.77 -9.77 
3638 -9.79 -9.77 -9.77 
3639 -9.79 -9.77 -9.77 
3640 -9.78 -9.76 -9.77 
3641 -9.77 -9.76 -9.77 
3642 -9.77 -9.76 -9.77 
3643 -9.77 -9.76 -9.77 
3644 -9.77 -9.76 -9.77 
3645 -9.77 -9.76 -9.77 
3646 -9.77 -9.75 -9.77 
3647 -9.76 -9.75 -9.77 
3648 -9.76 -9.74 -9.76 
3649 -9.76 -9.74 -9.76 
3650 -9.75 -9.74 -9.76 
3651 -9.76 -9.74 -9.75 
3652 -9.76 -9.74 -9.75 
3653 -9.76 -9.74 -9.75 
3654 -9.76 -9.74 -9.75 
3655 -9.76 -9.74 -9.75 
3656 -9.76 -9.74 -9.75 
3657 -9.76 -9.74 -9.75 
3658 -9.76 -9.74 -9.75 
3659 -9.76 -9.74 -9.75 
3660 -9.75 -9.74 -9.75 
3661 -9.75 -9.74 -9.75 
3662 -9.76 -9.74 -9.75 
3663 -9.76 -9.74 -9.75 
3664 -9.76 -9.74 -9.75 
3665 -9.76 -9.74 -9.75 
3666 -9.76 -9.74 -9.75 
3667 -9.76 -9.74 -9.75 
3668 -9.76 -9.74 -9.75 
3669 -9.76 -9.75 -9.75 
3670 -9.76 -9.75 -9.75 
3671 -9.76 -9.76 -9.75 
3672 -9.76 -9.76 -9.75 
3673 -9.77 -9.76 -9.75 
3674 -9.77 -9.76 -9.75 
3675 -9.77 -9.76 -9.75 
3676 -9.76 -9.75 -9.75 
3677 -9.77 -9.75 -9.75 
3678 -9.77 -9.76 -9.75 
3679 -9.77 -9.75 -9.75 
3680 -9.76 -9.76 -9.75 
3681 -9.78 -9.75 -9.75 
3682 -9.77 -9.75 -9.75 
3683 -9.77 -9.75 -9.75 
3684 -9.77 -9.75 -9.75 
3685 -9.77 -9.76 -9.75 
3686 -9.77 -9.76 -9.75 
3687 -9.78 -9.75 -9.75 
3688 -9.77 -9.75 -9.75 
3689 -9.77 -9.76 -9.75 
3690 -9.77 -9.76 -9.75 
3691 -9.78 -9.76 -9.75 
3692 -9.78 -9.75 -9.75 
3693 -9.77 -9.76 -9.75 
3694 -9.78 -9.75 -9.75 
3695 -9.78 -9.75 -9.75 
3696 -9.78 -9.74 -9.75 
3697 -9.77 -9.74 -9.75 
3698 -9.77 -9.74 -9.75 
3699 -9.77 -9.74 -9.75 
3700 -9.76 -9.74 -9.75 
3701 -9.76 -9.73 -9.75 
3702 -9.76 -9.74 -9.75 
3703 -9.76 -9.73 -9.75 
3704 -9.76 -9.74 -9.75 
3705 -9.77 -9.75 -9.75 
3706 -9.77 -9.75 -9.75 
3707 -9.78 -9.75 -9.75 
3708 -9.78 -9.75 -9.75 
3709 -9.77 -9.75 -9.75 
3710 -9.77 -9.75 -9.75 
3711 -9.77 -9.74 -9.75 
3712 -9.77 -9.75 -9.75 
3713 -9.78 -9.75 -9.75 
3714 -9.78 -9.75 -9.75 
3715 -9.77 -9.74 -9.75 
3716 -9.77 -9.73 -9.75 
3717 -9.77 -9.74 -9.75 
3718 -9.78 -9.74 -9.75 
3719 -9.77 -9.74 -9.75 
3720 -9.77 -9.74 -9.75 
3721 -9.77 -9.74 -9.75 
3722 -9.77 -9.74 -9.75 
3723 -9.77 -9.74 -9.75 
3724 -9.77 -9.75 -9.75 
3725 -9.78 -9.74 -9.75 
3726 -9.78 -9.75 -9.75 
3727 -9.79 -9.75 -9.75 
3728 -9.80 -9.75 -9.75 
3729 -9.80 -9.74 -9.75 
3730 -9.79 -9.74 -9.75 
3731 -9.80 -9.74 -9.75 
3732 -9.79 -9.73 -9.75 
3733 -9.78 -9.73 -9.75 
3734 -9.78 -9.73 -9.75 
3735 -9.78 -9.74 -9.75 
3736 -9.79 -9.74 -9.75 
3737 -9.79 -9.74 -9.75 
3738 -9.79 -9.74 -9.75 
3739 -9.79 -9.74 -9.75 
3740 -9.78 -9.74 -9.75 
3741 -9.78 -9.73 -9.75 
3742 -9.78 -9.73 -9.75 
3743 -9.77 -9.73 -9.75 
3744 -9.77 -9.73 -9.75 
3745 -9.77 -9.73 -9.75 
3746 -9.77 -9.72 -9.75 
3747 -9.77 -9.73 -9.75 
3748 -9.78 -9.73 -9.75 
3749 -9.78 -9.73 -9.75 
3750 -9.78 -9.73 -9.75 
3751 -9.77 -9.73 -9.75 
3752 -9.77 -9.73 -9.75 
3753 -9.77 -9.73 -9.75 
3754 -9.78 -9.74 -9.75 
3755 -9.77 -9.74 -9.75 
3756 -9.78 -9.74 -9.75 
3757 -9.78 -9.74 -9.75 
3758 -9.78 -9.74 -9.75 
3759 -9.78 -9.75 -9.75 
3760 -9.78 -9.75 -9.75 
3761 -9.78 -9.75 -9.75 
3762 -9.79 -9.74 -9.75 
3763 -9.78 -9.74 -9.75 
3764 -9.78 -9.75 -9.75 
3765 -9.78 -9.75 -9.75 
3766 -9.78 -9.76 -9.75 
3767 -9.79 -9.76 -9.75 
3768 -9.79 -9.76 -9.75 
3769 -9.80 -9.76 -9.75 
3770 -9.79 -9.76 -9.75 
3771 -9.80 -9.76 -9.75 
3772 -9.80 -9.76 -9.75 
3773 -9.80 -9.76 -9.75 
3774 -9.80 -9.76 -9.75 
3775 -9.80 -9.76 -9.75 
3776 -9.79 -9.76 -9.75 
3777 -9.79 -9.76 -9.75 
3778 -9.79 -9.75 -9.75 
3779 -9.78 -9.76 -9.75 
3780 -9.79 -9.76 -9.75 
3781 -9.78 -9.75 -9.75 
3782 -9.78 -9.76 -9.75 
3783 -9.78 -9.75 -9.75 
3784 -9.78 -9.75 -9.75 
3785 -9.78 -9.75 -9.75 
3786 -9.78 -9.75 -9.75 
3787 -9.78 -9.75 -9.75 
3788 -9.78 -9.75 -9.75 
3789 -9.78 -9.75 -9.75 
3790 -9.78 -9.75 -9.75 
3791 -9.78 -9.74 -9.75 
3792 -9.78 -9.74 -9.75 
3793 -9.78 -9.74 -9.75 
3794 -9.78 -9.74 -9.75 
3795 -9.78 -9.73 -9.75 
3796 -9.77 -9.74 -9.75 
3797 -9.77 -9.74 -9.75 
3798 -9.77 -9.74 -9.75 
3799 -9.78 -9.74 -9.75 
3800 -9.78 -9.74 -9.75 
3801 -9.78 -9.74 -9.75 
3802 -9.78 -9.74 -9.75 
3803 -9.77 -9.74 -9.75 
3804 -9.78 -9.74 -9.75 
3805 -9.78 -9.74 -9.75 
3806 -9.78 -9.74 -9.75 
3807 -9.77 -9.74 -9.75 
3808 -9.77 -9.74 -9.75 
3809 -9.77 -9.74 -9.75 
3810 -9.77 -9.74 -9.75 
3811 -9.78 -9.74 -9.75 
3812 -9.78 -9.75 -9.75 
3813 -9.78 -9.75 -9.75 
3814 -9.79 -9.75 -9.75 
3815 -9.79 -9.75 -9.75 
3816 -9.79 -9.75 -9.75 
3817 -9.78 -9.74 -9.75 
3818 -9.78 -9.75 -9.75 
3819 -9.78 -9.74 -9.75 
3820 -9.78 -9.75 -9.75 
3821 -9.78 -9.75 -9.75 
3822 -9.79 -9.74 -9.75 
3823 -9.79 -9.74 -9.75 
3824 -9.79 -9.74 -9.75 
3825 -9.78 -9.74 -9.75 
3826 -9.79 -9.74 -9.75 
3827 -9.79 -9.74 -9.75 
3828 -9.78 -9.74 -9.75 
3829 -9.78 -9.74 -9.75 
3830 -9.78 -9.74 -9.75 
3831 -9.78 -9.74 -9.75 
3832 -9.77 -9.73 -9.75 
3833 -9.77 -9.73 -9.75 
3834 -9.77 -9.73 -9.75 
3835 -9.77 -9.73 -9.75 
3836 -9.77 -9.73 -9.75 
3837 -9.76 -9.73 -9.75 
3838 -9.77 -9.73 -9.75 
3839 -9.77 -9.73 -9.75 
3840 -9.78 -9.73 -9.75 
3841 -9.78 -9.73 -9.75 
3842 -9.78 -9.73 -9.75 
3843 -9.78 -9.73 -9.75 
3844 -9.77 -9.73 -9.75 
3845 -9.77 -9.72 -9.75 
3846 -9.77 -9.72 -9.75 
3847 -9.78 -9.73 -9.75 
3848 -9.77 -9.73 -9.75 
3849 -9.77 -9.73 -9.75 
3850 -9.76 -9.73 -9.75 
3851 -9.76 -9.73 -9.75 
3852 -9.77 -9.73 -9.75 
3853 -9.78 -9.73 -9.75 
3854 -9.78 -9.74 -9.75 
3855 -9.78 -9.74 -9.75 
3856 -9.79 -9.74 -9.75 
3857 -9.79 -9.74 -9.75 
3858 -9.79 -9.74 -9.75 
3859 -9.79 -9.74 -9.75 
3860 -9.78 -9.74 -9.75 
3861 -9.79 -9.75 -9.75 
3862 -9.79 -9.74 -9.75 
3863 -9.78 -9.74 -9.75 
3864 -9.78 -9.74 -9.75 
3865 -9.78 -9.74 -9.75 
3866 -9.78 -9.74 -9.75 
3867 -9.78 -9.74 -9.75 
3868 -9.78 -9.74 -9.75 
3869 -9.78 -9.74 -9.75 
3870 -9.78 -9.74 -9.75 
3871 -9.79 -9.74 -9.75 
3872 -9.78 -9.74 -9.75 
3873 -9.78 -9.74 -9.75 
3874 -9.78 -9.75 -9.75 
3875 -9.78 -9.75 -9.75 
3876 -9.78 -9.75 -9.75 
3877 -9.79 -9.75 -9.75 
3878 -9.79 -9.75 -9.75 
3879 -9.79 -9.75 -9.75 
3880 -9.79 -9.75 -9.75 
3881 -9.79 -9.75 -9.75 
3882 -9.79 -9.75 -9.75 
3883 -9.78 -9.75 -9.75 
3884 -9.78 -9.76 -9.75 
3885 -9.79 -9.75 -9.75 
3886 -9.78 -9.75 -9.75 
3887 -9.79 -9.75 -9.75 
3888 -9.79 -9.75 -9.75 
3889 -9.79 -9.75 -9.75 
3890 -9.79 -9.75 -9.75 
3891 -9.79 -9.75 -9.75 
3892 -9.78 -9.76 -9.75 
3893 -9.79 -9.75 -9.75 
3894 -9.78 -9.75 -9.75 
3895 -9.79 -9.76 -9.75 
3896 -9.79 -9.76 -9.75 
3897 -9.79 -9.76 -9.75 
3898 -9.79 -9.76 -9.75 
3899 -9.79 -9.76 -9.75 
3900 -9.79 -9.76 -9.75 
3901 -9.79 -9.76 -9.75 
3902 -9.79 -9.76 -9.75 
3903 -9.78 -9.76 -9.75 
3904 -9.78 -9.76 -9.75 
3905 -9.78 -9.76 -9.75 
3906 -9.79 -9.76 -9.75 
3907 -9.79 -9.76 -9.75 
3908 -9.79 -9.76 -9.75 
3909 -9.78 -9.75 -9.75 
3910 -9.78 -9.76 -9.75 
3911 -9.78 -9.76 -9.75 
3912 -9.78 -9.76 -9.75 
3913 -9.79 -9.76 -9.75 
3914 -9.78 -9.76 -9.75 
3915 -9.79 -9.76 -9.75 
3916 -9.79 -9.76 -9.75 
3917 -9.79 -9.77 -9.75 
3918 -9.80 -9.77 -9.75 
3919 -9.79 -9.77 -9.75 
3920 -9.79 -9.77 -9.75 
3921 -9.80 -9.77 -9.75 
3922 -9.79 -9.77 -9.75 
3923 -9.80 -9.77 -9.75 
3924 -9.80 -9.78 -9.75 
3925 -9.80 -9.77 -9.75 
3926 -9.80 -9.77 -9.75 
3927 -9.80 -9.77 -9.75 
3928 -9.80 -9.77 -9.75 
3929 -9.80 -9.77 -9.75 
3930 -9.80 -9.77 -9.75 
3931 -9.80 -9.77 -9.75 
3932 -9.80 -9.77 -9.75 
3933 -9.80 -9.76 -9.75 
3934 -9.80 -9.76 -9.75 
3935 -9.80 -9.76 -9.75 
3936 -9.80 -9.76 -9.75 
3937 -9.81 -9.76 -9.75 
3938 -9.81 -9.77 -9.75 
3939 -9.81 -9.77 -9.75 
3940 -9.81 -9.76 -9.75 
3941 -9.81 -9.76 -9.75 
3942 -9.81 -9.76 -9.75 
3943 -9.80 -9.75 -9.75 
3944 -9.79 -9.76 -9.75 
3945 -9.80 -9.75 -9.75 
3946 -9.80 -9.75 -9.75 
3947 -9.80 -9.75 -9.75 
3948 -9.80 -9.75 -9.75 
3949 -9.79 -9.75 -9.75 
3950 -9.79 -9.75 -9.75 
3951 -9.79 -9.75 -9.75 
3952 -9.79 -9.75 -9.75 
3953 -9.79 -9.74 -9.75 
3954 -9.79 -9.75 -9.75 
3955 -9.79 -9.75 -9.75 
3956 -9.79 -9.74 -9.75 
3957 -9.78 -9.75 -9.75 
3958 -9.78 -9.75 -9.75 
3959 -9.78 -9.75 -9.75 
3960 -9.78 -9.75 -9.75 
3961 -9.78 -9.75 -9.75 
3962 -9.78 -9.75 -9.75 
3963 -9.78 -9.75 -9.75 
3964 -9.78 -9.75 -9.75 
3965 -9.78 -9.75 -9.75 
3966 -9.78 -9.75 -9.75 
3967 -9.77 -9.74 -9.75 
3968 -9.77 -9.75 -9.75 
3969 -9.77 -9.75 -9.75 
3970 -9.78 -9.75 -9.75 
3971 -9.77 -9.75 -9.75 
3972 -9.77 -9.76 -9.75 
3973 -9.78 -9.76 -9.75 
3974 -9.78 -9.76 -9.75 
3975 -9.78 -9.76 -9.75 
3976 -9.78 -9.76 -9.75 
3977 -9.78 -9.76 -9.75 
3978 -9.79 -9.76 -9.75 
3979 -9.78 -9.76 -9.75 
3980 -9.78 -9.76 -9.75 
3981 -9.79 -9.76 -9.75 
3982 -9.78 -9.76 -9.75 
3983 -9.78 -9.76 -9.75 
3984 -9.78 -9.77 -9.75 
3985 -9.78 -9.76 -9.75 
3986 -9.78 -9.76 -9.75 
3987 -9.78 -9.76 -9.75 
3988 -9.78 -9.76 -9.75 
3989 -9.78 -9.76 -9.75 
3990 -9.78 -9.76 -9.75 
3991 -9.78 -9.76 -9.75 
3992 -9.78 -9.76 -9.75 
3993 -9.79 -9.76 -9.75 
3994 -9.78 -9.76 -9.75 
3995 -9.78 -9.76 -9.75 
3996 -9.78 -9.76 -9.75 
3997 -9.78 -9.76 -9.75 
3998 -9.78 -9.76 -9.75 
3999 -9.78 -9.76 -9.75 
4000 -9.79 -9.76 -9.75 
4001 -9.79 -9.76 -9.75 
4002 -9.79 -9.76 -9.75 
4003 -9.79 -9.76 -9.75 
4004 -9.78 -9.76 -9.75 
4005 -9.80 -9.77 -9.75 
4006 -9.80 -9.76 -9.75 
4007 -9.80 -9.77 -9.75 
4008 -9.80 -9.77 -9.75 
4009 -9.80 -9.77 -9.75 
4010 -9.80 -9.77 -9.75 
4011 -9.80 -9.77 -9.75 
4012 -9.79 -9.76 -9.75 
4013 -9.79 -9.76 -9.75 
4014 -9.79 -9.77 -9.75 
4015 -9.79 -9.76 -9.75 
4016 -9.79 -9.76 -9.75 
4017 -9.80 -9.76 -9.75 
4018 -9.79 -9.76 -9.75 
4019 -9.79 -9.76 -9.75 
4020 -9.80 -9.76 -9.75 
4021 -9.80 -9.76 -9.75 
4022 -9.80 -9.75 -9.75 
4023 -9.80 -9.76 -9.75 
4024 -9.81 -9.76 -9.75 
4025 -9.80 -9.76 -9.75 
4026 -9.80 -9.75 -9.75 
4027 -9.79 -9.74 -9.75 
4028 -9.79 -9.74 -9.75 
4029 -9.79 -9.74 -9.75 
4030 -9.81 -9.74 -9.75 
4031 -9.81 -9.74 -9.75 
4032 -9.80 -9.74 -9.75 
4033 -9.81 -9.74 -9.75 
4034 -9.81 -9.74 -9.75 
4035 -9.79 -9.75 -9.75 
4036 -9.80 -9.75 -9.75 
4037 -9.80 -9.75 -9.75 
4038 -9.81 -9.75 -9.75 
4039 -9.79 -9.76 -9.75 
4040 -9.80 -9.76 -9.75 
4041 -9.80 -9.76 -9.75 
4042 -9.80 -9.76 -9.75 
4043 -9.79 -9.76 -9.75 
4044 -9.80 -9.76 -9.75 
4045 -9.80 -9.77 -9.75 
4046 -9.81 -9.77 -9.75 
4047 -9.82 -9.77 -9.75 
4048 -9.81 -9.77 -9.75 
4049 -9.81 -9.77 -9.75 
4050 -9.81 -9.77 -9.75 
4051 -9.82 -9.77 -9.75 
4052 -9.82 -9.77 -9.75 
4053 -9.81 -9.77 -9.75 
4054 -9.82 -9.78 -9.75 
4055 -9.82 -9.78 -9.75 
4056 -9.82 -9.78 -9.75 
4057 -9.82 -9.77 -9.75 
4058 -9.81 -9.77 -9.75 
4059 -9.81 -9.77 -9.75 
4060 -9.81 -9.77 -9.75 
4061 -9.81 -9.77 -9.75 
4062 -9.81 -9.77 -9.75 
4063 -9.81 -9.77 -9.75 
4064 -9.81 -9.76 -9.75 
4065 -9.80 -9.76 -9.75 
4066 -9.80 -9.76 -9.75 
4067 -9.80 -9.77 -9.75 
4068 -9.81 -9.77 -9.75 
4069 -9.81 -9.77 -9.75 
4070 -9.81 -9.77 -9.75 
4071 -9.81 -9.77 -9.75 
4072 -9.81 -9.76 -9.75 
4073 -9.80 -9.77 -9.75 
4074 -9.81 -9.77 -9.75 
4075 -9.81 -9.77 -9.75 
4076 -9.82 -9.78 -9.75 
4077 -9.82 -9.78 -9.75 
4078 -9.82 -9.78 -9.75 
4079 -9.83 -9.79 -9.75 
4080 -9.83 -9.79 -9.75 
4081 -9.84 -9.78 -9.75 
4082 -9.84 -9.79 -9.75 
4083 -9.83 -9.78 -9.75 
4084 -9.83 -9.79 -9.75 
4085 -9.84 -9.78 -9.75 
4086 -9.84 -9.78 -9.75 
4087 -9.84 -9.79 -9.75 
4088 -9.84 -9.79 -9.75 
4089 -9.85 -9.79 -9.75 
4090 -9.85 -9.79 -9.75 
4091 -9.84 -9.79 -9.75 
4092 -9.83 -9.79 -9.75 
4093 -9.84 -9.79 -9.75 
4094 -9.83 -9.80 -9.75 
4095 -9.83 -9.80 -9.75 
4096 -9.83 -9.81 -9.75 
4097 -9.84 -9.81 -9.75 
4098 -9.83 -9.81 -9.75 
4099 -9.84 -9.81 -9.75 
4100 -9.83 -9.82 -9.75 
4101 -9.84 -9.82 -9.75 
4102 -9.84 -9.82 -9.75 
4103 -9.83 -9.81 -9.75 
4104 -9.83 -9.80 -9.75 
4105 -9.83 -9.81 -9.75 
4106 -9.83 -9.81 -9.75 
4107 -9.83 -9.81 -9.75 
4108 -9.83 -9.81 -9.75 
4109 -9.83 -9.81 -9.75 
4110 -9.83 -9.81 -9.75 
4111 -9.83 -9.81 -9.75 
4112 -9.83 -9.81 -9.75 
4113 -9.83 -9.80 -9.75 
4114 -9.83 -9.80 -9.75 
4115 -9.83 -9.80 -9.75 
4116 -9.82 -9.81 -9.75 
4117 -9.83 -9.81 -9.75 
4118 -9.83 -9.80 -9.75 
4119 -9.83 -9.81 -9.75 
4120 -9.83 -9.80 -9.75 
4121 -9.83 -9.80 -9.75 
4122 -9.83 -9.80 -9.75 
4123 -9.82 -9.80 -9.75 
4124 -9.83 -9.80 -9.75 
4125 -9.83 -9.79 -9.75 
4126 -9.82 -9.80 -9.75 
4127 -9.82 -9.80 -9.75 
4128 -9.82 -9.79 -9.75 
4129 -9.82 -9.79 -9.75 
4130 -9.82 -9.79 -9.75 
4131 -9.82 -9.79 -9.75 
4132 -9.82 -9.79 -9.75 
4133 -9.82 -9.78 -9.75 
4134 -9.81 -9.79 -9.75 
4135 -9.81 -9.78 -9.75 
4136 -9.81 -9.78 -9.75 
4137 -9.81 -9.78 -9.75 
4138 -9.81 -9.78 -9.75 
4139 -9.81 -9.78 -9.75 
4140 -9.81 -9.78 -9.75 
4141 -9.81 -9.78 -9.75 
4142 -9.80 -9.78 -9.75 
4143 -9.80 -9.78 -9.75 
4144 -9.81 -9.78 -9.75 
4145 -9.80 -9.78 -9.75 
4146 -9.80 -9.78 -9.75 
4147 -9.80 -9.77 -9.75 
4148 -9.80 -9.77 -9.75 
4149 -9.80 -9.77 -9.75 
4150 -9.80 -9.77 -9.75 
4151 -9.79 -9.77 -9.75 
4152 -9.79 -9.77 -9.75 
4153 -9.79 -9.77 -9.75 
4154 -9.79 -9.78 -9.75 
4155 -9.80 -9.78 -9.75 
4156 -9.80 -9.78 -9.75 
4157 -9.80 -9.78 -9.75 
4158 -9.80 -9.78 -9.75 
4159 -9.80 -9.78 -9.75 
4160 -9.80 -9.77 -9.75 
4161 -9.79 -9.77 -9.75 
4162 -9.79 -9.77 -9.75 
4163 -9.79 -9.77 -9.75 
4164 -9.79 -9.77 -9.75 
4165 -9.79 -9.77 -9.75 
4166 -9.79 -9.77 -9.75 
4167 -9.79 -9.77 -9.75 
4168 -9.80 -9.78 -9.75 
4169 -9.80 -9.77 -9.75 
4170 -9.79 -9.78 -9.75 
4171 -9.80 -9.78 -9.75 
4172 -9.80 -9.78 -9.75 
4173 -9.80 -9.78 -9.75 
4174 -9.80 -9.78 -9.75 
4175 -9.80 -9.78 -9.75 
4176 -9.80 -9.78 -9.75 
4177 -9.80 -9.78 -9.75 
4178 -9.80 -9.79 -9.75 
4179 -9.81 -9.79 -9.75 
4180 -9.81 -9.79 -9.75 
4181 -9.80 -9.79 -9.75 
4182 -9.81 -9.79 -9.75 
4183 -9.81 -9.79 -9.75 
4184 -9.81 -9.79 -9.75 
4185 -9.81 -9.79 -9.75 
4186 -9.81 -9.79 -9.75 
4187 -9.81 -9.80 -9.75 
4188 -9.82 -9.79 -9.75 
4189 -9.81 -9.79 -9.75 
4190 -9.81 -9.79 -9.75 
4191 -9.81 -9.79 -9.75 
4192 -9.81 -9.79 -9.75 
4193 -9.81 -9.79 -9.75 
4194 -9.81 -9.79 -9.75 
4195 -9.81 -9.79 -9.75 
4196 -9.81 -9.79 -9.75 
4197 -9.81 -9.79 -9.75 
4198 -9.81 -9.79 -9.75 
4199 -9.81 -9.79 -9.75 
4200 -9.81 -9.79 -9.75 
4201 -9.81 -9.79 -9.75 
4202 -9.81 -9.79 -9.75 
4203 -9.81 -9.79 -9.75 
4204 -9.81 -9.79 -9.75 
4205 -9.81 -9.79 -9.75 
4206 -9.81 -9.79 -9.75 
4207 -9.81 -9.79 -9.75 
4208 -9.81 -9.79 -9.75 
4209 -9.81 -9.79 -9.75 
4210 -9.81 -9.80 -9.75 
4211 -9.81 -9.79 -9.75 
4212 -9.81 -9.79 -9.75 
4213 -9.81 -9.80 -9.75 
4214 -9.81 -9.79 -9.75 
4215 -9.81 -9.79 -9.75 
4216 -9.81 -9.79 -9.75 
4217 -9.81 -9.79 -9.75 
4218 -9.80 -9.79 -9.75 
4219 -9.81 -9.79 -9.75 
4220 -9.81 -9.80 -9.75 
4221 -9.81 -9.80 -9.75 
4222 -9.81 -9.79 -9.75 
4223 -9.81 -9.79 -9.75 
4224 -9.81 -9.79 -9.75 
4225 -9.81 -9.79 -9.75 
4226 -9.81 -9.79 -9.75 
4227 -9.81 -9.79 -9.75 
4228 -9.81 -9.79 -9.75 
4229 -9.80 -9.79 -9.75 
4230 -9.80 -9.79 -9.75 
4231 -9.80 -9.79 -9.75 
4232 -9.80 -9.79 -9.75 
4233 -9.80 -9.79 -9.75 
4234 -9.80 -9.79 -9.75 
4235 -9.80 -9.79 -9.75 
4236 -9.80 -9.79 -9.75 
4237 -9.80 -9.79 -9.75 
4238 -9.80 -9.79 -9.75 
4239 -9.80 -9.79 -9.75 
4240 -9.80 -9.79 -9.75 
4241 -9.80 -9.79 -9.75 
4242 -9.80 -9.79 -9.75 
4243 -9.80 -9.79 -9.75 
4244 -9.80 -9.79 -9.75 
4245 -9.80 -9.79 -9.75 
4246 -9.80 -9.79 -9.75 
4247 -9.80 -9.79 -9.75 
4248 -9.81 -9.78 -9.75 
4249 -9.80 -9.78 -9.75 
4250 -9.80 -9.78 -9.75 
4251 -9.79 -9.78 -9.75 
4252 -9.79 -9.78 -9.75 
4253 -9.79 -9.78 -9.75 
4254 -9.80 -9.78 -9.75 
4255 -9.79 -9.78 -9.75 
4256 -9.80 -9.78 -9.75 
4257 -9.79 -9.78 -9.75 
4258 -9.79 -9.78 -9.75 
4259 -9.80 -9.78 -9.75 
4260 -9.80 -9.78 -9.75 
4261 -9.80 -9.78 -9.75 
4262 -9.80 -9.78 -9.75 
4263 -9.81 -9.78 -9.75 
4264 -9.81 -9.80 -9.75 
4265 -9.85 -9.79 -9.75 
4266 -9.81 -9.79 -9.75 
4267 -9.80 -9.79 -9.75 
4268 -9.80 -9.78 -9.75 
4269 -9.81 -9.78 -9.75 
4270 -9.79 -9.78 -9.75 
4271 -9.80 -9.78 -9.75 
4272 -9.81 -9.78 -9.75 
4273 -9.81 -9.78 -9.75 
4274 -9.80 -9.78 -9.75 
4275 -9.79 -9.78 -9.75 
4276 -9.79 -9.78 -9.75 
4277 -9.79 -9.78 -9.75 
4278 -9.79 -9.78 -9.75 
4279 -9.81 -9.78 -9.75 
4280 -9.81 -9.78 -9.75 
4281 -9.82 -9.78 -9.75 
4282 -9.81 -9.77 -9.75 
4283 -9.81 -9.78 -9.75 
4284 -9.81 -9.78 -9.75 
4285 -9.80 -9.78 -9.75 
4286 -9.83 -9.78 -9.75 
4287 -9.81 -9.78 -9.75 
4288 -9.82 -9.78 -9.75 
4289 -9.83 -9.80 -9.75 
4290 -9.87 -9.79 -9.75 
4291 -9.85 -9.79 -9.75 
4292 -9.84 -9.79 -9.75 
4293 -9.83 -9.79 -9.75 
4294 -9.86 -9.83 -9.75 
4295 -9.90 -9.81 -9.75 
4296 -9.88 -9.79 -9.75 
4297 -9.86 -9.79 -9.75 
4298 -9.85 -9.80 -9.75 
4299 -9.87 -9.80 -9.75 
4300 -9.88 -9.78 -9.75 
4301 -9.84 -9.78 -9.75 
4302 -9.81 -9.77 -9.75 
4303 -9.80 -9.78 -9.75 
4304 -9.80 -9.77 -9.75 
4305 -9.80 -9.77 -9.75 
4306 -9.79 -9.77 -9.75 
4307 -9.79 -9.77 -9.75 
4308 -9.79 -9.77 -9.75 
4309 -9.79 -9.77 -9.75 
4310 -9.80 -9.77 -9.75 
4311 -9.79 -9.77 -9.75 
4312 -9.80 -9.78 -9.75 
4313 -9.79 -9.78 -9.75 
4314 -9.79 -9.78 -9.75 
4315 -9.80 -9.78 -9.75 
4316 -9.80 -9.78 -9.75 
4317 -9.80 -9.78 -9.75 
4318 -9.80 -9.78 -9.75 
4319 -9.80 -9.78 -9.75 
4320 -9.80 -9.77 -9.75 
4321 -9.79 -9.78 -9.75 
4322 -9.79 -9.78 -9.75 
4323 -9.80 -9.78 -9.75 
4324 -9.80 -9.78 -9.75 
4325 -9.80 -9.78 -9.75 
4326 -9.80 -9.78 -9.75 
4327 -9.80 -9.78 -9.75 
4328 -9.79 -9.78 -9.75 
4329 -9.80 -9.78 -9.75 
4330 -9.80 -9.78 -9.75 
4331 -9.80 -9.78 -9.75 
4332 -9.80 -9.78 -9.75 
4333 -9.80 -9.78 -9.75 
4334 -9.80 -9.79 -9.75 
4335 -9.80 -9.79 -9.75 
4336 -9.80 -9.79 -9.75 
4337 -9.80 -9.78 -9.75 
4338 -9.80 -9.78 -9.75 
4339 -9.80 -9.78 -9.75 
4340 -9.80 -9.78 -9.75 
4341 -9.80 -9.78 -9.75 
4342 -9.80 -9.78 -9.75 
4343 -9.80 -9.78 -9.75 
4344 -9.80 -9.78 -9.75 
4345 -9.80 -9.78 -9.75 
4346 -9.80 -9.78 -9.75 
4347 -9.79 -9.78 -9.75 
4348 -9.79 -9.77 -9.75 
4349 -9.79 -9.78 -9.75 
4350 -9.80 -9.78 -9.75 
4351 -9.80 -9.78 -9.75 
4352 -9.80 -9.77 -9.75 
4353 -9.79 -9.77 -9.75 
4354 -9.79 -9.77 -9.75 
4355 -9.79 -9.77 -9.75 
4356 -9.79 -9.77 -9.75 
4357 -9.79 -9.77 -9.75 
4358 -9.79 -9.76 -9.75 
4359 -9.78 -9.76 -9.75 
4360 -9.78 -9.76 -9.75 
4361 -9.79 -9.77 -9.75 
4362 -9.79 -9.77 -9.75 
4363 -9.79 -9.77 -9.75 
4364 -9.79 -9.77 -9.75 
4365 -9.79 -9.77 -9.75 
4366 -9.79 -9.77 -9.75 
4367 -9.78 -9.77 -9.75 
4368 -9.78 -9.77 -9.75 
4369 -9.78 -9.77 -9.75 
4370 -9.79 -9.77 -9.75 
4371 -9.78 -9.77 -9.75 
4372 -9.79 -9.77 -9.75 
4373 -9.79 -9.77 -9.75 
4374 -9.78 -9.76 -9.75 
4375 -9.78 -9.77 -9.75 
4376 -9.78 -9.77 -9.75 
4377 -9.78 -9.77 -9.75 
4378 -9.78 -9.77 -9.75 
4379 -9.78 -9.77 -9.75 
4380 -9.78 -9.76 -9.75 
4381 -9.78 -9.76 -9.75 
4382 -9.77 -9.76 -9.75 
4383 -9.77 -9.76 -9.75 
4384 -9.77 -9.76 -9.75 
4385 -9.77 -9.76 -9.75 
4386 -9.77 -9.76 -9.75 
4387 -9.77 -9.76 -9.75 
4388 -9.77 -9.76 -9.75 
4389 -9.77 -9.76 -9.75 
4390 -9.77 -9.76 -9.75 
4391 -9.77 -9.75 -9.75 
4392 -9.77 -9.76 -9.75 
4393 -9.77 -9.76 -9.75 
4394 -9.78 -9.76 -9.75 
4395 -9.79 -9.76 -9.75 
4396 -9.79 -9.76 -9.75 
4397 -9.79 -9.76 -9.75 
4398 -9.81 -9.76 -9.75 
4399 -9.82 -9.77 -9.75 
4400 -9.82 -9.76 -9.75 
4401 -9.81 -9.79 -9.75 
4402 -9.84 -9.78 -9.75 
4403 -9.83 -9.77 -9.75 
4404 -9.82 -9.76 -9.75 
4405 -9.81 -9.78 -9.75 
4406 -9.82 -9.76 -9.75 
4407 -9.80 -9.77 -9.75 
4408 -9.82 -9.77 -9.75 
4409 -9.82 -9.76 -9.75 
4410 -9.81 -9.76 -9.75 
4411 -9.80 -9.81 -9.75 
4412 -9.85 -9.76 -9.75 
4413 -9.80 -9.78 -9.75 
4414 -9.83 -9.76 -9.75 
4415 -9.80 -9.76 -9.75 
4416 -9.81 -9.76 -9.75 
4417 -9.79 -9.75 -9.75 
4418 -9.79 -9.75 -9.75 
4419 -9.78 -9.75 -9.75 
4420 -9.78 -9.75 -9.75 
4421 -9.77 -9.75 -9.75 
4422 -9.77 -9.75 -9.75 
4423 -9.77 -9.75 -9.75 
4424 -9.77 -9.75 -9.75 
4425 -9.77 -9.75 -9.75 
4426 -9.77 -9.75 -9.75 
4427 -9.77 -9.76 -9.75 
4428 -9.78 -9.76 -9.75 
4429 -9.78 -9.76 -9.75 
4430 -9.78 -9.77 -9.75 
4431 -9.78 -9.77 -9.75 
4432 -9.78 -9.77 -9.75 
4433 -9.78 -9.77 -9.75 
4434 -9.78 -9.77 -9.75 
4435 -9.78 -9.77 -9.75 
4436 -9.78 -9.77 -9.75 
4437 -9.78 -9.78 -9.75 
4438 -9.79 -9.78 -9.75 
4439 -9.79 -9.78 -9.75 
4440 -9.78 -9.78 -9.75 
4441 -9.79 -9.78 -9.75 
4442 -9.79 -9.78 -9.75 
4443 -9.79 -9.78 -9.75 
4444 -9.79 -9.78 -9.75 
4445 -9.79 -9.78 -9.75 
4446 -9.79 -9.78 -9.75 
4447 -9.78 -9.78 -9.75 
4448 -9.79 -9.78 -9.75 
4449 -9.79 -9.78 -9.75 
4450 -9.80 -9.78 -9.75 
4451 -9.80 -9.78 -9.75 
4452 -9.79 -9.78 -9.75 
4453 -9.79 -9.77 -9.75 
4454 -9.78 -9.77 -9.75 
4455 -9.80 -9.77 -9.75 
4456 -9.79 -9.78 -9.75 
4457 -9.79 -9.78 -9.75 
4458 -9.79 -9.77 -9.75 
4459 -9.78 -9.77 -9.75 
4460 -9.79 -9.77 -9.75 
4461 -9.79 -9.77 -9.75 
4462 -9.79 -9.77 -9.75 
4463 -9.77 -9.78 -9.75 
4464 -9.78 -9.78 -9.75 
4465 -9.78 -9.77 -9.75 
4466 -9.78 -9.77 -9.75 
4467 -9.78 -9.77 -9.75 
4468 -9.78 -9.77 -9.75 
4469 -9.78 -9.77 -9.75 
4470 -9.78 -9.77 -9.75 
4471 -9.78 -9.77 -9.75 
4472 -9.78 -9.77 -9.75 
4473 -9.78 -9.77 -9.75 
4474 -9.78 -9.77 -9.75 
4475 -9.79 -9.78 -9.75 
4476 -9.78 -9.78 -9.75 
4477 -9.79 -9.78 -9.75 
4478 -9.79 -9.78 -9.75 
4479 -9.79 -9.77 -9.75 
4480 -9.80 -9.77 -9.75 
4481 -9.78 -9.77 -9.75 
4482 -9.79 -9.77 -9.75 
4483 -9.79 -9.77 -9.75 
4484 -9.80 -9.78 -9.75 
4485 -9.82 -9.77 -9.75 
4486 -9.80 -9.77 -9.75 
4487 -9.79 -9.78 -9.75 
4488 -9.82 -9.79 -9.75 
4489 -9.83 -9.80 -9.75 
4490 -9.84 -9.79 -9.75 
4491 -9.83 -9.77 -9.75 
4492 -9.81 -9.80 -9.75 
4493 -9.83 -9.79 -9.75 
4494 -9.83 -9.78 -9.75 
4495 -9.82 -9.77 -9.75 
4496 -9.80 -9.77 -9.75 
4497 -9.79 -9.77 -9.75 
4498 -9.79 -9.77 -9.75 
4499 -9.78 -9.77 -9.75 
4500 -9.78 -9.77 -9.75 
4501 -9.78 -9.78 -9.75 
4502 -9.78 -9.77 -9.75 
4503 -9.78 -9.78 -9.75 
4504 -9.78 -9.78 -9.75 
4505 -9.78 -9.78 -9.75 
4506 -9.78 -9.77 -9.75 
4507 -9.78 -9.78 -9.75 
4508 -9.78 -9.77 -9.75 
4509 -9.78 -9.77 -9.75 
4510 -9.77 -9.77 -9.75 
4511 -9.77 -9.77 -9.75 
4512 -9.77 -9.77 -9.75 
4513 -9.77 -9.77 -9.75 
4514 -9.78 -9.77 -9.75 
4515 -9.78 -9.77 -9.75 
4516 -9.78 -9.77 -9.75 
4517 -9.78 -9.77 -9.75 
4518 -9.77 -9.77 -9.75 
4519 -9.78 -9.77 -9.75 
4520 -9.78 -9.77 -9.75 
4521 -9.77 -9.77 -9.75 
4522 -9.77 -9.77 -9.75 
4523 -9.77 -9.77 -9.75 
4524 -9.78 -9.77 -9.75 
4525 -9.78 -9.78 -9.75 
4526 -9.78 -9.77 -9.75 
4527 -9.78 -9.77 -9.75 
4528 -9.77 -9.77 -9.75 
4529 -9.78 -9.77 -9.75 
4530 -9.78 -9.77 -9.75 
4531 -9.77 -9.77 -9.75 
4532 -9.77 -9.77 -9.75 
4533 -9.77 -9.77 -9.75 
4534 -9.77 -9.77 -9.75 
4535 -9.77 -9.77 -9.75 
4536 -9.78 -9.78 -9.75 
4537 -9.79 -9.78 -9.75 
4538 -9.79 -9.78 -9.75 
4539 -9.80 -9.78 -9.75 
4540 -9.81 -9.78 -9.75 
4541 -9.82 -9.77 -9.75 
4542 -9.80 -9.77 -9.75 
4543 -9.79 -9.77 -9.75 
4544 -9.80 -9.77 -9.75 
4545 -9.78 -9.77 -9.75 
4546 -9.78 -9.77 -9.75 
4547 -9.78 -9.77 -9.75 
4548 -9.79 -9.77 -9.75 
4549 -9.80 -9.77 -9.75 
4550 -9.78 -9.77 -9.75 
4551 -9.80 -9.77 -9.75 
4552 -9.80 -9.77 -9.75 
4553 -9.80 -9.77 -9.75 
4554 -9.78 -9.77 -9.75 
4555 -9.79 -9.77 -9.75 
4556 -9.78 -9.77 -9.75 
4557 -9.78 -9.77 -9.75 
4558 -9.78 -9.77 -9.75 
4559 -9.78 -9.77 -9.75 
4560 -9.77 -9.76 -9.75 
4561 -9.77 -9.76 -9.75 
4562 -9.77 -9.76 -9.75 
4563 -9.77 -9.76 -9.75 
4564 -9.77 -9.76 -9.75 
4565 -9.77 -9.77 -9.75 
4566 -9.77 -9.76 -9.75 
4567 -9.77 -9.76 -9.75 
4568 -9.77 -9.76 -9.75 
4569 -9.77 -9.76 -9.75 
4570 -9.77 -9.77 -9.75 
4571 -9.77 -9.76 -9.75 
4572 -9.77 -9.77 -9.75 
4573 -9.77 -9.77 -9.75 
4574 -9.77 -9.77 -9.75 
4575 -9.77 -9.77 -9.75 
4576 -9.77 -9.77 -9.75 
4577 -9.77 -9.76 -9.75 
4578 -9.77 -9.76 -9.75 
4579 -9.77 -9.76 -9.75 
4580 -9.77 -9.76 -9.75 
4581 -9.77 -9.76 -9.75 
4582 -9.77 -9.76 -9.75 
4583 -9.76 -9.76 -9.75 
4584 -9.76 -9.76 -9.75 
4585 -9.76 -9.75 -9.75 
4586 -9.76 -9.75 -9.75 
4587 -9.76 -9.75 -9.75 
4588 -9.76 -9.75 -9.75 
4589 -9.75 -9.75 -9.75 
4590 -9.75 -9.75 -9.75 
4591 -9.75 -9.75 -9.75 
4592 -9.75 -9.75 -9.75 
4593 -9.75 -9.75 -9.75 
4594 -9.75 -9.75 -9.75 
4595 -9.75 -9.75 -9.75 
4596 -9.75 -9.75 -9.75 
4597 -9.75 -9.75 -9.75 
4598 -9.75 -9.76 -9.75 
4599 -9.76 -9.76 -9.75 
4600 -9.76 -9.76 -9.75 
4601 -9.76 -9.75 -9.75 
4602 -9.76 -9.75 -9.75 
4603 -9.76 -9.75 -9.75 
4604 -9.75 -9.75 -9.75 
4605 -9.76 -9.76 -9.75 
4606 -9.76 -9.76 -9.75 
4607 -9.76 -9.76 -9.75 
4608 -9.76 -9.76 -9.75 
4609 -9.77 -9.76 -9.75 
4610 -9.76 -9.76 -9.75 
4611 -9.76 -9.76 -9.75 
4612 -9.76 -9.76 -9.75 
4613 -9.76 -9.75 -9.75 
4614 -9.76 -9.75 -9.75 
4615 -9.75 -9.75 -9.75 
4616 -9.75 -9.75 -9.75 
4617 -9.76 -9.75 -9.75 
4618 -9.76 -9.75 -9.75 
4619 -9.76 -9.75 -9.75 
4620 -9.76 -9.75 -9.75 
4621 -9.76 -9.75 -9.75 
4622 -9.76 -9.75 -9.75 
4623 -9.75 -9.75 -9.75 
4624 -9.75 -9.75 -9.75 
4625 -9.75 -9.75 -9.75 
4626 -9.75 -9.75 -9.75 
4627 -9.75 -9.74 -9.75 
4628 -9.75 -9.75 -9.75 
4629 -9.76 -9.76 -9.75 
4630 -9.77 -9.76 -9.75 
4631 -9.77 -9.76 -9.75 
4632 -9.77 -9.76 -9.75 
4633 -9.77 -9.77 -9.75 
4634 -9.77 -9.77 -9.75 
4635 -9.78 -9.77 -9.75 
4636 -9.78 -9.77 -9.75 
4637 -9.78 -9.77 -9.75 
4638 -9.77 -9.77 -9.75 
4639 -9.77 -9.78 -9.75 
4640 -9.77 -9.78 -9.75 
4641 -9.77 -9.77 -9.75 
4642 -9.77 -9.77 -9.75 
4643 -9.77 -9.77 -9.75 
4644 -9.77 -9.77 -9.75 
4645 -9.77 -9.77 -9.75 
4646 -9.77 -9.77 -9.75 
4647 -9.77 -9.77 -9.75 
4648 -9.77 -9.78 -9.75 
4649 -9.78 -9.78 -9.75 
4650 -9.78 -9.78 -9.75 
4651 -9.78 -9.78 -9.75 
4652 -9.78 -9.78 -9.75 
4653 -9.78 -9.78 -9.75 
4654 -9.78 -9.77 -9.75 
4655 -9.78 -9.77 -9.75 
4656 -9.78 -9.77 -9.75 
4657 -9.78 -9.77 -9.75 
4658 -9.77 -9.77 -9.75 
4659 -9.78 -9.78 -9.75 
4660 -9.78 -9.78 -9.75 
4661 -9.78 -9.78 -9.75 
4662 -9.78 -9.78 -9.75 
4663 -9.78 -9.78 -9.75 
4664 -9.78 -9.78 -9.75 
4665 -9.78 -9.78 -9.75 
4666 -9.78 -9.78 -9.75 
4667 -9.78 -9.78 -9.75 
4668 -9.78 -9.78 -9.75 
4669 -9.78 -9.78 -9.75 
4670 -9.79 -9.78 -9.75 
4671 -9.79 -9.78 -9.75 
4672 -9.79 -9.79 -9.75 
4673 -9.79 -9.79 -9.75 
4674 -9.79 -9.79 -9.75 
4675 -9.79 -9.79 -9.75 
4676 -9.79 -9.79 -9.75 
4677 -9.79 -9.78 -9.75 
4678 -9.79 -9.79 -9.75 
4679 -9.79 -9.79 -9.75 
4680 -9.79 -9.79 -9.75 
4681 -9.79 -9.79 -9.75 
4682 -9.79 -9.79 -9.75 
4683 -9.79 -9.79 -9.75 
4684 -9.79 -9.80 -9.75 
4685 -9.80 -9.79 -9.75 
4686 -9.79 -9.79 -9.75 
4687 -9.79 -9.79 -9.75 
4688 -9.79 -9.79 -9.75 
4689 -9.79 -9.79 -9.75 
4690 -9.79 -9.79 -9.75 
4691 -9.79 -9.79 -9.75 
4692 -9.79 -9.79 -9.75 
4693 -9.79 -9.78 -9.75 
4694 -9.78 -9.78 -9.75 
4695 -9.78 -9.78 -9.75 
4696 -9.78 -9.78 -9.75 
4697 -9.78 -9.78 -9.75 
4698 -9.78 -9.78 -9.75 
4699 -9.78 -9.78 -9.75 
4700 -9.78 -9.78 -9.75 
4701 -9.78 -9.78 -9.75 
4702 -9.78 -9.79 -9.75 
4703 -9.78 -9.78 -9.75 
4704 -9.78 -9.78 -9.75 
4705 -9.78 -9.78 -9.75 
4706 -9.78 -9.78 -9.75 
4707 -9.78 -9.78 -9.75 
4708 -9.78 -9.79 -9.75 
4709 -9.79 -9.79 -9.75 
4710 -9.79 -9.79 -9.75 
4711 -9.79 -9.79 -9.75 
4712 -9.79 -9.78 -9.75 
4713 -9.78 -9.79 -9.75 
4714 -9.78 -9.79 -9.75 
4715 -9.78 -9.79 -9.75 
4716 -9.78 -9.79 -9.75 
4717 -9.79 -9.79 -9.75 
4718 -9.79 -9.79 -9.75 
4719 -9.79 -9.79 -9.75 
4720 -9.79 -9.79 -9.75 
4721 -9.79 -9.79 -9.75 
4722 -9.79 -9.79 -9.75 
4723 -9.79 -9.79 -9.75 
4724 -9.79 -9.79 -9.75 
4725 -9.79 -9.79 -9.75 
4726 -9.79 -9.79 -9.75 
4727 -9.79 -9.79 -9.75 
4728 -9.79 -9.79 -9.75 
4729 -9.79 -9.79 -9.75 
4730 -9.79 -9.80 -9.75 
4731 -9.79 -9.79 -9.75 
4732 -9.79 -9.79 -9.75 
4733 -9.79 -9.79 -9.75 
4734 -9.79 -9.79 -9.75 
4735 -9.79 -9.80 -9.75 
4736 -9.79 -9.79 -9.75 
4737 -9.79 -9.80 -9.75 
4738 -9.79 -9.80 -9.75 
4739 -9.79 -9.79 -9.75 
4740 -9.79 -9.79 -9.75 
4741 -9.79 -9.79 -9.75 
4742 -9.79 -9.79 -9.75 
4743 -9.79 -9.79 -9.75 
4744 -9.79 -9.79 -9.75 
4745 -9.79 -9.79 -9.75 
4746 -9.79 -9.79 -9.75 
4747 -9.79 -9.79 -9.75 
4748 -9.79 -9.79 -9.75 
4749 -9.79 -9.79 -9.75 
4750 -9.79 -9.79 -9.75 
4751 -9.79 -9.79 -9.75 
4752 -9.79 -9.79 -9.75 
4753 -9.79 -9.78 -9.75 
4754 -9.78 -9.78 -9.75 
4755 -9.78 -9.78 -9.75 
4756 -9.78 -9.78 -9.75 
4757 -9.78 -9.78 -9.75 
4758 -9.78 -9.78 -9.75 
4759 -9.78 -9.78 -9.75 
4760 -9.78 -9.78 -9.75 
4761 -9.78 -9.78 -9.75 
4762 -9.78 -9.78 -9.75 
4763 -9.78 -9.78 -9.75 
4764 -9.78 -9.78 -9.75 
4765 -9.78 -9.78 -9.75 
4766 -9.78 -9.78 -9.75 
4767 -9.78 -9.78 -9.75 
4768 -9.78 -9.78 -9.75 
4769 -9.78 -9.78 -9.75 
4770 -9.78 -9.78 -9.75 
4771 -9.78 -9.78 -9.75 
4772 -9.78 -9.77 -9.75 
4773 -9.77 -9.77 -9.75 
4774 -9.77 -9.77 -9.75 
4775 -9.77 -9.77 -9.75 
4776 -9.77 -9.77 -9.75 
4777 -9.77 -9.77 -9.75 
4778 -9.77 -9.77 -9.75 
4779 -9.77 -9.77 -9.75 
4780 -9.77 -9.77 -9.75 
4781 -9.77 -9.77 -9.75 
4782 -9.77 -9.77 -9.75 
4783 -9.77 -9.77 -9.75 
4784 -9.77 -9.76 -9.75 
4785 -9.77 -9.77 -9.75 
4786 -9.77 -9.77 -9.75 
4787 -9.77 -9.77 -9.75 
4788 -9.78 -9.77 -9.75 
4789 -9.78 -9.78 -9.75 
4790 -9.78 -9.78 -9.75 
4791 -9.78 -9.78 -9.75 
4792 -9.78 -9.78 -9.75 
4793 -9.78 -9.78 -9.75 
4794 -9.78 -9.78 -9.75 
4795 -9.78 -9.78 -9.75 
4796 -9.78 -9.78 -9.75 
4797 -9.78 -9.77 -9.75 
4798 -9.78 -9.78 -9.75 
4799 -9.78 -9.78 -9.75 
4800 -9.78 -9.78 -9.75 
4801 -9.78 -9.78 -9.75 
4802 -9.78 -9.78 -9.75 
4803 -9.78 -9.77 -9.75 
4804 -9.77 -9.78 -9.75 
4805 -9.78 -9.78 -9.75 
4806 -9.78 -9.77 -9.75 
4807 -9.78 -9.77 -9.75 
4808 -9.78 -9.77 -9.75 
4809 -9.78 -9.77 -9.75 
4810 -9.77 -9.77 -9.75 
4811 -9.77 -9.76 -9.75 
4812 -9.77 -9.76 -9.75 
4813 -9.77 -9.76 -9.75 
4814 -9.77 -9.77 -9.75 
4815 -9.77 -9.77 -9.75 
4816 -9.77 -9.77 -9.75 
4817 -9.78 -9.77 -9.75 
4818 -9.77 -9.77 -9.75 
4819 -9.77 -9.76 -9.75 
4820 -9.77 -9.76 -9.75 
4821 -9.77 -9.76 -9.75 
4822 -9.77 -9.76 -9.75 
4823 -9.77 -9.76 -9.75 
4824 -9.77 -9.76 -9.75 
4825 -9.76 -9.76 -9.75 
4826 -9.76 -9.76 -9.75 
4827 -9.76 -9.76 -9.75 
4828 -9.76 -9.76 -9.75 
4829 -9.76 -9.76 -9.75 
4830 -9.76 -9.76 -9.75 
4831 -9.76 -9.76 -9.75 
4832 -9.76 -9.76 -9.75 
4833 -9.77 -9.76 -9.75 
4834 -9.77 -9.76 -9.75 
4835 -9.77 -9.76 -9.75 
4836 -9.76 -9.76 -9.75 
4837 -9.77 -9.76 -9.75 
4838 -9.77 -9.76 -9.75 
4839 -9.77 -9.76 -9.75 
4840 -9.77 -9.76 -9.75 
4841 -9.77 -9.76 -9.75 
4842 -9.77 -9.76 -9.75 
4843 -9.77 -9.76 -9.75 
4844 -9.77 -9.75 -9.75 
4845 -9.76 -9.76 -9.75 
4846 -9.76 -9.76 -9.75 
4847 -9.77 -9.76 -9.75 
4848 -9.77 -9.76 -9.75 
4849 -9.77 -9.76 -9.75 
4850 -9.77 -9.76 -9.75 
4851 -9.77 -9.76 -9.75 
4852 -9.77 -9.76 -9.75 
4853 -9.77 -9.76 -9.75 
4854 -9.77 -9.76 -9.75 
4855 -9.77 -9.76 -9.75 
4856 -9.77 -9.76 -9.75 
4857 -9.77 -9.76 -9.75 
4858 -9.77 -9.76 -9.75 
4859 -9.77 -9.76 -9.75 
4860 -9.77 -9.76 -9.75 
4861 -9.77 -9.76 -9.75 
4862 -9.77 -9.76 -9.75 
4863 -9.77 -9.76 -9.75 
4864 -9.77 -9.76 -9.75 
4865 -9.77 -9.76 -9.75 
4866 -9.77 -9.76 -9.75 
4867 -9.77 -9.76 -9.75 
4868 -9.77 -9.76 -9.75 
4869 -9.77 -9.76 -9.75 
4870 -9.77 -9.76 -9.75 
4871 -9.76 -9.76 -9.75 
4872 -9.76 -9.75 -9.75 
4873 -9.76 -9.76 -9.75 
4874 -9.77 -9.76 -9.75 
4875 -9.77 -9.76 -9.75 
4876 -9.77 -9.76 -9.75 
4877 -9.77 -9.76 -9.75 
4878 -9.77 -9.76 -9.75 
4879 -9.77 -9.76 -9.75 
4880 -9.77 -9.76 -9.75 
4881 -9.77 -9.76 -9.75 
4882 -9.77 -9.76 -9.75 
4883 -9.76 -9.76 -9.75 
4884 -9.77 -9.76 -9.75 
4885 -9.77 -9.76 -9.75 
4886 -9.77 -9.76 -9.75 
4887 -9.77 -9.76 -9.75 
4888 -9.77 -9.76 -9.75 
4889 -9.77 -9.76 -9.75 
4890 -9.77 -9.76 -9.75 
4891 -9.77 -9.76 -9.75 
4892 -9.77 -9.76 -9.75 
4893 -9.77 -9.76 -9.75 
4894 -9.77 -9.76 -9.75 
4895 -9.77 -9.76 -9.75 
4896 -9.77 -9.76 -9.75 
4897 -9.77 -9.76 -9.75 
4898 -9.77 -9.76 -9.75 
4899 -9.77 -9.76 -9.75 
4900 -9.77 -9.76 -9.75 
4901 -9.77 -9.76 -9.75 
4902 -9.77 -9.76 -9.75 
4903 -9.77 -9.76 -9.75 
4904 -9.77 -9.76 -9.75 
4905 -9.77 -9.76 -9.75 
4906 -9.77 -9.76 -9.75 
4907 -9.77 -9.76 -9.75 
4908 -9.77 -9.76 -9.75 
4909 -9.77 -9.76 -9.75 
4910 -9.77 -9.76 -9.75 
4911 -9.77 -9.76 -9.75 
4912 -9.77 -9.76 -9.75 
4913 -9.77 -9.76 -9.75 
4914 -9.77 -9.76 -9.75 
4915 -9.77 -9.76 -9.75 
4916 -9.77 -9.76 -9.75 
4917 -9.77 -9.76 -9.75 
4918 -9.77 -9.76 -9.75 
4919 -9.77 -9.76 -9.75 
4920 -9.77 -9.76 -9.75 
4921 -9.77 -9.76 -9.75 
4922 -9.77 -9.76 -9.75 
4923 -9.77 -9.77 -9.75 
4924 -9.77 -9.77 -9.75 
4925 -9.77 -9.77 -9.75 
4926 -9.77 -9.77 -9.75 
4927 -9.77 -9.76 -9.75 
4928 -9.77 -9.76 -9.75 
4929 -9.77 -9.77 -9.75 
4930 -9.77 -9.77 -9.75 
4931 -9.77 -9.77 -9.75 
4932 -9.77 -9.77 -9.75 
4933 -9.77 -9.77 -9.75 
4934 -9.77 -9.77 -9.75 
4935 -9.77 -9.77 -9.75 
4936 -9.78 -9.77 -9.75 
4937 -9.77 -9.77 -9.75 
4938 -9.77 -9.77 -9.75 
4939 -9.78 -9.77 -9.75 
4940 -9.77 -9.77 -9.75 
4941 -9.77 -9.77 -9.75 
4942 -9.77 -9.77 -9.75 
4943 -9.77 -9.77 -9.75 
4944 -9.77 -9.77 -9.75 
4945 -9.78 -9.77 -9.75 
4946 -9.77 -9.76 -9.75 
4947 -9.77 -9.76 -9.75 
4948 -9.77 -9.76 -9.75 
4949 -9.77 -9.76 -9.75 
4950 -9.77 -9.76 -9.75 
4951 -9.77 -9.76 -9.75 
4952 -9.77 -9.76 -9.75 
4953 -9.77 -9.76 -9.75 
4954 -9.77 -9.76 -9.75 
4955 -9.77 -9.76 -9.75 
4956 -9.77 -9.76 -9.75 
4957 -9.77 -9.76 -9.75 
4958 -9.77 -9.76 -9.75 
4959 -9.77 -9.76 -9.75 
4960 -9.77 -9.76 -9.75 
4961 -9.77 -9.76 -9.75 
4962 -9.77 -9.76 -9.75 
4963 -9.77 -9.76 -9.75 
4964 -9.77 -9.76 -9.75 
4965 -9.77 -9.75 -9.75 
4966 -9.76 -9.75 -9.75 
4967 -9.76 -9.75 -9.75 
4968 -9.77 -9.75 -9.75 
4969 -9.76 -9.75 -9.75 
4970 -9.76 -9.75 -9.75 
4971 -9.76 -9.75 -9.75 
4972 -9.76 -9.75 -9.75 
4973 -9.76 -9.75 -9.75 
4974 -9.76 -9.75 -9.75 
4975 -9.76 -9.75 -9.75 
4976 -9.76 -9.75 -9.75 
4977 -9.76 -9.75 -9.75 
4978 -9.76 -9.75 -9.75 
4979 -9.76 -9.75 -9.75 
4980 -9.76 -9.75 -9.75 
4981 -9.76 -9.75 -9.75 
4982 -9.76 -9.75 -9.75 
4983 -9.76 -9.75 -9.75 
4984 -9.76 -9.75 -9.75 
4985 -9.76 -9.75 -9.75 
4986 -9.76 -9.75 -9.75 
4987 -9.77 -9.75 -9.75 
4988 -9.77 -9.76 -9.75 
4989 -9.77 -9.75 -9.75 
4990 -9.77 -9.75 -9.75 
