Iter | Sampling Pol | Evaluation Pol | Best (Sampled) 
   0 -21.35 -15.54 -100000000.00 
   1 -6.09 -16.95 -21.35 
   2  4.11 -16.20 -6.09 
   3 13.98 -16.06  4.11 
   4 30.01 -6.27 13.98 
   5 53.24 -6.06 30.01 
   6 70.26 -5.65 53.24 
   7 101.79 -5.18 70.26 
   8 146.68 -3.64 101.79 
   9 211.00 373.78 146.68 
  10 269.56 722.24 211.00 
  11 335.46 734.47 269.56 
  12 401.11 734.56 335.46 
  13 470.67 742.72 401.11 
  14 508.31 742.77 470.67 
  15 544.44 750.82 508.31 
  16 575.61 746.91 544.44 
  17 607.13 746.99 575.61 
  18 629.04 755.08 607.13 
  19 646.06 755.20 629.04 
  20 653.44 755.15 646.06 
  21 665.02 759.20 653.44 
  22 675.10 759.15 665.02 
  23 677.91 759.12 675.10 
  24 680.70 759.10 677.91 
  25 685.39 759.22 680.70 
  26 695.21 755.17 685.39 
  27 693.96 759.20 695.21 
  28 699.48 759.16 695.21 
  29 702.11 759.15 699.48 
  30 703.70 759.11 702.11 
  31 709.32 751.19 703.70 
  32 709.50 759.19 709.32 
  33 710.41 755.14 709.50 
  34 711.33 755.18 710.41 
  35 711.18 755.14 711.33 
  36 716.36 751.14 711.33 
  37 715.70 759.17 716.36 
  38 716.96 759.12 716.36 
  39 718.20 759.09 716.96 
  40 721.45 755.07 718.20 
  41 719.62 759.08 721.45 
  42 720.87 759.05 721.45 
  43 721.53 759.00 721.45 
  44 724.50 755.03 721.53 
  45 722.96 759.01 724.50 
  46 725.50 759.02 724.50 
  47 722.63 755.07 725.50 
  48 728.10 759.13 725.50 
  49 726.86 759.10 728.10 
  50 726.44 751.11 728.10 
  51 727.86 759.07 728.10 
  52 728.16 759.04 728.10 
  53 728.16 759.12 728.16 
  54 730.16 759.09 728.16 
  55 729.32 755.07 730.16 
  56 730.33 759.12 730.16 
  57 729.95 759.06 730.33 
  58 731.12 759.09 730.33 
  59 729.83 759.09 731.12 
  60 731.88 759.14 731.12 
  61 733.04 759.12 731.88 
  62 729.20 759.11 733.04 
  63 730.86 759.09 733.04 
  64 734.55 759.13 733.04 
  65 734.21 759.10 734.55 
  66 733.84 759.15 734.55 
  67 734.76 759.09 734.55 
  68 734.93 759.12 734.76 
  69 735.85 759.16 734.93 
  70 737.02 759.17 735.85 
  71 736.61 759.14 737.02 
  72 735.01 759.16 737.02 
  73 735.76 759.17 737.02 
  74 736.97 759.18 737.02 
  75 736.78 759.19 737.02 
  76 737.24 759.20 737.02 
  77 737.57 759.24 737.24 
  78 738.25 759.24 737.57 
  79 739.08 759.22 738.25 
  80 740.38 759.26 739.08 
  81 739.88 759.23 740.38 
  82 741.38 755.24 740.38 
  83 742.47 759.24 741.38 
  84 741.30 759.25 742.47 
  85 743.56 759.23 742.47 
  86 744.98 759.26 743.56 
  87 743.36 759.26 744.98 
  88 743.41 759.27 744.98 
  89 745.29 759.27 744.98 
  90 744.67 755.26 745.29 
  91 745.67 759.27 745.29 
  92 746.46 759.24 745.67 
  93 746.92 759.20 746.46 
  94 747.09 759.23 746.92 
  95 747.10 759.21 747.09 
  96 747.43 759.24 747.10 
  97 748.59 759.22 747.43 
  98 749.35 759.20 748.59 
  99 749.36 759.23 749.35 
 100 748.65 759.20 749.36 
 101 749.44 759.20 749.36 
 102 750.29 759.20 749.44 
 103 749.99 759.21 750.29 
 104 750.67 759.21 750.29 
 105 750.88 759.22 750.67 
 106 750.33 759.19 750.88 
 107 750.45 759.20 750.88 
 108 749.50 759.21 750.88 
 109 751.75 759.23 750.88 
 110 751.84 759.21 751.75 
 111 751.30 759.22 751.84 
 112 751.25 759.21 751.84 
 113 751.34 759.21 751.84 
 114 751.41 759.21 751.84 
 115 750.17 759.21 751.84 
 116 751.18 759.18 751.84 
 117 751.30 759.19 751.84 
 118 752.22 759.21 751.84 
 119 752.60 759.25 752.22 
 120 753.06 759.25 752.60 
 121 753.56 759.23 753.06 
 122 753.60 759.18 753.56 
 123 751.60 759.22 753.60 
 124 752.39 759.19 753.60 
 125 753.23 759.19 753.60 
 126 753.22 759.20 753.60 
 127 753.22 759.18 753.60 
 128 753.56 759.18 753.60 
 129 753.14 759.17 753.60 
 130 753.18 759.16 753.60 
 131 752.96 759.18 753.60 
 132 753.09 759.18 753.60 
 133 754.10 759.19 753.60 
 134 753.01 759.18 754.10 
 135 754.85 759.20 754.10 
 136 753.64 759.19 754.85 
 137 753.48 759.22 754.85 
 138 753.23 759.23 754.85 
 139 754.57 759.24 754.85 
 140 753.57 759.21 754.85 
 141 754.49 759.21 754.85 
 142 753.78 759.23 754.85 
 143 754.11 759.20 754.85 
 144 754.20 759.23 754.85 
 145 754.95 759.19 754.85 
 146 754.74 759.23 754.95 
 147 754.20 759.19 754.95 
 148 754.15 759.19 754.95 
 149 754.20 759.24 754.95 
 150 755.32 759.23 754.95 
 151 754.74 759.21 755.32 
 152 754.24 759.22 755.32 
 153 754.94 759.23 755.32 
 154 755.53 759.22 755.32 
 155 754.70 759.22 755.53 
 156 754.24 759.24 755.53 
 157 755.75 759.21 755.53 
 158 755.37 759.23 755.75 
 159 754.91 759.20 755.75 
 160 754.11 759.22 755.75 
 161 755.37 759.24 755.75 
 162 755.58 759.23 755.75 
 163 754.91 759.21 755.75 
 164 755.16 759.22 755.75 
 165 754.41 759.19 755.75 
 166 755.20 759.22 755.75 
 167 755.78 759.23 755.75 
 168 754.32 759.22 755.78 
 169 754.45 759.22 755.78 
 170 754.91 759.19 755.78 
 171 754.44 759.17 755.78 
 172 754.57 759.20 755.78 
 173 753.99 759.21 755.78 
 174 754.91 759.18 755.78 
 175 754.11 759.20 755.78 
 176 755.33 759.22 755.78 
 177 755.08 759.20 755.78 
 178 755.16 759.16 755.78 
 179 755.40 759.21 755.78 
 180 755.32 759.14 755.78 
 181 754.82 759.20 755.78 
 182 755.20 759.19 755.78 
 183 754.87 759.18 755.78 
 184 755.20 759.18 755.78 
 185 755.66 759.23 755.78 
 186 754.95 759.15 755.78 
 187 754.03 759.18 755.78 
 188 754.40 759.17 755.78 
 189 755.53 759.15 755.78 
 190 754.73 759.13 755.78 
 191 754.60 759.13 755.78 
 192 755.44 759.14 755.78 
 193 754.65 759.16 755.78 
 194 755.40 759.14 755.78 
 195 755.61 759.15 755.78 
 196 755.86 759.17 755.78 
 197 755.66 759.14 755.86 
 198 755.23 759.19 755.86 
 199 755.74 759.17 755.86 
 200 755.20 759.18 755.86 
 201 755.79 759.16 755.86 
 202 755.62 759.19 755.86 
 203 754.95 759.17 755.86 
 204 755.66 759.16 755.86 
 205 755.53 759.18 755.86 
 206 755.82 759.16 755.86 
 207 754.57 759.16 755.86 
 208 755.16 759.16 755.86 
 209 755.20 759.18 755.86 
 210 755.61 759.16 755.86 
 211 755.16 759.18 755.86 
 212 755.45 759.15 755.86 
 213 754.57 759.13 755.86 
 214 755.74 759.13 755.86 
 215 754.95 759.20 755.86 
 216 755.33 759.22 755.86 
 217 755.62 759.19 755.86 
 218 755.79 759.21 755.86 
 219 755.41 759.21 755.86 
 220 755.49 759.21 755.86 
 221 756.12 759.20 755.86 
 222 755.87 759.17 756.12 
 223 756.16 759.20 756.12 
 224 755.95 759.19 756.16 
 225 755.45 759.20 756.16 
 226 755.95 759.22 756.16 
 227 756.12 759.17 756.16 
 228 755.20 759.21 756.16 
 229 754.83 759.20 756.16 
 230 755.70 759.18 756.16 
 231 754.87 759.15 756.16 
 232 755.96 759.16 756.16 
 233 756.04 759.19 756.16 
 234 755.49 759.18 756.16 
 235 755.70 759.18 756.16 
 236 756.16 759.21 756.16 
 237 755.63 759.21 756.16 
 238 755.58 759.21 756.16 
 239 756.12 759.17 756.16 
 240 756.58 759.17 756.16 
 241 755.08 759.19 756.58 
 242 756.00 759.16 756.58 
 243 754.99 759.17 756.58 
 244 755.95 759.18 756.58 
 245 755.91 759.16 756.58 
 246 755.84 759.19 756.58 
 247 755.92 759.21 756.58 
 248 756.00 759.20 756.58 
 249 755.84 759.19 756.58 
 250 755.95 759.19 756.58 
 251 755.33 759.18 756.58 
 252 755.92 759.18 756.58 
 253 755.71 759.17 756.58 
 254 755.17 759.19 756.58 
 255 755.79 759.20 756.58 
 256 755.84 759.19 756.58 
 257 756.17 759.20 756.58 
 258 755.75 759.19 756.58 
 259 756.34 759.17 756.58 
 260 756.33 759.19 756.58 
 261 756.00 759.14 756.58 
 262 755.67 759.17 756.58 
 263 756.30 759.23 756.58 
 264 755.96 759.22 756.58 
 265 755.71 759.19 756.58 
 266 756.25 759.21 756.58 
 267 756.30 759.19 756.58 
 268 754.96 759.20 756.58 
 269 756.25 759.19 756.58 
 270 756.16 759.19 756.58 
 271 756.34 759.17 756.58 
 272 756.46 759.21 756.58 
 273 756.21 759.21 756.58 
 274 755.71 759.19 756.58 
 275 756.08 759.21 756.58 
 276 755.67 759.22 756.58 
 277 756.21 755.17 756.58 
 278 755.63 759.18 756.58 
 279 755.54 759.19 756.58 
 280 756.42 759.20 756.58 
 281 755.83 759.19 756.58 
 282 756.59 759.17 756.58 
 283 756.47 759.20 756.59 
 284 755.33 759.18 756.59 
 285 756.09 759.18 756.59 
 286 755.87 759.19 756.59 
 287 755.75 759.20 756.59 
 288 756.17 759.22 756.59 
 289 755.59 759.18 756.59 
 290 755.88 759.20 756.59 
 291 756.04 759.20 756.59 
 292 756.25 759.20 756.59 
 293 756.30 759.17 756.59 
 294 756.21 759.20 756.59 
 295 755.46 759.22 756.59 
 296 755.54 759.20 756.59 
 297 756.54 759.18 756.59 
 298 756.45 759.20 756.59 
 299 755.75 759.16 756.59 
 300 756.25 759.16 756.59 
 301 756.00 759.17 756.59 
 302 756.00 759.18 756.59 
 303 756.29 759.22 756.59 
 304 756.62 759.18 756.59 
 305 757.00 759.14 756.62 
 306 756.54 759.18 757.00 
 307 756.71 759.18 757.00 
 308 755.96 759.18 757.00 
 309 756.00 759.19 757.00 
 310 756.41 759.16 757.00 
 311 756.75 759.17 757.00 
 312 756.12 759.18 757.00 
 313 755.54 759.20 757.00 
 314 756.63 759.17 757.00 
 315 756.55 759.19 757.00 
 316 756.25 759.21 757.00 
 317 755.75 759.16 757.00 
 318 756.64 759.19 757.00 
 319 756.46 759.22 757.00 
 320 756.50 759.18 757.00 
 321 756.88 759.18 757.00 
 322 756.37 755.14 757.00 
 323 755.87 759.19 757.00 
 324 756.59 759.18 757.00 
 325 756.50 759.14 757.00 
 326 756.67 759.14 757.00 
 327 755.91 759.17 757.00 
 328 756.46 759.18 757.00 
 329 756.87 759.16 757.00 
 330 757.09 759.16 757.00 
 331 757.00 759.12 757.09 
 332 756.45 759.18 757.09 
 333 755.95 759.18 757.09 
 334 756.58 759.12 757.09 
 335 756.25 759.16 757.09 
 336 756.33 759.17 757.09 
 337 756.75 759.16 757.09 
 338 755.78 759.18 757.09 
 339 756.70 759.12 757.09 
 340 755.82 759.14 757.09 
 341 756.58 759.16 757.09 
 342 756.50 759.14 757.09 
 343 755.91 759.18 757.09 
 344 756.38 759.15 757.09 
 345 756.16 759.20 757.09 
 346 756.62 759.17 757.09 
 347 756.57 759.17 757.09 
 348 756.75 759.16 757.09 
 349 756.83 759.20 757.09 
 350 756.21 759.16 757.09 
 351 756.12 759.15 757.09 
 352 756.37 759.17 757.09 
 353 756.20 755.17 757.09 
 354 757.25 759.19 757.09 
 355 756.09 759.18 757.25 
 356 757.72 759.18 757.25 
 357 756.50 759.20 757.72 
 358 756.50 759.20 757.72 
 359 756.79 759.16 757.72 
 360 756.41 759.16 757.72 
 361 756.50 759.18 757.72 
 362 757.08 759.20 757.72 
 363 756.04 759.18 757.72 
 364 756.34 759.18 757.72 
 365 756.96 759.17 757.72 
 366 756.88 759.17 757.72 
 367 756.79 759.16 757.72 
 368 756.50 755.14 757.72 
 369 755.92 759.14 757.72 
 370 756.38 759.17 757.72 
 371 757.00 759.18 757.72 
 372 756.25 759.16 757.72 
 373 756.46 759.18 757.72 
 374 756.13 759.19 757.72 
 375 756.25 759.17 757.72 
 376 757.09 759.19 757.72 
 377 756.37 759.18 757.72 
 378 756.63 759.16 757.72 
 379 757.13 759.18 757.72 
 380 756.42 759.18 757.72 
 381 757.00 759.12 757.72 
 382 756.71 759.17 757.72 
 383 756.84 759.20 757.72 
 384 756.76 759.25 757.72 
 385 756.67 759.18 757.72 
 386 756.47 759.19 757.72 
 387 756.63 759.20 757.72 
 388 756.84 759.17 757.72 
 389 756.21 759.21 757.72 
 390 756.25 759.17 757.72 
 391 756.38 759.18 757.72 
 392 756.75 759.17 757.72 
 393 756.79 759.18 757.72 
 394 756.17 759.18 757.72 
 395 756.38 759.16 757.72 
 396 756.97 759.19 757.72 
 397 756.34 759.21 757.72 
 398 756.63 759.19 757.72 
 399 756.59 759.15 757.72 
 400 757.17 759.16 757.72 
 401 756.76 759.16 757.72 
 402 756.76 759.15 757.72 
 403 756.83 759.17 757.72 
 404 756.67 759.16 757.72 
 405 756.71 759.18 757.72 
 406 756.96 759.17 757.72 
 407 756.75 759.17 757.72 
 408 756.58 759.16 757.72 
 409 756.00 759.17 757.72 
 410 756.04 759.17 757.72 
 411 756.58 759.16 757.72 
 412 757.17 759.18 757.72 
 413 756.71 759.15 757.72 
 414 756.21 759.20 757.72 
 415 757.34 759.17 757.72 
 416 755.67 759.15 757.72 
 417 756.34 759.19 757.72 
 418 756.88 759.18 757.72 
 419 756.88 759.18 757.72 
 420 756.63 759.21 757.72 
 421 756.42 759.19 757.72 
 422 757.30 759.17 757.72 
 423 756.75 759.17 757.72 
 424 756.80 759.16 757.72 
 425 756.17 759.19 757.72 
 426 756.71 759.19 757.72 
 427 756.80 759.15 757.72 
 428 756.80 759.20 757.72 
 429 757.21 759.17 757.72 
 430 757.05 759.17 757.72 
 431 756.46 759.17 757.72 
 432 756.76 759.20 757.72 
 433 756.71 759.18 757.72 
 434 756.80 759.17 757.72 
 435 756.59 759.16 757.72 
 436 756.96 759.17 757.72 
 437 757.01 759.15 757.72 
 438 756.59 759.17 757.72 
 439 756.71 759.18 757.72 
 440 756.67 759.16 757.72 
 441 757.21 759.16 757.72 
 442 757.05 759.16 757.72 
 443 756.46 759.15 757.72 
 444 757.22 759.18 757.72 
 445 757.13 759.17 757.72 
 446 756.51 759.15 757.72 
 447 757.43 759.16 757.72 
 448 756.92 759.21 757.72 
 449 757.09 759.14 757.72 
 450 756.63 759.18 757.72 
 451 757.26 759.18 757.72 
 452 757.14 759.16 757.72 
 453 757.05 759.17 757.72 
 454 756.76 759.18 757.72 
 455 756.89 759.15 757.72 
 456 756.93 759.18 757.72 
 457 757.59 759.13 757.72 
 458 757.22 759.16 757.72 
 459 756.72 759.18 757.72 
 460 756.71 759.16 757.72 
 461 757.05 759.16 757.72 
 462 756.71 759.17 757.72 
 463 757.13 759.21 757.72 
 464 757.50 759.13 757.72 
 465 756.84 759.19 757.72 
 466 757.08 759.18 757.72 
 467 757.38 759.14 757.72 
 468 756.67 759.17 757.72 
 469 756.96 759.16 757.72 
 470 756.46 759.17 757.72 
 471 756.33 759.17 757.72 
 472 757.30 759.15 757.72 
 473 756.67 759.18 757.72 
 474 757.22 759.13 757.72 
 475 757.39 759.20 757.72 
 476 756.63 759.14 757.72 
 477 756.84 759.14 757.72 
 478 756.63 759.14 757.72 
 479 756.87 759.15 757.72 
 480 757.67 759.14 757.72 
 481 757.30 759.12 757.72 
 482 756.92 759.14 757.72 
 483 757.05 759.16 757.72 
 484 757.25 759.13 757.72 
 485 756.54 759.14 757.72 
 486 757.34 759.19 757.72 
 487 757.63 759.14 757.72 
 488 756.54 759.12 757.72 
 489 757.17 759.13 757.72 
 490 756.84 759.15 757.72 
 491 757.17 759.14 757.72 
 492 756.55 759.16 757.72 
 493 756.75 759.17 757.72 
 494 757.05 759.16 757.72 
 495 757.09 759.18 757.72 
 496 757.34 759.15 757.72 
 497 757.09 759.15 757.72 
 498 756.88 759.16 757.72 
 499 757.42 759.15 757.72 
 500 757.26 759.14 757.72 
 501 757.00 759.14 757.72 
 502 757.51 759.11 757.72 
 503 757.50 751.13 757.72 
 504 757.30 759.18 757.72 
 505 757.51 759.17 757.72 
 506 757.59 759.13 757.72 
 507 757.17 759.18 757.72 
 508 756.80 759.15 757.72 
 509 757.93 759.16 757.72 
 510 756.80 759.17 757.93 
 511 757.51 759.16 757.93 
 512 757.26 755.15 757.93 
 513 756.80 759.16 757.93 
 514 756.80 759.14 757.93 
 515 756.88 759.16 757.93 
 516 757.01 759.18 757.93 
 517 757.30 759.14 757.93 
 518 757.68 759.16 757.93 
 519 757.51 759.17 757.93 
 520 757.38 755.15 757.93 
 521 756.97 759.14 757.93 
 522 757.30 759.18 757.93 
 523 756.88 759.17 757.93 
 524 757.00 759.12 757.93 
 525 758.06 759.12 757.93 
 526 757.56 759.16 758.06 
 527 757.43 759.17 758.06 
 528 757.26 759.11 758.06 
 529 756.97 759.18 758.06 
 530 757.43 759.15 758.06 
 531 757.38 759.13 758.06 
 532 757.88 759.13 758.06 
 533 757.13 759.14 758.06 
 534 757.84 759.15 758.06 
 535 757.76 759.15 758.06 
 536 757.01 759.15 758.06 
 537 757.38 759.15 758.06 
 538 757.47 759.15 758.06 
 539 757.59 759.16 758.06 
 540 757.51 759.17 758.06 
 541 757.85 759.15 758.06 
 542 757.34 759.12 758.06 
 543 757.52 759.15 758.06 
 544 757.50 759.16 758.06 
 545 757.26 759.13 758.06 
 546 757.34 759.14 758.06 
 547 757.64 759.11 758.06 
 548 757.13 759.18 758.06 
 549 756.88 759.19 758.06 
 550 757.55 755.14 758.06 
 551 757.30 759.18 758.06 
 552 757.30 759.11 758.06 
 553 757.63 759.16 758.06 
 554 757.30 759.17 758.06 
 555 757.30 759.17 758.06 
 556 757.30 759.16 758.06 
 557 758.10 759.15 758.06 
 558 757.59 759.16 758.10 
 559 757.59 759.13 758.10 
 560 756.88 759.16 758.10 
 561 757.55 759.14 758.10 
 562 757.30 759.14 758.10 
 563 757.30 759.14 758.10 
 564 757.59 759.13 758.10 
 565 757.59 759.15 758.10 
 566 757.05 759.14 758.10 
 567 756.97 759.17 758.10 
 568 757.51 759.14 758.10 
 569 757.93 759.14 758.10 
 570 757.63 759.18 758.10 
 571 757.89 759.15 758.10 
 572 757.10 759.15 758.10 
 573 757.51 759.13 758.10 
 574 757.27 759.11 758.10 
 575 757.47 759.17 758.10 
 576 757.27 759.15 758.10 
 577 757.43 759.16 758.10 
 578 756.84 759.15 758.10 
 579 756.76 759.18 758.10 
 580 757.51 759.17 758.10 
 581 757.18 759.18 758.10 
 582 757.22 759.17 758.10 
 583 757.56 759.17 758.10 
 584 757.43 759.18 758.10 
 585 757.47 759.15 758.10 
 586 756.88 759.19 758.10 
 587 757.47 759.13 758.10 
 588 757.47 759.16 758.10 
 589 757.64 759.15 758.10 
 590 757.68 759.13 758.10 
 591 757.48 759.18 758.10 
 592 757.60 759.15 758.10 
 593 757.23 759.11 758.10 
 594 757.27 759.13 758.10 
 595 757.43 759.15 758.10 
 596 757.14 759.15 758.10 
 597 757.39 759.15 758.10 
 598 757.56 759.16 758.10 
 599 757.27 759.16 758.10 
 600 757.10 759.17 758.10 
 601 757.06 759.13 758.10 
 602 757.14 759.18 758.10 
 603 756.47 759.18 758.10 
 604 757.01 759.18 758.10 
 605 757.02 759.15 758.10 
 606 756.93 759.18 758.10 
 607 757.61 759.19 758.10 
 608 757.40 759.18 758.10 
 609 757.02 759.17 758.10 
 610 757.14 759.20 758.10 
 611 757.10 759.18 758.10 
 612 757.68 759.14 758.10 
 613 756.94 759.16 758.10 
 614 757.44 759.17 758.10 
 615 757.73 759.18 758.10 
 616 757.53 759.19 758.10 
 617 757.43 759.16 758.10 
 618 756.98 759.17 758.10 
 619 757.73 759.19 758.10 
 620 757.85 759.16 758.10 
 621 757.68 759.17 758.10 
 622 756.93 759.16 758.10 
 623 757.35 759.18 758.10 
 624 757.06 759.20 758.10 
 625 757.69 759.16 758.10 
 626 757.85 759.17 758.10 
 627 758.02 759.16 758.10 
 628 757.81 759.17 758.10 
 629 757.18 759.20 758.10 
 630 756.97 759.14 758.10 
 631 757.35 759.17 758.10 
 632 757.43 759.15 758.10 
 633 757.47 759.15 758.10 
 634 757.18 759.14 758.10 
 635 757.97 759.16 758.10 
 636 757.85 759.15 758.10 
 637 757.64 759.16 758.10 
 638 757.84 759.14 758.10 
 639 757.34 759.17 758.10 
 640 757.76 759.19 758.10 
 641 757.93 759.14 758.10 
 642 757.05 759.16 758.10 
 643 757.81 759.14 758.10 
 644 757.63 759.14 758.10 
 645 757.51 759.10 758.10 
 646 757.68 759.16 758.10 
 647 757.34 759.15 758.10 
 648 757.60 759.17 758.10 
 649 757.72 759.15 758.10 
 650 757.43 759.15 758.10 
 651 757.60 759.15 758.10 
 652 757.47 759.15 758.10 
 653 758.02 759.14 758.10 
 654 758.02 759.14 758.10 
 655 757.68 759.13 758.10 
 656 758.60 759.17 758.10 
 657 757.38 759.13 758.60 
 658 757.93 759.15 758.60 
 659 757.84 755.13 758.60 
 660 757.80 759.16 758.60 
 661 757.72 759.15 758.60 
 662 757.76 759.14 758.60 
 663 757.72 759.13 758.60 
 664 757.60 759.15 758.60 
 665 757.80 759.13 758.60 
 666 757.85 759.15 758.60 
 667 757.93 759.11 758.60 
 668 757.80 759.13 758.60 
 669 757.97 759.13 758.60 
 670 757.88 759.14 758.60 
 671 758.10 759.13 758.60 
 672 757.71 759.17 758.60 
 673 757.80 759.15 758.60 
 674 757.51 759.13 758.60 
 675 757.72 759.11 758.60 
 676 757.55 759.16 758.60 
 677 757.51 759.15 758.60 
 678 756.89 759.13 758.60 
 679 757.59 759.14 758.60 
 680 758.01 759.13 758.60 
 681 758.14 759.15 758.60 
 682 757.76 759.10 758.60 
 683 757.55 759.12 758.60 
 684 757.93 759.10 758.60 
 685 758.18 759.13 758.60 
 686 757.30 759.10 758.60 
 687 757.85 759.13 758.60 
 688 757.81 759.14 758.60 
 689 757.97 759.12 758.60 
 690 757.60 759.15 758.60 
 691 758.31 759.16 758.60 
 692 757.64 759.15 758.60 
 693 757.84 759.10 758.60 
 694 757.89 759.13 758.60 
 695 757.72 759.12 758.60 
 696 758.10 759.15 758.60 
 697 757.68 759.12 758.60 
 698 757.55 759.14 758.60 
 699 757.60 759.17 758.60 
 700 757.60 759.14 758.60 
 701 757.43 759.11 758.60 
 702 758.10 759.15 758.60 
 703 757.94 759.15 758.60 
 704 757.94 759.15 758.60 
 705 758.06 759.17 758.60 
 706 757.52 759.15 758.60 
 707 757.81 759.18 758.60 
 708 757.61 759.14 758.60 
 709 757.73 759.13 758.60 
 710 757.85 759.13 758.60 
 711 757.85 759.15 758.60 
 712 757.77 759.17 758.60 
 713 757.69 759.16 758.60 
 714 758.07 759.12 758.60 
 715 757.98 759.12 758.60 
 716 757.68 759.12 758.60 
 717 757.43 759.13 758.60 
 718 757.72 759.15 758.60 
 719 757.60 759.13 758.60 
 720 757.85 759.17 758.60 
 721 757.89 759.14 758.60 
 722 757.55 759.14 758.60 
 723 758.06 759.17 758.60 
 724 758.14 759.13 758.60 
 725 757.80 759.15 758.60 
 726 757.68 759.12 758.60 
 727 757.72 759.17 758.60 
 728 757.89 759.15 758.60 
 729 757.06 759.13 758.60 
 730 757.01 759.14 758.60 
 731 757.55 759.15 758.60 
 732 757.97 755.14 758.60 
 733 756.88 759.17 758.60 
 734 757.56 759.14 758.60 
 735 757.85 759.12 758.60 
 736 758.10 759.13 758.60 
 737 758.14 759.17 758.60 
 738 757.80 759.13 758.60 
 739 757.89 759.17 758.60 
 740 757.59 759.17 758.60 
 741 757.64 759.16 758.60 
 742 758.01 759.11 758.60 
 743 758.06 759.15 758.60 
 744 757.81 759.12 758.60 
 745 757.85 759.13 758.60 
 746 757.88 759.14 758.60 
 747 757.76 759.14 758.60 
 748 757.55 759.15 758.60 
 749 757.89 759.12 758.60 
 750 757.68 759.15 758.60 
 751 757.89 759.15 758.60 
 752 757.60 759.15 758.60 
 753 758.02 759.13 758.60 
 754 757.97 759.17 758.60 
 755 757.84 759.13 758.60 
 756 757.60 759.11 758.60 
 757 757.52 759.14 758.60 
 758 757.09 759.13 758.60 
 759 758.05 759.18 758.60 
 760 758.10 759.13 758.60 
 761 757.68 759.14 758.60 
 762 757.55 759.16 758.60 
 763 757.72 759.12 758.60 
 764 757.39 759.16 758.60 
 765 757.80 759.12 758.60 
 766 758.06 759.12 758.60 
 767 757.43 759.18 758.60 
 768 757.55 759.16 758.60 
 769 757.35 759.15 758.60 
 770 758.14 759.13 758.60 
 771 757.93 759.11 758.60 
 772 758.06 759.12 758.60 
 773 757.52 759.15 758.60 
 774 757.59 759.12 758.60 
 775 758.01 759.10 758.60 
 776 757.72 759.12 758.60 
 777 757.97 759.14 758.60 
 778 757.97 759.15 758.60 
 779 757.59 759.15 758.60 
 780 758.05 759.13 758.60 
 781 757.97 759.10 758.60 
 782 758.10 759.11 758.60 
 783 757.47 759.12 758.60 
 784 757.84 759.16 758.60 
 785 758.01 759.14 758.60 
 786 758.01 755.11 758.60 
 787 757.88 759.17 758.60 
 788 758.21 759.12 758.60 
 789 757.71 759.17 758.60 
 790 758.09 759.10 758.60 
 791 757.75 759.10 758.60 
 792 757.46 759.14 758.60 
 793 757.84 759.10 758.60 
 794 757.63 759.15 758.60 
 795 757.93 759.12 758.60 
 796 757.72 759.10 758.60 
 797 758.26 759.15 758.60 
 798 758.01 759.13 758.60 
 799 757.93 759.14 758.60 
 800 758.01 759.11 758.60 
 801 758.47 759.11 758.60 
 802 758.14 759.13 758.60 
 803 757.89 759.15 758.60 
 804 758.18 759.12 758.60 
 805 758.39 759.15 758.60 
 806 757.63 759.12 758.60 
 807 758.26 759.12 758.60 
 808 757.76 759.13 758.60 
 809 758.23 759.17 758.60 
 810 758.14 759.15 758.60 
 811 758.18 759.18 758.60 
 812 757.84 759.12 758.60 
 813 757.93 759.13 758.60 
 814 758.14 759.12 758.60 
 815 758.01 759.15 758.60 
 816 757.60 759.15 758.60 
 817 757.72 759.13 758.60 
 818 758.10 759.12 758.60 
 819 758.14 759.10 758.60 
 820 757.38 759.15 758.60 
 821 758.10 759.15 758.60 
 822 757.89 759.15 758.60 
 823 757.76 759.15 758.60 
 824 758.18 759.12 758.60 
 825 757.97 759.09 758.60 
 826 758.18 759.12 758.60 
 827 758.39 759.12 758.60 
 828 758.14 759.15 758.60 
 829 757.85 759.15 758.60 
 830 757.85 759.12 758.60 
 831 757.93 755.18 758.60 
 832 758.18 759.13 758.60 
 833 757.80 759.12 758.60 
 834 757.67 759.14 758.60 
 835 757.68 759.14 758.60 
 836 758.06 759.14 758.60 
 837 758.06 759.14 758.60 
 838 758.26 759.13 758.60 
 839 757.81 759.18 758.60 
 840 757.68 759.15 758.60 
 841 758.26 759.11 758.60 
 842 757.72 759.14 758.60 
 843 757.93 759.14 758.60 
 844 758.01 759.13 758.60 
 845 757.80 759.12 758.60 
 846 757.47 759.11 758.60 
 847 758.01 755.12 758.60 
 848 758.13 759.14 758.60 
 849 758.26 759.13 758.60 
 850 758.14 759.12 758.60 
 851 757.59 759.17 758.60 
 852 757.89 759.14 758.60 
 853 757.68 759.13 758.60 
 854 757.88 759.13 758.60 
 855 758.17 759.14 758.60 
 856 757.71 759.13 758.60 
 857 758.05 759.12 758.60 
 858 758.14 759.13 758.60 
 859 757.71 759.11 758.60 
 860 757.63 759.10 758.60 
 861 757.84 759.14 758.60 
 862 758.08 759.13 758.60 
 863 757.88 759.13 758.60 
 864 757.96 759.11 758.60 
 865 758.01 759.13 758.60 
 866 757.87 759.11 758.60 
 867 757.62 759.10 758.60 
 868 757.88 759.09 758.60 
 869 757.50 759.14 758.60 
 870 758.12 759.09 758.60 
 871 758.04 759.13 758.60 
 872 757.71 759.12 758.60 
 873 757.92 759.11 758.60 
 874 757.88 759.14 758.60 
 875 758.43 759.13 758.60 
 876 757.97 759.11 758.60 
 877 758.04 759.08 758.60 
 878 758.25 759.10 758.60 
 879 758.13 759.15 758.60 
 880 758.34 759.11 758.60 
 881 757.96 759.12 758.60 
 882 758.05 759.10 758.60 
 883 757.79 759.09 758.60 
 884 757.55 759.10 758.60 
 885 757.96 759.14 758.60 
 886 757.83 759.11 758.60 
 887 757.79 759.11 758.60 
 888 757.59 759.11 758.60 
 889 757.95 759.11 758.60 
 890 757.87 759.11 758.60 
 891 757.66 759.07 758.60 
 892 757.80 759.09 758.60 
 893 758.04 755.09 758.60 
 894 757.62 759.14 758.60 
 895 757.62 759.11 758.60 
 896 758.12 759.13 758.60 
 897 757.20 759.13 758.60 
 898 757.50 759.12 758.60 
 899 757.87 759.08 758.60 
 900 758.08 759.07 758.60 
 901 757.63 759.15 758.60 
 902 757.79 759.15 758.60 
 903 757.88 759.11 758.60 
 904 758.34 759.07 758.60 
 905 757.79 759.14 758.60 
 906 757.21 759.11 758.60 
 907 758.20 759.09 758.60 
 908 757.79 759.09 758.60 
 909 757.96 759.11 758.60 
 910 758.25 759.09 758.60 
 911 757.95 755.10 758.60 
 912 758.08 759.10 758.60 
 913 758.30 759.15 758.60 
 914 757.88 759.12 758.60 
 915 758.09 759.13 758.60 
 916 758.34 759.13 758.60 
 917 757.71 755.09 758.60 
 918 757.80 759.08 758.60 
 919 758.25 759.10 758.60 
 920 757.41 759.15 758.60 
 921 758.08 759.13 758.60 
 922 758.09 759.16 758.60 
 923 757.75 759.12 758.60 
 924 757.54 759.12 758.60 
 925 758.09 759.13 758.60 
 926 757.71 759.12 758.60 
 927 757.75 759.09 758.60 
 928 757.88 759.11 758.60 
 929 757.79 759.13 758.60 
 930 757.67 759.12 758.60 
 931 758.25 759.11 758.60 
 932 758.17 759.12 758.60 
 933 757.59 759.09 758.60 
 934 758.17 759.16 758.60 
 935 757.55 759.15 758.60 
 936 758.51 759.11 758.60 
 937 757.97 759.14 758.60 
 938 758.22 759.13 758.60 
 939 758.09 759.12 758.60 
 940 757.92 759.08 758.60 
 941 758.21 759.14 758.60 
 942 757.92 759.13 758.60 
 943 758.54 759.13 758.60 
 944 757.67 759.13 758.60 
 945 757.92 759.12 758.60 
 946 757.88 759.13 758.60 
 947 758.09 759.13 758.60 
 948 757.92 759.13 758.60 
 949 757.92 759.13 758.60 
 950 758.42 759.13 758.60 
 951 758.29 759.13 758.60 
 952 758.29 759.13 758.60 
 953 758.04 759.11 758.60 
 954 758.50 759.10 758.60 
 955 758.26 759.11 758.60 
 956 758.05 759.07 758.60 
 957 758.46 759.08 758.60 
 958 758.25 759.10 758.60 
 959 758.13 759.12 758.60 
 960 758.09 759.14 758.60 
 961 758.05 759.11 758.60 
 962 758.00 759.15 758.60 
 963 758.34 759.14 758.60 
 964 758.17 759.14 758.60 
 965 758.42 759.08 758.60 
 966 758.17 759.12 758.60 
 967 758.38 759.13 758.60 
 968 758.00 759.14 758.60 
 969 758.21 759.11 758.60 
 970 758.09 759.10 758.60 
 971 758.09 759.13 758.60 
 972 757.54 759.12 758.60 
 973 758.04 759.11 758.60 
 974 758.12 759.13 758.60 
 975 757.92 759.10 758.60 
 976 757.88 759.08 758.60 
 977 757.88 759.11 758.60 
 978 758.37 759.08 758.60 
 979 757.87 759.10 758.60 
 980 757.92 759.10 758.60 
 981 758.08 759.11 758.60 
 982 758.04 759.12 758.60 
 983 757.96 759.08 758.60 
 984 758.01 759.08 758.60 
 985 758.13 759.11 758.60 
 986 758.13 759.12 758.60 
 987 758.21 759.14 758.60 
 988 758.05 759.10 758.60 
 989 758.33 759.12 758.60 
 990 757.87 759.14 758.60 
 991 758.16 759.10 758.60 
 992 758.38 759.13 758.60 
 993 758.22 759.11 758.60 
 994 758.00 759.11 758.60 
 995 758.46 759.13 758.60 
 996 758.21 759.13 758.60 
 997 757.70 759.11 758.60 
 998 757.41 759.14 758.60 
 999 757.87 759.12 758.60 
1000 757.96 759.14 758.60 
1001 758.00 759.11 758.60 
1002 757.96 759.15 758.60 
1003 758.09 759.09 758.60 
1004 757.96 759.10 758.60 
1005 757.96 759.14 758.60 
1006 757.67 759.12 758.60 
1007 758.00 759.09 758.60 
1008 757.67 759.08 758.60 
1009 757.96 759.13 758.60 
1010 758.37 759.08 758.60 
1011 758.00 759.07 758.60 
1012 758.04 759.10 758.60 
1013 757.83 759.15 758.60 
1014 758.29 759.14 758.60 
1015 758.17 759.15 758.60 
1016 758.25 759.12 758.60 
1017 758.13 759.13 758.60 
1018 757.88 759.11 758.60 
1019 758.05 759.13 758.60 
1020 757.96 759.14 758.60 
1021 758.34 759.13 758.60 
1022 758.38 759.10 758.60 
1023 757.96 759.11 758.60 
1024 758.34 759.15 758.60 
1025 757.88 759.11 758.60 
1026 758.09 759.12 758.60 
1027 758.09 759.10 758.60 
1028 758.04 759.11 758.60 
1029 758.12 759.14 758.60 
1030 758.00 759.09 758.60 
1031 758.67 759.10 758.60 
1032 757.80 759.12 758.67 
1033 758.17 759.13 758.67 
1034 758.13 759.11 758.67 
1035 757.96 759.12 758.67 
1036 757.71 759.12 758.67 
1037 758.38 759.15 758.67 
1038 758.05 759.16 758.67 
1039 757.96 759.12 758.67 
1040 758.05 759.18 758.67 
1041 757.84 759.11 758.67 
1042 758.04 759.15 758.67 
1043 758.00 759.09 758.67 
1044 758.04 759.11 758.67 
1045 758.25 759.12 758.67 
1046 757.79 759.15 758.67 
1047 758.25 759.12 758.67 
1048 758.25 759.13 758.67 
1049 757.46 759.10 758.67 
1050 758.08 759.13 758.67 
1051 757.87 759.13 758.67 
1052 758.29 759.11 758.67 
1053 758.17 759.11 758.67 
1054 757.62 759.11 758.67 
1055 757.75 759.12 758.67 
1056 757.66 759.12 758.67 
1057 758.38 759.12 758.67 
1058 757.88 759.12 758.67 
1059 757.54 759.15 758.67 
1060 757.92 759.13 758.67 
1061 758.30 759.11 758.67 
1062 758.00 759.11 758.67 
1063 757.96 759.12 758.67 
1064 758.47 759.14 758.67 
1065 757.84 759.14 758.67 
1066 758.42 759.15 758.67 
1067 758.42 759.10 758.67 
1068 757.96 759.13 758.67 
1069 758.30 759.14 758.67 
1070 758.13 759.15 758.67 
1071 758.47 759.09 758.67 
1072 757.92 759.11 758.67 
1073 758.04 759.15 758.67 
1074 758.17 759.13 758.67 
1075 758.38 759.13 758.67 
1076 758.47 759.11 758.67 
1077 757.54 759.14 758.67 
1078 758.09 759.11 758.67 
1079 758.05 759.11 758.67 
1080 758.25 759.12 758.67 
1081 758.42 759.13 758.67 
1082 757.38 759.11 758.67 
1083 758.22 759.12 758.67 
1084 758.05 759.10 758.67 
1085 758.05 759.14 758.67 
1086 758.05 759.16 758.67 
1087 757.88 755.12 758.67 
1088 758.34 759.10 758.67 
1089 757.59 759.13 758.67 
1090 758.46 759.17 758.67 
1091 758.13 759.14 758.67 
1092 758.17 759.13 758.67 
1093 758.18 759.12 758.67 
1094 758.09 759.10 758.67 
1095 758.25 759.11 758.67 
1096 758.04 759.08 758.67 
1097 758.00 759.10 758.67 
1098 758.38 759.09 758.67 
1099 757.96 759.13 758.67 
1100 758.09 759.14 758.67 
1101 757.96 759.11 758.67 
1102 758.55 759.12 758.67 
1103 758.25 759.11 758.67 
1104 757.87 759.09 758.67 
1105 757.67 755.11 758.67 
1106 757.88 759.09 758.67 
1107 758.13 759.15 758.67 
1108 758.17 759.13 758.67 
1109 757.83 759.09 758.67 
1110 758.21 759.10 758.67 
1111 758.00 759.10 758.67 
1112 757.75 755.09 758.67 
1113 758.17 759.11 758.67 
1114 757.67 759.11 758.67 
1115 758.04 759.11 758.67 
1116 758.38 759.10 758.67 
1117 758.25 759.13 758.67 
1118 758.29 759.12 758.67 
1119 757.83 759.10 758.67 
1120 757.87 759.10 758.67 
1121 757.83 759.10 758.67 
1122 758.08 759.10 758.67 
1123 758.21 759.11 758.67 
1124 758.13 759.12 758.67 
1125 758.00 759.14 758.67 
1126 757.84 759.11 758.67 
1127 757.92 759.12 758.67 
1128 757.96 759.14 758.67 
1129 757.80 759.12 758.67 
1130 758.22 759.11 758.67 
1131 758.13 759.12 758.67 
1132 758.13 759.12 758.67 
1133 757.75 759.13 758.67 
1134 757.92 759.12 758.67 
1135 758.30 759.14 758.67 
1136 758.30 759.10 758.67 
1137 758.08 759.13 758.67 
1138 757.92 759.12 758.67 
1139 758.30 759.14 758.67 
1140 757.84 759.12 758.67 
1141 758.13 759.08 758.67 
1142 757.75 759.12 758.67 
1143 758.13 759.11 758.67 
1144 758.09 759.14 758.67 
1145 757.96 759.11 758.67 
1146 758.13 759.11 758.67 
1147 757.84 759.16 758.67 
1148 757.92 759.14 758.67 
1149 757.96 759.13 758.67 
1150 757.93 759.16 758.67 
1151 757.93 759.12 758.67 
1152 758.14 759.15 758.67 
1153 758.05 759.15 758.67 
1154 757.43 759.13 758.67 
1155 758.14 759.12 758.67 
1156 758.09 759.13 758.67 
1157 757.68 759.13 758.67 
1158 758.14 759.11 758.67 
1159 758.26 759.12 758.67 
1160 758.13 759.13 758.67 
1161 758.30 759.14 758.67 
1162 758.17 759.07 758.67 
1163 758.38 759.13 758.67 
1164 757.67 759.09 758.67 
1165 758.17 759.14 758.67 
1166 758.38 759.14 758.67 
1167 758.01 759.14 758.67 
1168 758.38 759.15 758.67 
1169 757.46 759.15 758.67 
1170 757.88 759.13 758.67 
1171 757.93 759.15 758.67 
1172 757.76 759.14 758.67 
1173 757.76 759.13 758.67 
1174 757.64 759.11 758.67 
1175 758.09 759.16 758.67 
1176 757.68 759.15 758.67 
1177 757.84 759.18 758.67 
1178 757.30 759.11 758.67 
1179 758.09 759.15 758.67 
1180 757.76 759.14 758.67 
1181 757.68 759.10 758.67 
1182 758.18 759.14 758.67 
1183 757.63 759.11 758.67 
1184 758.26 759.15 758.67 
1185 757.84 759.10 758.67 
1186 758.46 759.08 758.67 
1187 758.21 759.17 758.67 
1188 757.88 759.12 758.67 
1189 757.84 759.14 758.67 
1190 758.26 759.13 758.67 
1191 758.42 759.12 758.67 
1192 758.05 759.14 758.67 
1193 758.05 759.13 758.67 
1194 758.09 759.12 758.67 
1195 758.18 759.16 758.67 
1196 758.18 759.16 758.67 
1197 758.18 759.16 758.67 
1198 758.01 759.15 758.67 
1199 758.51 759.08 758.67 
1200 758.30 759.18 758.67 
1201 758.13 759.13 758.67 
1202 758.22 759.13 758.67 
1203 757.88 759.14 758.67 
1204 758.08 759.14 758.67 
1205 757.25 759.15 758.67 
1206 757.84 759.11 758.67 
1207 757.63 759.14 758.67 
1208 758.09 759.12 758.67 
1209 758.26 759.13 758.67 
1210 757.88 759.14 758.67 
1211 757.97 759.14 758.67 
1212 758.01 759.16 758.67 
1213 757.59 759.13 758.67 
1214 757.88 759.12 758.67 
1215 758.01 759.15 758.67 
1216 757.51 759.11 758.67 
1217 757.92 759.12 758.67 
1218 757.34 759.14 758.67 
1219 757.97 759.15 758.67 
1220 757.97 759.11 758.67 
1221 757.59 759.15 758.67 
1222 757.68 759.14 758.67 
1223 758.30 759.17 758.67 
1224 757.34 759.14 758.67 
1225 757.88 759.14 758.67 
1226 758.14 759.14 758.67 
1227 758.05 759.14 758.67 
1228 758.30 759.13 758.67 
1229 758.09 759.13 758.67 
1230 757.72 759.14 758.67 
1231 757.84 759.11 758.67 
1232 757.88 759.14 758.67 
1233 758.22 759.11 758.67 
1234 758.09 759.14 758.67 
1235 758.38 759.13 758.67 
1236 758.38 759.11 758.67 
1237 758.29 759.14 758.67 
1238 758.05 759.13 758.67 
1239 757.84 759.16 758.67 
1240 757.67 759.14 758.67 
1241 758.05 759.12 758.67 
1242 758.13 759.10 758.67 
1243 757.92 755.10 758.67 
1244 757.84 759.12 758.67 
1245 758.13 759.14 758.67 
1246 757.96 759.11 758.67 
1247 757.96 759.10 758.67 
1248 758.21 759.15 758.67 
1249 758.13 759.12 758.67 
1250 758.13 759.11 758.67 
1251 758.05 759.11 758.67 
1252 758.09 759.13 758.67 
1253 758.50 759.14 758.67 
1254 758.21 759.17 758.67 
1255 758.04 759.10 758.67 
1256 757.80 759.13 758.67 
1257 758.34 759.12 758.67 
1258 757.88 759.11 758.67 
1259 757.84 759.14 758.67 
1260 757.71 759.09 758.67 
1261 758.17 759.14 758.67 
1262 758.00 759.15 758.67 
1263 758.35 759.13 758.67 
1264 758.43 759.11 758.67 
1265 758.13 759.14 758.67 
1266 758.30 759.14 758.67 
1267 758.17 759.11 758.67 
1268 757.96 759.09 758.67 
1269 758.30 759.18 758.67 
1270 758.05 759.13 758.67 
1271 757.96 759.11 758.67 
1272 757.88 759.14 758.67 
1273 757.88 759.14 758.67 
1274 757.59 759.13 758.67 
1275 757.96 759.13 758.67 
1276 757.84 759.09 758.67 
1277 758.34 759.15 758.67 
1278 757.91 759.13 758.67 
1279 758.17 759.16 758.67 
1280 758.13 759.12 758.67 
1281 757.92 759.16 758.67 
1282 758.08 759.16 758.67 
1283 757.63 759.11 758.67 
1284 758.01 759.16 758.67 
1285 757.88 759.13 758.67 
1286 758.13 759.12 758.67 
1287 758.51 759.10 758.67 
1288 757.96 759.14 758.67 
1289 758.00 759.14 758.67 
1290 757.75 759.12 758.67 
1291 758.00 755.11 758.67 
1292 758.22 759.13 758.67 
1293 757.80 759.12 758.67 
1294 757.67 759.12 758.67 
1295 758.34 759.12 758.67 
1296 758.09 759.12 758.67 
1297 758.13 759.12 758.67 
1298 757.92 759.10 758.67 
1299 758.13 759.17 758.67 
1300 758.29 759.13 758.67 
1301 758.05 759.13 758.67 
1302 758.34 759.14 758.67 
1303 757.92 755.13 758.67 
1304 758.34 759.12 758.67 
1305 758.17 759.13 758.67 
1306 758.09 759.13 758.67 
1307 758.13 759.11 758.67 
1308 757.96 759.14 758.67 
1309 757.29 759.12 758.67 
1310 758.17 759.13 758.67 
1311 758.13 759.12 758.67 
1312 758.26 759.13 758.67 
1313 758.30 759.13 758.67 
1314 758.00 759.14 758.67 
1315 758.26 759.12 758.67 
1316 758.50 759.14 758.67 
1317 758.08 759.13 758.67 
1318 758.12 759.09 758.67 
1319 757.67 759.08 758.67 
1320 758.79 759.13 758.67 
1321 758.08 759.10 758.79 
1322 757.79 759.12 758.79 
1323 758.16 759.07 758.79 
1324 757.70 759.08 758.79 
1325 758.25 759.09 758.79 
1326 757.92 759.10 758.79 
1327 758.12 759.14 758.79 
1328 758.29 759.15 758.79 
1329 757.87 759.11 758.79 
1330 757.78 759.12 758.79 
1331 758.41 759.11 758.79 
1332 758.04 759.13 758.79 
1333 758.29 759.13 758.79 
1334 758.08 759.11 758.79 
1335 758.38 759.12 758.79 
1336 758.17 759.11 758.79 
1337 758.08 759.10 758.79 
1338 758.42 759.11 758.79 
1339 758.42 759.10 758.79 
1340 758.42 759.11 758.79 
1341 757.92 759.13 758.79 
1342 758.08 759.12 758.79 
1343 758.01 759.13 758.79 
1344 758.38 759.14 758.79 
1345 758.08 759.14 758.79 
1346 758.30 759.14 758.79 
1347 758.09 759.15 758.79 
1348 758.63 759.13 758.79 
1349 758.46 759.14 758.79 
1350 758.09 759.14 758.79 
1351 757.62 759.12 758.79 
1352 758.21 759.12 758.79 
1353 757.96 759.09 758.79 
1354 758.33 759.10 758.79 
1355 758.09 759.12 758.79 
1356 758.38 759.12 758.79 
1357 758.05 759.13 758.79 
1358 758.17 759.15 758.79 
1359 758.63 759.13 758.79 
1360 758.26 759.11 758.79 
1361 757.96 759.14 758.79 
1362 758.05 759.13 758.79 
1363 758.47 759.15 758.79 
1364 758.05 759.12 758.79 
1365 758.30 759.11 758.79 
1366 758.34 759.12 758.79 
1367 758.35 759.14 758.79 
1368 758.26 759.14 758.79 
1369 758.06 759.15 758.79 
1370 758.13 759.13 758.79 
1371 758.18 759.13 758.79 
1372 758.30 759.08 758.79 
1373 758.39 759.08 758.79 
1374 758.26 759.13 758.79 
1375 758.51 759.14 758.79 
1376 758.22 759.10 758.79 
1377 758.30 759.12 758.79 
1378 758.22 759.13 758.79 
1379 757.92 759.11 758.79 
1380 758.30 759.11 758.79 
1381 758.09 759.10 758.79 
1382 758.35 759.13 758.79 
1383 758.05 759.14 758.79 
1384 758.01 759.09 758.79 
1385 758.14 759.14 758.79 
1386 757.97 759.14 758.79 
1387 758.64 759.13 758.79 
1388 758.10 759.10 758.79 
1389 758.05 759.14 758.79 
1390 758.22 759.11 758.79 
1391 757.76 759.11 758.79 
1392 758.09 759.14 758.79 
1393 758.22 759.14 758.79 
1394 758.42 759.14 758.79 
1395 757.83 755.12 758.79 
1396 757.92 759.12 758.79 
1397 758.13 759.12 758.79 
1398 758.05 759.10 758.79 
1399 757.88 759.14 758.79 
1400 758.13 759.13 758.79 
1401 758.34 759.11 758.79 
1402 758.14 759.14 758.79 
1403 758.09 759.15 758.79 
1404 758.39 759.14 758.79 
1405 758.01 759.13 758.79 
1406 758.26 759.13 758.79 
1407 758.10 759.14 758.79 
1408 758.18 759.11 758.79 
1409 758.22 759.14 758.79 
1410 758.34 759.12 758.79 
1411 758.22 759.13 758.79 
1412 758.22 759.18 758.79 
1413 758.22 759.13 758.79 
1414 757.97 759.14 758.79 
1415 758.06 759.14 758.79 
1416 757.97 759.12 758.79 
1417 757.67 759.15 758.79 
1418 758.18 759.10 758.79 
1419 758.34 759.13 758.79 
1420 758.30 759.12 758.79 
1421 758.09 755.13 758.79 
1422 757.92 759.14 758.79 
1423 758.17 759.14 758.79 
1424 758.30 759.13 758.79 
1425 758.05 759.15 758.79 
1426 758.18 759.12 758.79 
1427 757.67 759.12 758.79 
1428 758.34 759.13 758.79 
1429 758.10 759.12 758.79 
1430 758.22 759.13 758.79 
1431 758.09 759.11 758.79 
1432 758.26 759.09 758.79 
1433 758.42 759.11 758.79 
1434 757.92 759.13 758.79 
1435 758.22 759.12 758.79 
1436 758.22 759.11 758.79 
1437 758.05 759.12 758.79 
1438 758.22 759.10 758.79 
1439 758.35 759.14 758.79 
1440 757.93 759.11 758.79 
1441 757.89 759.11 758.79 
1442 758.35 759.14 758.79 
1443 757.98 759.13 758.79 
1444 758.10 759.13 758.79 
1445 758.39 759.17 758.79 
1446 758.31 759.11 758.79 
1447 758.39 759.14 758.79 
1448 758.01 759.12 758.79 
1449 758.26 759.13 758.79 
1450 758.38 759.10 758.79 
1451 757.67 759.11 758.79 
1452 758.01 759.12 758.79 
1453 758.34 759.13 758.79 
1454 758.14 759.13 758.79 
1455 758.22 759.12 758.79 
1456 758.30 759.12 758.79 
1457 758.35 759.13 758.79 
1458 758.35 759.14 758.79 
1459 758.31 759.14 758.79 
1460 758.31 759.13 758.79 
1461 758.22 759.15 758.79 
1462 758.30 759.14 758.79 
1463 758.02 759.14 758.79 
1464 758.26 759.14 758.79 
1465 758.35 759.15 758.79 
1466 758.27 759.15 758.79 
1467 758.61 759.12 758.79 
1468 757.89 759.16 758.79 
1469 758.14 759.15 758.79 
1470 758.27 759.16 758.79 
1471 757.84 759.13 758.79 
1472 758.39 759.11 758.79 
1473 758.27 759.17 758.79 
1474 758.19 759.14 758.79 
1475 758.18 759.13 758.79 
1476 758.44 759.15 758.79 
1477 758.18 759.13 758.79 
1478 758.59 759.13 758.79 
1479 758.02 759.14 758.79 
1480 758.18 759.16 758.79 
1481 758.18 759.12 758.79 
1482 758.18 759.13 758.79 
1483 758.43 759.14 758.79 
1484 758.18 759.12 758.79 
1485 758.35 759.13 758.79 
1486 758.35 759.13 758.79 
1487 757.72 759.14 758.79 
1488 757.72 759.12 758.79 
1489 757.89 759.14 758.79 
1490 758.31 759.12 758.79 
1491 757.34 759.11 758.79 
1492 758.26 759.14 758.79 
1493 758.39 755.12 758.79 
1494 758.22 759.13 758.79 
1495 758.43 759.11 758.79 
1496 758.18 759.09 758.79 
1497 757.59 759.13 758.79 
1498 757.80 759.12 758.79 
1499 758.01 759.11 758.79 
1500 758.30 759.14 758.79 
1501 758.34 759.12 758.79 
1502 758.06 759.12 758.79 
1503 758.30 759.11 758.79 
1504 758.42 759.13 758.79 
1505 758.56 759.15 758.79 
1506 758.51 759.15 758.79 
1507 758.30 759.16 758.79 
1508 758.39 759.13 758.79 
1509 758.18 759.14 758.79 
1510 758.39 759.16 758.79 
1511 758.31 759.15 758.79 
1512 758.47 759.16 758.79 
1513 758.30 759.11 758.79 
1514 758.35 759.14 758.79 
1515 758.64 759.16 758.79 
1516 758.31 759.14 758.79 
1517 758.30 759.15 758.79 
1518 758.01 759.12 758.79 
1519 758.34 759.17 758.79 
1520 758.22 759.12 758.79 
1521 757.93 759.13 758.79 
1522 758.26 759.12 758.79 
1523 758.18 759.11 758.79 
1524 758.43 759.08 758.79 
1525 758.35 759.10 758.79 
1526 758.43 759.14 758.79 
1527 758.31 759.12 758.79 
1528 758.52 759.17 758.79 
1529 758.35 759.09 758.79 
1530 758.35 759.13 758.79 
1531 758.31 759.15 758.79 
1532 758.39 759.15 758.79 
1533 758.01 759.15 758.79 
1534 758.18 759.16 758.79 
1535 758.35 759.14 758.79 
1536 758.43 759.13 758.79 
1537 758.35 759.16 758.79 
1538 758.39 759.15 758.79 
1539 758.10 759.16 758.79 
1540 758.31 759.14 758.79 
1541 758.81 759.15 758.79 
1542 758.39 759.14 758.81 
1543 758.31 759.13 758.81 
1544 758.47 759.14 758.81 
1545 757.93 759.11 758.81 
1546 758.09 759.14 758.81 
1547 758.18 759.13 758.81 
1548 758.14 759.15 758.81 
1549 758.30 759.13 758.81 
1550 758.10 759.15 758.81 
1551 757.98 759.13 758.81 
1552 758.47 759.13 758.81 
1553 758.39 759.14 758.81 
1554 758.30 759.10 758.81 
1555 758.18 759.14 758.81 
1556 757.97 759.14 758.81 
1557 758.14 759.13 758.81 
1558 758.39 759.09 758.81 
1559 758.22 759.11 758.81 
1560 758.01 759.14 758.81 
1561 758.01 759.14 758.81 
1562 758.31 759.15 758.81 
1563 758.14 759.10 758.81 
1564 757.97 759.12 758.81 
1565 758.13 759.09 758.81 
1566 758.26 755.09 758.81 
1567 758.34 759.11 758.81 
1568 758.09 759.14 758.81 
1569 758.34 759.14 758.81 
1570 758.34 759.13 758.81 
1571 758.14 759.13 758.81 
1572 758.09 759.15 758.81 
1573 758.38 759.12 758.81 
1574 758.05 759.15 758.81 
1575 758.22 759.12 758.81 
1576 758.09 759.13 758.81 
1577 758.51 759.14 758.81 
1578 758.18 759.16 758.81 
1579 758.34 759.13 758.81 
1580 758.34 759.13 758.81 
1581 757.96 759.11 758.81 
1582 757.84 759.13 758.81 
1583 758.13 759.16 758.81 
1584 758.35 759.12 758.81 
1585 758.38 759.10 758.81 
1586 758.34 759.14 758.81 
1587 758.80 759.16 758.81 
1588 758.22 759.10 758.81 
1589 758.05 759.13 758.81 
1590 758.26 759.10 758.81 
1591 758.22 759.11 758.81 
1592 758.47 759.14 758.81 
1593 758.18 759.16 758.81 
1594 758.47 759.13 758.81 
1595 758.47 759.13 758.81 
1596 758.06 759.11 758.81 
1597 758.18 759.13 758.81 
1598 758.47 759.14 758.81 
1599 758.05 759.12 758.81 
1600 758.80 759.12 758.81 
1601 758.39 759.14 758.81 
1602 758.35 759.15 758.81 
1603 758.43 759.16 758.81 
1604 757.92 759.14 758.81 
1605 758.09 759.14 758.81 
1606 758.34 759.14 758.81 
1607 758.34 759.14 758.81 
1608 758.26 759.13 758.81 
1609 758.39 759.16 758.81 
1610 758.43 759.12 758.81 
1611 758.05 759.14 758.81 
1612 758.06 759.12 758.81 
1613 758.10 759.15 758.81 
1614 758.47 759.14 758.81 
1615 758.18 759.13 758.81 
1616 758.60 759.17 758.81 
1617 758.51 759.11 758.81 
1618 758.39 759.12 758.81 
1619 758.47 759.14 758.81 
1620 758.35 759.12 758.81 
1621 758.05 759.10 758.81 
1622 758.31 759.16 758.81 
1623 758.35 759.14 758.81 
1624 758.52 759.13 758.81 
1625 758.31 759.12 758.81 
1626 758.30 759.14 758.81 
1627 758.18 759.13 758.81 
1628 758.14 759.13 758.81 
1629 758.35 759.10 758.81 
1630 758.22 759.14 758.81 
1631 758.26 759.15 758.81 
1632 758.10 759.12 758.81 
1633 758.47 759.14 758.81 
1634 758.26 759.15 758.81 
1635 758.26 759.15 758.81 
1636 758.14 759.15 758.81 
1637 758.22 759.11 758.81 
1638 758.47 759.13 758.81 
1639 758.22 759.17 758.81 
1640 758.39 759.12 758.81 
1641 758.14 755.10 758.81 
1642 758.51 759.15 758.81 
1643 757.72 755.14 758.81 
1644 758.72 759.12 758.81 
1645 758.14 759.13 758.81 
1646 758.22 759.15 758.81 
1647 758.14 759.13 758.81 
1648 758.05 759.13 758.81 
1649 758.09 759.14 758.81 
1650 758.38 759.12 758.81 
1651 757.93 759.12 758.81 
1652 758.43 759.11 758.81 
1653 757.80 759.11 758.81 
1654 758.26 759.12 758.81 
1655 758.34 759.15 758.81 
1656 757.80 755.15 758.81 
1657 758.01 759.10 758.81 
1658 758.14 759.11 758.81 
1659 758.13 759.12 758.81 
1660 758.05 759.16 758.81 
1661 758.21 759.13 758.81 
1662 758.05 759.15 758.81 
1663 758.47 759.13 758.81 
1664 758.30 759.14 758.81 
1665 758.18 759.17 758.81 
1666 758.26 759.12 758.81 
1667 757.97 759.13 758.81 
1668 758.09 759.13 758.81 
1669 758.39 759.14 758.81 
1670 758.30 759.13 758.81 
1671 758.47 759.09 758.81 
1672 758.18 759.12 758.81 
1673 758.39 759.13 758.81 
1674 758.38 759.09 758.81 
1675 758.55 759.13 758.81 
1676 758.17 759.16 758.81 
1677 758.51 759.13 758.81 
1678 758.31 759.11 758.81 
1679 758.26 759.17 758.81 
1680 758.43 759.13 758.81 
1681 758.22 759.14 758.81 
1682 758.34 759.13 758.81 
1683 758.30 759.14 758.81 
1684 758.38 759.13 758.81 
1685 758.30 759.14 758.81 
1686 758.38 759.13 758.81 
1687 758.18 759.10 758.81 
1688 758.60 759.14 758.81 
1689 758.26 759.14 758.81 
1690 758.26 759.13 758.81 
1691 758.47 759.13 758.81 
1692 758.51 759.14 758.81 
1693 758.47 759.15 758.81 
1694 758.14 759.13 758.81 
1695 757.97 759.16 758.81 
1696 757.97 759.15 758.81 
1697 758.35 759.13 758.81 
1698 758.42 759.11 758.81 
1699 758.43 759.10 758.81 
1700 758.19 759.15 758.81 
1701 758.39 759.15 758.81 
1702 758.13 759.15 758.81 
1703 758.10 759.12 758.81 
1704 758.47 759.12 758.81 
1705 758.76 759.13 758.81 
1706 758.60 759.12 758.81 
1707 757.93 759.14 758.81 
1708 758.35 759.11 758.81 
1709 758.14 759.12 758.81 
1710 758.52 759.13 758.81 
1711 758.26 759.15 758.81 
1712 758.39 759.16 758.81 
1713 758.18 759.16 758.81 
1714 758.27 759.13 758.81 
1715 758.18 759.14 758.81 
1716 757.97 759.14 758.81 
1717 758.60 759.13 758.81 
1718 758.26 759.12 758.81 
1719 758.18 759.19 758.81 
1720 758.18 759.13 758.81 
1721 758.43 759.15 758.81 
1722 758.68 759.14 758.81 
1723 758.47 759.14 758.81 
1724 757.93 759.13 758.81 
1725 758.05 759.12 758.81 
1726 758.19 759.13 758.81 
1727 758.31 759.09 758.81 
1728 758.01 759.13 758.81 
1729 757.89 759.17 758.81 
1730 758.26 759.10 758.81 
1731 758.30 755.11 758.81 
1732 758.09 759.12 758.81 
1733 758.56 759.15 758.81 
1734 758.26 759.13 758.81 
1735 757.97 759.13 758.81 
1736 758.18 759.11 758.81 
1737 758.34 759.12 758.81 
1738 758.01 759.13 758.81 
1739 757.97 759.14 758.81 
1740 758.34 759.12 758.81 
1741 757.97 759.14 758.81 
1742 758.01 759.12 758.81 
1743 757.88 759.12 758.81 
1744 758.10 759.15 758.81 
1745 758.13 759.12 758.81 
1746 758.05 759.11 758.81 
1747 758.47 759.15 758.81 
1748 758.05 759.15 758.81 
1749 758.30 759.12 758.81 
1750 758.51 759.13 758.81 
1751 757.88 759.13 758.81 
1752 758.30 759.13 758.81 
1753 758.47 759.09 758.81 
1754 758.14 759.12 758.81 
1755 758.22 759.13 758.81 
1756 758.22 759.12 758.81 
1757 758.38 759.13 758.81 
1758 758.64 759.13 758.81 
1759 758.38 759.16 758.81 
1760 758.43 759.08 758.81 
1761 758.35 759.14 758.81 
1762 758.30 759.15 758.81 
1763 758.55 759.14 758.81 
1764 758.60 759.12 758.81 
1765 758.30 759.15 758.81 
1766 758.42 759.13 758.81 
1767 758.09 759.10 758.81 
1768 758.39 759.12 758.81 
1769 758.18 759.14 758.81 
1770 758.47 759.16 758.81 
1771 758.55 759.13 758.81 
1772 758.30 759.15 758.81 
1773 758.30 759.11 758.81 
1774 758.47 759.12 758.81 
1775 758.63 759.13 758.81 
1776 758.05 759.14 758.81 
1777 758.38 759.14 758.81 
1778 758.18 759.12 758.81 
1779 758.22 759.11 758.81 
1780 758.22 759.14 758.81 
1781 758.01 759.10 758.81 
1782 758.38 759.14 758.81 
1783 758.60 759.11 758.81 
1784 758.22 759.13 758.81 
1785 758.21 759.11 758.81 
1786 758.22 759.15 758.81 
1787 758.47 759.13 758.81 
1788 758.01 759.15 758.81 
1789 758.34 759.17 758.81 
1790 758.55 759.15 758.81 
1791 758.26 759.14 758.81 
1792 758.38 759.10 758.81 
1793 758.09 759.13 758.81 
1794 758.55 759.13 758.81 
1795 758.59 759.12 758.81 
1796 758.42 759.11 758.81 
1797 758.39 759.12 758.81 
1798 758.26 759.14 758.81 
1799 758.55 759.10 758.81 
1800 758.13 759.11 758.81 
1801 758.34 759.08 758.81 
1802 758.34 759.14 758.81 
1803 758.34 759.14 758.81 
1804 758.51 759.12 758.81 
1805 758.38 759.10 758.81 
1806 758.34 759.10 758.81 
1807 758.17 759.14 758.81 
1808 758.26 759.16 758.81 
1809 758.34 759.13 758.81 
1810 758.14 759.14 758.81 
1811 758.39 759.14 758.81 
1812 758.39 759.13 758.81 
1813 758.22 759.14 758.81 
1814 758.22 759.11 758.81 
1815 758.51 759.15 758.81 
1816 758.59 759.12 758.81 
1817 758.42 759.10 758.81 
1818 758.17 759.10 758.81 
1819 758.46 759.13 758.81 
1820 758.00 759.11 758.81 
1821 757.96 759.12 758.81 
1822 758.21 759.13 758.81 
1823 758.42 759.15 758.81 
1824 758.21 759.11 758.81 
1825 758.08 759.12 758.81 
1826 758.04 755.10 758.81 
1827 758.46 759.10 758.81 
1828 758.04 759.12 758.81 
1829 758.29 759.12 758.81 
1830 758.25 759.10 758.81 
1831 758.25 759.14 758.81 
1832 758.21 759.12 758.81 
1833 758.00 759.08 758.81 
1834 758.30 759.14 758.81 
1835 758.20 759.12 758.81 
1836 758.04 759.12 758.81 
1837 758.29 759.12 758.81 
1838 758.12 759.13 758.81 
1839 758.38 759.10 758.81 
1840 758.33 759.12 758.81 
1841 757.79 759.12 758.81 
1842 758.29 759.13 758.81 
1843 758.33 759.10 758.81 
1844 758.54 759.13 758.81 
1845 758.38 759.15 758.81 
1846 758.21 759.10 758.81 
1847 758.29 759.11 758.81 
1848 757.96 759.10 758.81 
1849 758.25 759.14 758.81 
1850 758.55 759.14 758.81 
1851 758.25 759.12 758.81 
1852 758.46 759.12 758.81 
1853 758.42 759.11 758.81 
1854 758.26 759.14 758.81 
1855 758.04 759.14 758.81 
1856 758.29 759.10 758.81 
1857 757.87 759.15 758.81 
1858 758.16 759.08 758.81 
1859 758.29 759.15 758.81 
1860 758.12 759.14 758.81 
1861 758.49 759.10 758.81 
1862 758.54 759.10 758.81 
1863 758.04 759.13 758.81 
1864 758.25 759.11 758.81 
1865 758.37 759.10 758.81 
1866 758.46 759.08 758.81 
1867 757.96 759.13 758.81 
1868 758.17 759.09 758.81 
1869 758.42 759.12 758.81 
1870 758.46 759.13 758.81 
1871 758.38 759.15 758.81 
1872 758.72 759.14 758.81 
1873 758.34 759.13 758.81 
1874 758.59 759.10 758.81 
1875 758.38 759.13 758.81 
1876 758.13 759.15 758.81 
1877 758.21 759.12 758.81 
1878 758.13 759.11 758.81 
1879 758.55 759.14 758.81 
1880 758.26 759.13 758.81 
1881 758.42 759.11 758.81 
1882 758.42 759.12 758.81 
1883 758.42 759.11 758.81 
1884 758.43 759.13 758.81 
1885 758.47 759.13 758.81 
1886 758.09 759.14 758.81 
1887 758.30 759.15 758.81 
1888 758.47 759.14 758.81 
1889 758.60 759.10 758.81 
1890 758.80 759.12 758.81 
1891 758.55 759.10 758.81 
1892 758.39 759.17 758.81 
1893 758.22 759.11 758.81 
1894 758.63 759.11 758.81 
1895 757.96 759.16 758.81 
1896 758.47 759.11 758.81 
1897 758.05 759.08 758.81 
1898 758.59 759.10 758.81 
1899 758.38 759.15 758.81 
1900 758.30 759.12 758.81 
1901 758.75 759.11 758.81 
1902 757.92 759.12 758.81 
1903 758.59 759.15 758.81 
1904 758.47 759.14 758.81 
1905 758.51 755.11 758.81 
1906 758.43 759.10 758.81 
1907 758.55 759.12 758.81 
1908 758.46 759.13 758.81 
1909 757.76 759.13 758.81 
1910 758.59 759.11 758.81 
1911 758.17 759.13 758.81 
1912 758.47 759.15 758.81 
1913 758.21 759.10 758.81 
1914 758.22 759.14 758.81 
1915 758.38 755.09 758.81 
1916 758.09 759.15 758.81 
1917 758.42 759.09 758.81 
1918 758.63 759.11 758.81 
1919 758.08 759.08 758.81 
1920 758.38 759.13 758.81 
1921 758.76 759.13 758.81 
1922 758.13 759.15 758.81 
1923 758.50 759.09 758.81 
1924 758.08 759.13 758.81 
1925 758.75 759.15 758.81 
1926 758.42 759.13 758.81 
1927 758.55 759.12 758.81 
1928 758.55 759.14 758.81 
1929 758.43 759.10 758.81 
1930 758.25 759.10 758.81 
1931 758.55 759.11 758.81 
1932 758.59 759.11 758.81 
1933 758.67 759.09 758.81 
1934 758.63 759.11 758.81 
1935 758.42 759.12 758.81 
1936 758.50 759.12 758.81 
1937 758.21 759.13 758.81 
1938 758.51 759.13 758.81 
1939 758.63 759.11 758.81 
1940 758.38 759.13 758.81 
1941 758.33 759.13 758.81 
1942 758.59 759.08 758.81 
1943 757.84 759.14 758.81 
1944 758.25 759.14 758.81 
1945 758.54 759.13 758.81 
1946 758.21 759.16 758.81 
1947 758.72 759.11 758.81 
1948 758.38 759.09 758.81 
1949 758.38 759.12 758.81 
1950 758.42 759.12 758.81 
1951 758.09 759.12 758.81 
1952 758.59 759.12 758.81 
1953 758.42 759.13 758.81 
1954 758.38 759.15 758.81 
1955 758.38 759.10 758.81 
1956 758.33 759.13 758.81 
1957 758.62 759.14 758.81 
1958 758.58 759.10 758.81 
1959 758.46 759.13 758.81 
1960 758.71 759.09 758.81 
1961 758.37 759.10 758.81 
1962 758.58 759.07 758.81 
1963 758.62 759.13 758.81 
1964 758.29 759.10 758.81 
1965 758.67 759.12 758.81 
1966 758.59 759.11 758.81 
1967 758.63 759.13 758.81 
1968 758.47 759.11 758.81 
1969 758.59 759.13 758.81 
1970 758.50 759.09 758.81 
1971 758.51 759.07 758.81 
1972 758.17 759.11 758.81 
1973 758.54 759.07 758.81 
1974 758.55 759.13 758.81 
1975 758.46 759.13 758.81 
1976 758.55 759.11 758.81 
1977 758.80 759.09 758.81 
1978 758.38 759.14 758.81 
1979 758.59 759.10 758.81 
1980 758.55 759.14 758.81 
1981 758.09 759.13 758.81 
1982 758.72 759.14 758.81 
1983 758.34 759.10 758.81 
1984 758.59 759.13 758.81 
1985 758.47 759.12 758.81 
1986 758.13 759.12 758.81 
1987 758.51 759.14 758.81 
1988 758.42 759.12 758.81 
1989 758.18 755.15 758.81 
1990 758.51 759.15 758.81 
1991 758.72 759.13 758.81 
1992 758.72 759.15 758.81 
1993 758.39 759.11 758.81 
1994 758.46 759.16 758.81 
1995 758.26 759.14 758.81 
1996 758.76 759.13 758.81 
1997 758.51 759.12 758.81 
1998 758.55 759.10 758.81 
1999 758.39 759.12 758.81 
2000 758.51 759.14 758.81 
2001 758.51 759.13 758.81 
2002 758.68 759.15 758.81 
2003 758.68 759.12 758.81 
2004 758.47 759.13 758.81 
2005 758.72 759.12 758.81 
2006 758.39 759.12 758.81 
2007 758.38 759.13 758.81 
2008 758.47 759.14 758.81 
2009 758.34 759.15 758.81 
2010 758.80 759.14 758.81 
2011 758.13 759.13 758.81 
2012 758.59 759.13 758.81 
2013 758.06 759.12 758.81 
2014 758.51 759.12 758.81 
2015 758.64 759.13 758.81 
2016 758.30 759.15 758.81 
2017 758.22 759.08 758.81 
2018 758.51 759.14 758.81 
2019 758.43 759.13 758.81 
2020 758.76 759.12 758.81 
2021 758.68 759.12 758.81 
2022 758.43 759.13 758.81 
2023 758.43 759.13 758.81 
2024 758.39 759.15 758.81 
2025 758.55 759.14 758.81 
2026 758.56 759.16 758.81 
2027 758.60 759.13 758.81 
2028 758.68 759.13 758.81 
2029 758.09 759.15 758.81 
2030 758.17 759.11 758.81 
2031 758.22 759.13 758.81 
2032 758.22 759.11 758.81 
2033 758.13 759.13 758.81 
2034 758.22 759.14 758.81 
2035 758.05 759.11 758.81 
2036 758.39 759.13 758.81 
2037 758.55 759.12 758.81 
2038 758.13 759.11 758.81 
2039 758.55 759.10 758.81 
2040 758.43 759.13 758.81 
2041 758.47 759.18 758.81 
2042 758.51 755.14 758.81 
2043 758.34 759.12 758.81 
2044 758.68 759.12 758.81 
2045 758.22 759.15 758.81 
2046 758.39 759.12 758.81 
2047 758.38 759.10 758.81 
2048 758.51 759.13 758.81 
2049 758.46 759.09 758.81 
2050 758.59 759.12 758.81 
2051 758.30 759.17 758.81 
2052 758.17 759.11 758.81 
2053 758.38 759.11 758.81 
2054 758.72 759.15 758.81 
2055 758.35 759.17 758.81 
2056 758.34 759.12 758.81 
2057 758.22 759.13 758.81 
2058 758.68 759.13 758.81 
2059 758.47 759.13 758.81 
2060 758.34 759.11 758.81 
2061 758.47 759.10 758.81 
2062 758.59 759.10 758.81 
2063 758.43 759.13 758.81 
2064 758.51 759.07 758.81 
2065 758.64 759.13 758.81 
2066 758.14 759.13 758.81 
2067 758.43 759.12 758.81 
2068 758.38 759.15 758.81 
2069 758.43 759.12 758.81 
2070 758.34 759.12 758.81 
2071 758.47 759.11 758.81 
2072 758.42 759.10 758.81 
2073 758.67 759.13 758.81 
2074 758.42 759.11 758.81 
2075 758.13 759.11 758.81 
2076 758.63 759.13 758.81 
2077 758.80 759.08 758.81 
2078 758.09 759.10 758.81 
2079 758.21 759.10 758.81 
2080 758.34 759.07 758.81 
2081 758.00 759.09 758.81 
2082 758.42 759.12 758.81 
2083 758.17 759.12 758.81 
2084 758.55 759.09 758.81 
2085 757.84 759.10 758.81 
2086 758.43 759.08 758.81 
2087 757.96 759.13 758.81 
2088 758.38 759.10 758.81 
2089 758.54 759.09 758.81 
2090 758.21 759.07 758.81 
2091 758.25 759.11 758.81 
2092 758.33 759.13 758.81 
2093 758.45 759.09 758.81 
2094 758.54 759.11 758.81 
2095 758.08 759.11 758.81 
2096 758.34 759.10 758.81 
2097 758.80 759.10 758.81 
2098 758.17 759.11 758.81 
2099 758.21 759.11 758.81 
2100 758.54 759.10 758.81 
2101 758.04 759.07 758.81 
2102 758.50 759.09 758.81 
2103 758.51 759.11 758.81 
2104 758.38 759.09 758.81 
2105 758.50 759.12 758.81 
2106 758.46 759.08 758.81 
2107 758.34 759.16 758.81 
2108 758.16 759.12 758.81 
2109 758.51 759.12 758.81 
2110 758.34 759.08 758.81 
2111 758.42 759.10 758.81 
2112 758.59 759.08 758.81 
2113 758.47 759.10 758.81 
2114 758.39 759.13 758.81 
2115 758.42 759.12 758.81 
2116 758.30 759.12 758.81 
2117 758.51 759.11 758.81 
2118 758.42 759.14 758.81 
2119 758.13 759.12 758.81 
2120 758.42 759.11 758.81 
2121 758.30 759.11 758.81 
2122 758.26 759.11 758.81 
2123 758.55 759.12 758.81 
2124 758.26 759.14 758.81 
2125 758.39 759.13 758.81 
2126 758.55 759.13 758.81 
2127 758.51 759.13 758.81 
2128 758.55 759.12 758.81 
2129 758.30 759.11 758.81 
2130 758.55 759.14 758.81 
2131 758.38 759.11 758.81 
2132 758.26 759.13 758.81 
2133 758.72 759.15 758.81 
2134 758.51 759.10 758.81 
2135 758.34 759.12 758.81 
2136 758.51 759.12 758.81 
2137 758.47 759.11 758.81 
2138 758.34 759.15 758.81 
2139 758.38 759.13 758.81 
2140 758.81 759.13 758.81 
2141 758.80 759.14 758.81 
2142 758.51 759.09 758.81 
2143 758.55 759.14 758.81 
2144 758.26 759.13 758.81 
2145 758.72 755.11 758.81 
2146 758.25 759.12 758.81 
2147 758.42 759.12 758.81 
2148 758.76 759.14 758.81 
2149 758.38 759.13 758.81 
2150 758.39 759.18 758.81 
2151 758.26 759.13 758.81 
2152 758.51 759.12 758.81 
2153 758.68 759.14 758.81 
2154 758.55 759.12 758.81 
2155 758.26 759.16 758.81 
2156 758.26 759.16 758.81 
2157 758.60 759.14 758.81 
2158 758.27 759.17 758.81 
2159 758.64 759.11 758.81 
2160 758.51 759.10 758.81 
2161 758.43 759.11 758.81 
2162 758.51 759.13 758.81 
2163 758.59 759.13 758.81 
2164 758.42 759.13 758.81 
2165 758.46 759.13 758.81 
2166 758.38 759.09 758.81 
2167 758.50 759.14 758.81 
2168 758.18 755.13 758.81 
2169 758.29 759.13 758.81 
2170 758.13 759.12 758.81 
2171 758.42 759.11 758.81 
2172 758.38 759.14 758.81 
2173 758.38 759.13 758.81 
2174 758.42 759.13 758.81 
2175 758.72 759.14 758.81 
2176 758.42 759.11 758.81 
2177 758.38 759.12 758.81 
2178 758.18 759.14 758.81 
2179 758.35 759.12 758.81 
2180 758.47 759.11 758.81 
2181 758.47 759.11 758.81 
2182 758.55 759.09 758.81 
2183 758.50 759.13 758.81 
2184 758.38 759.12 758.81 
2185 758.25 759.14 758.81 
2186 758.59 759.14 758.81 
2187 758.63 759.13 758.81 
2188 758.09 759.14 758.81 
2189 758.34 759.10 758.81 
2190 758.38 759.15 758.81 
2191 758.30 759.14 758.81 
2192 758.42 759.13 758.81 
2193 758.17 759.12 758.81 
2194 758.26 759.12 758.81 
2195 758.04 759.10 758.81 
2196 758.76 759.12 758.81 
2197 758.55 759.13 758.81 
2198 758.55 759.14 758.81 
2199 758.46 759.11 758.81 
2200 758.46 759.12 758.81 
2201 758.51 759.14 758.81 
2202 758.51 759.12 758.81 
2203 758.22 759.13 758.81 
2204 758.00 759.13 758.81 
2205 758.21 759.16 758.81 
2206 758.55 759.13 758.81 
2207 758.38 759.12 758.81 
2208 758.21 759.13 758.81 
2209 758.13 759.14 758.81 
2210 758.43 759.12 758.81 
2211 758.38 755.12 758.81 
2212 758.42 759.14 758.81 
2213 758.26 759.14 758.81 
2214 758.38 759.12 758.81 
2215 758.18 759.09 758.81 
2216 758.68 759.16 758.81 
2217 758.59 759.17 758.81 
2218 758.63 759.13 758.81 
2219 758.76 759.13 758.81 
2220 758.35 759.13 758.81 
2221 758.38 759.13 758.81 
2222 758.25 759.15 758.81 
2223 758.13 759.16 758.81 
2224 758.68 759.14 758.81 
2225 758.47 759.10 758.81 
2226 758.42 759.14 758.81 
2227 758.38 759.15 758.81 
2228 758.26 759.15 758.81 
2229 758.42 759.12 758.81 
2230 758.34 759.13 758.81 
2231 758.17 759.12 758.81 
2232 758.30 759.11 758.81 
2233 758.34 759.12 758.81 
2234 758.09 759.14 758.81 
2235 758.60 759.13 758.81 
2236 758.43 759.13 758.81 
2237 758.56 759.14 758.81 
2238 758.47 759.14 758.81 
2239 758.67 759.14 758.81 
2240 758.64 759.11 758.81 
2241 758.30 759.13 758.81 
2242 758.34 759.12 758.81 
2243 758.60 759.14 758.81 
2244 758.18 759.15 758.81 
2245 758.55 759.12 758.81 
2246 758.47 759.11 758.81 
2247 758.47 759.13 758.81 
2248 758.43 759.14 758.81 
2249 758.38 759.12 758.81 
2250 758.51 759.12 758.81 
2251 758.39 759.15 758.81 
2252 758.42 759.15 758.81 
2253 758.30 759.10 758.81 
2254 758.55 759.13 758.81 
2255 758.51 759.13 758.81 
2256 758.76 759.12 758.81 
2257 758.43 759.14 758.81 
2258 758.30 759.16 758.81 
2259 758.59 759.11 758.81 
2260 758.39 759.10 758.81 
2261 758.72 759.11 758.81 
2262 758.26 759.10 758.81 
2263 758.30 759.13 758.81 
2264 758.38 759.11 758.81 
2265 758.17 755.11 758.81 
2266 758.34 759.12 758.81 
2267 758.84 759.12 758.81 
2268 758.26 759.09 758.84 
2269 758.55 759.13 758.84 
2270 758.43 759.10 758.84 
2271 758.59 759.11 758.84 
2272 758.35 759.11 758.84 
2273 758.39 759.12 758.84 
2274 757.97 759.11 758.84 
2275 758.64 759.14 758.84 
2276 758.22 759.10 758.84 
2277 758.17 759.12 758.84 
2278 758.34 759.13 758.84 
2279 758.76 759.11 758.84 
2280 758.30 759.12 758.84 
2281 758.30 759.14 758.84 
2282 758.55 759.16 758.84 
2283 758.59 759.11 758.84 
2284 758.34 759.14 758.84 
2285 758.26 759.12 758.84 
2286 758.46 759.09 758.84 
2287 758.55 759.14 758.84 
2288 758.38 759.14 758.84 
2289 758.67 759.11 758.84 
2290 758.13 759.09 758.84 
2291 758.25 759.14 758.84 
2292 758.46 759.10 758.84 
2293 758.63 759.13 758.84 
2294 758.67 759.10 758.84 
2295 758.17 759.11 758.84 
2296 758.30 759.12 758.84 
2297 758.30 759.12 758.84 
2298 757.93 759.10 758.84 
2299 758.63 759.15 758.84 
2300 758.60 759.13 758.84 
2301 758.34 759.09 758.84 
2302 758.42 759.09 758.84 
2303 758.25 759.09 758.84 
2304 758.38 759.12 758.84 
2305 758.29 759.11 758.84 
2306 758.67 759.10 758.84 
2307 758.43 759.07 758.84 
2308 758.76 759.11 758.84 
2309 758.30 759.08 758.84 
2310 758.17 759.11 758.84 
2311 758.38 759.10 758.84 
2312 758.42 759.11 758.84 
2313 758.59 759.10 758.84 
2314 758.42 759.10 758.84 
2315 758.54 759.08 758.84 
2316 758.67 759.10 758.84 
2317 758.50 759.16 758.84 
2318 758.88 759.11 758.84 
2319 758.68 759.12 758.88 
2320 758.38 759.12 758.88 
2321 758.76 759.11 758.88 
2322 758.76 759.10 758.88 
2323 758.55 759.13 758.88 
2324 758.38 759.08 758.88 
2325 758.67 759.12 758.88 
2326 758.63 759.12 758.88 
2327 758.51 759.13 758.88 
2328 758.55 759.15 758.88 
2329 758.42 759.12 758.88 
2330 758.46 759.14 758.88 
2331 758.63 759.14 758.88 
2332 758.59 759.13 758.88 
2333 758.38 759.16 758.88 
2334 758.50 759.10 758.88 
2335 758.59 759.11 758.88 
2336 758.30 759.13 758.88 
2337 758.34 759.12 758.88 
2338 758.59 759.13 758.88 
2339 758.39 759.14 758.88 
2340 758.47 759.12 758.88 
2341 758.60 759.10 758.88 
2342 758.34 759.13 758.88 
2343 758.64 759.14 758.88 
2344 758.55 759.15 758.88 
2345 758.43 759.12 758.88 
2346 758.51 759.12 758.88 
2347 758.68 759.14 758.88 
2348 758.56 759.10 758.88 
2349 758.51 759.14 758.88 
2350 758.42 759.14 758.88 
2351 758.72 759.16 758.88 
2352 758.60 759.07 758.88 
2353 758.55 759.13 758.88 
2354 758.34 759.13 758.88 
2355 758.60 759.08 758.88 
2356 758.34 759.11 758.88 
2357 758.51 759.09 758.88 
2358 758.22 759.14 758.88 
2359 758.47 755.14 758.88 
2360 758.34 759.11 758.88 
2361 758.64 759.11 758.88 
2362 758.55 759.13 758.88 
2363 758.42 759.11 758.88 
2364 758.63 755.11 758.88 
2365 758.59 759.14 758.88 
2366 758.72 759.15 758.88 
2367 758.05 759.16 758.88 
2368 758.26 759.15 758.88 
2369 758.43 759.14 758.88 
2370 758.21 759.13 758.88 
2371 758.46 759.13 758.88 
2372 758.25 759.15 758.88 
2373 758.00 759.14 758.88 
2374 758.13 759.11 758.88 
2375 758.25 759.10 758.88 
2376 758.58 759.13 758.88 
2377 758.67 759.10 758.88 
2378 758.33 759.15 758.88 
2379 758.18 759.14 758.88 
2380 758.72 759.12 758.88 
2381 758.68 759.10 758.88 
2382 758.60 759.12 758.88 
2383 758.71 759.12 758.88 
2384 758.26 759.11 758.88 
2385 758.63 759.12 758.88 
2386 758.51 759.11 758.88 
2387 758.55 759.13 758.88 
2388 758.63 759.12 758.88 
2389 756.87 759.10 758.88 
2390 758.38 759.07 758.88 
2391 758.55 759.11 758.88 
2392 758.38 759.13 758.88 
2393 758.50 759.10 758.88 
2394 758.55 759.12 758.88 
2395 758.67 759.14 758.88 
2396 758.34 759.14 758.88 
2397 758.67 759.11 758.88 
2398 758.67 759.11 758.88 
2399 758.72 759.11 758.88 
2400 758.46 759.11 758.88 
2401 758.50 759.10 758.88 
2402 758.42 759.14 758.88 
2403 758.63 759.09 758.88 
2404 758.50 759.10 758.88 
2405 758.13 759.10 758.88 
2406 758.59 759.11 758.88 
2407 758.67 759.10 758.88 
2408 758.55 759.09 758.88 
2409 758.59 759.11 758.88 
2410 758.67 759.13 758.88 
2411 758.50 759.12 758.88 
2412 758.33 759.10 758.88 
2413 758.45 759.10 758.88 
2414 758.45 759.12 758.88 
2415 758.62 759.13 758.88 
2416 758.29 759.08 758.88 
2417 758.62 759.11 758.88 
2418 758.21 759.12 758.88 
2419 758.08 759.14 758.88 
2420 758.37 759.07 758.88 
2421 758.29 759.10 758.88 
2422 758.67 759.10 758.88 
2423 758.41 759.13 758.88 
2424 758.26 759.10 758.88 
2425 758.47 759.13 758.88 
2426 758.46 759.13 758.88 
2427 758.80 759.10 758.88 
2428 758.50 759.10 758.88 
2429 758.54 755.11 758.88 
2430 758.25 759.10 758.88 
2431 758.67 759.07 758.88 
2432 758.29 759.09 758.88 
2433 758.71 759.05 758.88 
2434 758.46 759.10 758.88 
2435 758.42 759.08 758.88 
2436 758.29 759.10 758.88 
2437 758.17 759.09 758.88 
2438 758.67 759.13 758.88 
2439 758.33 759.11 758.88 
2440 758.75 759.12 758.88 
2441 758.68 759.09 758.88 
2442 758.50 759.11 758.88 
2443 758.71 759.13 758.88 
2444 758.72 759.10 758.88 
2445 758.71 759.12 758.88 
2446 758.64 759.10 758.88 
2447 758.46 759.11 758.88 
2448 758.50 759.11 758.88 
2449 758.71 759.11 758.88 
2450 758.59 759.10 758.88 
2451 758.80 759.15 758.88 
2452 758.67 759.13 758.88 
2453 758.42 759.10 758.88 
2454 758.51 759.12 758.88 
2455 758.55 759.10 758.88 
2456 758.42 759.10 758.88 
2457 758.34 759.14 758.88 
2458 758.46 759.11 758.88 
2459 758.54 759.13 758.88 
2460 758.42 759.14 758.88 
2461 758.59 759.12 758.88 
2462 758.64 759.11 758.88 
2463 758.63 759.13 758.88 
2464 758.18 759.15 758.88 
2465 757.92 759.12 758.88 
2466 758.72 759.13 758.88 
2467 758.47 759.12 758.88 
2468 758.55 759.11 758.88 
2469 758.21 759.11 758.88 
2470 758.38 759.11 758.88 
2471 758.37 759.14 758.88 
2472 758.13 759.13 758.88 
2473 758.22 759.12 758.88 
2474 758.59 759.14 758.88 
2475 758.55 759.10 758.88 
2476 758.63 759.16 758.88 
2477 758.59 759.10 758.88 
2478 758.68 759.10 758.88 
2479 758.63 759.13 758.88 
2480 758.42 759.09 758.88 
2481 758.55 759.12 758.88 
2482 758.13 759.10 758.88 
2483 758.30 759.09 758.88 
2484 758.38 759.15 758.88 
2485 758.59 759.12 758.88 
2486 757.67 759.14 758.88 
2487 758.47 759.13 758.88 
2488 758.55 759.12 758.88 
2489 758.64 759.12 758.88 
2490 758.25 759.07 758.88 
2491 758.59 759.11 758.88 
2492 758.46 759.11 758.88 
2493 758.38 759.08 758.88 
2494 758.46 759.08 758.88 
2495 758.12 759.06 758.88 
2496 758.41 759.12 758.88 
2497 758.49 759.08 758.88 
2498 758.33 759.08 758.88 
2499 758.54 759.10 758.88 
2500 758.50 759.10 758.88 
2501 758.67 759.10 758.88 
2502 758.16 759.09 758.88 
2503 758.50 759.08 758.88 
2504 758.50 759.12 758.88 
2505 758.42 759.12 758.88 
2506 758.79 759.14 758.88 
2507 758.59 759.10 758.88 
2508 758.51 759.11 758.88 
2509 758.50 759.09 758.88 
2510 758.51 759.11 758.88 
2511 758.76 759.09 758.88 
2512 758.42 759.14 758.88 
2513 758.71 759.12 758.88 
2514 758.63 759.10 758.88 
2515 758.72 759.12 758.88 
2516 758.51 759.11 758.88 
2517 758.84 759.11 758.88 
2518 758.38 759.12 758.88 
2519 758.21 759.14 758.88 
2520 758.59 759.10 758.88 
2521 758.47 759.13 758.88 
2522 758.68 759.13 758.88 
2523 758.55 759.12 758.88 
2524 758.63 759.09 758.88 
2525 758.55 759.15 758.88 
2526 758.43 759.13 758.88 
2527 758.51 759.15 758.88 
2528 758.22 759.12 758.88 
2529 758.43 759.11 758.88 
2530 758.26 759.15 758.88 
2531 758.80 759.13 758.88 
2532 758.34 759.12 758.88 
2533 758.67 759.14 758.88 
2534 758.80 759.12 758.88 
2535 758.80 759.12 758.88 
2536 758.60 759.14 758.88 
2537 758.59 759.15 758.88 
2538 758.59 755.09 758.88 
2539 758.76 759.11 758.88 
2540 758.22 759.12 758.88 
2541 758.26 759.15 758.88 
2542 758.59 759.13 758.88 
2543 758.59 759.13 758.88 
2544 758.51 759.11 758.88 
2545 758.63 759.14 758.88 
2546 758.25 759.13 758.88 
2547 758.55 759.14 758.88 
2548 758.51 759.13 758.88 
2549 758.60 759.11 758.88 
2550 758.47 759.15 758.88 
2551 758.42 759.13 758.88 
2552 758.47 759.15 758.88 
2553 758.81 759.14 758.88 
2554 758.55 759.12 758.88 
2555 758.68 759.14 758.88 
2556 758.51 759.13 758.88 
2557 758.51 759.13 758.88 
2558 758.59 759.14 758.88 
2559 758.51 759.11 758.88 
2560 758.63 759.15 758.88 
2561 758.64 759.12 758.88 
2562 758.55 759.16 758.88 
2563 758.43 759.14 758.88 
2564 758.51 759.09 758.88 
2565 758.51 759.13 758.88 
2566 758.34 759.14 758.88 
2567 758.39 759.13 758.88 
2568 758.64 759.12 758.88 
2569 758.47 759.14 758.88 
2570 758.60 759.15 758.88 
2571 758.76 759.13 758.88 
2572 758.47 759.13 758.88 
2573 758.51 759.17 758.88 
2574 758.43 759.13 758.88 
2575 758.60 759.14 758.88 
2576 758.59 759.12 758.88 
2577 758.55 759.12 758.88 
2578 758.72 759.14 758.88 
2579 757.97 759.11 758.88 
2580 758.47 759.14 758.88 
2581 758.64 759.11 758.88 
2582 758.84 759.13 758.88 
2583 758.30 759.11 758.88 
2584 758.56 759.12 758.88 
2585 758.47 759.15 758.88 
2586 758.55 759.14 758.88 
2587 758.59 759.11 758.88 
2588 758.42 759.13 758.88 
2589 758.18 759.12 758.88 
2590 758.43 759.14 758.88 
2591 758.68 759.14 758.88 
2592 758.64 759.14 758.88 
2593 758.35 759.15 758.88 
2594 758.76 759.13 758.88 
2595 758.47 759.14 758.88 
2596 758.72 759.14 758.88 
2597 758.77 759.13 758.88 
2598 758.43 759.13 758.88 
2599 758.51 759.14 758.88 
2600 758.14 759.14 758.88 
2601 758.68 759.13 758.88 
2602 758.43 759.14 758.88 
2603 758.13 759.14 758.88 
2604 758.38 759.10 758.88 
2605 758.22 759.16 758.88 
2606 758.56 759.14 758.88 
2607 758.48 759.13 758.88 
2608 758.56 759.12 758.88 
2609 758.59 759.09 758.88 
2610 758.55 759.13 758.88 
2611 758.47 759.12 758.88 
2612 758.60 759.13 758.88 
2613 758.64 759.12 758.88 
2614 758.55 759.13 758.88 
2615 758.47 759.12 758.88 
2616 758.26 759.11 758.88 
2617 758.60 759.14 758.88 
2618 758.47 759.14 758.88 
2619 758.22 759.11 758.88 
2620 758.38 759.14 758.88 
2621 758.34 759.12 758.88 
2622 758.38 759.14 758.88 
2623 758.67 759.13 758.88 
2624 758.60 759.13 758.88 
2625 758.55 759.13 758.88 
2626 758.39 759.13 758.88 
2627 758.52 759.15 758.88 
2628 758.14 759.16 758.88 
2629 758.43 759.13 758.88 
2630 758.26 759.13 758.88 
2631 758.38 759.11 758.88 
2632 758.51 759.13 758.88 
2633 758.72 759.11 758.88 
2634 758.42 759.13 758.88 
2635 758.72 759.13 758.88 
2636 758.47 759.13 758.88 
2637 758.81 759.11 758.88 
2638 758.80 759.12 758.88 
2639 758.43 759.18 758.88 
2640 758.73 759.12 758.88 
2641 758.47 759.14 758.88 
2642 758.31 759.13 758.88 
2643 758.60 759.11 758.88 
2644 758.68 759.14 758.88 
2645 758.47 759.16 758.88 
2646 758.43 759.14 758.88 
2647 758.64 759.15 758.88 
2648 758.55 759.13 758.88 
2649 758.55 759.12 758.88 
2650 758.55 759.15 758.88 
2651 758.60 759.14 758.88 
2652 758.68 759.13 758.88 
2653 758.43 759.14 758.88 
2654 758.77 759.16 758.88 
2655 758.60 759.15 758.88 
2656 758.55 759.12 758.88 
2657 758.34 759.15 758.88 
2658 758.18 759.16 758.88 
2659 758.26 759.12 758.88 
2660 758.55 759.09 758.88 
2661 758.43 759.15 758.88 
2662 758.47 759.15 758.88 
2663 758.55 759.13 758.88 
2664 758.68 759.14 758.88 
2665 758.43 759.12 758.88 
2666 758.60 759.12 758.88 
2667 758.85 759.13 758.88 
2668 758.30 759.13 758.88 
2669 758.64 759.14 758.88 
2670 758.56 759.12 758.88 
2671 758.55 759.15 758.88 
2672 758.55 759.15 758.88 
2673 758.72 759.14 758.88 
2674 758.59 759.14 758.88 
2675 758.63 759.12 758.88 
2676 758.51 759.11 758.88 
2677 758.30 759.10 758.88 
2678 758.67 759.09 758.88 
2679 758.42 759.13 758.88 
2680 758.51 759.11 758.88 
2681 758.72 759.13 758.88 
2682 758.80 759.12 758.88 
2683 758.47 759.12 758.88 
2684 758.43 759.11 758.88 
2685 758.34 759.11 758.88 
2686 758.55 759.11 758.88 
2687 758.80 759.11 758.88 
2688 758.55 759.12 758.88 
2689 758.72 759.09 758.88 
2690 758.63 759.13 758.88 
2691 758.55 759.10 758.88 
2692 758.72 759.13 758.88 
2693 758.47 759.14 758.88 
2694 758.51 759.12 758.88 
2695 758.68 759.16 758.88 
2696 758.47 759.11 758.88 
2697 758.72 759.14 758.88 
2698 758.43 759.13 758.88 
2699 758.47 759.10 758.88 
2700 758.26 759.11 758.88 
2701 758.59 759.12 758.88 
2702 758.77 759.12 758.88 
2703 758.38 759.14 758.88 
2704 758.60 759.11 758.88 
2705 758.55 759.14 758.88 
2706 758.22 759.10 758.88 
2707 758.72 759.12 758.88 
2708 758.34 759.12 758.88 
2709 758.63 759.12 758.88 
2710 758.55 759.14 758.88 
2711 758.64 759.12 758.88 
2712 758.72 759.15 758.88 
2713 758.76 759.15 758.88 
2714 758.64 759.14 758.88 
2715 758.68 759.14 758.88 
2716 758.81 759.15 758.88 
2717 758.60 759.14 758.88 
2718 758.72 759.14 758.88 
2719 758.55 759.14 758.88 
2720 758.68 759.12 758.88 
2721 758.31 759.14 758.88 
2722 758.59 759.13 758.88 
2723 758.55 759.12 758.88 
2724 758.39 759.11 758.88 
2725 758.60 759.11 758.88 
2726 758.51 759.11 758.88 
2727 758.56 759.14 758.88 
2728 758.30 759.13 758.88 
2729 758.59 759.11 758.88 
2730 758.68 759.14 758.88 
2731 758.47 759.13 758.88 
2732 758.81 759.14 758.88 
2733 758.39 759.12 758.88 
2734 758.51 759.11 758.88 
2735 758.26 759.14 758.88 
2736 758.81 759.11 758.88 
2737 758.43 759.12 758.88 
2738 758.76 759.11 758.88 
2739 758.68 759.13 758.88 
2740 758.64 759.14 758.88 
2741 758.31 759.09 758.88 
2742 758.47 759.12 758.88 
2743 758.51 759.14 758.88 
2744 758.68 759.14 758.88 
2745 758.60 759.14 758.88 
2746 758.68 759.12 758.88 
2747 758.22 759.12 758.88 
2748 758.64 759.11 758.88 
2749 758.84 759.11 758.88 
2750 758.31 759.14 758.88 
2751 758.60 759.13 758.88 
2752 758.52 759.14 758.88 
2753 758.51 759.12 758.88 
2754 758.30 759.12 758.88 
2755 758.55 759.11 758.88 
2756 758.63 759.13 758.88 
2757 758.76 759.14 758.88 
2758 758.42 759.11 758.88 
2759 758.72 759.13 758.88 
2760 758.68 759.12 758.88 
2761 758.80 759.13 758.88 
2762 758.55 759.12 758.88 
2763 758.68 759.11 758.88 
2764 758.59 759.12 758.88 
2765 758.81 759.11 758.88 
2766 758.64 759.12 758.88 
2767 758.63 759.11 758.88 
2768 758.68 759.14 758.88 
2769 758.55 759.12 758.88 
2770 758.72 759.13 758.88 
2771 758.56 759.15 758.88 
2772 758.80 759.11 758.88 
2773 758.42 759.13 758.88 
2774 758.84 759.12 758.88 
2775 758.72 759.12 758.88 
2776 758.55 759.12 758.88 
2777 758.63 759.11 758.88 
2778 758.56 759.13 758.88 
2779 758.47 759.14 758.88 
2780 758.55 759.12 758.88 
2781 758.46 759.14 758.88 
2782 758.71 759.15 758.88 
2783 758.34 759.13 758.88 
2784 758.38 759.12 758.88 
2785 758.46 759.13 758.88 
2786 758.50 759.10 758.88 
2787 758.55 759.13 758.88 
2788 758.21 759.13 758.88 
2789 758.88 759.10 758.88 
2790 758.46 759.15 758.88 
2791 758.54 759.12 758.88 
2792 758.42 759.10 758.88 
2793 758.62 759.15 758.88 
2794 758.51 759.11 758.88 
2795 758.30 759.14 758.88 
2796 758.38 755.09 758.88 
2797 758.62 759.12 758.88 
2798 758.71 759.09 758.88 
2799 758.67 759.11 758.88 
2800 758.87 759.08 758.88 
2801 758.45 759.15 758.88 
2802 758.54 759.09 758.88 
2803 758.71 759.10 758.88 
2804 758.63 759.10 758.88 
2805 758.51 759.09 758.88 
2806 758.54 759.10 758.88 
2807 758.25 759.14 758.88 
2808 758.63 759.12 758.88 
2809 758.63 759.13 758.88 
2810 758.63 759.10 758.88 
2811 758.50 759.12 758.88 
2812 758.67 759.10 758.88 
2813 758.38 759.11 758.88 
2814 758.72 759.09 758.88 
2815 758.34 759.11 758.88 
2816 758.67 759.12 758.88 
2817 758.13 759.12 758.88 
2818 758.46 759.11 758.88 
2819 758.67 759.12 758.88 
2820 758.42 759.09 758.88 
2821 758.67 759.12 758.88 
2822 758.51 759.10 758.88 
2823 758.67 759.12 758.88 
2824 758.41 759.11 758.88 
2825 758.80 759.15 758.88 
2826 758.54 759.12 758.88 
2827 758.72 759.12 758.88 
2828 758.63 759.11 758.88 
2829 758.59 759.10 758.88 
2830 758.59 759.10 758.88 
2831 758.75 759.11 758.88 
2832 758.47 759.10 758.88 
2833 758.17 759.10 758.88 
2834 758.84 759.12 758.88 
2835 758.84 759.11 758.88 
2836 758.67 759.15 758.88 
2837 758.34 755.11 758.88 
2838 758.67 759.13 758.88 
2839 758.71 759.12 758.88 
2840 758.55 759.14 758.88 
2841 758.63 759.14 758.88 
2842 758.68 759.11 758.88 
2843 758.80 759.12 758.88 
2844 758.63 759.11 758.88 
2845 758.59 759.10 758.88 
2846 758.25 759.12 758.88 
2847 758.50 759.12 758.88 
2848 758.50 759.11 758.88 
2849 758.76 759.14 758.88 
2850 758.46 759.12 758.88 
2851 758.75 759.14 758.88 
2852 758.46 759.11 758.88 
2853 758.42 759.11 758.88 
2854 758.54 759.13 758.88 
2855 758.54 759.14 758.88 
2856 758.67 759.12 758.88 
2857 758.59 759.13 758.88 
2858 758.46 759.09 758.88 
2859 758.67 759.13 758.88 
2860 758.50 759.16 758.88 
2861 758.55 759.15 758.88 
2862 758.46 759.12 758.88 
2863 758.67 759.11 758.88 
2864 758.75 759.10 758.88 
2865 758.68 759.12 758.88 
2866 758.62 759.11 758.88 
2867 758.63 759.13 758.88 
2868 758.33 759.14 758.88 
2869 758.88 759.13 758.88 
2870 758.33 759.14 758.88 
2871 758.42 759.11 758.88 
2872 758.46 759.11 758.88 
2873 758.54 759.10 758.88 
2874 758.25 759.12 758.88 
2875 758.38 759.08 758.88 
2876 758.75 759.12 758.88 
2877 758.38 759.10 758.88 
2878 758.51 759.13 758.88 
2879 758.67 759.12 758.88 
2880 758.76 759.11 758.88 
2881 758.63 759.11 758.88 
2882 758.75 759.10 758.88 
2883 758.67 759.12 758.88 
2884 758.63 759.13 758.88 
2885 758.75 759.09 758.88 
2886 758.70 759.09 758.88 
2887 758.41 759.09 758.88 
2888 758.53 759.07 758.88 
2889 758.27 759.09 758.88 
2890 758.41 755.08 758.88 
2891 758.33 759.08 758.88 
2892 758.20 759.12 758.88 
2893 758.66 759.09 758.88 
2894 758.42 759.08 758.88 
2895 758.42 759.08 758.88 
2896 758.62 759.07 758.88 
2897 758.50 759.11 758.88 
2898 758.75 759.12 758.88 
2899 758.33 759.11 758.88 
2900 758.63 759.12 758.88 
2901 758.71 759.10 758.88 
2902 758.67 759.10 758.88 
2903 758.55 759.09 758.88 
2904 758.63 759.09 758.88 
2905 758.54 759.13 758.88 
2906 758.71 759.12 758.88 
2907 758.38 759.12 758.88 
2908 758.09 759.11 758.88 
2909 758.47 759.13 758.88 
2910 758.79 759.11 758.88 
2911 758.51 759.11 758.88 
2912 758.67 759.12 758.88 
2913 758.51 759.11 758.88 
2914 758.63 759.08 758.88 
2915 758.71 759.12 758.88 
2916 758.55 759.11 758.88 
2917 758.66 759.11 758.88 
2918 758.13 759.11 758.88 
2919 758.63 759.11 758.88 
2920 758.55 759.11 758.88 
2921 758.67 759.13 758.88 
2922 758.63 759.11 758.88 
2923 758.34 759.11 758.88 
2924 758.26 759.13 758.88 
2925 758.59 759.08 758.88 
2926 758.38 759.10 758.88 
2927 758.50 759.12 758.88 
2928 758.38 759.09 758.88 
2929 758.63 759.07 758.88 
2930 758.92 759.11 758.88 
2931 758.46 759.11 758.92 
2932 758.71 759.11 758.92 
2933 758.54 759.12 758.92 
2934 758.45 759.12 758.92 
2935 758.46 759.10 758.92 
2936 758.34 759.07 758.92 
2937 758.50 759.09 758.92 
2938 758.71 759.11 758.92 
2939 758.50 759.10 758.92 
2940 758.50 759.09 758.92 
2941 758.71 759.08 758.92 
2942 758.75 759.10 758.92 
2943 758.63 759.09 758.92 
2944 758.46 759.10 758.92 
2945 758.50 759.11 758.92 
2946 758.72 759.14 758.92 
2947 758.80 759.10 758.92 
2948 758.84 759.12 758.92 
2949 758.72 759.13 758.92 
2950 758.01 759.12 758.92 
2951 758.67 759.18 758.92 
2952 758.59 759.13 758.92 
2953 758.76 759.14 758.92 
2954 758.50 759.11 758.92 
2955 758.59 759.16 758.92 
2956 758.35 759.10 758.92 
2957 758.34 759.13 758.92 
2958 758.55 759.14 758.92 
2959 758.13 759.14 758.92 
2960 758.67 759.13 758.92 
2961 758.51 759.13 758.92 
2962 758.67 759.12 758.92 
2963 758.51 759.12 758.92 
2964 758.46 759.12 758.92 
2965 758.76 759.13 758.92 
2966 758.75 759.11 758.92 
2967 758.30 759.11 758.92 
2968 758.42 759.13 758.92 
2969 758.68 759.12 758.92 
2970 758.63 759.12 758.92 
2971 758.75 759.11 758.92 
2972 758.47 759.13 758.92 
2973 758.22 755.09 758.92 
2974 758.47 759.14 758.92 
2975 758.17 759.13 758.92 
2976 758.55 759.12 758.92 
2977 758.76 759.12 758.92 
2978 758.55 759.12 758.92 
2979 758.72 759.10 758.92 
2980 758.59 759.13 758.92 
2981 758.76 759.13 758.92 
2982 758.55 759.10 758.92 
2983 758.34 759.12 758.92 
2984 758.51 759.12 758.92 
2985 758.30 759.13 758.92 
2986 758.68 759.12 758.92 
2987 758.55 759.11 758.92 
2988 758.76 759.09 758.92 
2989 758.42 759.11 758.92 
2990 758.55 759.15 758.92 
2991 758.63 759.10 758.92 
2992 758.80 759.13 758.92 
2993 758.77 759.14 758.92 
2994 758.72 759.12 758.92 
2995 758.42 759.12 758.92 
2996 758.76 759.14 758.92 
2997 758.68 759.11 758.92 
2998 758.85 759.14 758.92 
2999 758.51 759.14 758.92 
3000 758.72 759.14 758.92 
3001 758.25 759.12 758.92 
3002 758.42 759.11 758.92 
3003 758.38 759.09 758.92 
3004 758.55 759.13 758.92 
3005 758.80 759.11 758.92 
3006 758.05 759.13 758.92 
3007 758.42 759.12 758.92 
3008 758.55 759.14 758.92 
3009 758.63 759.12 758.92 
3010 758.46 759.12 758.92 
3011 758.34 759.13 758.92 
3012 758.38 759.13 758.92 
3013 758.67 759.11 758.92 
3014 758.63 759.14 758.92 
3015 758.68 759.13 758.92 
3016 758.42 759.10 758.92 
3017 758.42 759.12 758.92 
3018 758.55 759.10 758.92 
3019 757.84 759.11 758.92 
3020 758.47 759.11 758.92 
3021 758.34 759.12 758.92 
3022 758.38 759.14 758.92 
3023 758.76 759.14 758.92 
3024 758.76 759.11 758.92 
3025 758.76 759.12 758.92 
3026 758.72 759.11 758.92 
3027 758.46 755.06 758.92 
3028 758.46 759.09 758.92 
3029 758.71 759.13 758.92 
3030 758.63 759.09 758.92 
3031 758.46 759.14 758.92 
3032 758.51 759.11 758.92 
3033 758.76 759.12 758.92 
3034 758.55 759.13 758.92 
3035 758.68 759.11 758.92 
3036 758.59 759.14 758.92 
3037 758.50 759.11 758.92 
3038 758.55 759.15 758.92 
3039 758.68 759.13 758.92 
3040 758.43 759.12 758.92 
3041 758.59 759.14 758.92 
3042 758.84 759.13 758.92 
3043 758.59 759.11 758.92 
3044 758.42 759.11 758.92 
3045 758.80 759.14 758.92 
3046 758.76 759.12 758.92 
3047 758.63 759.12 758.92 
3048 758.63 751.12 758.92 
3049 758.80 759.10 758.92 
3050 758.59 759.12 758.92 
3051 758.72 759.09 758.92 
3052 758.58 759.09 758.92 
3053 758.46 759.09 758.92 
3054 758.75 759.09 758.92 
3055 758.46 759.12 758.92 
3056 758.58 759.11 758.92 
3057 758.59 759.10 758.92 
3058 758.42 759.12 758.92 
3059 758.38 759.10 758.92 
3060 758.43 759.09 758.92 
3061 758.72 759.12 758.92 
3062 758.68 759.12 758.92 
3063 758.63 759.10 758.92 
3064 758.68 759.12 758.92 
3065 758.59 759.10 758.92 
3066 758.80 759.11 758.92 
3067 758.63 759.12 758.92 
3068 758.38 759.10 758.92 
3069 758.76 759.12 758.92 
3070 758.60 759.13 758.92 
3071 758.72 759.10 758.92 
3072 758.67 759.12 758.92 
3073 758.80 759.13 758.92 
3074 758.59 759.11 758.92 
3075 758.67 759.10 758.92 
3076 758.88 759.14 758.92 
3077 758.76 759.09 758.92 
3078 758.25 759.13 758.92 
3079 758.92 759.12 758.92 
3080 758.51 759.10 758.92 
3081 758.30 759.08 758.92 
3082 758.76 759.11 758.92 
3083 758.59 759.12 758.92 
3084 758.59 759.10 758.92 
3085 758.59 759.13 758.92 
3086 758.84 759.11 758.92 
3087 758.71 759.10 758.92 
3088 758.67 759.12 758.92 
3089 758.71 759.08 758.92 
3090 758.54 759.11 758.92 
3091 758.54 759.10 758.92 
3092 758.83 759.11 758.92 
3093 758.76 759.13 758.92 
3094 758.55 759.12 758.92 
3095 758.67 759.11 758.92 
3096 758.54 759.11 758.92 
3097 758.47 759.10 758.92 
3098 758.63 759.11 758.92 
3099 758.59 759.14 758.92 
3100 758.71 759.14 758.92 
3101 758.38 759.10 758.92 
3102 758.84 759.12 758.92 
3103 758.59 759.12 758.92 
3104 758.71 759.14 758.92 
3105 758.47 759.10 758.92 
3106 758.72 759.13 758.92 
3107 758.43 759.13 758.92 
3108 758.80 759.11 758.92 
3109 758.72 759.11 758.92 
3110 758.80 759.12 758.92 
3111 758.76 759.09 758.92 
3112 758.68 759.11 758.92 
3113 758.47 759.11 758.92 
3114 758.47 759.08 758.92 
3115 758.59 759.13 758.92 
3116 758.76 759.08 758.92 
3117 758.55 759.11 758.92 
3118 758.55 759.11 758.92 
3119 758.47 759.09 758.92 
3120 758.67 759.09 758.92 
3121 758.59 759.12 758.92 
3122 758.55 759.12 758.92 
3123 758.80 759.10 758.92 
3124 758.67 759.07 758.92 
3125 758.55 759.11 758.92 
3126 758.75 759.13 758.92 
3127 758.54 759.12 758.92 
3128 758.72 759.10 758.92 
3129 758.38 759.12 758.92 
3130 758.50 759.11 758.92 
3131 758.63 759.14 758.92 
3132 758.68 759.13 758.92 
3133 758.50 759.11 758.92 
3134 758.60 759.13 758.92 
3135 758.34 759.07 758.92 
3136 758.59 759.10 758.92 
3137 758.38 759.14 758.92 
3138 758.46 759.11 758.92 
3139 758.76 759.15 758.92 
3140 758.59 759.11 758.92 
3141 758.67 759.12 758.92 
3142 758.47 759.13 758.92 
3143 758.63 759.10 758.92 
3144 758.76 759.12 758.92 
3145 758.64 759.11 758.92 
3146 758.60 759.14 758.92 
3147 758.51 759.12 758.92 
3148 758.63 759.09 758.92 
3149 758.88 759.09 758.92 
3150 758.42 759.13 758.92 
3151 758.51 759.10 758.92 
3152 759.05 759.12 758.92 
3153 758.51 759.12 759.05 
3154 758.55 759.11 759.05 
3155 758.55 759.11 759.05 
3156 758.51 759.12 759.05 
3157 758.72 759.11 759.05 
3158 758.72 759.13 759.05 
3159 758.68 759.13 759.05 
3160 758.80 759.12 759.05 
3161 758.84 759.12 759.05 
3162 758.30 759.10 759.05 
3163 758.55 759.11 759.05 
3164 758.63 759.09 759.05 
3165 758.96 759.14 759.05 
3166 758.55 759.11 759.05 
3167 758.63 759.12 759.05 
3168 758.76 759.10 759.05 
3169 758.55 759.11 759.05 
3170 758.67 759.09 759.05 
3171 758.55 759.14 759.05 
3172 758.75 759.10 759.05 
3173 758.47 759.12 759.05 
3174 758.76 759.11 759.05 
3175 758.84 759.11 759.05 
3176 758.51 759.12 759.05 
3177 758.67 759.12 759.05 
3178 758.67 759.13 759.05 
3179 758.51 759.13 759.05 
3180 758.76 759.13 759.05 
3181 758.80 759.11 759.05 
3182 758.71 759.14 759.05 
3183 758.63 759.12 759.05 
3184 758.55 759.12 759.05 
3185 758.55 759.15 759.05 
3186 758.72 759.11 759.05 
3187 758.72 759.13 759.05 
3188 758.55 759.13 759.05 
3189 758.56 759.13 759.05 
3190 758.64 759.12 759.05 
3191 758.64 759.12 759.05 
3192 758.30 759.09 759.05 
3193 758.64 759.13 759.05 
3194 758.38 759.11 759.05 
3195 758.51 759.10 759.05 
3196 758.55 759.14 759.05 
3197 758.59 759.13 759.05 
3198 758.68 759.11 759.05 
3199 758.51 759.12 759.05 
3200 758.51 759.11 759.05 
3201 758.72 759.11 759.05 
3202 758.46 759.11 759.05 
3203 758.64 759.11 759.05 
3204 758.47 755.12 759.05 
3205 758.68 759.12 759.05 
3206 758.26 759.14 759.05 
3207 758.76 759.12 759.05 
3208 758.51 759.13 759.05 
3209 758.76 759.12 759.05 
3210 758.76 759.10 759.05 
3211 758.76 759.11 759.05 
3212 758.63 759.11 759.05 
3213 758.43 759.13 759.05 
3214 758.72 759.11 759.05 
3215 758.42 759.11 759.05 
3216 758.51 759.11 759.05 
3217 758.72 759.10 759.05 
3218 758.63 759.07 759.05 
3219 758.80 759.09 759.05 
3220 758.84 759.14 759.05 
3221 758.67 759.11 759.05 
3222 758.51 755.10 759.05 
3223 758.59 755.07 759.05 
3224 758.80 759.10 759.05 
3225 758.75 759.12 759.05 
3226 758.51 759.17 759.05 
3227 758.47 759.12 759.05 
3228 758.58 759.10 759.05 
3229 758.58 759.09 759.05 
3230 758.46 759.12 759.05 
3231 758.80 759.10 759.05 
3232 758.76 759.12 759.05 
3233 758.47 759.12 759.05 
3234 758.59 759.13 759.05 
3235 758.30 759.12 759.05 
3236 758.72 759.12 759.05 
3237 758.43 759.15 759.05 
3238 758.63 759.14 759.05 
3239 758.55 759.14 759.05 
3240 758.59 759.11 759.05 
3241 758.51 759.12 759.05 
3242 758.39 759.14 759.05 
3243 758.76 759.11 759.05 
3244 758.43 759.14 759.05 
3245 758.80 759.14 759.05 
3246 758.55 759.14 759.05 
3247 758.76 759.12 759.05 
3248 758.51 759.13 759.05 
3249 758.64 759.17 759.05 
3250 758.72 759.13 759.05 
3251 758.67 759.11 759.05 
3252 758.67 759.11 759.05 
3253 758.63 759.14 759.05 
3254 758.55 759.13 759.05 
3255 758.55 759.15 759.05 
3256 758.43 759.10 759.05 
3257 758.71 759.10 759.05 
3258 758.47 759.13 759.05 
3259 758.47 759.10 759.05 
3260 758.80 759.13 759.05 
3261 758.76 759.12 759.05 
3262 758.64 759.13 759.05 
3263 758.72 759.13 759.05 
3264 758.89 759.12 759.05 
3265 758.76 759.13 759.05 
3266 758.43 759.12 759.05 
3267 758.64 759.14 759.05 
3268 758.72 759.14 759.05 
3269 758.76 759.13 759.05 
3270 758.51 759.13 759.05 
3271 758.26 759.11 759.05 
3272 758.72 759.14 759.05 
3273 758.34 759.13 759.05 
3274 758.60 759.12 759.05 
3275 758.38 759.13 759.05 
3276 758.63 759.12 759.05 
3277 758.84 759.11 759.05 
3278 758.67 759.11 759.05 
3279 758.38 759.12 759.05 
3280 758.47 759.10 759.05 
3281 758.68 759.15 759.05 
3282 758.59 759.11 759.05 
3283 758.68 759.12 759.05 
3284 758.47 759.10 759.05 
3285 758.72 759.12 759.05 
3286 758.89 759.10 759.05 
3287 758.51 759.13 759.05 
3288 758.92 759.14 759.05 
3289 758.63 759.10 759.05 
3290 758.47 759.11 759.05 
3291 758.67 759.09 759.05 
3292 758.80 759.09 759.05 
3293 758.55 759.14 759.05 
3294 758.88 759.11 759.05 
3295 758.76 759.11 759.05 
3296 758.63 759.13 759.05 
3297 758.76 759.09 759.05 
3298 758.17 759.08 759.05 
3299 758.72 759.09 759.05 
3300 758.63 759.12 759.05 
3301 758.72 759.13 759.05 
3302 758.63 759.12 759.05 
3303 758.84 759.13 759.05 
3304 758.76 759.12 759.05 
3305 758.92 759.11 759.05 
3306 758.84 759.13 759.05 
3307 758.62 759.11 759.05 
3308 758.62 759.10 759.05 
3309 758.45 759.13 759.05 
3310 758.92 759.12 759.05 
3311 758.34 759.13 759.05 
3312 758.92 759.10 759.05 
3313 758.79 759.12 759.05 
3314 758.54 759.13 759.05 
3315 758.96 759.11 759.05 
3316 758.79 759.13 759.05 
3317 758.59 759.08 759.05 
3318 758.50 759.11 759.05 
3319 758.30 759.10 759.05 
3320 758.42 759.12 759.05 
3321 758.59 759.14 759.05 
3322 758.67 759.11 759.05 
3323 758.63 759.11 759.05 
3324 758.92 759.09 759.05 
3325 758.59 759.10 759.05 
3326 758.67 759.11 759.05 
3327 758.63 759.13 759.05 
3328 758.50 759.09 759.05 
3329 758.83 759.11 759.05 
3330 758.58 759.07 759.05 
3331 758.88 759.09 759.05 
3332 758.46 759.12 759.05 
3333 758.46 759.12 759.05 
3334 758.38 759.10 759.05 
3335 758.38 759.12 759.05 
3336 758.33 759.14 759.05 
3337 758.38 759.14 759.05 
3338 758.30 759.12 759.05 
3339 758.64 759.12 759.05 
3340 758.59 759.14 759.05 
3341 758.51 759.12 759.05 
3342 758.63 759.14 759.05 
3343 758.59 759.10 759.05 
3344 758.71 759.15 759.05 
3345 758.55 759.13 759.05 
3346 758.59 759.12 759.05 
3347 758.17 759.15 759.05 
3348 758.55 759.15 759.05 
3349 758.72 759.15 759.05 
3350 758.38 759.12 759.05 
3351 758.67 759.14 759.05 
3352 758.68 759.16 759.05 
3353 758.67 759.11 759.05 
3354 758.51 759.12 759.05 
3355 758.76 759.15 759.05 
3356 758.80 759.14 759.05 
3357 758.43 759.11 759.05 
3358 758.55 759.14 759.05 
3359 758.68 759.13 759.05 
3360 758.63 759.14 759.05 
3361 758.76 759.14 759.05 
3362 758.68 759.14 759.05 
3363 758.47 759.12 759.05 
3364 758.55 759.13 759.05 
3365 758.60 759.12 759.05 
3366 758.55 759.15 759.05 
3367 758.80 759.11 759.05 
3368 758.64 759.13 759.05 
3369 758.89 759.10 759.05 
3370 758.80 759.10 759.05 
3371 758.80 759.15 759.05 
3372 758.46 759.14 759.05 
3373 758.76 759.11 759.05 
3374 758.84 759.15 759.05 
3375 758.67 759.14 759.05 
3376 758.88 759.09 759.05 
3377 758.76 759.11 759.05 
3378 758.63 759.16 759.05 
3379 758.59 759.12 759.05 
3380 758.68 759.13 759.05 
3381 758.59 759.12 759.05 
3382 758.85 759.12 759.05 
3383 758.67 759.15 759.05 
3384 758.43 759.11 759.05 
3385 758.80 759.14 759.05 
3386 758.71 759.08 759.05 
3387 758.67 759.12 759.05 
3388 758.80 759.12 759.05 
3389 758.55 759.14 759.05 
3390 758.38 759.15 759.05 
3391 758.67 759.12 759.05 
3392 758.88 759.10 759.05 
3393 758.84 759.13 759.05 
3394 758.75 759.12 759.05 
3395 758.76 759.12 759.05 
3396 758.51 759.10 759.05 
3397 758.51 759.10 759.05 
3398 758.63 759.12 759.05 
3399 758.76 759.12 759.05 
3400 758.67 759.11 759.05 
3401 758.84 759.11 759.05 
3402 758.84 759.11 759.05 
3403 758.72 759.13 759.05 
3404 758.63 759.12 759.05 
3405 758.51 759.09 759.05 
3406 758.67 759.14 759.05 
3407 758.84 759.09 759.05 
3408 758.54 759.07 759.05 
3409 758.38 759.12 759.05 
3410 758.63 759.12 759.05 
3411 758.46 759.11 759.05 
3412 758.67 759.15 759.05 
3413 758.76 759.11 759.05 
3414 758.84 759.13 759.05 
3415 758.67 759.13 759.05 
3416 758.93 759.12 759.05 
3417 758.67 759.12 759.05 
3418 758.84 759.14 759.05 
3419 758.80 759.12 759.05 
3420 758.71 759.11 759.05 
3421 758.84 759.11 759.05 
3422 758.51 759.12 759.05 
3423 758.75 759.13 759.05 
3424 758.88 759.12 759.05 
3425 758.68 759.14 759.05 
3426 758.84 755.13 759.05 
3427 758.63 759.12 759.05 
3428 758.47 759.13 759.05 
3429 758.51 759.12 759.05 
3430 758.51 759.10 759.05 
3431 758.63 759.12 759.05 
3432 758.46 759.13 759.05 
3433 758.46 759.11 759.05 
3434 758.55 759.10 759.05 
3435 758.47 759.14 759.05 
3436 758.50 759.11 759.05 
3437 758.50 759.13 759.05 
3438 758.46 759.12 759.05 
3439 758.42 759.13 759.05 
3440 758.62 759.11 759.05 
3441 758.88 759.11 759.05 
3442 758.67 759.14 759.05 
3443 758.84 759.12 759.05 
3444 758.59 759.10 759.05 
3445 758.79 759.11 759.05 
3446 758.75 759.08 759.05 
3447 758.71 759.10 759.05 
3448 758.72 759.10 759.05 
3449 758.63 759.12 759.05 
3450 758.75 759.13 759.05 
3451 758.80 759.13 759.05 
3452 758.46 759.12 759.05 
3453 758.59 759.13 759.05 
3454 758.63 759.08 759.05 
3455 758.67 759.12 759.05 
3456 758.75 759.12 759.05 
3457 758.50 759.13 759.05 
3458 758.38 759.10 759.05 
3459 758.38 759.13 759.05 
3460 758.71 759.14 759.05 
3461 758.34 759.08 759.05 
3462 758.84 759.11 759.05 
3463 758.75 759.11 759.05 
3464 758.50 759.12 759.05 
3465 758.58 759.09 759.05 
3466 758.58 759.10 759.05 
3467 758.70 759.09 759.05 
3468 758.58 759.14 759.05 
3469 758.66 759.09 759.05 
3470 758.53 759.11 759.05 
3471 758.62 759.10 759.05 
3472 758.82 759.08 759.05 
3473 758.74 759.13 759.05 
3474 758.41 759.10 759.05 
3475 758.41 759.10 759.05 
3476 758.70 759.07 759.05 
3477 758.54 759.08 759.05 
3478 758.66 759.09 759.05 
3479 758.75 759.13 759.05 
3480 758.70 759.11 759.05 
3481 758.63 759.09 759.05 
3482 758.88 759.10 759.05 
3483 758.79 759.09 759.05 
3484 758.58 759.10 759.05 
3485 758.75 759.09 759.05 
3486 758.72 759.10 759.05 
3487 758.79 759.11 759.05 
3488 758.67 759.09 759.05 
3489 758.76 759.12 759.05 
3490 758.59 759.11 759.05 
3491 758.55 759.10 759.05 
3492 758.68 759.12 759.05 
3493 758.55 759.12 759.05 
3494 758.84 759.10 759.05 
3495 758.84 759.09 759.05 
3496 758.68 759.14 759.05 
3497 758.76 759.13 759.05 
3498 758.63 759.13 759.05 
3499 758.59 759.12 759.05 
3500 758.60 759.11 759.05 
3501 758.47 759.15 759.05 
3502 758.76 759.12 759.05 
3503 758.67 759.14 759.05 
3504 758.56 759.10 759.05 
3505 758.76 759.14 759.05 
3506 758.76 759.13 759.05 
3507 758.76 759.11 759.05 
3508 758.43 759.10 759.05 
3509 758.67 759.13 759.05 
3510 758.76 759.12 759.05 
3511 758.68 759.12 759.05 
3512 758.72 759.14 759.05 
3513 758.84 759.13 759.05 
3514 758.72 759.11 759.05 
3515 758.55 759.11 759.05 
3516 758.76 759.13 759.05 
3517 758.80 759.12 759.05 
3518 758.88 759.12 759.05 
3519 758.50 759.14 759.05 
3520 758.67 759.11 759.05 
3521 758.84 759.16 759.05 
3522 758.30 759.10 759.05 
3523 758.85 759.13 759.05 
3524 758.63 759.12 759.05 
3525 758.89 759.13 759.05 
3526 758.88 759.12 759.05 
3527 758.84 759.14 759.05 
3528 758.59 759.12 759.05 
3529 758.55 759.09 759.05 
3530 758.30 759.08 759.05 
3531 758.63 759.10 759.05 
3532 758.30 759.12 759.05 
3533 758.68 759.16 759.05 
3534 758.26 759.11 759.05 
3535 758.84 759.13 759.05 
3536 758.59 759.14 759.05 
3537 758.47 759.10 759.05 
3538 758.68 759.12 759.05 
3539 758.63 759.09 759.05 
3540 758.72 759.12 759.05 
3541 758.34 759.12 759.05 
3542 758.67 759.08 759.05 
3543 758.76 759.11 759.05 
3544 758.63 759.09 759.05 
3545 758.88 759.14 759.05 
3546 758.67 759.12 759.05 
3547 758.46 759.12 759.05 
3548 758.46 755.10 759.05 
3549 758.47 759.13 759.05 
3550 758.42 759.12 759.05 
3551 758.76 759.11 759.05 
3552 758.63 759.09 759.05 
3553 758.54 759.08 759.05 
3554 758.83 759.11 759.05 
3555 758.46 759.14 759.05 
3556 758.63 759.10 759.05 
3557 758.33 759.11 759.05 
3558 758.76 759.13 759.05 
3559 758.67 759.11 759.05 
3560 758.59 759.12 759.05 
3561 758.84 759.09 759.05 
3562 758.22 759.11 759.05 
3563 758.67 759.11 759.05 
3564 758.67 759.11 759.05 
3565 758.67 759.12 759.05 
3566 758.54 759.12 759.05 
3567 758.59 759.09 759.05 
3568 758.79 759.11 759.05 
3569 758.67 759.13 759.05 
3570 758.50 759.14 759.05 
3571 758.79 759.12 759.05 
3572 758.63 759.14 759.05 
3573 758.42 759.10 759.05 
3574 758.71 759.09 759.05 
3575 758.29 759.10 759.05 
3576 758.33 759.08 759.05 
3577 758.59 759.11 759.05 
3578 758.71 759.12 759.05 
3579 758.67 759.12 759.05 
3580 758.76 759.09 759.05 
3581 758.55 759.12 759.05 
3582 758.55 759.10 759.05 
3583 758.75 759.14 759.05 
3584 758.72 759.08 759.05 
3585 758.75 759.12 759.05 
3586 758.84 759.09 759.05 
3587 758.46 759.13 759.05 
3588 758.59 759.11 759.05 
3589 758.75 759.09 759.05 
3590 758.55 759.12 759.05 
3591 758.34 759.12 759.05 
3592 758.51 759.12 759.05 
3593 758.59 759.10 759.05 
3594 758.51 759.13 759.05 
3595 758.80 759.12 759.05 
3596 758.43 759.11 759.05 
3597 758.46 759.11 759.05 
3598 758.64 759.13 759.05 
3599 758.68 759.10 759.05 
3600 758.76 759.13 759.05 
3601 758.88 759.14 759.05 
3602 758.80 759.13 759.05 
3603 758.55 759.13 759.05 
3604 758.68 759.14 759.05 
3605 758.68 759.14 759.05 
3606 758.64 759.13 759.05 
3607 758.64 759.12 759.05 
3608 758.77 759.13 759.05 
3609 758.76 759.14 759.05 
3610 758.76 759.13 759.05 
3611 758.71 759.14 759.05 
3612 758.72 759.12 759.05 
3613 758.55 759.12 759.05 
3614 758.59 759.13 759.05 
3615 758.80 759.10 759.05 
3616 758.71 759.13 759.05 
3617 758.63 759.13 759.05 
3618 758.63 759.09 759.05 
3619 758.63 759.11 759.05 
3620 758.80 759.11 759.05 
3621 758.46 759.13 759.05 
3622 758.63 759.09 759.05 
3623 758.63 759.11 759.05 
3624 758.87 759.06 759.05 
3625 758.67 759.11 759.05 
3626 758.37 759.07 759.05 
3627 758.63 759.07 759.05 
3628 758.75 759.11 759.05 
3629 758.33 759.08 759.05 
3630 758.13 759.09 759.05 
3631 758.13 759.10 759.05 
3632 758.58 759.09 759.05 
3633 758.88 759.08 759.05 
3634 758.63 759.12 759.05 
3635 758.58 759.08 759.05 
3636 758.67 759.11 759.05 
3637 758.62 759.13 759.05 
3638 758.71 759.08 759.05 
3639 758.67 759.09 759.05 
3640 758.84 759.11 759.05 
3641 758.71 759.07 759.05 
3642 758.75 759.08 759.05 
3643 758.63 759.09 759.05 
3644 758.29 759.11 759.05 
3645 758.79 759.08 759.05 
3646 758.63 759.08 759.05 
3647 758.67 759.14 759.05 
3648 758.76 759.11 759.05 
3649 758.34 759.11 759.05 
3650 758.76 759.10 759.05 
3651 758.71 759.13 759.05 
3652 758.46 759.12 759.05 
3653 758.51 759.14 759.05 
3654 758.66 759.13 759.05 
3655 758.80 759.14 759.05 
3656 758.84 759.11 759.05 
3657 758.71 759.11 759.05 
3658 758.50 759.13 759.05 
3659 758.55 759.11 759.05 
3660 758.51 759.12 759.05 
3661 758.38 759.12 759.05 
3662 758.42 759.12 759.05 
3663 758.51 759.13 759.05 
3664 758.67 759.12 759.05 
3665 758.72 759.12 759.05 
3666 758.63 759.12 759.05 
3667 758.72 759.14 759.05 
3668 758.88 759.11 759.05 
3669 758.76 759.15 759.05 
3670 758.63 759.09 759.05 
3671 758.76 759.12 759.05 
3672 758.75 759.12 759.05 
3673 758.75 759.10 759.05 
3674 758.84 759.11 759.05 
3675 758.54 759.09 759.05 
3676 758.55 759.07 759.05 
3677 758.46 759.11 759.05 
3678 758.30 759.14 759.05 
3679 758.55 759.11 759.05 
3680 758.30 759.07 759.05 
3681 758.63 759.11 759.05 
3682 758.63 759.11 759.05 
3683 758.55 759.13 759.05 
3684 758.72 759.10 759.05 
3685 758.47 759.13 759.05 
3686 758.76 759.09 759.05 
3687 758.63 759.13 759.05 
3688 758.67 759.11 759.05 
3689 758.72 759.11 759.05 
3690 758.59 759.11 759.05 
3691 758.47 759.10 759.05 
3692 758.55 759.10 759.05 
3693 758.55 759.12 759.05 
3694 758.58 759.11 759.05 
3695 758.59 759.11 759.05 
3696 758.76 759.08 759.05 
3697 758.80 759.10 759.05 
3698 758.76 759.12 759.05 
3699 758.67 759.11 759.05 
3700 758.72 759.12 759.05 
3701 758.80 759.10 759.05 
3702 758.59 759.13 759.05 
3703 758.59 759.12 759.05 
3704 758.59 759.13 759.05 
3705 758.84 759.13 759.05 
3706 758.93 759.16 759.05 
3707 758.80 759.10 759.05 
3708 758.72 759.13 759.05 
3709 758.80 759.10 759.05 
3710 758.72 759.11 759.05 
3711 758.63 759.11 759.05 
3712 758.89 759.15 759.05 
3713 758.67 759.14 759.05 
3714 758.76 759.14 759.05 
3715 758.67 759.13 759.05 
3716 758.68 759.11 759.05 
3717 758.63 759.12 759.05 
3718 758.72 759.12 759.05 
3719 758.76 759.12 759.05 
3720 758.59 759.11 759.05 
3721 758.89 759.12 759.05 
3722 758.88 759.14 759.05 
3723 758.72 759.12 759.05 
3724 758.68 759.12 759.05 
3725 758.55 759.13 759.05 
3726 758.59 759.13 759.05 
3727 758.43 759.14 759.05 
3728 758.47 759.12 759.05 
3729 758.55 759.11 759.05 
3730 758.55 759.15 759.05 
3731 758.77 759.13 759.05 
3732 758.59 759.15 759.05 
3733 758.85 759.15 759.05 
3734 758.47 759.13 759.05 
3735 758.72 759.13 759.05 
3736 758.60 759.11 759.05 
3737 758.60 759.15 759.05 
3738 758.85 759.13 759.05 
3739 758.59 759.13 759.05 
3740 758.76 759.15 759.05 
3741 758.85 759.12 759.05 
3742 758.84 759.14 759.05 
3743 758.63 759.13 759.05 
3744 758.85 759.13 759.05 
3745 758.55 759.16 759.05 
3746 758.59 759.13 759.05 
3747 758.68 759.13 759.05 
3748 758.38 759.13 759.05 
3749 758.81 759.14 759.05 
3750 758.47 759.14 759.05 
3751 758.88 759.14 759.05 
3752 758.47 759.13 759.05 
3753 758.72 759.14 759.05 
3754 758.64 759.10 759.05 
3755 758.68 759.12 759.05 
3756 758.59 759.16 759.05 
3757 758.89 759.14 759.05 
3758 758.88 759.12 759.05 
3759 758.80 759.11 759.05 
3760 758.55 759.12 759.05 
3761 758.30 759.13 759.05 
3762 758.88 759.12 759.05 
3763 758.84 759.14 759.05 
3764 758.93 759.13 759.05 
3765 758.76 759.14 759.05 
3766 758.76 759.15 759.05 
3767 758.56 759.15 759.05 
3768 758.59 759.15 759.05 
3769 758.85 759.13 759.05 
3770 758.51 759.13 759.05 
3771 758.72 759.15 759.05 
3772 758.47 759.12 759.05 
3773 758.55 759.14 759.05 
3774 758.59 759.10 759.05 
3775 758.63 759.13 759.05 
3776 758.80 759.08 759.05 
3777 758.76 759.14 759.05 
3778 758.72 759.11 759.05 
3779 758.97 759.09 759.05 
3780 758.80 759.11 759.05 
3781 758.51 759.12 759.05 
3782 758.68 759.11 759.05 
3783 758.80 759.12 759.05 
3784 758.76 759.13 759.05 
3785 758.76 759.14 759.05 
3786 758.68 759.10 759.05 
3787 758.63 759.14 759.05 
3788 758.68 759.12 759.05 
3789 758.76 759.07 759.05 
3790 758.56 759.13 759.05 
3791 758.81 759.12 759.05 
3792 758.39 759.11 759.05 
3793 758.72 759.12 759.05 
3794 758.76 759.11 759.05 
3795 758.85 759.14 759.05 
3796 758.68 759.11 759.05 
3797 758.72 759.14 759.05 
3798 758.13 759.11 759.05 
3799 758.68 759.14 759.05 
3800 758.68 759.10 759.05 
3801 758.72 759.11 759.05 
3802 758.72 755.09 759.05 
3803 758.30 759.10 759.05 
3804 758.51 759.13 759.05 
3805 758.59 759.09 759.05 
3806 758.42 759.11 759.05 
3807 758.84 759.13 759.05 
3808 758.30 759.11 759.05 
3809 758.63 759.13 759.05 
3810 758.76 759.13 759.05 
3811 758.30 759.13 759.05 
3812 758.59 759.14 759.05 
3813 758.72 759.11 759.05 
3814 758.59 759.12 759.05 
3815 758.80 759.12 759.05 
3816 758.68 759.13 759.05 
3817 758.55 759.12 759.05 
3818 758.59 759.16 759.05 
3819 758.59 759.12 759.05 
3820 758.55 759.12 759.05 
3821 758.55 759.09 759.05 
3822 758.51 759.10 759.05 
3823 758.64 759.11 759.05 
3824 758.88 759.12 759.05 
3825 758.59 759.10 759.05 
3826 758.59 759.10 759.05 
3827 758.63 759.12 759.05 
3828 758.26 759.13 759.05 
3829 758.75 759.11 759.05 
3830 758.51 759.12 759.05 
3831 758.51 759.11 759.05 
3832 758.76 759.12 759.05 
3833 758.35 759.14 759.05 
3834 758.63 759.14 759.05 
3835 758.80 759.15 759.05 
3836 758.60 759.12 759.05 
3837 758.43 759.13 759.05 
3838 758.80 759.10 759.05 
3839 758.51 759.12 759.05 
3840 758.84 759.12 759.05 
3841 758.80 759.13 759.05 
3842 758.39 759.15 759.05 
3843 758.55 759.11 759.05 
3844 758.38 759.11 759.05 
3845 758.67 759.11 759.05 
3846 758.68 759.11 759.05 
3847 758.72 759.13 759.05 
3848 758.59 759.11 759.05 
3849 758.67 759.13 759.05 
3850 758.59 759.12 759.05 
3851 758.51 759.13 759.05 
3852 758.72 759.14 759.05 
3853 758.80 759.12 759.05 
3854 758.76 759.11 759.05 
3855 758.51 759.12 759.05 
3856 758.67 759.12 759.05 
3857 758.58 759.11 759.05 
3858 758.46 759.10 759.05 
3859 758.71 759.12 759.05 
3860 758.75 759.11 759.05 
3861 758.79 759.13 759.05 
3862 758.50 759.09 759.05 
3863 758.54 759.08 759.05 
3864 758.71 759.13 759.05 
3865 758.42 759.10 759.05 
3866 758.49 759.13 759.05 
3867 758.54 759.12 759.05 
3868 758.71 759.11 759.05 
3869 758.67 759.13 759.05 
3870 758.46 759.08 759.05 
3871 758.46 759.13 759.05 
3872 758.63 759.09 759.05 
3873 758.63 759.10 759.05 
3874 758.71 759.12 759.05 
3875 758.58 759.14 759.05 
3876 758.67 759.09 759.05 
3877 758.66 759.08 759.05 
3878 758.45 759.11 759.05 
3879 758.28 759.11 759.05 
3880 758.71 759.11 759.05 
3881 758.87 759.10 759.05 
3882 758.29 759.10 759.05 
3883 758.76 759.11 759.05 
3884 758.59 759.11 759.05 
3885 758.50 759.13 759.05 
3886 758.67 759.11 759.05 
3887 758.71 759.14 759.05 
3888 758.51 759.11 759.05 
3889 758.21 759.12 759.05 
3890 758.63 759.12 759.05 
3891 758.46 759.11 759.05 
3892 758.54 759.12 759.05 
3893 758.46 759.10 759.05 
3894 758.75 759.10 759.05 
3895 758.79 759.11 759.05 
3896 758.79 759.13 759.05 
3897 758.66 759.10 759.05 
3898 758.50 759.12 759.05 
3899 758.54 759.09 759.05 
3900 758.79 759.11 759.05 
3901 758.37 759.10 759.05 
3902 758.34 759.10 759.05 
3903 758.54 759.11 759.05 
3904 758.63 759.10 759.05 
3905 758.58 759.10 759.05 
3906 758.75 759.11 759.05 
3907 758.42 759.12 759.05 
3908 758.46 759.12 759.05 
3909 758.50 759.12 759.05 
3910 758.41 759.10 759.05 
3911 758.54 759.11 759.05 
3912 758.42 759.13 759.05 
3913 758.42 759.10 759.05 
3914 758.92 759.13 759.05 
3915 758.54 759.10 759.05 
3916 758.50 759.12 759.05 
3917 758.71 759.13 759.05 
3918 758.50 759.14 759.05 
3919 758.75 759.13 759.05 
3920 758.71 759.10 759.05 
3921 758.67 759.11 759.05 
3922 758.62 759.15 759.05 
3923 758.37 759.12 759.05 
3924 758.45 759.12 759.05 
3925 758.58 759.15 759.05 
3926 758.33 759.13 759.05 
3927 758.70 759.12 759.05 
3928 758.75 759.11 759.05 
3929 758.71 759.10 759.05 
3930 758.36 759.08 759.05 
3931 758.58 759.10 759.05 
3932 758.66 759.09 759.05 
3933 758.62 759.12 759.05 
3934 758.62 759.13 759.05 
3935 758.63 759.11 759.05 
3936 758.67 759.11 759.05 
3937 758.54 759.16 759.05 
3938 758.59 759.12 759.05 
3939 758.84 759.12 759.05 
3940 758.80 759.09 759.05 
3941 758.79 759.12 759.05 
3942 758.54 759.12 759.05 
3943 758.37 759.09 759.05 
3944 758.66 759.08 759.05 
3945 758.29 759.10 759.05 
3946 758.58 759.10 759.05 
3947 758.62 759.12 759.05 
3948 758.50 759.08 759.05 
3949 758.79 759.09 759.05 
3950 758.46 759.10 759.05 
3951 758.54 759.07 759.05 
3952 758.70 759.09 759.05 
3953 758.45 759.08 759.05 
3954 758.71 759.10 759.05 
3955 758.50 759.07 759.05 
3956 758.49 759.14 759.05 
3957 758.45 759.10 759.05 
3958 758.53 759.07 759.05 
3959 758.45 759.06 759.05 
3960 758.70 759.09 759.05 
3961 758.62 759.10 759.05 
3962 758.49 759.09 759.05 
3963 758.82 759.11 759.05 
3964 758.62 759.10 759.05 
3965 758.45 759.10 759.05 
3966 758.37 759.08 759.05 
3967 758.79 759.09 759.05 
3968 758.75 759.11 759.05 
3969 758.83 759.10 759.05 
3970 758.46 759.09 759.05 
3971 758.33 759.11 759.05 
3972 758.45 759.12 759.05 
3973 758.66 759.10 759.05 
3974 758.71 759.10 759.05 
3975 758.58 759.12 759.05 
3976 758.54 759.13 759.05 
3977 758.71 759.09 759.05 
3978 758.54 759.13 759.05 
3979 758.75 759.15 759.05 
3980 758.75 759.10 759.05 
3981 758.66 759.09 759.05 
3982 758.79 759.11 759.05 
3983 758.71 759.11 759.05 
3984 758.34 759.08 759.05 
3985 758.59 759.12 759.05 
3986 758.71 759.11 759.05 
3987 758.83 759.09 759.05 
3988 758.58 759.08 759.05 
3989 758.88 759.09 759.05 
3990 759.00 759.09 759.05 
3991 758.75 759.12 759.05 
3992 758.50 759.08 759.05 
3993 758.71 759.11 759.05 
3994 758.70 759.09 759.05 
3995 758.79 759.09 759.05 
3996 758.74 759.10 759.05 
3997 758.29 759.09 759.05 
3998 758.70 759.13 759.05 
3999 758.50 759.11 759.05 
4000 758.54 759.12 759.05 
4001 758.79 759.10 759.05 
4002 758.63 759.11 759.05 
4003 758.58 759.12 759.05 
4004 758.67 759.09 759.05 
4005 758.80 759.12 759.05 
4006 758.79 759.11 759.05 
4007 758.75 759.10 759.05 
4008 758.67 759.13 759.05 
4009 758.88 759.10 759.05 
4010 758.71 759.11 759.05 
4011 758.71 759.13 759.05 
4012 758.50 759.09 759.05 
4013 758.58 759.10 759.05 
4014 758.54 759.11 759.05 
4015 758.66 759.10 759.05 
4016 758.41 759.07 759.05 
4017 758.54 759.12 759.05 
4018 758.67 759.11 759.05 
4019 758.37 759.12 759.05 
4020 758.67 759.10 759.05 
4021 758.79 759.11 759.05 
4022 758.50 759.10 759.05 
4023 758.66 759.12 759.05 
4024 758.54 759.07 759.05 
4025 758.54 759.09 759.05 
4026 759.00 759.11 759.05 
4027 758.80 759.13 759.05 
4028 758.50 759.10 759.05 
4029 758.88 759.13 759.05 
4030 758.71 759.10 759.05 
4031 758.63 759.12 759.05 
4032 758.84 759.09 759.05 
4033 758.63 759.09 759.05 
4034 758.67 759.12 759.05 
4035 758.71 759.11 759.05 
4036 758.84 759.11 759.05 
4037 758.71 759.10 759.05 
4038 758.55 759.08 759.05 
4039 758.63 759.10 759.05 
4040 758.96 759.11 759.05 
4041 758.76 759.11 759.05 
4042 758.55 759.11 759.05 
4043 758.84 759.12 759.05 
4044 758.76 759.11 759.05 
4045 758.80 759.07 759.05 
4046 758.93 759.10 759.05 
4047 758.80 759.09 759.05 
4048 758.84 759.13 759.05 
4049 758.55 759.14 759.05 
4050 758.67 759.10 759.05 
4051 758.30 759.11 759.05 
4052 758.84 759.10 759.05 
4053 758.67 759.09 759.05 
4054 758.84 759.09 759.05 
4055 758.59 759.10 759.05 
4056 758.67 759.07 759.05 
4057 758.67 755.11 759.05 
4058 758.63 759.14 759.05 
4059 758.59 759.11 759.05 
4060 758.59 759.08 759.05 
4061 758.67 759.09 759.05 
4062 758.76 759.08 759.05 
4063 758.67 759.10 759.05 
4064 758.84 759.10 759.05 
4065 758.55 759.09 759.05 
4066 758.84 759.08 759.05 
4067 758.63 759.10 759.05 
4068 758.75 759.09 759.05 
4069 758.71 759.12 759.05 
4070 758.59 759.12 759.05 
4071 758.67 759.12 759.05 
4072 758.67 759.09 759.05 
4073 758.75 759.11 759.05 
4074 758.72 759.10 759.05 
4075 758.63 759.10 759.05 
4076 758.88 759.14 759.05 
4077 758.84 759.04 759.05 
4078 758.79 759.10 759.05 
4079 758.76 759.13 759.05 
4080 758.80 759.13 759.05 
4081 758.84 759.12 759.05 
4082 758.68 759.07 759.05 
4083 759.00 759.08 759.05 
4084 758.88 759.10 759.05 
4085 758.67 759.10 759.05 
4086 758.88 755.05 759.05 
4087 758.75 759.10 759.05 
4088 758.66 759.09 759.05 
4089 758.58 759.10 759.05 
4090 758.87 759.07 759.05 
4091 758.46 759.09 759.05 
4092 758.54 759.12 759.05 
4093 758.50 759.11 759.05 
4094 758.71 759.11 759.05 
4095 758.50 759.07 759.05 
4096 758.66 759.09 759.05 
4097 758.45 759.10 759.05 
4098 758.54 759.10 759.05 
4099 758.66 759.11 759.05 
4100 758.63 759.06 759.05 
4101 758.54 759.12 759.05 
4102 758.83 759.12 759.05 
4103 758.71 759.14 759.05 
4104 758.75 759.10 759.05 
4105 758.62 759.10 759.05 
4106 758.91 759.10 759.05 
4107 758.58 759.08 759.05 
4108 758.62 759.06 759.05 
4109 758.74 759.12 759.05 
4110 758.67 759.14 759.05 
4111 758.88 759.12 759.05 
4112 758.83 759.11 759.05 
4113 758.21 759.10 759.05 
4114 758.63 759.07 759.05 
4115 758.58 759.11 759.05 
4116 758.87 759.10 759.05 
4117 758.62 759.10 759.05 
4118 758.71 759.09 759.05 
4119 758.62 759.09 759.05 
4120 758.74 759.08 759.05 
4121 758.54 759.06 759.05 
4122 758.75 759.12 759.05 
4123 758.79 759.08 759.05 
4124 758.66 759.08 759.05 
4125 758.58 759.08 759.05 
4126 758.66 759.09 759.05 
4127 758.87 759.09 759.05 
4128 758.75 759.14 759.05 
4129 758.75 759.12 759.05 
4130 758.67 759.11 759.05 
4131 758.79 759.10 759.05 
4132 758.75 759.08 759.05 
4133 758.80 759.12 759.05 
4134 758.59 759.11 759.05 
4135 758.54 759.11 759.05 
4136 758.63 759.08 759.05 
4137 758.58 759.09 759.05 
4138 758.67 759.11 759.05 
4139 758.71 759.10 759.05 
4140 758.79 759.09 759.05 
4141 758.62 759.12 759.05 
4142 758.67 759.13 759.05 
4143 758.63 759.07 759.05 
4144 758.75 759.11 759.05 
4145 758.75 759.13 759.05 
4146 758.71 759.09 759.05 
4147 758.84 759.06 759.05 
4148 758.79 759.08 759.05 
4149 758.71 759.14 759.05 
4150 758.63 759.06 759.05 
4151 758.84 759.10 759.05 
4152 758.96 759.10 759.05 
4153 758.92 759.14 759.05 
4154 758.54 759.13 759.05 
4155 758.67 759.08 759.05 
4156 758.46 759.11 759.05 
4157 758.71 759.06 759.05 
4158 758.75 759.10 759.05 
4159 758.79 759.10 759.05 
4160 758.54 759.08 759.05 
4161 758.92 759.09 759.05 
4162 758.88 759.08 759.05 
4163 758.70 759.09 759.05 
4164 759.00 759.10 759.05 
4165 758.58 759.09 759.05 
4166 758.50 759.11 759.05 
4167 758.42 759.08 759.05 
4168 758.79 759.13 759.05 
4169 758.41 759.12 759.05 
4170 758.58 759.12 759.05 
4171 758.71 759.10 759.05 
4172 758.67 759.12 759.05 
4173 758.80 759.13 759.05 
4174 758.83 759.08 759.05 
4175 758.70 759.11 759.05 
4176 758.83 759.06 759.05 
4177 758.88 759.11 759.05 
4178 758.80 759.11 759.05 
4179 758.75 759.08 759.05 
4180 758.66 759.10 759.05 
4181 758.66 759.08 759.05 
4182 758.83 759.11 759.05 
4183 758.67 759.10 759.05 
4184 758.88 759.12 759.05 
4185 758.63 759.07 759.05 
4186 758.63 759.14 759.05 
4187 758.75 759.11 759.05 
4188 758.67 759.08 759.05 
4189 758.63 759.07 759.05 
4190 758.84 759.08 759.05 
4191 758.92 759.12 759.05 
4192 758.83 759.09 759.05 
4193 758.71 759.09 759.05 
4194 758.88 759.09 759.05 
4195 758.71 759.10 759.05 
4196 758.50 759.10 759.05 
4197 758.67 759.12 759.05 
4198 758.79 759.09 759.05 
4199 758.71 759.12 759.05 
4200 758.63 759.13 759.05 
4201 758.55 759.11 759.05 
4202 758.63 759.09 759.05 
4203 758.76 759.10 759.05 
4204 758.71 759.10 759.05 
4205 758.93 759.12 759.05 
4206 758.97 759.10 759.05 
4207 758.79 759.09 759.05 
4208 758.96 759.12 759.05 
4209 758.59 759.11 759.05 
4210 758.84 759.09 759.05 
4211 758.71 759.08 759.05 
4212 758.80 759.10 759.05 
4213 758.59 759.10 759.05 
4214 758.63 759.10 759.05 
4215 758.88 759.08 759.05 
4216 758.67 759.13 759.05 
4217 758.88 759.11 759.05 
4218 758.80 759.05 759.05 
4219 758.88 759.14 759.05 
4220 758.50 759.12 759.05 
4221 758.67 759.11 759.05 
4222 758.46 759.11 759.05 
4223 758.51 759.07 759.05 
4224 758.75 759.10 759.05 
4225 758.38 759.10 759.05 
4226 758.88 759.11 759.05 
4227 758.72 759.09 759.05 
4228 758.71 759.12 759.05 
4229 758.63 759.11 759.05 
4230 758.55 759.12 759.05 
4231 758.63 759.10 759.05 
4232 758.63 759.10 759.05 
4233 758.72 759.12 759.05 
4234 758.76 759.10 759.05 
4235 758.84 759.11 759.05 
4236 758.92 759.10 759.05 
4237 758.63 759.11 759.05 
4238 758.92 759.11 759.05 
4239 758.59 759.11 759.05 
4240 758.30 759.10 759.05 
4241 758.54 759.11 759.05 
4242 758.93 759.10 759.05 
4243 758.59 759.10 759.05 
4244 758.63 759.09 759.05 
4245 758.63 759.11 759.05 
4246 758.80 759.12 759.05 
4247 758.71 759.09 759.05 
4248 758.71 759.12 759.05 
4249 758.71 759.11 759.05 
4250 758.71 759.13 759.05 
4251 758.72 759.08 759.05 
4252 758.88 759.10 759.05 
4253 758.76 759.14 759.05 
4254 759.00 759.11 759.05 
4255 758.88 759.11 759.05 
4256 758.63 759.11 759.05 
4257 758.63 759.10 759.05 
4258 758.51 759.09 759.05 
4259 758.51 759.09 759.05 
4260 758.80 759.12 759.05 
4261 758.92 759.11 759.05 
4262 758.67 759.11 759.05 
4263 758.84 759.10 759.05 
4264 758.67 759.10 759.05 
4265 758.63 759.10 759.05 
4266 758.59 759.09 759.05 
4267 758.84 759.07 759.05 
4268 758.67 759.12 759.05 
4269 758.76 759.08 759.05 
4270 758.55 759.11 759.05 
4271 758.67 759.08 759.05 
4272 758.88 759.09 759.05 
4273 758.84 759.07 759.05 
4274 758.80 759.10 759.05 
4275 758.97 759.10 759.05 
4276 758.50 759.12 759.05 
4277 758.76 759.09 759.05 
4278 758.75 759.08 759.05 
4279 758.67 759.08 759.05 
4280 759.00 759.09 759.05 
4281 758.46 759.08 759.05 
4282 758.84 755.09 759.05 
4283 758.96 759.10 759.05 
4284 758.92 759.09 759.05 
4285 758.84 759.13 759.05 
4286 758.76 759.10 759.05 
4287 758.63 759.11 759.05 
4288 758.76 759.11 759.05 
4289 758.62 759.10 759.05 
4290 758.88 759.06 759.05 
4291 758.75 759.11 759.05 
4292 758.59 759.08 759.05 
4293 758.71 759.10 759.05 
4294 758.71 759.10 759.05 
4295 758.76 759.08 759.05 
4296 758.55 759.11 759.05 
4297 758.59 759.10 759.05 
4298 758.80 759.11 759.05 
4299 758.80 759.09 759.05 
4300 758.76 759.11 759.05 
4301 758.84 759.13 759.05 
4302 758.75 759.08 759.05 
4303 758.75 759.09 759.05 
4304 758.88 759.09 759.05 
4305 758.63 759.09 759.05 
4306 758.71 759.09 759.05 
4307 758.63 759.10 759.05 
4308 758.88 759.11 759.05 
4309 758.58 759.11 759.05 
4310 758.92 759.09 759.05 
4311 758.71 759.11 759.05 
4312 758.75 759.10 759.05 
4313 758.80 759.09 759.05 
4314 758.88 759.13 759.05 
4315 758.75 759.07 759.05 
4316 758.84 759.09 759.05 
4317 758.38 759.10 759.05 
4318 758.92 759.09 759.05 
4319 758.71 759.09 759.05 
4320 758.75 759.11 759.05 
4321 758.54 759.12 759.05 
4322 758.79 759.04 759.05 
4323 758.62 759.12 759.05 
4324 758.79 759.12 759.05 
4325 758.62 759.05 759.05 
4326 758.54 759.09 759.05 
4327 758.83 759.09 759.05 
4328 758.71 759.07 759.05 
4329 758.79 759.09 759.05 
4330 758.62 759.11 759.05 
4331 758.75 759.10 759.05 
4332 758.62 759.10 759.05 
4333 758.50 759.12 759.05 
4334 758.75 759.15 759.05 
4335 758.42 759.07 759.05 
4336 758.75 759.07 759.05 
4337 758.62 759.08 759.05 
4338 758.67 759.08 759.05 
4339 758.50 759.09 759.05 
4340 758.83 759.07 759.05 
4341 758.79 759.08 759.05 
4342 758.83 759.09 759.05 
4343 758.84 759.12 759.05 
4344 758.71 759.07 759.05 
4345 758.71 759.10 759.05 
4346 758.71 759.11 759.05 
4347 758.33 759.06 759.05 
4348 758.78 759.10 759.05 
4349 758.86 759.10 759.05 
4350 758.66 759.12 759.05 
4351 758.66 759.08 759.05 
4352 758.62 759.11 759.05 
4353 758.66 759.10 759.05 
4354 758.91 759.08 759.05 
4355 758.37 759.10 759.05 
4356 758.45 759.08 759.05 
4357 758.50 759.10 759.05 
4358 758.75 759.10 759.05 
4359 758.67 759.10 759.05 
4360 758.50 759.08 759.05 
4361 758.75 759.11 759.05 
4362 758.83 759.11 759.05 
4363 758.76 759.11 759.05 
4364 758.75 759.11 759.05 
4365 758.50 759.12 759.05 
4366 758.58 759.08 759.05 
4367 758.83 759.07 759.05 
4368 758.80 759.11 759.05 
4369 758.30 759.11 759.05 
4370 758.75 759.13 759.05 
4371 758.46 759.09 759.05 
4372 758.87 759.11 759.05 
4373 758.74 759.11 759.05 
4374 758.33 759.09 759.05 
4375 758.71 759.14 759.05 
4376 758.71 759.11 759.05 
4377 758.58 759.12 759.05 
4378 758.54 759.09 759.05 
4379 758.71 759.09 759.05 
4380 758.49 759.06 759.05 
4381 758.50 759.13 759.05 
4382 758.54 759.10 759.05 
4383 758.83 759.07 759.05 
4384 758.87 759.12 759.05 
4385 758.50 759.10 759.05 
4386 758.62 759.09 759.05 
4387 758.67 759.11 759.05 
4388 758.75 759.09 759.05 
4389 758.70 759.11 759.05 
4390 758.79 759.08 759.05 
4391 758.62 759.10 759.05 
4392 758.62 759.11 759.05 
4393 758.83 759.12 759.05 
4394 758.63 759.08 759.05 
4395 758.83 759.09 759.05 
4396 758.83 759.10 759.05 
4397 758.88 759.10 759.05 
4398 758.58 759.12 759.05 
4399 758.83 759.10 759.05 
4400 758.79 759.07 759.05 
4401 758.87 759.09 759.05 
4402 758.87 759.08 759.05 
4403 758.58 759.10 759.05 
4404 758.88 759.09 759.05 
4405 758.83 759.10 759.05 
4406 758.79 759.12 759.05 
4407 758.96 759.12 759.05 
4408 758.79 759.10 759.05 
4409 758.92 759.09 759.05 
4410 758.87 759.08 759.05 
4411 758.84 759.08 759.05 
4412 758.92 759.10 759.05 
4413 758.75 759.11 759.05 
4414 758.75 759.10 759.05 
4415 758.84 759.10 759.05 
4416 758.83 759.08 759.05 
4417 758.79 759.09 759.05 
4418 758.92 759.10 759.05 
4419 758.84 759.08 759.05 
4420 758.79 759.11 759.05 
4421 758.54 759.10 759.05 
4422 758.63 759.12 759.05 
4423 758.75 759.08 759.05 
4424 758.67 759.11 759.05 
4425 758.96 759.04 759.05 
4426 758.71 759.11 759.05 
4427 758.71 755.07 759.05 
4428 758.66 759.07 759.05 
4429 758.79 759.11 759.05 
4430 758.41 759.04 759.05 
4431 758.63 759.10 759.05 
4432 758.58 759.06 759.05 
4433 758.53 759.05 759.05 
4434 758.92 759.09 759.05 
4435 758.96 759.09 759.05 
4436 758.83 759.04 759.05 
4437 758.83 759.05 759.05 
4438 758.79 759.05 759.05 
4439 758.95 759.10 759.05 
4440 758.82 759.09 759.05 
4441 758.62 759.07 759.05 
