iteration,time_sampling,stoc_pol_mean,stoc_pol_std,stoc_pol_max,stoc_pol_min,rollout_success,alpha,delta,time_vpg,time_npg,kl_dist,surr_improvement,running_score,rwd_sparse,rwd_dense,success_percentage,num_samples,time_VF,VF_error_before,VF_error_after,eval_score,eval_success
0,5.102506875991821,-407.5925252204857,10.452100693377488,-377.6877086818756,-433.9146409844463,0.0,1.0450296894171849,0.1,0.0717778205871582,0.2784402370452881,0.059784114,0.09810789,-407.5925252204857,-4.002256964138707,-4.073874988622386,0.0,9600,1.2084643840789795,0.9996757942786094,0.2050346912630428,-358.38446479250115,0.0
1,4.837865829467773,-406.3125648583352,9.968461215190755,-379.5768473592034,-437.4496866286679,0.0,1.7498356473989845,0.1,0.04166603088378906,0.4319939613342285,0.050391093,0.0592602,-407.46452918427065,-3.9891364314878963,-4.060989799872282,0.0,9600,1.2074105739593506,0.2026337998411269,0.0874973688362407,-368.63146733006687,0.0
2,4.8225109577178955,-406.97849822507715,8.927746383058977,-376.73083913710315,-434.80688646215697,0.0,1.7459710357358864,0.1,0.011254549026489258,0.4227783679962158,0.0488596,0.05995415,-407.4159260883513,-3.9958077583357934,-4.067744431572369,0.0,9600,0.6955182552337646,0.09233203052628255,0.06505519686236567,-360.5526940600449,0.0
3,5.171233892440796,-405.4978850592356,8.450376522559255,-373.70628572816406,-433.1526660531941,0.0,1.8679816660536774,0.1,0.01109933853149414,0.44448399543762207,0.049784426,0.05569823,-407.22412198543975,-3.98107897418616,-4.052899552728634,0.0,9600,0.6946775913238525,0.061056433028246995,0.04695216940723919,-356.7518184036469,0.0
4,4.787060260772705,-404.7260016664348,9.101617971238145,-380.47115803855445,-435.8407484772937,0.0,1.7156920174640566,0.1,0.033048391342163086,0.405517578125,0.05025041,0.06071511,-406.97430995353926,-3.9732219979914682,-4.04513607796209,0.0,9600,1.009678840637207,0.04930353427381228,0.030734117295678383,-334.17860733458036,0.0
5,5.09084415435791,-404.0361062853437,11.624267425192881,-365.4204410463316,-433.75055175951866,0.0,1.6521216810706196,0.1,0.011101961135864258,0.4314746856689453,0.050068446,0.06299801,-406.6804895867197,-3.966288908021101,-4.038273427796483,0.0,9600,2.132225751876831,0.03976501996578113,0.022375544854025587,-325.83428299848816,0.0
6,5.317577838897705,-401.86490134932166,10.699947992001151,-366.97507862311915,-430.6025263297924,0.0,1.7525266082910087,0.1,0.021050453186035156,0.45793771743774414,0.049583584,0.05898139,-406.1989307629799,-3.944802873833968,-4.016646721552495,0.0,9600,2.2074480056762695,0.021295012020327363,0.011702330481310676,-328.1971011909651,0.0
7,5.267666339874268,-404.3676097538552,12.312551342516944,-370.20370622248913,-441.31081391644,0.0,1.6949027589893662,0.1,0.033240556716918945,0.4733576774597168,0.050589908,0.06027718,-406.0157986620675,-3.969558875149415,-4.041547307870938,0.0,9600,2.55560564994812,0.014609072255845344,0.008048219876740145,-334.7142747442171,0.0
8,5.2226035594940186,-403.8013444610122,10.678128736479533,-375.78137610821756,-434.7565964984095,0.0,1.7578599786668718,0.1,0.017615795135498047,0.41716575622558594,0.052105438,0.055201434,-405.79435324196197,-3.9636174243030324,-4.035950359873606,0.0,9600,2.5625436305999756,0.007111934337042959,0.0034761626796937844,-344.70746764489684,0.0
9,5.271970272064209,-399.3142166336313,13.36602662026687,-368.9420359349627,-435.54364491274254,0.0,1.5894144564578507,0.1,0.03266787528991699,0.48313069343566895,0.050652914,0.0665824,-405.1463395811289,-3.9191243039368207,-3.9910916038529103,0.0,9600,2.8284900188446045,0.0044850117801013235,0.0021623995944338777,-343.499601411142,0.0
10,5.242929220199585,-394.62466631307274,10.778096133878407,-370.88692036732596,-412.8247827625354,0.0,1.6173418265643635,0.1,0.015124082565307617,0.5391788482666016,0.05107646,0.063917704,-404.0941722543233,-3.8722985567518897,-3.9441804759314216,0.0,9600,2.715893268585205,0.0024303445052404962,0.0012359621236524751,-333.9891731332808,0.0
11,5.016890525817871,-387.0460156794934,10.40047854950234,-361.2024393093618,-406.9799810279179,0.0,1.6109451869310072,0.1,0.03360605239868164,0.46239662170410156,0.05126096,0.06411739,-402.38935659684034,-3.7970108180935322,-3.8684148571629446,0.0,9600,3.0403499603271484,0.0017860577685341991,0.0010392584927700684,-327.7322320537229,0.0
12,4.931396245956421,-385.9522183468569,10.958864857024668,-358.0225712781302,-405.52086762745677,0.0,1.5489023906489896,0.1,0.018511056900024414,0.43999290466308594,0.050605286,0.06654099,-400.745642771842,-3.7860115489563175,-3.8575130890269365,0.0,9600,2.3337414264678955,0.001096288759207382,0.0008809459500932697,-314.892995393546,0.0
13,5.097412109375,-371.2606124373618,13.858452278164267,-340.3906836035408,-402.64214543974026,0.0,1.2586295460244434,0.1,0.01874375343322754,0.55222487449646,0.054006774,0.092065364,-397.7971397383939,-3.6393810961864133,-3.7107309988245505,0.0,9600,2.34519100189209,0.0012630504091784658,0.0008292478279360449,-296.38450239329995,0.0
14,5.055284023284912,-355.5904171031962,11.64066134341127,-310.23750764129574,-379.54631031607033,0.0,1.4019393155304383,0.1,0.01836371421813965,0.5100805759429932,0.052846827,0.07406451,-393.57646747487416,-3.4828626812205385,-3.554104096495976,0.0,9600,2.3042259216308594,0.001440068273184553,0.0008339855799437856,-282.1922922491995,0.0
15,4.8222997188568115,-340.237437167291,12.739831726695098,-305.5197906955805,-370.5824455887664,0.0,1.2545985988594628,0.1,0.03338122367858887,0.6712188720703125,0.05283077,0.082035884,-388.2425644441158,-3.329738143113293,-3.4006985235817044,0.0,9600,3.2020633220672607,0.0019800959088196,0.0010675503649143876,-254.41143785501194,0.0
16,5.120206356048584,-322.3755534755212,12.408101938387851,-289.1643419650188,-350.605579657757,0.0,1.3641533773127188,0.1,0.01712942123413086,0.5498776435852051,0.05281847,0.076688476,-381.6558633472564,-3.1514848376753526,-3.2221038559563553,0.0,9600,2.551955461502075,0.0026398827207517734,0.0012452560734615903,-231.88400118607288,0.0
17,4.900696754455566,-299.51493958886505,15.184303081686664,-264.54287007335796,-339.4755400955824,0.0,1.3191571678138734,0.1,0.017324209213256836,0.5066540241241455,0.053082693,0.073357925,-373.44177097141727,-2.9231135760470273,-2.9938236578786666,0.0,9600,2.3981969356536865,0.005380894945772744,0.0016194519219278124,-208.1648938033219,0.0
18,4.964333534240723,-281.3651281304852,11.052745282668143,-261.42308986188135,-318.3287897710697,0.0,1.3655570564582797,0.1,0.03275632858276367,0.48911166191101074,0.05154512,0.080360204,-364.2341066873241,-2.742249147227298,-2.8126552192621914,0.0,9600,2.753955841064453,0.002356105613744202,0.0009272035571955667,-189.56319915153446,0.0
19,5.18974494934082,-271.7958902236693,8.422977222849797,-254.88120147933247,-296.7417413299221,0.0,1.1487056781307499,0.1,0.01927947998046875,0.5523297786712646,0.051999632,0.10678295,-354.9902850409586,-2.646374147248603,-2.717073307934084,0.0,9600,2.8500161170959473,0.0009453161937269216,0.0005545280077903655,-204.0200247189722,0.0
20,4.700589656829834,-264.46120766355523,6.283770469664667,-251.50648646249522,-278.99225155043484,0.0,1.445784302285216,0.1,0.01711583137512207,0.5046815872192383,0.051055536,0.076731734,-345.9373773032183,-2.5727660501336858,-2.643801681005972,0.0,9600,3.0968410968780518,0.0005782999622282388,0.000368183701294801,-205.0240702399512,0.0
21,5.354521989822388,-257.75179305683326,5.348236900404693,-244.69971908972104,-275.37270897422377,0.0,1.2639484705264066,0.1,0.08083724975585938,0.6792871952056885,0.053189628,0.08037705,-337.11881887857976,-2.5056823719441965,-2.5767432343763814,0.0,9600,3.7539613246917725,0.0004211975207274471,0.00029968282016654845,-206.88995048660553,0.0
22,5.203473329544067,-252.57591622018558,5.188787685923695,-238.3228723766697,-269.34820145281464,0.0,1.2409741197287771,0.1,0.018114328384399414,0.5141510963439941,0.052432448,0.08375456,-328.66452861274036,-2.4543029193890753,-2.5250505746792937,0.0,9600,3.381108283996582,0.0004432017746538711,0.0002732320361818433,-212.36790208434076,0.0
23,4.730072975158691,-245.24220282284037,5.101016673861047,-234.30107461447915,-266.29653446295487,0.0,1.4070872227837283,0.1,0.03253030776977539,0.4866206645965576,0.050945166,0.07420316,-320.3222960337504,-2.3812080786252063,-2.451749715466017,0.0,9600,2.4325528144836426,0.0005187860815555485,0.00032684023706811975,-219.09045993765923,0.0
24,4.8122453689575195,-238.76669064975863,4.8320963132347545,-225.67136059812444,-249.11022712851351,0.0,1.3407216198869552,0.1,0.04545927047729492,0.5930278301239014,0.05423816,0.07213292,-312.16673549535125,-2.316567846606624,-2.3869742822449704,0.0,9600,2.69760799407959,0.0007880352442399934,0.00039711739618270687,-220.22544632400832,0.0
25,4.487387180328369,-230.40558906004108,7.018155684225583,-208.96980290570357,-245.3387394927512,0.0,1.4243216081988286,0.1,0.013082027435302734,0.4643404483795166,0.053125706,0.067782976,-303.9906208518202,-2.233149253304074,-2.3033847763881568,0.0,9600,2.480217933654785,0.0018074983389662657,0.000963276255238775,-216.95989791197397,0.0
26,4.712908744812012,-221.39790703487498,5.586954045399732,-207.61137225670566,-235.73522861713033,0.0,1.6117547924482238,0.1,0.01341700553894043,0.5722661018371582,0.048707988,0.05918361,-295.7313494701257,-2.14343174967138,-2.213449770296148,0.0,9600,2.33439564704895,0.00227375447580194,0.0007941789913992585,-212.08409975930985,0.0
27,4.718404054641724,-217.28826235621543,5.422845162445866,-205.06413244772563,-233.88411573821776,0.0,1.3732105478488128,0.1,0.04481768608093262,0.5131106376647949,0.049464475,0.074566424,-287.8870407587347,-2.1025242882331647,-2.1724826120066982,0.0,9600,2.518465995788574,0.0009578107696187082,0.0006714968940398019,-202.3982013287524,0.0
28,4.500178098678589,-212.6857428978317,4.920167343514248,-197.98967210165648,-225.87896030936153,0.0,1.4424357238406358,0.1,0.013773918151855469,0.5019710063934326,0.050222266,0.071461186,-280.3669109726444,-2.056530771082043,-2.126496545777913,0.0,9600,2.275719165802002,0.0007503250250935704,0.0005196461709563076,-175.68338754608396,0.0
29,4.803136825561523,-209.3162874603851,5.344157248298769,-199.53097779724175,-229.81352091779345,0.0,1.5068936368607262,0.1,0.016214847564697266,0.39883852005004883,0.047374994,0.06361604,-273.2618486214185,-2.0230186393387757,-2.0928081031792924,0.0,9600,2.037287712097168,0.0008004280623595733,0.000632744142812536,-172.76968686373274,0.0
30,4.677672386169434,-208.74554320042338,7.6652037554864,-192.63479312155158,-237.08784117226023,0.0,1.4648492513872786,0.1,0.018764734268188477,0.5272626876831055,0.05188394,0.067375585,-266.810218079319,-2.0174465143451066,-2.087110231540454,0.0,9600,2.5186500549316406,0.0011880368191305587,0.0009084702619578732,-168.85870562470765,0.0
31,4.7316999435424805,-207.1067784911153,7.068931769664052,-195.86619989386932,-232.69856064520957,0.0,1.4260280068330344,0.1,0.01718735694885254,0.4212155342102051,0.048630666,0.06589399,-260.8398741204986,-2.0015102261167446,-2.07074381582869,0.0,9600,2.399221658706665,0.0009691914922842184,0.0007461498090570336,-166.62662341016295,0.0
32,4.751510858535767,-204.39171013380414,6.069251975376686,-192.10236432605902,-232.4234094712646,0.0,1.402403306529002,0.1,0.03279471397399902,0.49220967292785645,0.05084086,0.06673185,-255.1950577218292,-1.9747970169571267,-2.0435875556424326,0.0,9600,2.3963911533355713,0.0007398870628371073,0.0006496168409902997,-164.05110897917902,0.0
33,4.772368669509888,-201.6875838220551,6.451522694587254,-188.27224021951375,-232.73570987803456,0.0,1.4565429257807285,0.1,0.016676664352416992,0.4350566864013672,0.050234742,0.063767806,-249.84431033185177,-1.9480383787363624,-2.0165748992885346,0.0,9600,2.464932680130005,0.0009536640943122853,0.0007677666416166643,-161.07358669443144,0.0
34,4.618865013122559,-198.80522127756595,5.058864148725877,-185.19189915900046,-213.9090095058876,0.0,1.4595933460944648,0.1,0.017977476119995117,0.48636674880981445,0.05002875,0.06538247,-244.7404014264232,-1.9190525132466487,-1.9877217167907901,0.0,9600,2.9639892578125,0.0007662661764765989,0.0006428589928377523,-152.76142597338773,0.0
35,4.859129190444946,-196.29307928626005,5.514477806924684,-179.13594891784948,-213.89580884837468,0.0,1.48423516684105,0.1,0.029384613037109375,0.4784739017486572,0.051222086,0.06894975,-239.89566921240691,-1.8943105657302153,-1.9626416295342757,0.0,9600,2.680180072784424,0.0008210985242379077,0.000691720422038038,-140.560134937299,0.0
36,4.79520058631897,-194.04204431301272,9.642908779805989,-176.56190838169303,-233.76563396997142,0.0,1.3937743685010207,0.1,0.017604351043701172,0.5248246192932129,0.051075928,0.06834121,-235.31030672246752,-1.871969119371007,-1.9401494218535156,0.0,9600,2.3786864280700684,0.0023212106634872133,0.0016974740940861265,-135.66490079735462,0.0
37,4.760183334350586,-191.0327243942105,8.527696177992825,-174.78888543260308,-216.44494350517203,0.0,1.6256000253007818,0.1,0.013402223587036133,0.4831416606903076,0.05169726,0.05992791,-230.88254848964183,-1.841950571375653,-1.9101059796375726,0.0,9600,2.029613971710205,0.0024910911736291275,0.001738808679811056,-140.5397327260279,0.0
38,4.547351121902466,-187.3687083302096,8.838817561724479,-169.73522919954306,-225.27928340964527,0.0,1.5020530616334196,0.1,0.016411542892456055,0.32703304290771484,0.05193641,0.066538036,-226.53116447369862,-1.8055685678022544,-1.8734868040843586,0.0,9600,2.606790781021118,0.0026249860563872713,0.0020467856268565443,-141.86866775853696,0.0
39,4.577633857727051,-184.05550106651205,8.655684575324248,-170.55289565591642,-223.85469473693732,0.0,1.5395027604401772,0.1,0.05655407905578613,0.5939216613769531,0.051211108,0.06295231,-222.28359813298,-1.7728128857060035,-1.8403691995101024,0.0,9600,2.917494058609009,0.0020188621271402724,0.0017035544636461424,-143.54348084348175,0.0
40,4.794327259063721,-183.96173799600186,10.300880063830137,-167.8156623574615,-210.05849445688497,0.0,1.4948004186681918,0.1,0.018902301788330078,0.5190932750701904,0.0512132,0.06475548,-218.45141211928217,-1.7720616664069084,-1.839443899450781,0.0,9600,3.1204679012298584,0.0034033532331128762,0.0023230918095315063,-156.5945041953651,0.0
41,4.577463626861572,-180.46350312866488,8.533596611423643,-165.80167441377677,-226.45451033940347,0.0,1.4944156566733018,0.1,0.019672393798828125,0.612926721572876,0.05143646,0.06655724,-214.65262122022042,-1.7375197590926603,-1.8045268546699151,0.0,9600,3.0414109230041504,0.0025955069674007064,0.001970478017465028,-153.586388439879,0.0
42,4.5544209480285645,-177.4706057440118,7.442583717984495,-163.0249018945643,-202.23571182047226,0.0,1.6401667550852863,0.1,0.018530607223510742,0.44402432441711426,0.048096325,0.058751307,-210.93441967259957,-1.7077397708791662,-1.7745893832199506,0.0,9600,3.883599042892456,0.0020170593431730406,0.0017119445564730373,-151.6161099695847,0.0
43,4.639362812042236,-175.50288170246571,6.200239673666492,-163.12980139018418,-195.0928633820853,0.0,1.4893151594632672,0.1,0.018074989318847656,0.5488908290863037,0.04814201,0.06434064,-207.39126587558619,-1.6879862969667574,-1.7549037663375178,0.0,9600,2.50077223777771,0.001513254004255205,0.0011996683040146608,-157.14955161664085,0.0
44,4.587758779525757,-172.64667555353867,6.964992036519596,-159.16953708582358,-189.0185626690197,0.0,1.505430693815712,0.1,0.012476921081542969,0.5177366733551025,0.051786374,0.06500838,-203.91680684338144,-1.6595054145751462,-1.726310469998106,0.0,9600,2.4269721508026123,0.0019408963351716254,0.0016992845392969586,-163.13646819175503,0.0
45,4.696415424346924,-169.5679656404176,7.256507460909379,-155.88513652310928,-185.8111610866222,0.0,1.5017166672629971,0.1,0.017713069915771484,0.4894857406616211,0.051110517,0.06772774,-200.48192272308506,-1.6289818871502344,-1.6955268017189111,0.0,9600,2.310260534286499,0.0023602440296531793,0.001782126380415378,-178.96637585741558,0.0
46,4.7168498039245605,-168.47681285999255,7.553482496103077,-155.3290655047448,-212.77204537755475,0.0,1.4617264434901716,0.1,0.03307080268859863,0.49883532524108887,0.04242263,0.05944111,-197.2814117367758,-1.6179488767009529,-1.6847593333534254,0.0,9600,3.2188475131988525,0.002164608244201331,0.0017374648273681232,-185.99823056256687,0.0
47,4.8264546394348145,-164.2092477623788,7.812054750223908,-154.72965630059713,-220.11688312800857,0.0,1.4984727041329102,0.1,0.015245437622070312,0.588932991027832,0.04746741,0.059278194,-193.9741953393361,-1.5752345708170665,-1.6420871346702757,0.0,9600,3.0360140800476074,0.0029846893189570747,0.0019120590739857245,-175.04154871306562,0.0
48,4.902376413345337,-161.88907561590293,6.906598961149583,-150.07191007208593,-182.93141286206463,0.0,1.4165007608301847,0.1,0.01759934425354004,0.6446487903594971,0.0443641,0.06159321,-190.7656833669928,-1.5524805936562356,-1.6189692598972576,0.0,9600,3.4486312866210938,0.0022136456617569866,0.001766132003541581,-185.02786268189203,0.0
49,4.978727340698242,-160.40181945953543,7.212388191764649,-143.38222993152536,-187.11922771428164,0.0,1.4472045933485826,0.1,0.015013456344604492,0.5606160163879395,0.048320867,0.06550185,-187.72929697624707,-1.5376334209742069,-1.6041469683351715,0.0,9600,2.3408660888671875,0.002796035637643063,0.0020536907313119385,-190.95163860227265,0.0
50,4.707583904266357,-157.70394962907235,8.362160095665846,-144.46697370320058,-213.3183995360016,0.0,1.4016349626114497,0.1,0.03275108337402344,0.48018956184387207,0.046502497,0.06360134,-184.7267622415296,-1.5105817006738176,-1.5771376449171293,0.0,9600,2.506619453430176,0.0028950964322203296,0.002095779198913869,-188.47240127288106,0.0
51,4.528597354888916,-154.4896675139692,7.248805676782384,-143.68190703890122,-197.45259462679442,0.0,1.3741150803042632,0.1,0.016527652740478516,0.41916441917419434,0.047805604,0.06686895,-181.70305276877355,-1.4786367696591138,-1.5450495282902088,0.0,9600,3.0820207595825195,0.00250208136661432,0.002079392758960036,-182.98965569876506,0.0
52,4.698734283447266,-153.13121689611512,8.603268582194172,-142.69163207192003,-211.9215690508086,0.0,1.4690016465539055,0.1,0.03216552734375,0.510988712310791,0.0502585,0.057961896,-178.8458691815077,-1.4649064152176823,-1.531501047464787,0.0,9600,3.7953341007232666,0.0030776620381479476,0.002493929676685281,-178.05686302064123,0.0
53,4.649915456771851,-148.52176172997568,4.57846138854738,-138.36893148259415,-164.0696361419867,0.0,1.4269679859917388,0.1,0.03220963478088379,0.5226905345916748,0.049474373,0.067535594,-175.8134584363545,-1.4192799160931304,-1.485480828473442,0.0,9600,3.0297253131866455,0.0015952150899697583,0.0012232629255543618,-180.39385983710403,0.0
54,4.792894124984741,-147.4211313855553,5.16673988377973,-138.64721036595427,-168.4531038578537,0.0,1.3944495401850254,0.1,0.017073631286621094,0.5208966732025146,0.040755138,0.060647283,-172.9742257312746,-1.4081063442459734,-1.4744423405378513,0.0,9600,2.9040491580963135,0.0013194585737269177,0.0012004926421819934,-181.47012346456444,0.0
55,4.617099046707153,-145.98051846713918,4.760955932703695,-137.33162771265265,-164.26820991815202,0.0,1.5001731400220724,0.1,0.015530109405517578,0.5006723403930664,0.044755116,0.05965084,-170.27485500486108,-1.3938503987132227,-1.4600342568203803,0.0,9600,3.6628942489624023,0.0012783344033358859,0.0010592041312624373,-180.78132827599921,0.0
56,4.806467294692993,-144.57047435220554,4.432587284675661,-137.56190676247294,-156.3961096278161,0.0,1.4476902573753638,0.1,0.04642081260681152,0.6410012245178223,0.050131742,0.06762325,-167.70441693959552,-1.3800714374310852,-1.4459729523598182,0.0,9600,3.7407493591308594,0.0011705982602563242,0.0010350309101895428,-175.4098093311137,0.0
57,4.610944747924805,-142.5929036591586,3.9960338611179496,-133.6614000829813,-153.9561877770079,0.0,1.4436148903429078,0.1,0.014111518859863281,0.5193567276000977,0.051378146,0.06764257,-165.19326561155182,-1.3602143606228776,-1.4262169272054075,0.0,9600,2.253770589828491,0.0010431915556748063,0.0008534716780014656,-174.02543573412777,0.0
58,4.172501802444458,-140.70877035258343,3.501381379583168,-134.86926473204463,-153.61376413024027,0.0,1.5054881458903853,0.1,0.013843297958374023,0.45195770263671875,0.046602905,0.06495768,-162.744816085655,-1.341543921429879,-1.407454037039751,0.0,9600,2.300063371658325,0.0009657940856458095,0.0006820357329475524,-175.6052736541083,0.0
59,4.51774001121521,-139.52626996148777,2.843434317377768,-133.32564951828897,-148.11189240105256,0.0,1.4776592826242683,0.1,0.03292250633239746,0.4597482681274414,0.047620084,0.06265189,-160.42296147323827,-1.329970370317966,-1.3956167744760526,0.0,9600,2.9270336627960205,0.0006246498277085013,0.0005064043581219375,-178.36362245339578,0.0
60,4.450532913208008,-137.79317985874323,2.6493501517741356,-132.4900735930427,-146.0312837238995,0.0,1.5903564463981823,0.1,0.017670631408691406,0.452955961227417,0.049532,0.06078312,-158.15998331178878,-1.3129247277717464,-1.3783535845979251,0.0,9600,2.776947498321533,0.0005703261530273365,0.0005865523101191413,-175.27962871282287,0.0
61,4.56724214553833,-137.20059247090776,3.199183128071689,-131.44510408503294,-148.55491861438418,0.0,1.4823410630586225,0.1,0.044973134994506836,0.5457882881164551,0.048545744,0.06254286,-156.0640442277007,-1.3071332240132805,-1.372443353472405,0.0,9600,2.7051310539245605,0.0008574491144656171,0.0006797208348196943,-172.75373569973536,0.0
62,4.648119688034058,-135.91288769247566,2.424187580136786,-130.8704787333617,-141.75483840185098,0.0,1.4662609394629007,0.1,0.018526315689086914,0.43762898445129395,0.042932484,0.061699186,-154.0489285741782,-1.2947139496606672,-1.359575151616123,0.0,9600,3.230292558670044,0.0007635310509216427,0.00035091739635268837,-173.57268375590215,0.0
63,4.508970022201538,-135.39344377898166,2.528055218345153,-130.8418989161022,-141.8315964395012,0.0,1.433662758840859,0.1,0.017844200134277344,0.5824050903320312,0.04944922,0.06753509,-152.18338009465856,-1.2895367502268835,-1.3543659755333628,0.0,9600,2.4227142333984375,0.00044018908778181557,0.0004175537435882561,-166.36668274335238,0.0
64,4.783055305480957,-134.42434892299661,2.219784819441466,-129.9153541087287,-142.1382771111217,0.0,1.4985109984644296,0.1,0.03331470489501953,0.5427455902099609,0.047105063,0.062010694,-150.4074769774924,-1.2797043346609571,-1.3446695358089105,0.0,9600,2.7629518508911133,0.0005005744455509657,0.0003389736591561155,-159.98094716369667,0.0
65,4.672221422195435,-133.62983786511793,2.51714367335387,-128.11101496545888,-140.84860509784292,0.0,1.5450888441960384,0.1,0.018927574157714844,0.6327371597290039,0.044615183,0.054376237,-148.72971306625496,-1.2716671314090184,-1.3367116503932912,0.0,9600,2.4688777923583984,0.0004489825627776416,0.00038820835451139124,-160.84938361031638,0.0
66,4.5830323696136475,-132.6240634099626,1.9013635014641137,-128.37092046792267,-137.98420446339787,0.0,1.4648568040831176,0.1,0.03371119499206543,0.534388542175293,0.04698705,0.05769763,-147.11914810062572,-1.261869554725383,-1.3266282003096792,0.0,9600,2.7519657611846924,0.0002964159255755023,0.00023169520452843504,-161.2267974641534,0.0
67,4.836923360824585,-132.11242388880154,2.247529546435762,-127.18323056452606,-139.72982002438508,0.0,1.4988024073018495,0.1,0.033852338790893555,0.5865352153778076,0.04809751,0.063562326,-145.6184756794433,-1.2569832839999842,-1.3215811950332563,0.0,9600,2.527402639389038,0.0003739198081416187,0.0002985282391750441,-151.1935228364633,0.0
68,4.527114391326904,-131.9050618653496,2.614140887922595,-127.48016439106384,-144.5594444768293,0.0,1.4764636025228608,0.1,0.016110658645629883,0.5374710559844971,0.044053674,0.065262295,-144.24713429803393,-1.255192745695836,-1.319457490622862,0.0,9600,2.5665602684020996,0.0004401308647162054,0.0003935983614690297,-149.9585827956707,0.0
69,4.280824661254883,-131.3642226211623,2.4286970763570337,-126.41768721213204,-139.49999616904788,0.0,1.5552014815640995,0.1,0.017380475997924805,0.3794219493865967,0.04459989,0.058617044,-142.9588431303468,-1.2497903905263616,-1.3140567246542443,0.0,9600,2.8708579540252686,0.00040727437335298303,0.00037188258154665954,-152.44854953137713,0.0
70,4.576439619064331,-130.16312391973966,3.234033085769121,-112.1298945415737,-139.11815074879598,0.0,1.6110344338275924,0.1,0.03282594680786133,0.4377939701080322,0.04816847,0.06600047,-141.6792712092861,-1.2408196953942519,-1.302076053418599,0.0,9600,2.8497447967529297,0.0009995262036480207,0.000983502534087635,-150.1525966404826,0.0
71,4.724209308624268,-129.5011971072762,2.7107012531878003,-117.38261438717798,-135.84801530392116,0.0,1.5444550154266319,0.1,0.032859086990356445,0.5023388862609863,0.041485015,0.057712898,-140.4614637990851,-1.2332839643320936,-1.2954840761592477,0.0,9600,3.0359597206115723,0.0007627959065473242,0.0006201880813294009,-147.7694395576368,0.0
72,4.557154893875122,-129.33017155260018,2.5836451957494027,-117.45970315227555,-136.44203535789262,0.0,1.481849758461036,0.1,0.04415130615234375,0.5661861896514893,0.04488289,0.06300284,-139.3483345744366,-1.2317883121364142,-1.293778347806825,0.0,9600,2.850475311279297,0.0006101004009792709,0.0005594294523344429,-146.06035416803496,0.0
73,4.534784317016602,-129.52954951000137,3.098815167434645,-123.39327940252468,-138.35870494661492,0.0,1.3679492350172706,0.1,0.02046370506286621,0.43306779861450195,0.03511832,0.052969698,-138.36645606799306,-1.2323272853155014,-1.2957710806654623,0.0,9600,2.648128032684326,0.000476021406515625,0.0004101524500659689,-145.93030023039222,0.0
74,4.844050168991089,-127.63189982261717,5.804549486006788,-76.73665547815231,-134.74279977537628,0.0,1.646863903463232,0.1,0.017545461654663086,0.4806187152862549,0.04688991,0.08555354,-137.29300044345547,-1.2198560731476398,-1.2767848110754203,0.0,9600,2.1127920150756836,0.0024309007396070025,0.0024057147532569475,-145.49984289208234,0.0
75,4.577291011810303,-127.0730441304197,3.5734433625129025,-108.38496687128186,-139.10016783641126,0.0,1.6785832393391684,0.1,0.015458822250366211,0.5731751918792725,0.044659033,0.058232933,-136.2710048121519,-1.2123786550247966,-1.2712086438466117,0.0,9600,3.3907620906829834,0.0013131978110540786,0.0011309841580259014,-145.0406515919812,0.0
76,4.526093006134033,-126.88244735028758,5.983205856894479,-76.08438799813224,-134.73287216298522,0.0,1.79209547669237,0.1,0.013838529586791992,0.5549972057342529,0.045595575,0.07064437,-135.33214906596547,-1.2136091453121358,-1.2692843033643175,0.0,9600,3.804511308670044,0.004580239111704799,0.004331615633640055,-139.96039933598226,0.0
77,4.692228078842163,-125.87428522062918,6.041202553256,-80.84529929704955,-133.58063990352358,0.0,1.6749470994805498,0.1,0.017487764358520508,0.46616053581237793,0.043818824,0.06632399,-134.38636268143185,-1.2067545169862204,-1.2592264312643895,0.0,9600,2.9581124782562256,0.0037778608586991756,0.003465114873194253,-119.73828042123107,0.0
78,4.816252946853638,-124.59207541550336,11.559096674331716,-55.52705497681386,-137.61871315295485,0.0,1.8191776373970876,0.1,0.032938480377197266,0.4137744903564453,0.049372017,0.059592564,-133.406933954839,-1.2115978085204855,-1.2468311815166462,0.0,9600,2.4710614681243896,0.017754127258229165,0.01610584839745093,-116.44799033877663,0.0
79,4.5749831199646,-118.29067278677205,18.27327734276382,-40.07121258955187,-136.50641600721764,0.0,1.6532889430143518,0.1,0.012518644332885742,0.5489697456359863,0.04610687,0.0637619,-131.8953078380323,-1.1980968847586495,-1.1834221226161066,0.0,9600,2.706683874130249,0.04564283528937321,0.040034448937756546,-105.57759482651649,0.0
80,4.239018678665161,-89.78472366320341,48.60740952582544,82.94632526797002,-132.10536313206666,0.0,1.5929229047932796,0.1,0.01800823211669922,0.5172436237335205,0.046958216,0.06421733,-127.68424942054942,-1.1757931354387232,-0.8983612444213565,0.0,9600,2.728196144104004,0.49558494855265,0.3680184710782602,-104.19661397458951,0.0
81,4.64106011390686,-64.1297915033845,62.18958458109107,94.43330272651636,-132.2574386244942,0.0,1.6276328515260634,0.1,0.017670392990112305,0.4479203224182129,0.04837005,0.058634423,-121.32880362883293,-1.1590658145493296,-0.6422327325730536,0.0,9600,2.641848087310791,0.8352252226733693,0.6836474381452006,-105.7956083902478,0.0
82,4.482140064239502,-19.52941750566617,75.70380545646873,185.82697947890657,-128.20831509907018,0.0,1.6916921904414328,0.1,0.014964818954467773,0.5360171794891357,0.041446116,0.05121701,-111.14886501651627,-1.135427450708645,-0.19713148911026943,0.0,9600,2.01826810836792,1.199314118820622,0.9649857834437043,-105.1265095691535,0.0
83,4.601201295852661,1.7256394555791914,76.91568681816192,181.7087497800975,-128.85383955385274,0.0,1.7238869823748826,0.1,0.020318269729614258,0.5129439830780029,0.042587135,0.05212673,-99.86141456930672,-1.1269584093010863,0.014998861423863127,0.0,9600,1.90744948387146,0.9548232449706813,0.8346964163562066,-109.91847744562783,0.0
84,4.641797065734863,37.772718478936596,77.17395713262799,190.36749077170063,-126.99248285699909,0.0,1.6125944415815971,0.1,0.012733697891235352,0.48903727531433105,0.045097124,0.057282932,-86.09800126448239,-1.1140453305297582,0.37589807400838343,0.0,9600,2.641443967819214,0.8186563131606482,0.6379561891998833,-110.07888165105824,0.0
85,4.8037495613098145,28.336480557282925,77.27106792715206,184.55061439124123,-126.05583487095387,0.0,1.67063072898755,0.1,0.03364300727844238,0.5567917823791504,0.04076008,0.051351923,-74.65455308230587,-1.1158952937273474,0.2819414039510919,0.0,9600,2.5643560886383057,0.706459073070876,0.6492067676615639,-109.9493132070564,0.0
86,4.333846092224121,55.45010821680548,71.74112979399929,202.45560993069662,-123.2778247997245,0.0,1.6047896403360575,0.1,0.018059492111206055,0.4190962314605713,0.03738386,0.05037266,-61.64408695239473,-1.1058062239530906,0.5530802178232156,0.0,9600,2.30422043800354,0.5020420049764928,0.42755438873480683,-109.46084577456048,0.0
87,4.63295578956604,65.51119738183824,77.2507668580705,213.9672866850838,-129.01489066243153,0.0,1.6250995228946543,0.1,0.06901836395263672,0.5943272113800049,0.039122492,0.050625484,-48.92855851897143,-1.1068472573994952,0.6528420315365083,0.0,9600,2.891005039215088,0.4533289029298391,0.4091202440245529,-110.59546119911273,0.0
88,4.629353046417236,78.71046333482629,71.4207147767723,218.57476245327067,-123.6801668066495,0.0,1.5115209921203567,0.1,0.020069122314453125,0.43033909797668457,0.04141271,0.05623785,-36.16465633359166,-1.1018262329061976,0.7831473773899481,0.0,9600,2.899608612060547,0.35739030303914626,0.33037692887276965,-114.86371197344248,0.0
89,4.6341331005096436,94.22948692708856,76.99921595039018,206.65476150102702,-113.48301929615825,0.0,1.6926647722469974,0.1,0.017286062240600586,0.4194347858428955,0.043400947,0.051663987,-23.12524200752364,-1.098395526092603,0.9391934517466761,0.0,9600,2.672736644744873,0.2940940540350301,0.273383543315699,-113.56443534543233,0.0
90,4.421241283416748,116.8573069071249,65.92613948554956,206.63375410053823,-121.3124211378579,0.0,1.5951925005303766,0.1,0.012862205505371094,0.4225940704345703,0.041324064,0.05192277,-9.126987116058785,-1.0907330226441718,1.1654501270747508,0.0,9600,1.8836455345153809,0.20832623914163723,0.16388888338036509,-114.16747613685615,0.0
91,4.476634502410889,129.2286049824323,68.77480647534668,218.87433630270644,-118.05407923471874,0.0,1.6043793341922807,0.1,0.016533374786376953,0.41084885597229004,0.044645727,0.05473167,4.708572093790325,-1.0878064644725447,1.2891656732678987,0.0,9600,2.053255558013916,0.17786256071658219,0.1484195239952887,-111.78808369779944,0.0
92,4.290691137313843,141.23909727435748,62.82856354737934,227.93599805921394,-120.82817974092654,0.0,1.6545125020655795,0.1,0.017531394958496094,0.43753552436828613,0.036719617,0.047138486,18.36162461184704,-1.085348750438485,1.4096968766400473,0.0,9600,2.6726911067962646,0.1113799179522055,0.10030700063092149,-115.75365059241862,0.0
93,4.795750141143799,142.26163867130307,60.344706906865795,219.770259730557,-88.32693900907114,0.0,1.544068893666839,0.1,0.01841592788696289,0.43389248847961426,0.038558125,0.05038601,30.751626017792645,-1.083175802493007,1.4194889807205628,0.0,9600,2.55330228805542,0.12646200856839993,0.11201460353519924,-115.51639622902776,0.0
94,4.386252164840698,147.27365741947958,59.44719883882837,227.42571443909475,-81.56390836812743,0.0,1.6326151182270208,0.1,0.01683950424194336,0.39694881439208984,0.041905377,0.050621655,42.40382915796134,-1.0824762913184038,1.4687715803890615,0.0,9600,2.349760055541992,0.0934190598004622,0.08060129351938375,-117.07901167907515,0.0
95,4.665920257568359,169.3325076083918,39.226903030237445,224.32711728481686,26.040878982978075,0.0,1.5728220693742065,0.1,0.016588449478149414,0.4661107063293457,0.040943366,0.05787839,55.096697003004394,-1.0765657787628342,1.689782788150603,0.0,9600,2.320283889770508,0.058507418592776105,0.04505214090912847,-129.27866880908906,0.0
96,4.826685428619385,163.05949472778914,49.5259952580496,223.35972399248197,-63.26463187938946,0.0,1.61488747207002,0.1,0.018308162689208984,0.430389404296875,0.04093139,0.051696286,65.89297677548288,-1.078329186077159,1.6270611954654282,0.0,9600,2.290188789367676,0.07198713756583038,0.06719544876873645,-131.21459464680927,0.0
97,4.65216326713562,171.16448459626523,44.44022913338157,231.51019696855076,-51.84954399582419,0.0,1.5424127319169896,0.1,0.011147022247314453,0.4133272171020508,0.043979004,0.054480765,76.42012755756112,-1.0771979479568083,1.7076896263131118,0.0,9600,2.3338892459869385,0.05634000113777646,0.05028425740063206,-130.41090751735047,0.0
98,4.644528865814209,172.85673916803273,48.69740787880596,231.08589045879023,-71.21784292201022,0.0,1.510501204076145,0.1,0.016201496124267578,0.4427611827850342,0.04508905,0.05549906,86.06378871860828,-1.07775316027402,1.725024385245775,0.0,9600,2.453852891921997,0.05452648247563373,0.04567703671637373,-128.18286941910114,0.0
99,4.5328145027160645,184.22648149433894,31.850719629503633,228.18712599251663,69.87928554916178,0.0,1.5224208430770212,0.1,0.016704559326171875,0.3466334342956543,0.04569603,0.06162597,95.88005799618135,-1.072425800271926,1.838287817181454,0.0,9600,2.4429900646209717,0.025217062055467577,0.019538882688930177,-128.36194291778597,0.0
100,4.509176969528198,180.47338008341944,43.74122997648632,238.02033986356997,-19.83009455684206,0.0,1.617499689476703,0.1,0.017709732055664062,0.5206825733184814,0.044726722,0.054799914,104.33939020490516,-1.0733740444539928,1.8007716676317704,0.0,9600,3.072685480117798,0.04916208745405494,0.04506544486761154,-128.31775763865326,0.0
101,4.639824867248535,187.5150988911283,39.46768605795496,232.8779184915605,7.5358537659215035,0.0,1.4810605228888856,0.1,0.03240203857421875,0.4924018383026123,0.044585302,0.05834771,112.65696107352747,-1.0709099808927027,1.8716050348674536,0.0,9600,2.763932228088379,0.036286528021856196,0.028879511747681153,-118.79718595214437,0.0
102,4.9395592212677,192.54129958319663,36.97491402224478,229.27549221897084,-2.9337530455074954,0.0,1.480145084781596,0.1,0.04464244842529297,0.48487329483032227,0.044840887,0.052785993,120.6453949244944,-1.0647116842001083,1.92143940482351,0.0,9600,2.5329277515411377,0.027492777854891827,0.02433658416346247,-127.04228129028576,0.0
103,5.199179172515869,200.58006762939044,29.86888113395106,234.15100253195845,41.54970961056205,0.0,1.5012577158405405,0.1,0.018119096755981445,0.512218713760376,0.04264204,0.05748416,128.638862194984,-1.0624171498590762,2.0018222378791943,0.0,9600,2.3503808975219727,0.018616124153120965,0.016338390695121056,-41.99280254673322,0.0
104,4.562480449676514,203.4697808393149,30.07962041842422,233.395463895835,18.476064830634602,0.0,1.4786653720229246,0.1,0.01745152473449707,0.47102999687194824,0.04703746,0.0577689,136.12195405941708,-1.0577925152350256,2.0307226182307225,0.0,9600,2.5360162258148193,0.014220297237079817,0.011477293903133788,-56.247320389620306,0.0
105,4.8797125816345215,206.96714278704317,21.84219166585149,241.75435589470732,106.39339765831426,0.0,1.5685318919862188,0.1,0.012459754943847656,0.47913694381713867,0.046640363,0.059672464,143.20647293217968,-1.053133517470189,2.0665409013878318,0.0,9600,1.964505910873413,0.012125387443535458,0.010103522549483272,-24.180816050718363,0.0
106,4.654386043548584,207.13861629842623,20.910307051056133,237.2823617549494,145.13180487821893,0.0,1.5495394260143285,0.1,0.014802932739257812,0.5000133514404297,0.047836043,0.058169212,149.59968726880433,-1.051817915927092,2.0673852060423807,0.0,9600,2.1999998092651367,0.009392910371233435,0.008064590736024642,21.093339269772624,0.0
107,4.4681055545806885,210.3632558446803,23.983029098460538,238.23515433962507,111.36094888203112,0.0,1.520422128220863,0.1,0.017423152923583984,0.4427170753479004,0.043977883,0.051928703,155.67604412639196,-1.0489894900821832,2.099642244629451,0.0,9600,2.0320725440979004,0.010773822454538276,0.0101705491365057,25.00261562667735,0.0
108,4.578080892562866,213.30337575774692,22.408166047836758,238.29973139300404,145.42547090416468,0.0,1.463751840548068,0.1,0.018101930618286133,0.47336697578430176,0.04787713,0.0642008,161.43877728952748,-1.045289505186089,2.129047088747958,0.0,9600,1.8541440963745117,0.008861147186330522,0.007659240398055846,49.96689004748727,0.0
109,4.597684860229492,216.71338217692588,18.727246836315786,247.07978996029945,127.67422418009777,0.0,1.5250371394549518,0.1,0.01443171501159668,0.3596940040588379,0.045772813,0.05393157,166.96623777826733,-1.0429344391648874,2.1631418154777275,0.0,9600,1.6235520839691162,0.00592193764038767,0.005572294653517919,57.96872356421091,0.0
110,4.662530899047852,218.94775316707646,22.672938695196184,254.48771651029276,80.69105579468825,0.0,1.4514746507423142,0.1,0.029289960861206055,0.4121377468109131,0.04865355,0.06791706,172.16438931714825,-1.0409535494893756,2.1855006873243514,0.0,9600,3.095864772796631,0.009241948166124477,0.008229476285475868,54.108298922300825,0.0
111,4.453038930892944,223.1597515656978,18.116229154661763,252.3386001540594,142.9379663357527,0.0,1.5036518589207235,0.1,0.032251834869384766,0.42463088035583496,0.04668735,0.056206185,177.2639255420032,-1.037502235737576,2.228477936704778,0.0,9600,2.762220621109009,0.005119139680111956,0.0042329291476459726,28.172837311672666,0.0
112,5.215965270996094,224.31724988650308,15.412781394770526,259.35846675247006,160.2990341136255,0.0,1.4723231643007166,0.1,0.01712179183959961,0.457442045211792,0.04858176,0.05904933,181.96925797645318,-1.0364462727873254,2.2391854148451658,0.0,9600,2.803622007369995,0.0033319885654280877,0.0026042324724379253,54.34351562803722,0.0
113,4.778280019760132,225.3744084746245,21.57532954254341,265.8785938214301,97.81992904941008,0.0,1.3474690300751127,0.1,0.03317856788635254,0.4968898296356201,0.04836479,0.06479732,186.3097730262703,-1.0354436296375658,2.249746521811461,0.0,9600,2.9919841289520264,0.00434364983876439,0.004040714844789743,54.60947425550053,0.0
114,5.25286865234375,231.12733155461987,17.24450406059346,264.22004570432523,183.20978840746585,0.0,1.2749576864786887,0.1,0.03221631050109863,0.4686124324798584,0.049361862,0.090571634,190.79152887910527,-1.0318192177711853,2.3077104796821644,0.0,9600,2.7569665908813477,0.0037772404913341746,0.0030952080894370787,64.02981541498755,0.0
115,4.835740327835083,236.41307043563674,15.59704838965256,267.2924447057267,187.99927517937863,0.0,1.32046777688657,0.1,0.01567363739013672,0.37691736221313477,0.04669037,0.07592034,195.35368303475843,-1.031851011907816,2.360146277602381,0.0,9600,2.480736017227173,0.0024194786190247387,0.0020443204315566056,-23.120297510907715,0.0
116,4.540045976638794,232.61932392726644,66.10498229659487,267.1586171760362,-116.46811353496525,0.0,1.405851611867577,0.1,0.014889955520629883,0.538649320602417,0.04956744,0.060674157,199.08024712400922,-1.0451159577825617,2.322216295743276,0.0,9600,2.15106463432312,0.0772737592226404,0.044105001824141156,-36.13376423859155,0.0
117,4.285044193267822,244.7164934294614,33.80568358831404,267.31920320033885,-35.751950691320516,0.0,1.5321173067554499,0.1,0.012405872344970703,0.49956703186035156,0.049664993,0.061120395,203.64387175455443,-1.0295349889513752,2.4431719489483243,0.0,9600,2.3144609928131104,0.017293947955458217,0.013009003905259713,18.768047405948867,0.0
118,4.60393762588501,235.90377112730553,69.37188428166775,266.95511563589923,-166.49971793091942,0.0,1.4522090039387865,0.1,0.023363828659057617,0.5471835136413574,0.049289793,0.053168774,206.86986169182953,-1.0404490721910524,2.3550365253916907,0.0,9600,3.93459415435791,0.04208819477899056,0.029839182632508263,40.39302981814496,0.0
119,4.517392873764038,250.30696106908215,16.54346237542129,267.8994959143765,160.53073237345464,0.0,1.5736300271125403,0.1,0.0452580451965332,0.5668432712554932,0.048358325,0.05940634,211.2135716295548,-1.023832836840901,2.4995069142970157,0.0,9600,3.6990997791290283,0.00578141870779705,0.002883165462765959,53.72349501273307,0.0
120,4.496261835098267,253.9842498268657,14.619926850500276,268.70858733567616,187.19749963756698,0.0,1.5353058807929096,0.1,0.01896834373474121,0.4952974319458008,0.046778448,0.057888884,215.4906394492859,-1.0210747026907716,2.5358516125121446,0.0,9600,2.494572162628174,0.003021287626201676,0.002643838055518467,33.089224282652516,0.0
121,4.578492879867554,255.2391802995511,13.098972597618934,269.30798579321174,180.47241574305477,0.0,1.3916465759299734,0.1,0.01766490936279297,0.4862709045410156,0.04951945,0.061266292,219.46549353431243,-1.0189944283956685,2.548394185810528,0.0,9600,2.415457248687744,0.002049818958430511,0.001744216791441928,15.747490819369707,0.0
122,4.618957996368408,241.64037648329932,70.51014329172385,268.5969957891816,-127.0137645036002,0.0,1.5426767633925544,0.1,0.017682552337646484,0.4107234477996826,0.048522018,0.050912548,221.68298182921112,-1.0354912819646744,2.41240209333384,0.0,9600,2.451792001724243,0.05681017683449937,0.034321885617351694,37.1548648188842,0.0
123,4.501250743865967,249.26589087417233,38.48205515446526,270.1647359521969,-77.9499379279217,0.0,1.5374145767314755,0.1,0.01771092414855957,0.33419370651245117,0.05011636,0.05863863,224.44127273370722,-1.0261007844826826,2.4886682670254276,0.0,9600,2.3114888668060303,0.01550071217145067,0.011439814456414623,64.789946983285,0.0
124,4.863867282867432,257.8076888956791,10.35858387276261,268.6454269720484,208.57423605212546,0.0,1.5683295879451866,0.1,0.011912107467651367,0.5060367584228516,0.048028525,0.061110977,227.77791434990442,-1.0162493598571223,2.5740826995161843,0.0,9600,2.85504150390625,0.003265032055128027,0.0016342822523672934,61.71336733936335,0.0
125,4.74244236946106,254.60579782717093,24.87285367070226,269.7985883186936,77.05907918340337,0.0,1.4491664006708571,0.1,0.016298294067382812,0.3547682762145996,0.046646815,0.057419524,230.4607026976311,-1.0203634703606974,2.542066635141239,0.0,9600,2.428102970123291,0.008447708526739534,0.006935628604790132,44.13800307883589,0.0
126,4.49519681930542,260.4464165726065,12.79282245910388,269.7546027100139,172.57485246463276,0.0,1.5471357203505276,0.1,0.017175674438476562,0.42366886138916016,0.04540842,0.060519073,233.45927408512864,-1.0154372778163132,2.6004836134116793,0.0,9600,2.46901273727417,0.003345986921388484,0.0016187121140710688,83.63721809223028,0.0
127,4.5219504833221436,253.92614482926786,46.390331252004664,269.8139614449336,-90.64016422033917,0.0,1.3741414198592061,0.1,0.03279471397399902,0.5146994590759277,0.049038794,0.052393205,235.50596115954255,-1.0209134891826877,2.535259767984438,0.0,9600,2.6262967586517334,0.02465562872928366,0.016985168831046484,147.09995024612866,0.0
128,4.600800037384033,252.12966553780026,49.3091058763287,270.24536935760466,-157.14214386635393,0.0,1.3632509485517954,0.1,0.03297114372253418,0.418271541595459,0.048838984,0.054046597,237.16833159736834,-1.0216174445951551,2.517306452684108,0.0,9600,2.4387154579162598,0.02307474495555823,0.017446695049381053,233.1077155326559,0.0
129,4.442372798919678,259.06836339485136,18.28169852173016,269.83272499924726,131.80321570117255,0.0,1.6616287615333847,0.1,0.03322958946228027,0.5808324813842773,0.046338074,0.05200431,239.35833477711662,-1.0155261450194875,2.5867048926417384,0.0,9600,3.1181700229644775,0.005094257014590301,0.0032927602801480376,186.44464936513626,0.0
130,4.455584764480591,257.8467198525595,16.674690536967336,270.52599764081293,171.05507602317414,0.0,1.4027903178130694,0.1,0.01769852638244629,0.4848954677581787,0.047104225,0.05607263,241.2071732846609,-1.0142063499365728,2.574896085110293,0.0,9600,2.563552141189575,0.0032803500809512436,0.0029032517798044514,121.88202306876431,0.0
131,4.48229718208313,258.61020573565435,40.084371978265786,270.16548034831106,-117.88827424196454,0.0,1.32974757079046,0.1,0.01786208152770996,0.4913041591644287,0.04846991,0.049502358,242.94747652976025,-1.0145109757312378,2.5821050617884054,0.0,9600,2.6975486278533936,0.016306587874276766,0.01116277591543166,142.68841560245434,0.0
132,4.807288646697998,255.74261946364416,50.70425776315593,269.92372725127467,-126.08344389966263,0.0,1.449883004381128,0.1,0.01736307144165039,0.38723230361938477,0.048470892,0.045524623,244.22699082314864,-1.01928185771913,2.5539102925881605,0.0,9600,2.6028995513916016,0.016508518195853587,0.013658333151807926,155.14354663233723,0.0
133,4.597146272659302,260.8444697891535,13.094687022969762,272.7340959575167,168.75764248110642,0.0,1.52963523054067,0.1,0.033943891525268555,0.5593595504760742,0.048007976,0.06374712,245.88873871974914,-1.0105499204853692,2.6044467684462815,0.0,9600,2.7893519401550293,0.004722520948789248,0.0023127006226524335,142.68287002010715,0.0
134,4.662524461746216,263.1475826028901,8.028993252553779,270.15336895264466,234.62017464274902,0.0,1.5046152536196211,0.1,0.018694162368774414,0.559258222579956,0.046843737,0.057859384,247.61462310806326,-1.0087451887153593,2.627904161017904,0.0,9600,2.7981996536254883,0.0010098197911144902,0.0008028718893021484,100.18915041484726,0.0
135,4.496506214141846,259.4316317674841,29.364222073155975,273.89776376298204,-5.254559004899471,0.0,1.5285574080285271,0.1,0.01922321319580078,0.6033477783203125,0.04803804,0.05055967,248.79632397400536,-1.0110356656984143,2.5907505319873976,0.0,9600,2.7153046131134033,0.010919873764990653,0.007054448417884711,138.10705080363581,0.0
136,4.553032159805298,262.6229923225945,10.954778264295603,272.87213427911047,216.11730359155754,0.0,1.5238680117871064,0.1,0.04446887969970703,0.582042932510376,0.04890808,0.05486188,250.17899080886428,-1.0098255026321035,2.6222344921548597,0.0,9600,3.9860854148864746,0.0033779067266415156,0.0014502358113072053,97.13622787189797,0.0
137,4.617127418518066,253.18828178364183,65.83050525704003,273.4259384081078,-117.20059529111751,0.0,1.4174218544063777,0.1,0.012144327163696289,0.4517385959625244,0.048492514,0.053659383,250.47991990634205,-1.0244010326884985,2.5284006825501724,0.0,9600,2.3419010639190674,0.037588238657760724,0.021529462736835554,71.7745280616755,0.0
138,4.433946847915649,262.750157546996,13.950735269757034,273.45948794881645,190.54141252237704,0.0,1.5051811332840745,0.1,0.017505168914794922,0.4397895336151123,0.049883116,0.06410861,251.70694367040747,-1.0097720339797476,2.6235028402096794,0.0,9600,2.537729263305664,0.004417667969068008,0.0018471602016626007,89.20424648489333,0.0
139,4.913076400756836,259.9676255866203,40.037082324624215,273.71343221231035,-114.91829249141041,0.0,1.4319642238024797,0.1,0.018538713455200195,0.4857194423675537,0.048978765,0.04589522,252.53301186202876,-1.0125865209197558,2.5956738913268254,0.0,9600,2.1671600341796875,0.011350252402423894,0.00824500067336924,133.80773554600353,0.0
140,4.644945383071899,262.56832748983237,9.563518246167266,273.9141915084164,225.26014134324353,0.0,1.482801459991949,0.1,0.012846708297729492,0.5014686584472656,0.048835456,0.062178895,253.53654342480914,-1.0104800837011174,2.6216780368068915,0.0,9600,2.604813575744629,0.0017800063575603305,0.000911404625428478,98.71652424460014,0.0
141,4.843131065368652,265.7760285650353,7.28481248792169,275.2190720563207,231.61051774034706,0.0,1.4501032137237144,0.1,0.016466617584228516,0.34879064559936523,0.048760578,0.060883548,254.76049193883176,-1.0049934983560105,2.6537627745907377,0.0,9600,2.269533157348633,0.000899057759739346,0.0007940759705237669,130.03397824804432,0.0
142,4.928808927536011,261.64945158749236,39.30455722016241,274.9401681802636,-112.34735390825668,0.0,1.393892747854331,0.1,0.016991138458251953,0.387789249420166,0.047450643,0.043368153,255.44938790369784,-1.0086083275249897,2.6124864599062554,0.0,9600,1.7680749893188477,0.01179200839971419,0.006703719844927454,83.07979580071662,0.0
143,4.664266347885132,264.6324303548766,10.389507906674226,274.63440448245564,221.04339810267624,0.0,1.6586389549983012,0.1,0.017612695693969727,0.4636404514312744,0.04984221,0.059013393,256.3676921488157,-1.0034213080420906,2.6423308366686906,0.0,9600,2.85752534866333,0.0032930201192645867,0.0016620293989629857,90.94266908162251,0.0
144,4.694411516189575,265.338516381035,7.896037476972369,274.1878815568602,223.43029061752486,0.0,1.445776196418085,0.1,0.022368431091308594,0.48190927505493164,0.0494656,0.059066217,257.26477457203765,-1.0038730043181499,2.6497935060968802,0.0,9600,3.996872663497925,0.0007446371266520699,0.000580238590470513,103.76946080559384,0.0
145,4.82404088973999,266.0727866674725,6.875200188757288,275.2387216299417,235.4853742564219,0.0,1.6125640577228597,0.1,0.07059192657470703,0.9331369400024414,0.048311114,0.05297023,258.1455757815811,-1.0017547943445093,2.6567198872604276,0.0,9600,2.5997533798217773,0.0008133036470578004,0.0007326436316026873,103.64746255836548,0.0
146,4.596946477890015,256.4187954013194,59.960989479962976,274.4738505876287,-98.35096943416376,0.0,1.2816679420369799,0.1,0.033127784729003906,0.42426085472106934,0.049352616,0.15483752,257.97289774355494,-1.0107977521977434,2.5601920174215675,0.0,9600,3.102473258972168,0.042055011141824486,0.025335976622262536,123.53735934459802,0.0
147,4.37746262550354,263.48791303285253,39.877501701229306,273.08671147613984,-122.81857519203338,0.0,1.346616481368797,0.1,0.08055520057678223,0.6853690147399902,0.049174882,0.050965797,258.52439927248474,-1.0034678887715753,2.630882013558002,0.0,9600,3.1940901279449463,0.017999060244416745,0.005410801815646081,135.0149737434589,0.0
148,4.443736791610718,265.7259499707208,7.206019273982982,273.6658120250809,227.08693749384864,0.0,1.6607381933398713,0.1,0.016588926315307617,0.3924250602722168,0.049595125,0.057438176,259.24455434230833,-1.002428794215274,2.653265806934613,0.0,9600,2.808500051498413,0.0018992608992791018,0.0006213197149740981,105.89093838847765,0.0
149,4.544431686401367,265.9713870539786,6.072248353601527,274.2653667152784,235.0813871304863,0.0,1.4590866974471521,0.1,0.044400930404663086,0.4815530776977539,0.050189927,0.06697485,259.9172376134754,-1.00261686500853,2.6557121024493253,0.0,9600,3.5140271186828613,0.0005650407908653046,0.0004673382489477085,127.46995290944832,0.0
150,4.61751651763916,265.6558232728225,8.404281227035623,274.5652647110772,220.8280673141237,0.0,1.4534179260925368,0.1,0.032521963119506836,0.4957401752471924,0.04766599,0.059184223,260.4910961794101,-1.0024087848704966,2.652554647327134,0.0,9600,3.202157497406006,0.0014105743059799737,0.0012207726104142642,119.23536948487667,0.0
151,4.613590240478516,266.36465866517653,8.833393667058413,274.2024880156974,203.38450146651218,0.0,1.4181047448823814,0.1,0.029569149017333984,0.7347793579101562,0.0469683,0.055035893,261.0784524279867,-1.0012526480514514,2.6596463957272545,0.0,9600,3.2772977352142334,0.0015231939142124206,0.001305509195627986,185.63846332741923,0.0
152,4.738655090332031,265.87686321171947,10.936679004655863,273.75048581111366,173.95503855682665,0.0,1.4323638640061067,0.1,0.030224084854125977,0.4306175708770752,0.04933959,0.05524138,261.55829350636,-1.0017149689106661,2.6547622645363593,0.0,9600,2.973759651184082,0.0013588908371145012,0.0008002774645553587,222.3234278071887,0.0
153,4.690702676773071,267.4666202744264,5.919342111430554,275.3245378458541,232.1232831788061,0.0,1.500106485257041,0.1,0.016990184783935547,0.4090437889099121,0.05079149,0.068691395,262.14912618316663,-1.000250076421987,2.6706668248161627,0.0,9600,2.1551673412323,0.0006620569220965807,0.00046835415374410716,238.2435462508179,0.0
154,4.868886232376099,267.3992077678595,7.33521046593443,274.63523055891073,233.77070076552752,0.0,1.388973635054067,0.1,0.016314268112182617,0.36847591400146484,0.048294347,0.05248289,262.6741343416359,-0.9990033545113802,2.66999595458867,0.0,9600,2.5960938930511475,0.0004461735372951917,0.00042378204903852247,193.86230850722183,0.0
155,4.722050189971924,269.61166503925597,2.3725238721223194,274.8183038191249,257.3179384367724,0.0,1.6169104810830295,0.1,0.017770051956176758,0.5664858818054199,0.048477396,0.06256128,263.36788741139793,-0.9959240649453872,2.692112036090114,0.0,9600,3.1938247680664062,0.0001819798867595693,0.00013415111574859641,225.73850948692865,0.0
156,4.543230056762695,268.8794348401088,4.174371139551448,275.54496125024843,251.61711518573406,0.0,1.511763101284726,0.1,0.01766180992126465,0.5635042190551758,0.049355395,0.064546265,263.919042154269,-0.996066803854822,2.684794924681867,0.0,9600,2.8337295055389404,0.0002200268276006694,0.00019545684472192212,218.20757600458455,0.0
157,4.545883417129517,268.07909372664136,5.995554185039849,276.1812469140965,244.37676743378515,0.0,1.4272323906875517,0.1,0.018925189971923828,0.5339820384979248,0.050501373,0.05305993,264.33504731150623,-0.9963429419716446,2.6767754447513403,0.0,9600,2.473558187484741,0.00034985400667059726,0.000318862084620033,198.02313353380907,0.0
158,4.808363199234009,268.99414675887624,8.235287826867921,275.25816739074855,206.60726226072836,0.0,1.3657976886381058,0.1,0.017486572265625,0.4684295654296875,0.04887082,0.056077983,264.80095725624324,-0.9949525835474665,2.6859301138353495,0.0,9600,3.4672629833221436,0.0008705118664401246,0.000751426867012637,246.50817591380806,0.0
159,4.417718887329102,269.7027726093149,6.1799279059781345,276.8377064199956,236.17010925903648,0.0,1.512590224709688,0.1,0.017351150512695312,0.4430677890777588,0.04974893,0.058818575,265.2911387915504,-0.9927147328973058,2.6930253981317716,0.0,9600,2.958052396774292,0.0007940966566048101,0.0007535101091658947,272.2500009459312,0.0
160,4.795187711715698,266.79425278564275,37.43442085211711,276.8379778600982,-95.43689412553995,0.0,1.0525867828204911,0.1,0.0333714485168457,0.43761229515075684,0.049677707,0.057126347,265.44145019095964,-0.9966424668597037,2.663933736157912,0.0,9600,2.852227210998535,0.014268927741765159,0.0058645804340151835,273.1780608474184,0.0
161,4.76997447013855,270.19829046524734,7.245385756245072,277.18825442271344,206.86573024531987,0.0,1.2929365958302912,0.1,0.01641368865966797,0.375551700592041,0.048654884,0.0572849,265.9171342183884,-0.9955457551584385,2.697986598051468,0.0,9600,2.132646083831787,0.0014007649225994089,0.0003607367891479616,216.5580349096284,0.0
162,4.698168992996216,264.8698441749142,36.24757920332244,274.8178516929852,-79.73476221470584,0.0,1.4104911917629495,0.1,0.012851476669311523,0.4845564365386963,0.048419945,0.048521243,265.812405214041,-1.005306677669532,2.6447071679170446,0.0,9600,2.24566650390625,0.015663335458439728,0.005050463974964831,216.5522521536592,0.0
163,4.659727573394775,269.26813138108827,5.234286287435374,276.193652603108,245.82174710081316,0.0,1.7258756139119469,0.1,0.03199505805969238,0.4802744388580322,0.04939576,0.057449184,266.1579778307457,-0.9992094301102076,2.6886802923048445,0.0,9600,3.42402720451355,0.0010114342362618006,0.0003683943460342199,237.90251147905818,0.0
164,4.737964391708374,267.1827066648521,22.767198945288207,276.4422310127707,97.92131607364087,0.0,1.7096118655606676,0.1,0.018208026885986328,0.5012543201446533,0.04851877,0.04560452,266.2604507141564,-0.9972560201912722,2.6682522201245855,0.0,9600,2.6358067989349365,0.009050549667589499,0.004254403312681457,270.2424477168597,0.0
165,4.483760356903076,267.3406866889419,19.78427403054976,275.78217828225877,85.08435691168098,0.0,1.4697502242668326,0.1,0.02742600440979004,0.7294936180114746,0.049251914,0.055845316,266.36847431163494,-0.9976747311850325,2.6698357214074804,0.0,9600,3.2587640285491943,0.0109544981626508,0.00684063198498095,275.5117938783991,0.0
166,4.59525203704834,266.2762758253327,36.42456339874934,276.3093619402939,-81.59686434041821,0.0,1.5314949525706862,0.1,0.056854248046875,0.5448355674743652,0.049426135,0.04356873,266.35925446300473,-1.0014606062962548,2.6591904417813015,0.0,9600,2.637399673461914,0.011262964646044283,0.006861555613850997,275.27361118212616,0.0
167,4.63546085357666,267.7519356458808,14.31179375097437,275.68440249161654,142.9796039810446,0.0,1.4872359781421407,0.1,0.0330350399017334,0.6319930553436279,0.049567383,0.054190606,266.4985225812924,-0.9982133683905722,2.673525077728131,0.0,9600,3.7403547763824463,0.003085400980826291,0.0012937553335781136,272.63051856797784,0.0
168,4.447257995605469,269.1176066583694,9.221520537167073,276.868049522698,204.10227873247834,0.0,1.5025303076544296,0.1,0.016480684280395508,0.4268033504486084,0.04761619,0.05856553,266.7604309890001,-0.9921753173610396,2.6871672443533576,0.0,9600,2.3093833923339844,0.0018635374608116525,0.0014559453579089821,276.9197389475011,0.0
169,4.554739236831665,270.36073744847135,4.427928699555456,276.3937644264312,244.07407222720806,0.0,1.476171906175109,0.1,0.032921791076660156,0.4663078784942627,0.04842096,0.059590872,267.1204616349472,-0.9948274631895914,2.699601881718589,0.0,9600,2.3530306816101074,0.0002778452466459897,0.00019185025227726912,273.6984426331196,0.0
170,4.620923280715942,266.5135843674534,39.394656373502784,276.12597212276324,-114.19461141685485,0.0,1.4033483729883387,0.1,0.0178682804107666,0.49594855308532715,0.050714698,0.039133515,267.0597739081978,-0.9952327760990469,2.6611313166403248,0.0,9600,3.0226428508758545,0.011487300954166633,0.004203034542564523,273.3248890978397,0.0
171,4.700411319732666,271.05339758336856,2.5819765829731667,275.4556557302935,261.350395638803,0.0,1.558487039450214,0.1,0.0417790412902832,0.5475502014160156,0.0488316,0.062974334,267.4591362757149,-0.9912197409131522,2.7065178421978366,0.0,9600,2.693023920059204,0.0002868049825239682,0.00011609950484196743,273.74902855358715,0.0
172,4.609843730926514,270.38706975630026,7.307705746668816,276.7285756525669,230.82888433337672,0.0,1.5024609375878064,0.1,0.03197312355041504,0.45239782333374023,0.0502088,0.06539537,267.75192962377344,-0.9906010773241055,2.699871352716498,0.0,9600,2.8946139812469482,0.0005602645118980211,0.0004966702159036609,277.3351090247719,0.0
173,4.516778469085693,270.5603438119576,6.551573505615909,276.2306682780274,231.4822341120371,0.0,1.4327113040043613,0.1,0.017639636993408203,0.4770839214324951,0.04701368,0.051998165,268.0327710425919,-0.9904053680735082,2.7016114001604983,0.0,9600,2.6374218463897705,0.0005652971911737538,0.0005059771058673597,276.3884256276224,0.0
174,4.756672382354736,268.64473510436386,30.65179089105752,277.62073753578164,-27.903485835237817,0.0,1.1696540329753544,0.1,0.0324549674987793,0.4792625904083252,0.049649592,0.06226709,268.0939674487691,-0.9881433048197729,2.6824480837125364,0.0,9600,3.07193660736084,0.015158321790630966,0.009166119265533238,275.7469505075728,0.0
175,4.503991603851318,270.9326869427327,7.033404957306475,277.6749209060505,220.64783057921287,0.0,1.6124681528498646,0.1,0.017564773559570312,0.37988710403442383,0.04897712,0.060045447,268.37783939816546,-0.9885306082634981,2.705311957299113,0.0,9600,3.4467406272888184,0.002949162279172994,0.0009856280271342964,275.5638669468932,0.0
176,4.595022916793823,269.75372875461835,8.56432513730865,275.67457917037734,205.55417297884688,0.0,1.5344526612861897,0.1,0.01818990707397461,0.45182180404663086,0.048134014,0.05501738,268.51542833381075,-0.9924218481765538,2.693523935613452,0.0,9600,2.05674147605896,0.0013923221171783457,0.0011649102037399176,274.96291845907996,0.0
177,4.632959365844727,271.2564293495712,6.049907360500976,277.1041761355098,229.8375298310417,0.0,1.4928812477667204,0.1,0.01948070526123047,0.5760641098022461,0.049785264,0.054292306,268.7895284353868,-0.9882806144746598,2.708554676687404,0.0,9600,2.5351784229278564,0.0005239216732699006,0.0003486398581225696,275.261850539626,0.0
178,4.422041177749634,272.87239502226413,3.1534850671456898,277.33367338334733,260.50499003333556,0.0,1.6079717817977965,0.1,0.01718449592590332,0.39191198348999023,0.049299847,0.05890235,269.1978150940745,-0.9883102137817703,2.724706342638181,0.0,9600,2.6256673336029053,0.00020989488548137038,0.0001511477426848111,275.35534824268836,0.0
179,4.409475088119507,267.21145442031707,43.712891203030985,276.0396296404965,-147.43316814265887,0.0,1.3024813637769277,0.1,0.015972375869750977,0.3842635154724121,0.049496938,0.044041496,268.99917902669876,-0.9938608869057927,2.668637673955825,0.0,9600,3.177663803100586,0.01490724066198221,0.006303973469466543,275.5234454690914,0.0
180,4.541837215423584,269.843721761046,15.11806514658194,277.2925950053411,140.20757484205078,0.0,1.506921744777784,0.1,0.01700282096862793,0.3810997009277344,0.047481004,0.053192146,269.0836333001335,-0.9900020987495596,2.694433264165267,0.0,9600,2.828376054763794,0.004369468271822089,0.0025937958804130635,276.0390935312422,0.0
181,4.649412393569946,271.8254557583991,5.784628044321503,276.61048625620606,225.0367454090676,0.0,1.5408829006034426,0.1,0.032485246658325195,0.5243217945098877,0.04851884,0.058455627,269.3578155459601,-0.9876244994854657,2.7142492858518743,0.0,9600,3.4352009296417236,0.0006402800870399178,0.00043678081862702717,275.950768720146,0.0
182,4.7347705364227295,272.1067434484298,5.47136981397788,276.65799790823587,231.96940056280081,0.0,1.5616337364188433,0.1,0.017261266708374023,0.43268346786499023,0.049202766,0.056460764,269.6327083362071,-0.9879324760757151,2.7170598821371086,0.0,9600,2.6830577850341797,0.0004946375342298672,0.0004521166657115664,275.66871362485114,0.0
183,4.500780820846558,272.6401060813864,2.9617827780257864,276.749918996954,254.00486571567652,0.0,1.535857174923371,0.1,0.010653972625732422,0.37349915504455566,0.049447432,0.060207594,269.933448110725,-0.9869830025781443,2.7224030650323585,0.0,9600,2.2593789100646973,0.00012555587294536472,0.00010286480360931465,275.5153940684274,0.0
184,4.787331581115723,272.5367144924312,4.51664157569935,277.1456438942496,248.8055938574586,0.0,1.555816370566569,0.1,0.017273664474487305,0.49432873725891113,0.049428403,0.059066013,270.19377474889563,-0.9838818625268534,2.721357459442109,0.0,9600,2.708932399749756,0.0003378828991381611,0.0002918218750293061,276.6536847607409,0.0
185,4.418837070465088,269.3224653359562,32.60018486115183,277.056331048495,-46.05114199507801,0.0,1.4617287704531037,0.1,0.012089014053344727,0.4202311038970947,0.049389478,0.044418525,270.1066438076017,-0.987628563585678,2.689223011148942,0.0,9600,2.852139472961426,0.010425869879700761,0.004176069271675168,277.74252411822715,0.0
186,4.614870548248291,269.70356456009847,33.57163420815537,277.93452548314235,-54.26115244765506,0.0,1.302582416196311,0.1,0.032887935638427734,0.43090033531188965,0.047764417,0.049104758,270.0663358828514,-0.9866627656543691,2.693021021176337,0.0,9600,2.8812835216522217,0.0065121623875739176,0.0033060817862431806,276.09119686790086,0.0
187,4.566795587539673,272.5794754135056,3.5815817920320074,278.5160529339219,256.2120445231503,0.0,1.403637102503726,0.1,0.017358064651489258,0.40636205673217773,0.04914566,0.100141004,270.3176498359168,-0.9881493705207524,2.721781950106282,0.0,9600,3.9089112281799316,0.000678250356133316,0.00016485185871274507,275.6415576174119,0.0
188,4.531168460845947,271.91051691935166,6.460946955559321,278.05756851898747,234.59768966711988,0.0,1.3981680803139478,0.1,0.017945051193237305,0.5415651798248291,0.050078493,0.06035474,270.4769365442603,-0.9856253413861175,2.7150838498661263,0.0,9600,2.2267420291900635,0.0006671009416098949,0.0005816380862174865,275.82064148361695,0.0
189,4.571901798248291,272.368526881537,10.811408712644335,277.5628603832107,170.1939123804145,0.0,1.4364821019252005,0.1,0.01798558235168457,0.5484113693237305,0.050440405,0.03890997,270.66609557798796,-0.9847406342757599,2.71967666110143,0.0,9600,2.1307647228240967,0.0008489737068060337,0.0007617203082289056,276.5543806958281,0.0
190,4.631665945053101,271.92576457778137,7.253382560408127,277.2798699837737,222.87515110904852,0.0,1.5975553578461883,0.1,0.016600370407104492,0.4085414409637451,0.05028967,0.053516153,270.7920624779673,-0.9838306578226806,2.715245229400064,0.0,9600,2.8811757564544678,0.001060945039069186,0.000780279356260521,276.45069557139453,0.0
191,4.631112098693848,269.2352709774937,41.29247554620885,277.1046943351786,-132.3367931809125,0.0,1.393673313449185,0.1,0.0444941520690918,0.6971065998077393,0.049337767,0.045899883,270.63638332791993,-0.9885860750240235,2.6883392518289604,0.0,9600,3.7681891918182373,0.013998673856316986,0.003615232567425521,275.71815750880506,0.0
192,4.71125340461731,273.6622482870883,4.471009479761028,277.16961808525866,235.87109762538054,0.0,1.4773653155790971,0.1,0.012419700622558594,0.506169319152832,0.0491881,0.08936841,270.93896982383677,-0.9846238446776973,2.732610828027299,0.0,9600,3.1956114768981934,0.0003992771055707496,0.0002383990288720129,275.85094896304696,0.0
193,4.67126727104187,273.31154854428763,4.1508716791843225,277.5045569897811,248.73250157279747,0.0,1.623360243081253,0.1,0.014793157577514648,0.48592638969421387,0.048264988,0.05866568,271.17622769588183,-0.9837158084299963,2.7291102434398695,0.0,9600,2.3996245861053467,0.0003421955431548713,0.00033539885138036366,276.02354336405557,0.0
194,4.951632976531982,273.62017145418326,2.630323110322181,277.41854576557665,262.2633999229367,0.0,1.455747446124285,0.1,0.013544559478759766,0.41419339179992676,0.049315237,0.07231366,271.420622071712,-0.9816853594210325,2.732188389246724,0.0,9600,2.227555274963379,0.00016405294591986472,0.0001065492740436828,275.6806450545876,0.0
195,4.531090021133423,273.88562449284325,2.9584670997395754,279.58684105458235,257.4423061086262,0.0,1.3695377531109116,0.1,0.01680159568786621,0.31248950958251953,0.04925075,0.07568997,271.66712231382513,-0.979898246647619,2.734859353218178,0.0,9600,2.654432773590088,0.0001313963245317954,0.00011024350496125047,276.3933594063733,0.0
196,4.524884939193726,270.373307523875,34.64311779843358,283.0675063395595,-53.754139565977795,0.0,1.1914977178373065,0.1,0.017147541046142578,0.3656184673309326,0.050551977,0.053083364,271.5377408348301,-0.979955137724828,2.6997109653774403,0.0,9600,2.7112505435943604,0.012303855912481742,0.007495118631973417,276.5399480265175,0.0
197,4.611988067626953,274.4317894084913,4.105222606978378,280.0255788438249,248.8823555126997,0.0,1.4427796938563242,0.1,0.017035245895385742,0.34683823585510254,0.049747895,0.08491635,271.82714569219627,-0.9762948368390622,2.7403012457278417,0.0,9600,2.1185226440429688,0.0033602058405938656,0.000224819289219514,275.1925723207214,0.0
198,4.438528299331665,269.60160266437987,42.35807968354672,282.2701363127742,-127.8151327667158,0.0,1.1821730005567488,0.1,0.01696944236755371,0.38165783882141113,0.049303073,0.044582583,271.6045913894146,-0.981845860724002,2.6920022762324614,0.0,9600,2.8267900943756104,0.014285722389134675,0.004425476344880113,274.5265473111915,0.0
199,4.531211853027344,271.81010414891466,13.874434896854417,280.82766226872786,155.07913310043034,0.0,1.5931860946822138,0.1,0.01638936996459961,0.40297722816467285,0.04916358,0.05427687,271.62514266536465,-0.9801675782111072,2.714091043734406,0.0,9600,3.498629331588745,0.0035720720810586398,0.0021352044266945295,275.34421617580324,0.0
200,4.355567932128906,274.9047937537776,4.363240232098538,282.24884994416146,244.91517481296614,0.0,1.443376114783891,0.1,0.016571998596191406,0.4661846160888672,0.04886998,0.06952634,271.95310777420593,-0.970233349607781,2.7450379544434615,0.0,9600,3.1445729732513428,0.0006304159737248377,0.00019720161860918591,276.95471473483576,0.0
201,4.5018391609191895,275.298965758247,4.14371660867215,283.2925310528438,239.898250343146,0.0,1.4648496612204893,0.1,0.03278231620788574,0.48207664489746094,0.049648233,0.058788966,272.28769357261007,-0.9707245863122053,2.7489788839488227,0.0,9600,2.8645734786987305,0.00036455921293591703,0.0002811494260013002,276.5237086597844,0.0
202,4.394266605377197,274.67930667619993,10.90973147403516,284.2432790839829,170.66057206689615,0.0,1.4491017249222127,0.1,0.031980037689208984,0.5984315872192383,0.05060606,0.04568781,272.5268548829691,-0.9714153162529628,2.7427808109660887,0.0,9600,3.241576910018921,0.0028667753072425996,0.0025039499503248207,277.28288911822966,0.0
203,4.754881381988525,269.6565671591407,34.16609735987638,284.3380829615502,-9.835469364773754,0.0,1.3220453232116844,0.1,0.04447770118713379,0.6143660545349121,0.049343348,0.061126363,272.23982611058625,-0.9729181699552218,2.6925471397455816,0.0,9600,3.6688899993896484,0.018387112824584852,0.008490249363436711,277.5130628372052,0.0
204,4.603343963623047,275.32498326694747,3.2112634024529187,281.06228895617176,254.7739696586761,0.0,1.6727758010268503,0.1,0.01862025260925293,0.5840137004852295,0.049112514,0.0715918,272.5483418262224,-0.97282758239177,2.749228086565303,0.0,9600,3.1303746700286865,0.0006471665539060944,0.0002607215208225998,277.1378012695594,0.0
205,4.338721752166748,272.0863957457452,31.851204698590895,283.4749269212565,-37.35716614093342,0.0,1.3267941794600588,0.1,0.05740785598754883,0.6742541790008545,0.050344978,0.045550246,272.5021472181747,-0.9787823687860255,2.7168444269199945,0.0,9600,4.654795169830322,0.00783777599163653,0.004890822200217381,276.16946682689763,0.0
206,4.373547792434692,274.88581373964513,2.6726549066667604,280.2881679363338,261.79896330845366,0.0,1.5443494874190846,0.1,0.017212629318237305,0.44104909896850586,0.049945306,0.07211842,272.74051387032176,-0.9766155852605246,2.7448425598600985,0.0,9600,2.538601875305176,0.0005966060489550947,0.00015941273073943096,275.7353877567872,0.0
207,4.340322971343994,275.08119684137057,2.6872992741193875,278.2245893321731,258.1575575478263,0.0,1.5705979265628063,0.1,0.03483915328979492,0.518775224685669,0.05007649,0.061972436,272.97458216742666,-0.9764606373417181,2.7468103161284767,0.0,9600,3.593888521194458,0.0001818118632259709,0.00014981820619212782,275.879751502816,0.0
208,4.400790691375732,263.0597347194281,67.04917303733247,281.6786618514761,-133.11967056056383,0.0,1.3625690811747264,0.1,0.017155885696411133,0.5077669620513916,0.04973262,0.04515966,271.9830974226268,-0.9876267522892629,2.627096743854304,0.0,9600,2.7517011165618896,0.026984852311047004,0.009005665558235211,274.5763481873679,0.0
209,4.680107116699219,274.53294500562214,4.348196981991855,281.0838295476481,239.00433264974794,0.0,1.2447427565549072,0.1,0.012098550796508789,0.5121300220489502,0.049045864,0.12401158,272.23808218092637,-0.9778252368439405,2.741321643074327,0.0,9600,2.536371946334839,0.0009098409255513403,0.00034634341035767497,274.20372239507685,0.0
210,4.783732652664185,273.0562123923158,6.493103550933378,280.9653716076683,248.35825977184257,0.0,1.4010263387248265,0.1,0.01675248146057129,0.33735036849975586,0.04969934,0.057288483,272.3198952020653,-0.9768227117239956,2.7265530518253804,0.0,9600,2.619558334350586,0.0006264517375767815,0.0005867266780822581,274.7657114235021,0.0
211,4.6716344356536865,275.91190459216176,2.378620826917412,282.79132300462663,266.9844525240626,0.0,1.5010005869412035,0.1,0.010399818420410156,0.42675042152404785,0.04831398,0.06820106,272.679096141075,-0.9677521788366462,2.7550941305280063,0.0,9600,2.2943453788757324,0.00023010143853650355,9.607554136836698e-05,275.18517415611745,0.0
212,4.540791749954224,275.31902285616553,4.808286790084835,283.57566702818497,247.81641251746026,0.0,1.4417964181323695,0.1,0.01811051368713379,0.47452211380004883,0.04932696,0.054490667,272.94308881258405,-0.9656890781645142,2.7491731971509985,0.0,9600,2.888885498046875,0.00044030186624875457,0.0004189029086171958,275.01405860506264,0.0
213,4.753786563873291,272.2785330700657,38.399239134193806,283.2633762741336,-96.939621505068,0.0,1.3110887509908304,0.1,0.017247438430786133,0.4406867027282715,0.049817342,0.05040478,272.87663323833226,-0.9625627626420287,2.7187581159174363,0.0,9600,2.544421434402466,0.009398018058625614,0.0053578229689953865,275.539299916812,0.0
214,4.399136066436768,274.3303325013688,29.003477691103893,285.10494702665125,-6.112102381238785,0.0,1.5303097865664248,0.1,0.033711910247802734,0.5640954971313477,0.049384613,0.053843573,273.0220031646359,-0.9527249008106168,2.7392876958410945,0.0,9600,3.167325735092163,0.01157575303001072,0.00529179742146159,274.82502120001175,0.0
215,4.523475170135498,275.72392539779366,7.703663971767905,283.7867282626041,209.96991385146842,0.0,1.4430341808195684,0.1,0.03221917152404785,0.3763449192047119,0.048614934,0.061639,273.29219538795166,-0.957609139553489,2.7532188885348234,0.0,9600,2.4873476028442383,0.0014604373086403782,0.0008417625045254566,276.26389733741735,0.0
216,4.409679412841797,276.75459104836074,3.5327972779007655,284.0090019041369,257.60570978805384,0.0,1.4388952871291119,0.1,0.0290071964263916,0.3852088451385498,0.048958246,0.065501854,273.63843495399254,-0.9564651396283356,2.7635180097503187,0.0,9600,2.5405995845794678,0.0002022574272596193,0.0001349013179753332,276.4757664031986,0.0
217,4.420196056365967,273.77061165768686,42.62471233936462,285.573308049516,-140.3841062115463,0.0,1.2663515594350532,0.1,0.017716169357299805,0.43624091148376465,0.048830807,0.03117987,273.651652624362,-0.9536820969776545,2.733665683657938,0.0,9600,2.6309609413146973,0.005153065809310522,0.003649344896067109,276.06115684746794,0.0
218,4.414888381958008,275.41942438711976,10.888855694471816,283.95636562378127,181.58317987272582,0.0,1.3456347304017031,0.1,0.017805814743041992,0.47698235511779785,0.050076395,0.05616865,273.82842980063776,-0.9506915406696973,2.7501389821735196,0.0,9600,2.1315317153930664,0.0025312151920188044,0.00194281827176781,276.5804983621847,0.0
219,4.6263651847839355,277.1820070366336,5.178177497486239,284.2936795562074,253.39696308641396,0.0,1.4690814844472362,0.1,0.010859966278076172,0.36601829528808594,0.04944051,0.060372237,274.16378752423736,-0.9471559481369823,2.76776449908974,0.0,9600,1.851506233215332,0.00042365515923262,0.0003480022338210866,277.65462093143356,0.0
220,4.642540216445923,278.0606253151635,5.062407265878011,285.6784410840913,254.6735901981004,0.0,1.3384272439183644,0.1,0.03235459327697754,0.48866724967956543,0.049257442,0.066294335,274.55347130333,-0.9381307662817179,2.7765594119202652,0.0,9600,3.1860601902008057,0.0002983141271868745,0.00021317877639249143,276.7355832391077,0.0
221,4.8502442836761475,278.7749593297049,6.0992757545511544,285.1316761093639,234.6817385557558,0.0,1.529089141964172,0.1,0.04452228546142578,0.45687365531921387,0.04828327,0.062542625,274.9756201059675,-0.9355765277403613,2.7837069621416872,0.0,9600,3.636059045791626,0.000702284747655702,0.0005067856677691616,277.0042572755679,0.0
222,4.6086790561676025,280.1533573492861,4.468653143409964,285.6276506879532,256.01950308787735,0.0,1.4854717613105228,0.1,0.017570018768310547,0.41815710067749023,0.048572205,0.06459191,275.4933938302994,-0.9231622767048355,2.7974627787633906,0.0,9600,3.0593483448028564,0.0004654201902539942,0.00031984924150654494,277.68042291883074,0.0
223,4.732810735702515,273.44148783749,53.5541130230972,285.9265110152814,-102.27123727196957,0.0,1.3395353270046426,0.1,0.03295445442199707,0.46183109283447266,0.049144622,0.05013851,275.28820323101843,-0.9259412585617378,2.730327486767791,0.0,9600,2.9354376792907715,0.017812449806698508,0.009334103381424664,275.53948069367993,0.0
224,4.559300899505615,280.97860834981594,4.130341801539558,285.3038400595134,250.28087823812783,0.0,1.4529789816499117,0.1,0.03234362602233887,0.4285130500793457,0.048694674,0.11155721,275.8572437428982,-0.9177286822599448,2.805744361085966,0.0,9600,3.431950807571411,0.0017818024342030586,0.00035321690590068124,276.07704334129056,0.0
225,4.387552738189697,279.6992629244293,17.512511986793402,287.1863229665903,111.89498497678048,0.0,1.3769240885677727,0.1,0.018969058990478516,0.6302928924560547,0.04879749,0.05029988,276.24144566105133,-0.9160773820101079,2.7929074659983253,0.0,9600,3.1709976196289062,0.005739578465014779,0.0032574196689403438,276.1410274575106,0.0
226,4.480905771255493,282.1421893941536,2.3407752404366833,286.35536760494915,273.99045065187136,0.0,1.5891357886715065,0.1,0.018666505813598633,0.4554443359375,0.04873837,0.064473756,276.8315200343616,-0.9077908321134646,2.8173422267550507,0.0,9600,3.2125954627990723,0.0005519345277394585,0.00011982794472797218,274.1775476704015,0.0
227,4.490802526473999,277.81802330340406,38.31906691929727,285.8316966768884,-94.76970028068786,0.0,1.2619859801673246,0.1,0.03217673301696777,0.48978137969970703,0.04907197,0.044282265,276.9301703612658,-0.9177240552018784,2.7740946543476706,0.0,9600,3.1758553981781006,0.009979650645201083,0.0033300073302516223,275.429134449854,0.0
228,4.7270379066467285,280.8010524527313,5.837770237706379,286.45561635692405,231.6333409333265,0.0,1.5307761998779938,0.1,0.0177767276763916,0.6154959201812744,0.0497176,0.071149096,277.3172585704124,-0.9128947009717446,2.8039466033777445,0.0,9600,3.270505666732788,0.0012066426252819564,0.0005440332774293854,277.06042669767197,0.0
229,4.69862174987793,277.6737410403191,37.174653444405,285.595107777695,-83.74479597869683,0.0,1.1466915968477245,0.1,0.06620621681213379,0.7171525955200195,0.048082195,0.038052175,277.35290681740304,-0.9189739058732137,2.7726574300639797,0.0,9600,3.623257875442505,0.010784730571980781,0.0031917580633296877,276.43418536885804,0.0
230,4.615189552307129,281.27110129566023,2.7609929143727028,285.3067352774737,274.3839082158742,0.0,1.2291517567433947,0.1,0.032714128494262695,0.5312433242797852,0.048440214,0.13876815,277.74472626522873,-0.9154841183436052,2.8086276504209473,0.0,9600,3.3968005180358887,0.00034927821863181747,0.0001268215378404629,276.7921114624473,0.0
231,4.717285394668579,280.79103544267895,3.1037060028576176,285.13274825391034,265.03539195096016,0.0,1.4017404785879422,0.1,0.017746448516845703,0.5824673175811768,0.049550075,0.06334632,278.0493571829737,-0.9160727172043819,2.803835558027631,0.0,9600,2.1278207302093506,0.0001417906050867942,0.00011860809071056685,276.71651180093653,0.0
232,4.679255247116089,277.59084081228303,33.86421399716432,286.1334938681916,-48.16818778284722,0.0,1.2939862948255694,0.1,0.016894817352294922,0.3812680244445801,0.048637453,0.04418959,278.00350554590466,-0.9180727456581993,2.7718111119771724,0.0,9600,2.6311683654785156,0.008508595638254304,0.0050975543481389905,277.64109443787,0.0
233,4.8427863121032715,281.60387285592975,2.6225304449083646,285.9444188226369,272.68961587061995,0.0,1.4333268025936214,0.1,0.016525983810424805,0.3882007598876953,0.047978964,0.08405529,278.3635422769072,-0.9133609305822405,2.8119717869658345,0.0,9600,3.1398262977600098,0.0003833318051242537,0.00012093460285719678,277.6042375127796,0.0
234,4.791701555252075,281.8248796424578,2.6558222330222625,285.80582067038745,269.99471861280045,0.0,1.3953625651546666,0.1,0.017160654067993164,0.3848896026611328,0.04870614,0.05886862,278.7096760134623,-0.9115603702869967,2.8141667652873017,0.0,9600,2.845302104949951,0.00013046345801712533,0.00011193383681302168,276.35829425882196,0.0
235,4.531698942184448,278.40569778085256,36.84419081400887,285.4346009186917,-79.86169785747867,0.0,1.299130324614384,0.1,0.0323336124420166,0.466886043548584,0.048887875,0.040362224,278.67927819020133,-0.911981730897927,2.7799630830086985,0.0,9600,2.251615285873413,0.009754287718544198,0.002167232546142251,277.131242891467,0.0
236,4.573655366897583,280.5555701222396,11.021095569259423,285.23781658359957,180.34176575086718,0.0,1.2441229067150403,0.1,0.01726841926574707,0.4352126121520996,0.048845105,0.06399575,278.86690738340513,-0.9084744117074149,2.8014585089873267,0.0,9600,2.702042818069458,0.0017581808045896588,0.0009876389542461692,276.91121030899166,0.0
237,4.384739637374878,282.550015254854,2.1215178082713035,285.4183575370579,272.9515808147384,0.0,1.59525480541247,0.1,0.020733118057250977,0.5516109466552734,0.04764569,0.06239078,279.23521817055,-0.9060617526740483,2.8214215761452484,0.0,9600,2.4130961894989014,0.00025315713832934353,8.681302779567167e-05,276.4202703310966,0.0
238,4.4818034172058105,278.66950808809173,37.98774761798025,286.6941695584044,-90.91600717634765,0.0,1.201535570988132,0.1,0.032611846923828125,0.4249308109283447,0.049660187,0.033550575,279.1786471623042,-0.9116129221597381,2.7825996480565607,0.0,9600,2.758302688598633,0.0036315747487293375,0.002196319574022773,277.2524984131463,0.0
239,4.364474058151245,274.9425691318348,48.403263057565596,286.36528300260824,-74.62859240062672,0.0,1.2519990226417972,0.1,0.0323786735534668,0.5082817077636719,0.04949067,0.045831103,278.75503935925724,-0.9180441792210928,2.745330122869887,0.0,9600,3.289564371109009,0.007390818065040178,0.003399126392180211,277.7838758032786,0.0
240,4.427408933639526,281.00115611410536,3.1283214652463247,284.8843579155155,265.8401424468887,0.0,1.5197677496410247,0.1,0.0180056095123291,0.43362975120544434,0.04896898,0.07969917,278.97965103474206,-0.9116185213093134,2.8059253478190094,0.0,9600,3.3232438564300537,0.0004910582843089281,0.00014790007013087058,279.20567341333816,0.0
241,4.926915884017944,281.3705755449799,4.591470387741999,286.36223509003327,256.3328084588722,0.0,1.3357587536120081,0.1,0.016324996948242188,0.38181114196777344,0.049402162,0.07297609,279.21874348576586,-0.9070751659474346,2.8096127795764243,0.0,9600,2.7871127128601074,0.00020843027472453,0.00019318939776927208,280.3653568277382,0.0
242,4.611504554748535,281.0691303294938,20.84996894892077,286.91834897333223,78.74686362257472,0.0,1.5566096307026298,0.1,0.0447087287902832,0.5113837718963623,0.04903072,0.04647714,279.40378217013864,-0.901535956303884,2.806594911147586,0.0,9600,3.1388471126556396,0.00786973109961348,0.0022158544896292284,280.5323405045589,0.0
243,4.6678454875946045,283.09335147199727,1.842721204384911,286.1468701519155,277.28070373643664,0.0,1.6604537355102325,0.1,0.01645636558532715,0.40436291694641113,0.04865051,0.073434465,279.7727391003245,-0.9006098771029806,2.8268341647590263,0.0,9600,2.6389994621276855,0.0009272374877178563,7.980254360669202e-05,279.40976129315357,0.0
244,4.697387456893921,281.48874828380343,10.804313544848211,285.42977846856303,180.9753372341333,0.0,1.1958517543822569,0.1,0.03241109848022461,0.3676912784576416,0.04849828,0.051947933,279.9443400186724,-0.9044864916509717,2.8107897677681457,0.0,9600,2.6070520877838135,0.0024373213139519206,0.0009240135355126503,279.11869295376454,0.0
245,4.589375734329224,283.0182128599885,1.9446098076047906,285.8234621606252,275.7362507270496,0.0,1.5877727526963836,0.1,0.032379865646362305,0.4654972553253174,0.048766714,0.0719311,280.251727302804,-0.9012415728873853,2.8260788033976856,0.0,9600,2.5397777557373047,0.00022502513796918326,8.341350070200257e-05,279.54736401711494,0.0
246,4.50475001335144,282.43477058394274,3.311439463610528,287.3147656137082,264.4114684384671,0.0,1.374065981617761,0.1,0.016674280166625977,0.3598020076751709,0.04941291,0.09673191,280.4700316309179,-0.9026232657898637,2.820265093279327,0.0,9600,2.7731595039367676,0.0002559597575210623,0.00011947072761477588,279.261510047432,0.0
247,4.56971549987793,280.9949380832522,22.09439507424105,285.9872966571138,66.89725238323253,0.0,1.4869873330430172,0.1,0.017263412475585938,0.43342089653015137,0.049567167,0.04507537,280.52252227615134,-0.9000463761351144,2.8058294894549696,0.0,9600,2.6622872352600098,0.006644809867637364,0.0029531216455751515,278.21064884183426,0.0
248,4.560566663742065,282.7928222289766,3.7030028945994986,286.2236827777591,251.59465529394828,0.0,1.4661427564147993,0.1,0.03306412696838379,0.4252743721008301,0.048979007,0.06658026,280.74955227143386,-0.9015528241563673,2.823837213182022,0.0,9600,3.396550416946411,0.0005036230256419154,0.00011831029630046485,278.4660092355616,0.0
249,4.592419385910034,283.1743770837763,1.897784153579866,286.0137401290144,272.65888787026756,0.0,1.41940461438154,0.1,0.03244829177856445,0.5213003158569336,0.047757573,0.062015604,280.9920347526681,-0.9009784295010469,2.8276567404137523,0.0,9600,4.228037118911743,7.614072750935076e-05,6.918244782655934e-05,278.5826896170465,0.0
250,4.627643346786499,281.6071444071395,24.01296993002105,286.6226966427865,47.889288970608305,0.0,1.0708800493159794,0.1,0.03300118446350098,0.5814766883850098,0.04926894,0.5528846,281.05354571811523,-0.8957549857455892,2.8119620858660106,0.0,9600,3.1950180530548096,0.007717044700280441,0.0029674874388013867,278.6433532858624,0.0
251,4.646714687347412,283.0648521147075,3.100447824654357,287.61976911057934,260.23364728337566,0.0,1.444276595792883,0.1,0.04456496238708496,0.5547528266906738,0.049751695,0.12249598,281.2546763577745,-0.9010049374298351,2.8265542101626906,0.0,9600,3.4335155487060547,0.0005189404361308679,0.00015338990794339796,278.5534587229632,0.0
252,4.674519062042236,282.981877066331,4.169380738974212,286.6341812212847,248.62557341102854,0.0,1.4277475463353388,0.1,0.032758235931396484,0.5133836269378662,0.04931672,0.040706415,281.4273964286301,-0.8979516205392182,2.8257044752413987,0.0,9600,2.743058204650879,0.00020975054597329674,0.00012652120251571876,278.8451660996063,0.0
253,4.520824193954468,282.7517964583341,2.5614587835902736,285.7581904121889,265.64121084966195,0.0,1.6087144810910154,0.1,0.056607723236083984,0.5921802520751953,0.04907778,0.05571601,281.5598364316005,-0.9028446868093626,2.823412116545594,0.0,9600,4.444764614105225,0.0001601747262433393,0.00014417357478961796,280.2929119669938,0.0
254,4.550449371337891,280.4895036605384,33.50751954857684,287.2145337431119,-45.73464698197212,0.0,1.33656303660848,0.1,0.044838905334472656,0.4839019775390625,0.049387336,0.049099665,281.4528031544943,-0.8987667251276242,2.800801016618409,0.0,9600,2.657425880432129,0.012425292049133124,0.0033449099779936245,279.07802246738237,0.0
255,4.429915904998779,275.5814307321012,53.284364049985264,286.79585909489015,-127.01936161686955,0.0,1.1792671238858317,0.1,0.03319144248962402,0.5518579483032227,0.050209794,0.056857944,280.865665912255,-0.9093386925988476,2.7517288775934907,0.0,9600,2.9647512435913086,0.01006091884920503,0.006000827539344034,279.07938378372984,0.0
256,4.587214231491089,282.83784546781857,2.3525319569452017,286.99051905837825,271.81479976409616,0.0,1.4251072416332236,0.1,0.033338069915771484,0.4688706398010254,0.04966352,0.10667023,281.06288386781137,-0.9025827081914071,2.8242814995775434,0.0,9600,3.364929676055908,0.0005605344345034741,9.83650361857869e-05,278.5500211902191,0.0
257,4.65716028213501,282.6858798864712,3.1465791276441215,286.0584499485216,257.4689655295628,0.0,1.3629906713400388,0.1,0.03314542770385742,0.5703389644622803,0.05010218,0.051087633,281.22518346967735,-0.9034398056647251,2.822764877975531,0.0,9600,3.1022441387176514,9.253335288001137e-05,8.315904865033813e-05,278.62418723676245,0.0
258,4.632028818130493,281.3373559110415,23.170518329145118,286.7649527959589,56.16368250521808,0.0,1.368653016274345,0.1,0.01680469512939453,0.36522984504699707,0.049227227,0.05225332,281.2364007138138,-0.8973196884179974,2.809280342819825,0.0,9600,2.2989490032196045,0.006796585398255716,0.001276049489643115,279.0983716911315,0.0
259,4.459917306900024,283.59301465740333,1.684029281553069,287.189372248173,278.16362407984917,0.0,1.438098884995069,0.1,0.05687975883483887,0.6625711917877197,0.04918152,0.09015135,281.47206210817274,-0.8974442869842596,2.831827447960818,0.0,9600,2.9064018726348877,0.00038266107837750735,6.197023031370443e-05,278.78906527785574,0.0
260,4.663230895996094,283.5055593754762,2.107095554640022,286.5526259930855,271.8993083348895,0.0,1.585299113872545,0.1,0.01775074005126953,0.5645439624786377,0.049901567,0.07232694,281.67541183490306,-0.8963966298864445,2.8309479212098423,0.0,9600,2.8633036613464355,0.0001682360238757779,7.235406834633439e-05,278.9844180184742,0.0
261,4.647891283035278,283.4235354202749,2.6168024639541945,286.7228431573292,266.2057228277342,0.0,1.5078176236089726,0.1,0.03337812423706055,0.4977893829345703,0.04877634,0.061067257,281.8502241934402,-0.897391142348496,2.830128741368591,0.0,9600,2.862133264541626,0.0001058220314159168,7.801544291032607e-05,281.63115803231256,0.0
262,4.809705495834351,264.21684637417326,85.66980594431163,287.44396078944476,-134.49809402174466,0.0,1.3298094155259161,0.1,0.01786065101623535,0.473116397857666,0.049686175,0.049947273,280.08688641151355,-0.9207643821436348,2.6380635386282254,0.0,9600,2.383213758468628,0.0459816025938843,0.01532572516002526,280.093369410058,0.0
263,4.520767450332642,283.9152150490998,1.468448269532282,286.52496405188646,279.2009499069764,0.0,1.3386713751869976,0.1,0.01847052574157715,0.5177178382873535,0.04919664,0.10950143,280.4697192752722,-0.8952498191597874,2.8350446655528407,0.0,9600,2.777945041656494,0.0007499171862273372,0.00010764562146898076,279.0184757416503,0.0
264,4.483081579208374,279.3018007859756,41.6999960176904,286.63724233777253,-126.91323037626894,0.0,1.0607427599427453,0.1,0.017665624618530273,0.4741368293762207,0.05025557,0.031547364,280.35292742634255,-0.9050302838347077,2.788914760486268,0.0,9600,3.081732749938965,0.0034200234750888475,0.0021506702288017878,279.06222518734296,0.0
265,4.3127357959747314,283.21712736880806,2.0239855031628027,286.224789730902,274.6622560116464,0.0,1.2360912191557845,0.1,0.01417088508605957,0.529212236404419,0.04955203,0.12613761,280.6393474205891,-0.8989874241304392,2.828068319317436,0.0,9600,4.536611557006836,0.00024989326080360473,9.707250925607913e-05,278.8865282172509,0.0
266,4.45434308052063,283.12201368144724,2.039525321609822,285.7586741770154,277.05811176955126,0.0,1.4683654756054652,0.1,0.03237199783325195,0.6027393341064453,0.049046,0.13187589,280.8876140466749,-0.8985350463852854,2.827113168171421,0.0,9600,5.531695127487183,9.95994088956651e-05,7.008827964496999e-05,278.56865607648166,0.0
267,4.490936279296875,283.7234914470902,1.725041958106959,287.31644430689613,277.6769312692287,0.0,1.4144721409699565,0.1,0.012891769409179688,0.5172238349914551,0.04980796,0.16568998,281.17120178671644,-0.895197589856302,2.833128669586344,0.0,9600,2.4743807315826416,0.00010602117369706711,6.375509522624262e-05,278.57093974852717,0.0
268,4.8452606201171875,283.50910976792494,2.194786182951789,286.6225479560648,274.81721478564873,0.0,1.5257351325437232,0.1,0.017275094985961914,0.4508635997772217,0.049475312,0.05340878,281.4049925848373,-0.895631052987088,2.8309870533558823,0.0,9600,2.1104512214660645,7.500380527202762e-05,6.892177399510359e-05,279.27747742178263,0.0
269,4.728083848953247,284.44436679425934,2.439636052038283,301.32722038799716,278.9351085492401,0.0,1.3803005434678814,0.1,0.012638568878173828,0.4188704490661621,0.04906458,0.4098312,281.7089300057795,-0.8926866314282629,2.8403272662186474,0.0,9600,2.1847591400146484,0.00018522026690234156,0.00015639811003706854,280.10625799148727,0.0
270,4.639705657958984,283.64475508279224,3.730720427139588,287.26132380782855,258.1482118267212,0.0,1.4461024526478272,0.1,0.044658660888671875,0.5985016822814941,0.049198642,0.05762628,281.9025125134808,-0.8929537745490054,2.8323571667207155,0.0,9600,2.714958667755127,0.00014107449725761582,0.0001087244436751752,280.1399237964116,0.0
271,4.615983724594116,284.18970880260594,1.642579258064617,287.0795172302173,277.42231754875297,0.0,1.604935154521501,0.1,0.01788163185119629,0.5275905132293701,0.049068205,0.059628166,282.13123214239334,-0.8928458550986651,2.8377726140975312,0.0,9600,2.3387629985809326,7.304799668716515e-05,6.988639795652369e-05,279.8950087442056,0.0
272,4.672126293182373,284.51645882149313,2.2164514254668743,298.5158061496192,276.15548035533453,0.0,1.6868973992473733,0.1,0.05617523193359375,0.5819547176361084,0.04901739,0.05744836,282.36975481030333,-0.8905406976397633,2.841032242375308,0.0,9600,3.6089422702789307,0.00013494081648805417,0.00010297288313909609,280.24582959194294,0.0
273,4.6460280418396,284.16383130079515,1.7391033313698883,287.48199458676885,278.4158247035885,0.0,1.4422429599579774,0.1,0.04513907432556152,0.46533775329589844,0.049201768,0.09222605,282.54916245935254,-0.8924203938712543,2.8375393319628848,0.0,9600,2.212651014328003,7.354761969997073e-05,6.905710223272435e-05,280.976663693977,0.0
274,4.654799222946167,284.5363917248484,3.2151627804599716,288.35035851754606,257.2366922963413,0.0,1.513620259625249,0.1,0.017516136169433594,0.4483048915863037,0.049103964,0.054698154,282.7478853859021,-0.8873368392128196,2.8412663698319576,0.0,9600,2.5475876331329346,0.00013117537728804526,0.00010944584688115459,281.3265545024109,0.0
275,4.331074476242065,282.3799459368117,18.547076399625375,296.1191463622348,113.22586597389495,0.0,1.6007614991040988,0.1,0.016993045806884766,0.42870473861694336,0.04887361,0.046925683,282.7110914409931,-0.889651374558964,2.819697841960696,0.0,9600,2.7808334827423096,0.006850500612500009,0.00422736636913721,279.50878849743555,0.0
276,4.543179035186768,280.35404329745563,41.06447561585522,287.040725892894,-119.5295259827395,0.0,1.0457273419490094,0.1,0.018563508987426758,0.5485563278198242,0.050440747,0.04869104,282.4753866266393,-0.8929042620247535,2.7994213275701543,0.0,9600,2.925457239151001,0.007891972701446662,0.002677465853350866,279.5493299973823,0.0
277,4.611952304840088,284.63885730914154,1.5197695116613479,287.0179773065368,278.7282871968837,0.0,1.2071574079178884,0.1,0.03286170959472656,0.5373725891113281,0.05004324,1.6497105,282.69173369488954,-0.8882702437663323,2.8422668399018574,0.0,9600,2.897517204284668,0.00020095554559624833,6.12989934851849e-05,280.74465313923247,0.0
278,4.687106609344482,284.5950717929515,1.5094016495487754,287.26827582288803,278.88236593097787,0.0,1.4947052421728033,0.1,0.01835775375366211,0.6212038993835449,0.04930211,0.06929253,282.8820675046957,-0.8878596155038867,2.841856973561754,0.0,9600,2.709059715270996,6.437904974877402e-05,5.164645788660913e-05,280.43199774364507,0.0
279,4.667971134185791,284.8340301833429,1.5113774115722487,287.69885537642364,278.7725619651121,0.0,1.5909424410360251,0.1,0.01944136619567871,0.5474650859832764,0.048787452,0.06480372,283.07726377256046,-0.8862163027612735,2.8442251630591358,0.0,9600,2.9992146492004395,6.338132330506475e-05,5.206469794819583e-05,280.2465999683391,0.0
280,4.580080032348633,284.75582599417584,1.9588890396980545,290.93804526825767,277.0620100742777,0.0,1.4096424883287797,0.1,0.0441586971282959,0.6323113441467285,0.05018646,0.1115155,283.245119994722,-0.8876114470573914,2.843437051341951,0.0,9600,3.353891611099243,0.0004301292377492699,8.869692226163072e-05,279.87227428541394,0.0
281,4.7209367752075195,284.6268892935768,1.9614056546653071,291.72977664762124,276.310533206942,0.0,1.5687782839915954,0.1,0.017290830612182617,0.47322702407836914,0.049834475,0.06087738,283.3832969246075,-0.8889254108259342,2.842156145353243,0.0,9600,3.2625644207000732,9.481066977320566e-05,7.98851398585731e-05,280.01470626654316,0.0
282,4.478982925415039,285.3158773205976,2.473664576747667,303.6962983647021,278.2775570087559,0.0,1.6006892268266506,0.1,0.03497505187988281,0.6035518646240234,0.04985991,0.067191,283.57655496420654,-0.8832488248741545,2.8490502504366866,0.0,9600,2.8336005210876465,0.00015096538897239225,0.00011931102771838394,280.07801409765904,0.0
283,4.512627363204956,284.34563729057646,13.47839845053464,288.51784480184443,153.74105007211574,0.0,1.5995622524659339,0.1,0.035431623458862305,0.5755155086517334,0.05042106,0.04666672,283.6534631968435,-0.8781397777692256,2.839339788885491,0.0,9600,3.392672061920166,0.003917961819423302,0.0033386565374993802,280.1574461887479,0.0
284,4.647860288619995,282.0944102957266,20.635570729683092,293.89476750468305,103.35569285446955,0.0,1.3727365213319513,0.1,0.017880916595458984,0.5249764919281006,0.049762096,0.07238742,283.49755790673186,-0.8866799471290614,2.8168112174095667,0.0,9600,2.5185365676879883,0.006293308549124487,0.0038593806678534955,280.3332767662711,0.0
285,4.852402210235596,285.2171182593606,1.5956897137107529,288.43526863240913,279.6079203826351,0.0,1.4815638843053203,0.1,0.06958723068237305,0.9387290477752686,0.050279018,0.08636442,283.66951394199475,-0.8818488488621256,2.8480503535570043,0.0,9600,3.9686315059661865,0.000516225487192251,7.902079848559546e-05,279.7422809843497,0.0
286,4.523950576782227,283.7747091353971,8.687357988881443,287.55527531965913,204.2091813879028,0.0,1.5292899593936269,0.1,0.01892995834350586,0.5926148891448975,0.04932075,0.0572578,283.680033461335,-0.8858431632364546,2.8336325297463674,0.0,9600,3.425974130630493,0.0016589728030871717,0.0012685933641750733,279.4175036480713,0.0
287,4.523360967636108,281.78887403787917,32.34516466707972,289.0988939795971,-33.1296315950961,0.0,1.2731184348013047,0.1,0.017386198043823242,0.4896261692047119,0.050357945,0.047450814,283.4909175189894,-0.8897163053663105,2.8137792420410057,0.0,9600,2.9692893028259277,0.012598012114644664,0.001660206565428592,279.39490057857176,0.0
288,4.533721446990967,285.0329819415188,1.4458960508255323,287.7522527828505,278.2723572851697,0.0,1.5974839745466194,0.1,0.017154455184936523,0.4231400489807129,0.0488707,0.08395574,283.64512396124235,-0.8848482705539764,2.8462008715420084,0.0,9600,2.5565009117126465,0.00028811717664187306,7.007945171941397e-05,278.9108116756371,0.0
289,4.805830955505371,284.3288519014278,1.7316277906158306,288.75391304262104,279.1290259372982,0.0,1.4342022751636878,0.1,0.03342628479003906,0.5231819152832031,0.049265444,0.06440603,283.7134967552609,-0.889844904169987,2.8391640435788594,0.0,9600,2.9052979946136475,7.86271081267078e-05,5.8390857825215465e-05,279.05470370712794,0.0
290,4.542585134506226,284.7834860637813,2.0751624377124904,293.505589932893,276.6210065432728,0.0,1.5307874915106106,0.1,0.0330042839050293,0.5318679809570312,0.04768077,0.06450516,283.82049568611296,-0.8864393774075007,2.8437195107131394,0.0,9600,2.6581223011016846,8.117488690608276e-05,6.509947633331376e-05,279.5510189314175,0.0
291,4.749845504760742,285.14934761535136,1.4691296812123305,288.38278300759634,279.2190160724067,0.0,1.4561802779540713,0.1,0.01811838150024414,0.49361205101013184,0.049381677,0.19490817,283.95338087903684,-0.882579842395193,2.847358593974255,0.0,9600,2.5207371711730957,0.00013828061124314698,5.096607778070814e-05,280.0849462387878,0.0
292,5.117814540863037,285.19805686474587,1.8041817689025659,288.4286659678349,274.34802890838216,0.0,1.521946788952258,0.1,0.01550149917602539,0.6378328800201416,0.049786422,0.061178334,284.07784847760774,-0.880511252570242,2.847873721485238,0.0,9600,2.6366772651672363,8.042195755103659e-05,7.181353696400834e-05,279.8772642144629,0.0
293,4.5325658321380615,283.8752521201512,21.871440157597352,307.184745115203,72.09083458582876,0.0,1.4609189607876978,0.1,0.017310142517089844,0.5129256248474121,0.049334917,0.038227376,284.05758884186207,-0.8790648214441218,2.834622195749786,0.0,9600,2.246731758117676,0.007147454845236841,0.00490898615928676,279.6091868124303,0.0
294,4.521311521530151,285.1138906515709,4.6962264459255065,299.09511367787945,245.46486731822407,0.0,1.517387674238709,0.1,0.01686716079711914,0.36625242233276367,0.04889022,0.09470455,284.16321902283295,-0.8795037416325137,2.8474352255646647,0.0,9600,2.9645209312438965,0.0016017447963096098,0.0003517467689815747,280.38701757584136,0.0
295,4.623714447021484,281.24533622733645,41.85729129695949,289.83574255839744,-126.01960566333949,0.0,1.3916474795584737,0.1,0.018500566482543945,0.5456333160400391,0.04946104,0.052124962,283.87143074328327,-0.8829369784946413,2.8083155730248586,0.0,9600,3.0471763610839844,0.014828538098038035,0.0025235751069918053,279.80727789601525,0.0
296,4.488398313522339,281.3071360957922,40.22437147222448,290.95600062383136,-110.41719081095495,0.0,1.1962948967461189,0.1,0.04470634460449219,0.5486354827880859,0.050552834,0.030106734,283.6150012785342,-0.8851971502471138,2.8089481206145326,0.0,9600,3.187875509262085,0.002085719654379677,0.0015542077056170695,279.7308931055658,0.0
297,4.4878973960876465,283.8849232488287,14.134262700894494,294.91981231710054,147.24618950117215,0.0,1.1322568520210843,0.1,0.01780557632446289,0.4167640209197998,0.04948305,0.07026484,283.64199347556365,-0.8830477090326182,2.8347270509120164,0.0,9600,2.60988450050354,0.0042471447929297535,0.0032067660818550932,279.7027969018169,0.0
298,4.61032772064209,285.3190722040017,2.346944519852614,302.755686088431,279.21044559900764,0.0,1.5723814088162922,0.1,0.03296947479248047,0.49915623664855957,0.050229527,0.0732004,283.80970134840743,-0.8809432816000552,2.849078554905489,0.0,9600,2.8304624557495117,0.0003612670519813013,0.00010867257379379361,277.10194537941106,0.0
299,4.6044700145721436,285.42881519659835,1.5169411964022896,288.68687801662134,278.8160768720182,0.0,1.5953814792268373,0.1,0.01819014549255371,0.47881460189819336,0.049075656,0.060535576,283.97161273322655,-0.8797103048825526,2.8501716485263455,0.0,9600,2.67853045463562,5.2433856716910444e-05,4.818999552314593e-05,277.4604243766744,0.0
300,4.660374641418457,285.8779757682662,2.619202756589807,299.77765086379407,268.72440766962234,0.0,1.4107572098779844,0.1,0.018132925033569336,0.4852018356323242,0.04861423,0.054847762,284.16224903673054,-0.8752810696356451,2.854650755695141,0.0,9600,3.203789234161377,9.330402446090139e-05,8.741647097246137e-05,278.8711782143412,0.0
301,4.710822820663452,286.01019702468585,10.71871637204739,311.6795574566179,192.3456273693703,1.0416666666666667,1.6828241906509807,0.1,0.017288684844970703,0.41694211959838867,0.049855653,0.052659098,284.34704383552605,-0.8744426903423618,2.855980669005877,1.0416666666666667,9600,2.629542112350464,0.0024250559532754084,0.0019547605184447817,278.25868072328456,0.0
302,4.388945817947388,283.1916819332074,22.665133818605533,292.9243986875585,114.97445009135778,0.0,1.6225171988405782,0.1,0.016576528549194336,0.3119852542877197,0.049072936,0.0514489,284.2315076452942,-0.8751466334831176,2.8278004703153616,0.0,9600,2.325615167617798,0.009179819712212727,0.007848535351646502,278.999960662433,0.0
303,4.399216413497925,286.45992176701174,4.274891061780769,320.6741798630371,279.24593278173006,1.0416666666666667,1.6971308898054593,0.1,0.01136636734008789,0.4338347911834717,0.050102916,0.064285934,284.45434905746595,-0.8750044448827617,2.8604591902917793,1.0416666666666667,9600,2.3507027626037598,0.001031447003151858,0.0003510203454485403,278.174116113327,0.0
304,4.5133256912231445,286.40034381683785,3.303892267150765,310.36834525645423,280.9029551035895,1.0416666666666667,1.7520956529901812,0.1,0.01644134521484375,0.38193678855895996,0.049551796,0.058836833,284.64894853340314,-0.8733940869280615,2.8598743202864427,1.0416666666666667,9600,2.348827838897705,0.00020637511011228337,0.0001787101610021582,278.71818640939193,0.0
305,4.523606538772583,286.0456434861722,9.616604069947824,319.7011442654608,216.04877347774845,2.0833333333333335,1.6268828217580658,0.1,0.017792940139770508,0.582134485244751,0.04975656,0.071676046,284.78861802868005,-0.8707263555673519,2.85679488691145,2.0833333333333335,9600,3.0750935077667236,0.0020646046941000507,0.0016691123522667394,278.53039760434837,0.0
306,4.631372690200806,287.570374824021,5.202649078025294,316.7955263432546,279.9768091460321,2.0833333333333335,1.5662784207152682,0.1,0.017366886138916016,0.43127870559692383,0.049442377,0.06875828,285.06679370821416,-0.869049605261336,2.871576658670756,2.0833333333333335,9600,2.3019943237304688,0.0006501794526252516,0.000521553943760367,278.40180967574054,0.0
307,4.835697412490845,287.17715917850455,9.753022918479422,311.3211833504725,209.05121003326144,1.0416666666666667,1.76078196293543,0.1,0.015996456146240234,0.5937767028808594,0.048998423,0.046553887,285.2778302552432,-0.8716017814054703,2.867682078256397,1.0416666666666667,9600,2.7338755130767822,0.0015837396124364046,0.0014009279714023136,278.2264048703433,0.0
308,4.608170986175537,285.35890232493796,16.876391465455804,310.45972684618454,160.27214714379906,0.0,1.607040291566328,0.1,0.03286409378051758,0.5523297786712646,0.049430486,0.046181764,285.2859374622127,-0.8675652585550901,2.849461801517626,0.0,9600,2.686089277267456,0.006055957293316429,0.003745646097994209,277.83347649517043,0.0
309,4.7570881843566895,286.8546497390593,13.894084946286462,313.7726674121488,179.8837640354582,1.0416666666666667,1.5032102382683963,0.1,0.018382787704467773,0.6189570426940918,0.049273267,0.06144826,285.4428086898974,-0.863952922233314,2.8644141769343556,1.0416666666666667,9600,3.085934638977051,0.0030844720095490473,0.002312749478483469,277.20305333527324,0.0
310,4.698056936264038,285.87738155174674,23.737601000800264,317.7924223658574,60.23618931039402,1.0416666666666667,1.404490582925469,0.1,0.019902467727661133,0.5932080745697021,0.049994912,0.05233794,285.48626597608234,-0.8664911327017562,2.855122158006148,1.0416666666666667,9600,2.7917895317077637,0.00508994076777911,0.00222571067938432,276.9331876801437,0.0
311,4.814470052719116,283.12282982050215,42.66012515499204,307.69379036557854,-130.9733697183315,0.0,1.0814412612413051,0.1,0.019907712936401367,0.6410632133483887,0.04977596,0.04686601,285.2499223605243,-0.8720981984170221,2.8270971569313126,0.0,9600,2.986544609069824,0.011021725579829238,0.002930917267146875,276.86096219695264,0.0
312,4.487655401229858,286.36343647933,10.138584649496467,314.9457794487063,225.02486578234257,2.0833333333333335,1.3340544011283635,0.1,0.018658876419067383,0.5571293830871582,0.04974313,0.14160086,285.3612737724049,-0.8681446827616522,2.8594952554453084,2.0833333333333335,9600,3.6872975826263428,0.0022615127737321884,0.001603627329104193,276.96888179913435,0.0
313,4.6393537521362305,287.9247821111284,3.8070254202704135,312.5880671520099,281.9488473852635,1.0416666666666667,1.5955140842036217,0.1,0.0176389217376709,0.4507791996002197,0.049668204,0.067434974,285.6176246062773,-0.8633764403483767,2.875093878814244,1.0416666666666667,9600,3.043799638748169,0.00040287128774097857,0.00027123326819831816,277.3403081536243,0.0
314,4.75996994972229,286.9455149952469,13.585434974769559,317.4896680232441,185.44606209538918,1.0416666666666667,1.6580501787065038,0.1,0.01022958755493164,0.4237556457519531,0.049549915,0.052090436,285.75041364517426,-0.8642397637709461,2.8653253177506133,1.0416666666666667,9600,2.842860460281372,0.0030096537166963673,0.0023031577457151473,278.48741473418573,0.0
315,4.3187901973724365,289.5350884202541,6.649841484872784,314.355912040081,281.5453145862393,1.0416666666666667,1.590369258338442,0.1,0.0166778564453125,0.4062380790710449,0.049009137,0.063088775,286.1288811226823,-0.8594035528718879,2.8912169507037184,1.0416666666666667,9600,2.9771432876586914,0.0012255464937129695,0.0008366917050272995,278.01989002270506,0.0
316,4.755199909210205,286.2345426133755,33.16426426365702,322.10491262168864,-8.031685661357338,3.125,1.6533695873175478,0.1,0.016754627227783203,0.40503716468811035,0.04880524,0.043868136,286.13944727175164,-0.8606365628723974,2.8582114305610857,3.125,9600,2.7322487831115723,0.011281908301277049,0.007009853861345867,277.718897907346,0.0
317,4.915018081665039,288.03828752595047,5.119176686071738,312.54407200386504,274.8349604455346,1.0416666666666667,1.6722253232431146,0.1,0.017055273056030273,0.37720513343811035,0.050110493,0.060983803,286.3293312971715,-0.8653978041960616,2.87621147768906,1.0416666666666667,9600,2.7320499420166016,0.0007590707617662067,0.0004286607879244955,277.3104994429396,0.0
318,5.2426438331604,290.55341844485906,9.838671863455195,341.78845324203223,256.1236493640881,5.208333333333333,1.639874910815509,0.1,0.03279542922973633,0.4113469123840332,0.049522687,0.06870786,286.7517400119403,-0.8553554558160087,2.901425001177067,5.208333333333333,9600,3.2126710414886475,0.0018484379196902112,0.0016948944556000906,278.3110245001191,0.0
319,4.7348456382751465,290.3199511548895,10.959737123144603,329.97314322788446,220.40055034535163,3.125,1.6038993248372357,0.1,0.01767277717590332,0.6024503707885742,0.049770426,0.062836796,287.1085611262352,-0.8557110708029146,2.8995248802006763,3.125,9600,3.4614431858062744,0.002601607062131337,0.002352183466174419,280.37665595823813,0.0
320,4.831787109375,288.0148138339097,44.45920846406183,354.77617014307117,-132.61771909590794,5.208333333333333,1.1505220817508017,0.1,0.018566370010375977,0.48729705810546875,0.049228694,0.044591725,287.1991863970027,-0.8617458413887059,2.875578108001689,5.208333333333333,9600,3.3072385787963867,0.009072768931797596,0.0034280774964843214,281.49140482270724,0.0
321,5.045168399810791,287.9932908762649,22.86864692422402,321.0818310762351,155.82148439049132,5.208333333333333,1.5169471075246361,0.1,0.032646894454956055,0.44889116287231445,0.049067046,0.0633189,287.27859684492887,-0.8574948340604728,2.8762545712448073,5.208333333333333,9600,2.370208501815796,0.010310451971995328,0.006263019682075874,282.1132652351586,0.0
322,4.581657409667969,289.95062353412527,14.739413958130923,333.8617567712436,173.49176040048846,5.208333333333333,1.5997949612950517,0.1,0.016637325286865234,0.3212881088256836,0.048941262,0.06407598,287.5457995138485,-0.858574183053712,2.8953596638515307,5.208333333333333,9600,2.672367572784424,0.004413728462322596,0.003254156736852226,280.2022509916764,0.0
323,4.464939832687378,290.66585860863137,12.10384310630107,326.91907322823556,213.82926147399414,6.25,1.6822663966301177,0.1,0.03283429145812988,0.4094736576080322,0.04701677,0.056610744,287.8578054233268,-0.8566447159845394,2.9025101629974848,6.25,9600,2.3916397094726562,0.0023253209691701505,0.0021482724479830293,281.43410036410745,0.0
324,4.45025372505188,288.9055729230591,25.60023325936307,335.86124560915385,113.36949595181898,5.208333333333333,1.4931130825907046,0.1,0.016592979431152344,0.36662840843200684,0.04978965,0.053144794,287.96258217330006,-0.8571487476952903,2.8849235260523898,5.208333333333333,9600,3.5382297039031982,0.012904103748216225,0.009423469235474635,281.99673656633894,0.0
325,4.415999412536621,283.87333661705617,47.36330371872903,334.34049144703647,-72.33632137449081,5.208333333333333,1.4224507580909302,0.1,0.03267240524291992,0.4131810665130615,0.049594436,0.05173753,287.5536576176757,-0.8664683640413072,2.8345952762341646,5.208333333333333,9600,2.724874258041382,0.012879930579067231,0.010975465702977374,280.50237045086556,0.0
326,4.166842460632324,287.1981910399923,34.99101284568708,333.75226338554114,39.06854417931449,7.291666666666667,1.517610673215077,0.1,0.010349035263061523,0.3912668228149414,0.04958998,0.06332746,287.51811095990735,-0.8660286317751423,2.867862617263293,7.291666666666667,9600,2.3056704998016357,0.012905429986353481,0.01018092078805017,279.89843212882056,0.0
327,4.67134428024292,292.306785774396,9.184260040928534,325.87276047815936,280.0912390679758,4.166666666666667,1.5579893489485226,0.1,0.020983457565307617,0.6793930530548096,0.04811321,0.07998243,287.99697844135625,-0.8597383612710141,2.9189238964095825,4.166666666666667,9600,3.5398659706115723,0.003201910214032213,0.001527402864130132,279.5043164201091,0.0
328,4.64200496673584,292.2536302345122,20.167361546969754,331.3698642314638,137.15742404261115,14.583333333333334,1.4956493506484478,0.1,0.04438948631286621,0.6283478736877441,0.0496971,0.05755603,288.42264362067186,-0.8659175048585382,2.918376596688598,14.583333333333334,9600,2.9653806686401367,0.007899804162434942,0.0071270646352244406,281.5496911759468,0.0
329,4.529537916183472,291.0218979211092,17.944672877665518,321.9026251287973,154.778657081085,6.25,1.579166895786017,0.1,0.018238067626953125,0.5291001796722412,0.049238198,0.056511424,288.68256905071564,-0.8623772801127577,2.9060753832651915,6.25,9600,1.9896001815795898,0.005786483588362482,0.005208458733424429,278.4280778486717,0.0
330,4.764554262161255,292.67664758558504,23.175673786603145,334.638251906843,105.62404511294251,10.416666666666666,1.5698551567521257,0.1,0.018271207809448242,0.560819149017334,0.049504053,0.056100607,289.0819769042026,-0.86273104068808,2.92264016727052,10.416666666666666,9600,2.453415870666504,0.007678784414125535,0.006575592306003141,278.35753189623813,0.0
331,4.727651357650757,294.43957593241385,13.132711618701002,342.1820008470801,280.5181112794706,11.458333333333334,1.6020239449481093,0.1,0.03241443634033203,0.46260714530944824,0.049478903,0.068332985,289.61773680702373,-0.8625615887973664,2.940282204314588,11.458333333333334,9600,2.2510335445404053,0.0036220830609712197,0.0030445913393550247,281.924499423009,0.0
332,4.644402742385864,297.5752307734211,17.902133158654316,377.4764501064176,243.55195504516726,16.666666666666668,1.5483085879245637,0.1,0.032402753829956055,0.5114233493804932,0.049999192,0.0742256,290.41348620366347,-0.8569336888857974,2.9716223544287756,16.666666666666668,9600,2.6934456825256348,0.005992037628568353,0.005594597860494962,283.6510587979158,0.0
333,4.4611945152282715,292.3416427988621,21.235189074356033,370.7035899908943,135.33777418046327,8.333333333333334,1.495933730365009,0.1,0.018603801727294922,0.5939381122589111,0.04927114,0.0611044,290.6063018631833,-0.8645297509097839,2.919306414394596,8.333333333333334,9600,2.9773149490356445,0.00817493827344349,0.006953681963147148,283.5346557697169,0.0
334,4.72924542427063,288.76998840833295,44.872142424444846,400.92292793418875,-25.846277349092375,20.833333333333332,1.4747412833912525,0.1,0.018155336380004883,0.5187089443206787,0.047121406,0.05342788,290.4226705176983,-0.8673063330360268,2.883657025582618,20.833333333333332,9600,2.174070358276367,0.02037389452777362,0.01634228691429412,283.3248393742864,0.0
335,4.268582344055176,293.1940410514803,31.835435437150842,346.77777119373985,112.79643719092039,19.791666666666668,1.542616999189233,0.1,0.012484312057495117,0.5728585720062256,0.04922228,0.062029347,290.69980757107646,-0.8629296657972847,2.927784288400274,19.791666666666668,9600,2.0027241706848145,0.01529966232644843,0.01228379196670783,281.39796008935895,0.0
336,4.629326105117798,294.11996183330615,33.699166662950404,342.5251795590437,70.83465216333995,21.875,1.4589606382998161,0.1,0.03262948989868164,0.6424083709716797,0.04930859,0.057483144,291.0418229972994,-0.8600315420186563,2.9375591961010628,21.875,9600,4.330420017242432,0.017763698076363157,0.014469881223577785,282.0649160994921,0.0
337,4.603289604187012,300.79647968063085,25.443915599310042,358.54368242784193,178.10501073198358,30.208333333333332,1.4277397400697414,0.1,0.032061100006103516,0.5184371471405029,0.04879586,0.110114835,292.0172886656326,-0.8569293919623254,3.003826607071074,30.208333333333332,9600,2.730807065963745,0.012346858293227368,0.009992895676583425,281.0470355847174,0.0
338,4.755550146102905,293.00243187992186,30.5488522000824,348.7475026539927,118.4591648396179,21.875,1.5904871277307187,0.1,0.032004356384277344,0.4897294044494629,0.049670715,0.059382193,292.1158029870615,-0.8627005572303786,2.9254481656754265,21.875,9600,4.06782341003418,0.014196047273428625,0.010554018727032353,279.7429574243631,0.0
339,4.587074279785156,298.0256648507503,19.61884681069168,346.9395965016561,186.4404365316909,18.75,1.6785686155072934,0.1,0.018999576568603516,0.5003714561462402,0.048942126,0.05796921,292.70678917343037,-0.8607191065513429,2.976117736943818,18.75,9600,2.2656586170196533,0.007465475716555906,0.006402973647456681,278.4272336811069,0.0
340,4.638841867446899,298.9693014074408,19.01216427020349,364.803590688122,277.7944805573149,22.916666666666668,1.7030178462194328,0.1,0.01672506332397461,0.3534739017486572,0.04929643,0.061453614,293.3330403968314,-0.8596314917985506,2.9855400693419636,22.916666666666668,9600,2.013796091079712,0.007186471746640805,0.006366953367373713,279.9610361750498,0.0
341,4.4763593673706055,298.01152095997355,37.61824963447885,400.0969100600593,-11.028410269393838,22.916666666666668,1.4353729709648755,0.1,0.03239631652832031,0.3971743583679199,0.04886735,0.05772261,293.8008884531456,-0.856676079037217,2.975974487926127,22.916666666666668,9600,3.314000368118286,0.011831748506552577,0.006901425920830683,279.13029128962313,0.0
342,4.559083700180054,304.51115814801864,23.00340431665207,378.6281874354771,233.09893989793437,34.375,1.6618540639537274,0.1,0.017453432083129883,0.39844250679016113,0.049950205,0.05932231,294.8719154226329,-0.8520830293079579,3.0414015371045777,34.375,9600,2.669111490249634,0.00869962198636736,0.00795163897431093,281.4728335031547,0.0
343,4.451382875442505,303.0094821642744,24.565435038437116,362.516289501994,193.89510845080702,30.208333333333332,1.6770650198756432,0.1,0.016942739486694336,0.48038578033447266,0.050131597,0.05817238,295.6856720967971,-0.8581303417232252,3.0268614902607816,30.208333333333332,9600,3.8180413246154785,0.00963770280285976,0.008646134732946042,282.5237620434014,0.0
344,4.478714942932129,308.1219455113004,26.394679623798496,398.6233915149898,193.76270196204632,39.583333333333336,1.620809663470051,0.1,0.03257322311401367,0.464214563369751,0.049595773,0.06629466,296.9292994382474,-0.8505271643017497,3.0775266013854217,39.583333333333336,9600,3.776653528213501,0.010368036099748122,0.009429200677372082,280.86475295969666,0.0
345,4.61686635017395,303.9259674481621,24.09170778828938,373.21421500768383,204.82182618477697,36.458333333333336,1.5384292558440447,0.1,0.017200708389282227,0.4488229751586914,0.049656495,0.06673642,297.62896623923893,-0.8570916011066405,3.0351133349163266,36.458333333333336,9600,2.654341697692871,0.009586062693090064,0.007960277738462007,282.5865900359697,0.0
346,4.489039182662964,305.00759882929975,33.562619805496794,390.99280034583006,135.72463740791505,45.833333333333336,1.5146413339151708,0.1,0.05837202072143555,0.5716865062713623,0.04915766,0.066409744,298.366829498245,-0.8573483124052248,3.0459166995941005,45.833333333333336,9600,3.0851871967315674,0.01566139398364922,0.013866788068060248,282.34338077374485,0.0
347,4.53558874130249,307.7752407602541,25.6320472306721,404.3381210934515,219.05647621320253,40.625,1.5026153591162505,0.1,0.01761913299560547,0.4962606430053711,0.04855752,0.068889774,299.30767062444596,-0.8510447319296413,3.0736225814826987,40.625,9600,2.055351972579956,0.01054634678325695,0.008683247430371495,282.56819063504514,0.0
348,4.479583978652954,312.9033510709406,35.3517200341313,391.56542817662324,126.85487931226216,53.125,1.503762055725029,0.1,0.04167628288269043,0.4920837879180908,0.047513,0.059040308,300.6672386690954,-0.8530995766082946,3.1245082388983114,53.125,9600,3.352937698364258,0.01680302110741636,0.015117347265154197,282.8705819306635,0.0
349,4.537572622299194,306.84317690129853,44.59654473646384,392.5813075806764,137.13285447932634,55.208333333333336,1.6140394603548958,0.1,0.04499030113220215,0.554527759552002,0.049992464,0.058559738,301.28483249231573,-0.8602282454192606,3.064307203485361,55.208333333333336,9600,2.892401695251465,0.023139942265174112,0.019632243755667775,283.22526841865727,0.0
350,4.574054718017578,319.5138196157004,28.61381829776735,398.2868563186437,273.36449169812386,55.208333333333336,1.6685293613018852,0.1,0.010565042495727539,0.37303972244262695,0.04933643,0.060823504,303.1077312046542,-0.8483505270117648,3.190596436059609,55.208333333333336,9600,2.251760244369507,0.012850937739332824,0.01049089695332733,282.9649621243279,0.0
