iteration,time_sampling,stoc_pol_mean,stoc_pol_std,stoc_pol_max,stoc_pol_min,rollout_success,alpha,delta,time_vpg,time_npg,kl_dist,surr_improvement,running_score,rwd_sparse,rwd_dense,success_percentage,num_samples,time_VF,VF_error_before,VF_error_after,eval_score,eval_success
0,2.426265001296997,40.404073526708935,84.06929201257145,235.86273745408204,-198.20774127318816,69.79166666666667,1.6499795166375668,0.1,0.06538081169128418,0.4014418125152588,0.048900202,0.061315663,40.404073526708935,-0.604116818198841,0.40166338256804873,69.79166666666667,9600,0.8169145584106445,1.0009162669517238,0.7855845554216186,-41.6749166333248,0.0
1,2.0544190406799316,271.74360125011685,90.3023244906092,466.6358562090685,31.667806208908384,100.0,1.9837516605731436,0.1,0.014568090438842773,0.395160436630249,0.050520264,0.049337745,63.53802629904973,-0.33987493870598123,2.7114972151258225,100.0,9600,1.370072603225708,0.7371489348899951,0.2570095625430409,713.068154050006,100.0
2,2.3815085887908936,440.50670881548723,88.60406460412227,595.5198478487184,192.24696165990474,100.0,2.811168027469994,0.1,0.036065101623535156,0.4214324951171875,0.05562588,0.03499005,101.2348945506935,-0.24022072979847497,4.398649988520705,100.0,9600,0.7262110710144043,0.3090531208114863,0.15892588752021344,743.5754154220369,100.0
3,2.161984443664551,558.5178663827948,63.42370046198901,688.8992438381379,388.40289957729146,100.0,3.859911204205049,0.1,0.013187408447265625,0.4926786422729492,0.06591838,0.028118314,146.9631917339036,-0.18072508268266177,5.578785316849424,100.0,9600,0.8725049495697021,0.18230974060155716,0.04934067912409209,744.5081813200258,100.0
4,2.1815433502197266,649.5182631560587,54.02233084683509,751.3037330439216,511.232091218101,100.0,3.2926999837510613,0.1,0.016699552536010742,0.5498816967010498,0.06039959,0.029769434,197.21869887611913,-0.1383737115906388,6.487463977077357,100.0,9600,0.9370551109313965,0.06944192888912694,0.008575158006932978,747.7167345812181,100.0
5,2.1566035747528076,694.7835049981077,38.26008660863614,776.8126056860727,594.099094158993,100.0,2.9902321238926,0.1,0.013154983520507812,0.385326623916626,0.05661674,0.03137526,246.975179488318,-0.11821701861055194,6.93967696311281,100.0,9600,1.5384631156921387,0.009740260488504113,0.002589469538473581,755.128547723848,100.0
6,2.172045946121216,714.3073271188501,33.58774714134301,778.2118002465802,631.6317320221807,100.0,2.893555253242716,0.1,0.012109756469726562,0.38034868240356445,0.060134508,0.032699704,293.7083942513712,-0.11014829797538145,7.1349062556193275,100.0,9600,1.587916374206543,0.0026964726450491275,0.001039674975186901,758.2319444019869,100.0
7,2.049956798553467,731.7611580617241,29.545957536528547,779.0453321041289,648.1621596365924,100.0,3.1611028136575516,0.1,0.010698795318603516,0.33794116973876953,0.055983957,0.028523171,337.5136706324065,-0.09283896290778255,7.309444584156084,100.0,9600,1.4891512393951416,0.0008489171120034104,0.00038193725087878416,757.5401261245445,100.0
8,2.332010507583618,741.0298536314504,28.743253344218555,779.611069342934,674.4690667592607,100.0,4.575170184307433,0.1,0.015173912048339844,0.34362125396728516,0.05616043,0.021529032,377.8652889323109,-0.08055246116738386,7.402112627362979,100.0,9600,2.2120823860168457,0.0002903868303916694,0.00020427678299856253,755.3746331126524,100.0
9,1.9114749431610107,733.324353735535,31.89311644563041,779.7184481840652,671.9983995345347,100.0,4.761570645170207,0.1,0.030326128005981445,0.3433258533477783,0.049943008,0.021719392,413.4111954126333,-0.08559908795217826,7.325089542534404,100.0,9600,1.9465606212615967,0.00023516389700023923,0.00016164698787854892,757.5720461876174,100.0
10,1.929265022277832,743.3657263401856,29.568002073511025,780.3184056725685,675.0117168383515,100.0,3.8881977935696277,0.1,0.008766889572143555,0.2990696430206299,0.049951334,0.023282941,446.40664850538855,-0.07109907692510357,7.425488461261402,100.0,9600,1.8466777801513672,0.00010874080391450646,8.809979742816964e-05,757.3098506022302,100.0
11,1.9046432971954346,737.2786833827519,29.946943881429743,780.5502584037763,677.8598061215318,100.0,3.017508246356777,0.1,0.010638713836669922,0.38378000259399414,0.07027257,0.01730598,475.4938519931249,-0.077335004913797,7.364595577233402,100.0,9600,1.841024398803711,9.409579273005167e-05,8.06387170291306e-05,763.4331317056715,100.0
12,1.952183485031128,738.669088079565,31.854722453472476,780.425219038176,662.4852570976636,100.0,1.6892755042678715,0.1,0.009261131286621094,0.31661558151245117,0.04849968,0.015882242,501.81137560176893,-0.07519366071983018,7.378527149572847,100.0,9600,1.9787793159484863,5.401732142890483e-05,3.861603470035196e-05,759.5356312964292,100.0
13,2.131958246231079,744.8115480172137,25.720662800800522,780.1108286774463,676.5867932347537,100.0,2.912444990518176,0.1,0.015428304672241211,0.35121679306030273,0.053814035,0.037627444,526.1113928433134,-0.0674662626881505,7.439911939253942,100.0,9600,2.6599183082580566,5.047753279007762e-05,4.051684251640349e-05,763.4113020469058,100.0
14,2.0361812114715576,744.5423475260554,25.25664859970391,780.9207913244737,689.4173738109937,100.0,2.6409993701614116,0.1,0.009128808975219727,0.30309534072875977,0.056448612,0.03539095,547.9544883115876,-0.06730148757908022,7.437242859337007,100.0,9600,2.276400089263916,3.139236050800186e-05,2.5135555291769705e-05,762.0460000014825,100.0
15,2.149686336517334,751.0580422889743,23.10637204000608,781.7474737140942,703.3728587330996,100.0,2.5607295304761126,0.1,0.014285564422607422,0.279857873916626,0.063501865,0.045125123,568.2648437093263,-0.06012495465019222,7.502400038008562,100.0,9600,2.9083659648895264,2.793245966075439e-05,2.178090798754332e-05,768.5637381425647,100.0
16,2.161607265472412,749.0499158544566,23.943436709817046,781.3965399541487,702.8274028623317,100.0,1.3016583441663514,0.1,0.014221429824829102,0.29443812370300293,0.04985543,-0.00038490733,586.3433509238394,-0.061999281010447625,7.482283855610472,100.0,9600,2.6479663848876953,1.226432906976136e-05,9.587556000460643e-06,766.3503606175924,100.0
17,2.334446907043457,752.5097638248002,23.825561249637996,782.5963468876572,707.158127309947,100.0,1.8761747637918949,0.1,0.014813661575317383,0.31361937522888184,0.06601181,0.045292664,602.9599922139355,-0.0599790462817626,7.5169034213974735,100.0,9600,2.8354246616363525,1.8576814838305153e-05,1.48838691900357e-05,769.2048217157314,100.0
18,1.9369027614593506,754.7509422612846,24.295758280805103,782.6271102251442,711.8223050183301,100.0,1.5894605288961803,0.1,0.04234027862548828,0.35672688484191895,0.047017537,0.051162977,618.1390872186704,-0.05480773463726921,7.539326257480437,100.0,9600,2.558276414871216,6.2112565371361575e-06,5.603448843918386e-06,769.8913431227616,100.0
19,1.9118306636810303,751.4686070475287,18.696250768566337,782.8568396314693,720.8078374996801,100.0,1.8838364821603288,0.1,0.014797210693359375,0.2688143253326416,0.052288804,0.043387204,631.4720392015562,-0.05793743700198183,7.506495631957859,100.0,9600,3.0281059741973877,6.815799029566097e-06,5.571944791675642e-06,769.9921387347987,100.0
20,2.0009610652923584,754.3855852325293,19.61931952722582,782.9892026450857,704.9040976035723,100.0,1.4305382299175533,0.1,0.03026270866394043,0.27852654457092285,0.058006637,0.04690869,643.7633938046536,-0.055011252389896646,7.535644937155477,100.0,9600,2.723278760910034,9.714452762746344e-06,8.902579672076496e-06,769.0062634067684,100.0
21,2.150510787963867,753.0690812934478,20.83367669129373,783.3260622361994,716.9027969078937,100.0,1.97274207283208,0.1,0.014980554580688477,0.27459168434143066,0.043532383,0.074251704,654.6939625535331,-0.05568357548733085,7.5225054000865095,100.0,9600,2.597792625427246,3.7265678906960923e-06,2.82234820824792e-06,769.751218060456,100.0
22,2.203312873840332,757.8401801068754,19.41157114037609,783.8315024242022,726.3596273199971,100.0,1.8983080793177844,0.1,0.014045953750610352,0.26422882080078125,0.05388181,0.040547762,665.0085843088673,-0.050906620077550514,7.570173603246153,100.0,9600,2.498180866241455,4.625847721851711e-06,3.066499456996198e-06,768.817397736647,100.0
23,2.4656546115875244,755.5294306323212,19.46632900106739,784.312012394954,718.21665300975,100.0,1.9615620136614267,0.1,0.014543533325195312,0.285062313079834,0.04802781,0.04457068,674.0606689412126,-0.050827105775921956,7.547064874378414,100.0,9600,2.5666561126708984,2.7619441525950595e-06,2.429353612067916e-06,768.7926737954983,100.0
24,2.242694616317749,757.3704933123972,19.542742541628833,784.8714223586006,719.0114592146782,100.0,1.597501743537301,0.1,0.030092954635620117,0.291393518447876,0.049000848,0.052454095,682.3916513783311,-0.05096629627067819,7.565481557921873,100.0,9600,1.929889440536499,3.0696351255506447e-06,2.4321838153389843e-06,769.339404625402,100.0
25,2.1418302059173584,752.0246507820642,17.690974071294036,784.8765094574061,719.24208443604,100.0,2.3651937056602192,0.1,0.027814388275146484,0.28646349906921387,0.054491933,0.030262044,689.3549513187044,-0.05815195755204881,7.512025997645871,100.0,9600,2.644803524017334,3.6352473870956893e-06,3.967033558710311e-06,769.2182883444333,100.0
26,2.352492570877075,756.2205285488714,18.847411561062156,785.0825045104668,722.4297887174906,100.0,2.170894333512837,0.1,0.03883242607116699,0.33688807487487793,0.04565061,0.036002748,696.041509041721,-0.05316204582024392,7.553981306104656,100.0,9600,2.983222007751465,3.817745533207953e-06,2.764046538175538e-06,769.0433483364172,100.0
27,2.2879083156585693,756.4442324319945,19.281114924272828,785.658253875951,723.3946184961756,100.0,1.9132593336597747,0.1,0.010586977005004883,0.27906274795532227,0.047008146,0.053499296,702.0817813807483,-0.05425406573162214,7.556217624945923,100.0,9600,2.302536725997925,3.3682004758778966e-06,3.4170049597450815e-06,768.9008669291968,100.0
28,2.2927563190460205,756.9900719155817,18.12047710530233,785.8863139428754,723.0982915549073,100.0,1.5837104378310802,0.1,0.010755062103271484,0.35708165168762207,0.05029069,0.067536116,707.5726104342317,-0.053172184598714645,7.561687552822533,100.0,9600,2.4550957679748535,2.840777915526388e-06,2.2960628073574676e-06,768.7221609289386,100.0
29,2.1429786682128906,760.1251187736556,20.162818284065338,786.4974228350176,723.9056732437399,100.0,2.092904353856686,0.1,0.014775753021240234,0.30816054344177246,0.044915576,0.039205883,712.8278612681742,-0.04971468916604347,7.5930026300283515,100.0,9600,2.248033046722412,2.2045409284296817e-06,2.118928521996256e-06,768.7123237740673,100.0
30,1.9225883483886719,764.5277499977897,19.727673882417726,786.7188252254135,724.7246181873198,100.0,2.1937586192834035,0.1,0.009134531021118164,0.3852214813232422,0.052847017,0.05161332,717.9978501411357,-0.04545366773957571,7.637025863472606,100.0,9600,2.8698675632476807,2.3615686349863715e-06,1.569692469898689e-06,768.8489718237726,100.0
31,2.215423345565796,759.4469878415929,17.61041979098057,786.6106081347298,725.8365174381422,100.0,2.0702339405158767,0.1,0.024324417114257812,0.24319720268249512,0.051726885,0.031132296,722.1427639111814,-0.048849102764904485,7.586210963973268,100.0,9600,2.2940242290496826,2.581923843625524e-06,2.6878478841432294e-06,768.6849630546697,100.0
32,2.2876808643341064,760.947130702671,19.682559202542663,786.9062378825728,724.0025858026901,100.0,2.125077201727953,0.1,0.01436614990234375,0.2183666229248047,0.04950021,0.033620212,726.0232005903304,-0.04900574372330288,7.601222641691218,100.0,9600,2.652343273162842,2.150595029551064e-06,1.877211883314966e-06,768.631991241957,100.0
33,2.0492327213287354,756.9807705447778,18.65596477137413,787.0946080725558,724.8818605342259,100.0,2.8145916392773853,0.1,0.014421701431274414,0.216874361038208,0.047456946,0.04627243,729.1189575857752,-0.053494226576422166,7.5615410091302335,100.0,9600,2.503326892852783,1.8507030269471284e-06,2.084729378097687e-06,768.7732265382092,100.0
34,2.3777358531951904,756.3186160890195,20.08913370085386,787.3975692431325,724.628225432667,100.0,2.137530438110521,0.1,0.0073277950286865234,0.2651638984680176,0.044605315,0.04093774,731.8389234360997,-0.05558383064280723,7.554971584333036,100.0,9600,3.055692195892334,3.0715194883741197e-06,4.539246681591364e-06,768.8208087058707,100.0
35,2.06583571434021,759.1081032113619,21.78525460535234,787.56733856797,720.766007344216,100.0,1.6985023857620056,0.1,0.007544517517089844,0.2648777961730957,0.05034115,0.031315643,734.5658414136259,-0.051498576137045615,7.582838224925115,100.0,9600,2.9467947483062744,3.863267153007162e-06,2.1280217073381278e-06,768.9843432761215,100.0
36,2.112767219543457,756.3534771959668,21.21359766052819,787.6730358054149,720.5834631943102,100.0,1.448279494207219,0.1,0.014101743698120117,0.34197378158569336,0.050677937,0.054027677,736.74460499186,-0.05497936798420997,7.555281316118905,100.0,9600,2.8127992153167725,5.555202263037127e-06,5.1104810558231085e-06,769.0718494433477,100.0
37,2.064286947250366,763.723605423147,20.8319283165459,787.8098582575369,727.696773264458,100.0,1.6817423789944952,0.1,0.016039371490478516,0.35543155670166016,0.044382323,0.012368275,739.4425050349887,-0.0459275592670306,7.629003765972911,100.0,9600,2.800550937652588,4.872574688467231e-06,2.3221845489678726e-06,768.9971208388737,100.0
38,2.3524789810180664,761.364665981437,20.433717475509408,787.7329459799082,722.7223747458204,100.0,2.180902873954566,0.1,0.03019547462463379,0.28548479080200195,0.046547715,0.052803162,741.6347211296335,-0.0496581846477635,7.605384334716457,100.0,9600,2.5836033821105957,2.650767105734734e-06,2.3118530965208528e-06,769.3968192652715,100.0
39,2.077157735824585,758.9625651566058,17.9717713837736,787.8300581596965,724.9844045112558,100.0,2.1266370212594854,0.1,0.013937950134277344,0.24681496620178223,0.045878373,0.027975446,743.3675055323308,-0.04987432542117932,7.5813582491305525,100.0,9600,2.5018088817596436,1.826301743006978e-06,2.0789197925145974e-06,769.5264806596942,100.0
40,2.071322202682495,760.0934958774619,20.12156543607271,788.3486088209777,715.9266773714187,100.0,1.984267410133031,0.1,0.014767646789550781,0.3014500141143799,0.05013811,0.042298727,745.040104566844,-0.04852338429397418,7.59268466310984,100.0,9600,2.495582342147827,3.936259961009083e-06,3.6088481321550275e-06,769.5819423657351,100.0
41,2.1080541610717773,759.5779995771296,18.375684145145737,788.5660801233055,725.8218157308787,100.0,2.048000880000567,0.1,0.03076171875,0.29752254486083984,0.047805943,0.043715734,746.4938940678726,-0.04839917979949795,7.587527080865084,100.0,9600,2.339801549911499,2.0419711056205844e-06,1.5255031218064533e-06,769.4495725697761,100.0
42,2.3656539916992188,762.6059192388344,19.49151637815297,788.4699980117243,726.7571257529712,100.0,2.3257040667607387,0.1,0.008590936660766602,0.28415393829345703,0.041401073,0.057906423,748.1050965849688,-0.04533642085571349,7.617803554007445,100.0,9600,2.376013994216919,1.828284827709239e-06,1.612323630460034e-06,769.7201726899806,100.0
43,2.1850054264068604,762.6544513337698,19.582143862818196,788.512139683527,726.040108357888,100.0,1.9168490869313812,0.1,0.014573335647583008,0.2373518943786621,0.046415336,0.04510757,749.5600320598489,-0.045391064504964836,7.618300557337615,100.0,9600,3.160482168197632,1.9111716364998765e-06,1.91464775762268e-06,769.7916920708284,100.0
44,1.931877613067627,761.1965120390599,18.33749888127242,788.7260692302409,730.6204698062307,100.0,2.136377670264533,0.1,0.01424407958984375,0.2512502670288086,0.047396526,0.025730534,750.72368005777,-0.047441722287807186,7.603710574808872,100.0,9600,2.729447364807129,2.4129824425269532e-06,2.552569990130824e-06,769.6665644487651,100.0
45,2.14725399017334,760.1102463444267,19.9363010093058,789.0390879928423,726.3735737656071,100.0,2.0407891429196696,0.1,0.030576467514038086,0.3351259231567383,0.04816954,0.02811785,751.6623366864358,-0.04779975059257242,7.592837197128797,100.0,9600,3.3480474948883057,1.5440489955640703e-06,1.6594065239064807e-06,769.9455041359522,100.0
46,2.3666179180145264,762.0170783348937,18.21499378440618,788.9915008293543,730.6000676460557,100.0,2.311353330447537,0.1,0.014550209045410156,0.2994096279144287,0.049174253,0.01617875,752.6978108512815,-0.04549566636027072,7.611914511034866,100.0,9600,2.7443323135375977,1.7119128295506831e-06,1.928646713800069e-06,769.9716372521302,100.0
47,1.915879249572754,759.2817678227344,19.63460698774419,788.852306739598,726.3180816875494,100.0,2.269685998096753,0.1,0.01245880126953125,0.2692079544067383,0.044739604,0.051914614,753.3562065484268,-0.049436833929163815,7.584577981721544,100.0,9600,2.3305416107177734,1.8991955134349701e-06,2.0694150683709653e-06,770.0069360036001,100.0
48,2.263267993927002,759.9632999189074,18.97016567742239,789.0712958388393,730.6451325582914,100.0,1.6118724890286544,0.1,0.019065380096435547,0.30942606925964355,0.051547337,0.04242424,754.016915885475,-0.04815774677505782,7.591359354925498,100.0,9600,2.7029433250427246,2.8741298977289194e-06,1.8842869310847093e-06,769.9485933482578,100.0
49,1.9277539253234863,754.7308843708812,18.899833834480027,788.8124555390157,726.5041875465538,100.0,2.407979068427222,0.1,0.014495849609375,0.3689453601837158,0.04624423,0.030836195,754.0883127340156,-0.055208325912928354,7.539046809703382,100.0,9600,3.0223498344421387,1.4893361867016565e-06,1.496250123448611e-06,770.1669418143911,100.0
50,2.09596586227417,758.9651986646763,17.991489766592213,789.0296375895608,730.9265977043618,100.0,2.517172192552125,0.1,0.014419078826904297,0.3939826488494873,0.047058765,0.037275083,754.5760013270817,-0.0489674999813437,7.581404380763114,100.0,9600,3.2632880210876465,1.5268971805651968e-06,2.093697032922784e-06,770.213552631154,100.0
51,2.4860992431640625,764.8429766576613,19.096869653351003,789.5535887037964,731.181063194792,100.0,2.2104269405532078,0.1,0.0139617919921875,0.22925281524658203,0.047781408,0.040748283,755.6026988601396,-0.042222690690981855,7.640150182827536,100.0,9600,2.6023972034454346,1.931546490670898e-06,1.5328974323396674e-06,770.3466466721641,100.0
52,1.9808502197265625,761.6372774215833,18.74698394618252,789.1545724786919,726.6450361681881,100.0,1.9241813859235373,0.1,0.007161855697631836,0.23511457443237305,0.049049433,0.047454774,756.206156716284,-0.04606309656219376,7.608104032241729,100.0,9600,2.697127103805542,1.5866401397932735e-06,1.256849326611462e-06,770.4305094764904,100.0
53,1.927398920059204,765.2985795643827,20.137750684529593,789.7515880206092,726.254746291329,100.0,2.425351135418193,0.1,0.00825810432434082,0.2823617458343506,0.051299006,0.031092105,757.1153990010939,-0.04302489801743082,7.644699750911585,100.0,9600,1.980787992477417,1.2994302545217785e-06,1.6274598597797744e-06,770.3562531295617,100.0
54,2.0750925540924072,765.2045615978132,19.601338571296818,789.4246081442836,726.8098009384299,100.0,1.795007159770181,0.1,0.01562666893005371,0.3087596893310547,0.05075984,0.038342055,757.9243152607659,-0.04201979730594597,7.6437583133773686,100.0,9600,2.864116668701172,1.5726524183758052e-06,2.270573864136511e-06,770.375782018884,100.0
55,1.9781498908996582,761.1612311557406,19.468480144394636,789.6296352768105,730.9669708370594,100.0,2.5113842150363195,0.1,0.029808521270751953,0.28348422050476074,0.046413846,0.075764954,758.2480068502633,-0.046756250716498714,7.603352381540254,100.0,9600,3.5928051471710205,2.1402371810484926e-06,1.1976286491580405e-06,770.5158486656093,100.0
56,2.35935378074646,760.3596308591492,20.592550062740813,789.1677382658672,726.6324862705391,100.0,2.168305554294938,0.1,0.01545262336730957,0.2778463363647461,0.051015433,0.03849274,758.4591692511519,-0.04884629827480109,7.595340879485534,100.0,9600,2.214041233062744,1.5893582038751905e-06,2.4031252867945897e-06,770.7190289315756,100.0
57,2.0468170642852783,761.570372677122,19.831859406205233,789.4287810553374,731.0446678697672,100.0,2.044821972691703,0.1,0.014094352722167969,0.29337549209594727,0.046555113,0.10875851,758.770289593749,-0.04697912824809817,7.60742805317646,100.0,9600,2.7560043334960938,2.4057459244426173e-06,9.634438703703114e-07,770.8407910244099,100.0
58,2.1680047512054443,761.2144921077739,20.19626879348213,789.5818208993677,726.9884266355184,100.0,2.09437398283567,0.1,0.0071942806243896484,0.2746725082397461,0.044166047,0.034615375,759.0147098451515,-0.047689444251694246,7.603897471004846,100.0,9600,2.418658494949341,1.317630839116804e-06,2.1831119298868434e-06,770.6677831735178,100.0
59,2.0928213596343994,764.5738871228895,19.327099521998218,789.797798344513,731.5659449251788,100.0,1.7445728849308044,0.1,0.04236769676208496,0.5865931510925293,0.046611514,0.039321173,759.5706275729253,-0.041712700801641855,7.63746866788293,100.0,9600,2.942573070526123,1.8790650650482457e-06,1.3571502402433812e-06,770.7881094978181,100.0
60,2.109161138534546,763.3394674981691,19.83655631596147,789.5898258849747,727.476540927905,100.0,1.5892062829290912,0.1,0.01210927963256836,0.30026960372924805,0.049375363,0.09807719,759.9475115654498,-0.043794716628564954,7.625145709784206,100.0,9600,2.681203842163086,1.6981872330488336e-06,1.3227715341542957e-06,771.0939103623325,100.0
61,2.340041399002075,763.1343141213238,19.29721384356843,789.7137068033727,727.3001868638963,100.0,1.8416070815545593,0.1,0.030327558517456055,0.3020448684692383,0.047923382,0.06015956,760.2661918210372,-0.04355222917932839,7.623062911086603,100.0,9600,2.9737117290496826,1.4934431824766982e-06,2.0098775075015094e-06,771.083448552078,100.0
62,2.2195584774017334,761.9785658205187,20.34314807667777,789.7001148668979,722.6956555828873,100.0,1.8403876769708243,0.1,0.014845848083496094,0.3157157897949219,0.049619142,0.033666715,760.4374292209853,-0.046255012636611616,7.6115096776007505,100.0,9600,2.729802131652832,2.568175142344511e-06,2.185594482812808e-06,771.0514277370025,100.0
63,1.9626069068908691,760.0533372508092,18.682574536521983,789.6072482020483,726.8830620986049,100.0,2.1459256896839762,0.1,0.014959573745727539,0.2854452133178711,0.049348842,0.018320022,760.3990200239678,-0.04719401041387624,7.5922603455121935,100.0,9600,2.6953916549682617,1.7071269881222703e-06,4.080110826367132e-06,770.8565895567374,100.0
64,2.086395025253296,760.1787252548105,18.70492521100438,789.7092751249168,727.3029341514488,100.0,2.9119573496441533,0.1,0.00896906852722168,0.27495884895324707,0.044903215,0.028755233,760.3769905470521,-0.04644328724089141,7.593526266422479,100.0,9600,1.9130516052246094,4.145762550573952e-06,1.1879999602495035e-06,770.9805455410918,100.0
65,2.0853030681610107,763.6685312806816,19.60546025783957,789.8061865269791,727.1358258212457,100.0,2.450505244904808,0.1,0.033820152282714844,0.35694146156311035,0.047656108,0.027199088,760.706144620415,-0.04275674181633454,7.628413798134178,100.0,9600,3.842181444168091,1.005774161891162e-06,1.082777362884042e-06,771.0167025843645,100.0
66,2.5752155780792236,762.901351922463,21.060944633963036,789.8021243330268,727.2555332236236,100.0,2.362702455893152,0.1,0.013232946395874023,0.3386955261230469,0.047035247,0.036574244,760.9256653506199,-0.04576507384222626,7.620762489453965,100.0,9600,2.1423230171203613,1.0718046308282995e-06,4.347131778330455e-06,771.1652167468752,100.0
67,2.4546620845794678,762.5411691182995,20.04238760050992,789.8120869599107,728.0538962085537,100.0,1.9567156126225298,0.1,0.02976250648498535,0.2990543842315674,0.046906292,0.24129835,761.0872157273877,-0.04521484616847702,7.617152135985293,100.0,9600,3.6460373401641846,4.092368103411798e-06,1.5641231549964287e-06,771.5098231757058,100.0
68,2.045102834701538,760.5942808636861,20.088289284550513,789.8933577748186,727.3043376632148,100.0,2.1789563379771475,0.1,0.014691352844238281,0.2945866584777832,0.049948484,0.041854005,761.0379222410176,-0.047411793430699734,7.5976672482650445,100.0,9600,2.3627235889434814,1.396059187142969e-06,1.2659815544879804e-06,771.597414410524,100.0
69,2.342420816421509,764.0121422118908,18.65258779983007,789.9034121334852,727.0155193880255,100.0,2.350503865332773,0.1,0.04208564758300781,0.3171994686126709,0.045685515,0.029974993,761.3353442381049,-0.04263785229892997,7.631850393186622,100.0,9600,2.359792709350586,1.2580998484715572e-06,1.1859558648602106e-06,771.672003175366,100.0
70,1.9759492874145508,765.9241757373102,19.617760705065884,789.7600079387107,727.3758110958254,100.0,2.3143776701040575,0.1,0.008639812469482422,0.33219289779663086,0.051487546,0.03983915,761.7942273880254,-0.04077712385584206,7.650978149865399,100.0,9600,2.1593873500823975,1.2421941241414655e-06,1.897724208714803e-06,771.7615528771082,100.0
71,1.9574823379516602,764.9812821923992,19.64300428616143,789.9358250914905,727.2567248555307,100.0,1.7138691348332205,0.1,0.014635086059570312,0.3396577835083008,0.04823235,0.051241226,762.1129328684628,-0.041131250316686345,7.641537454153069,100.0,9600,2.607353448867798,1.7582798676627858e-06,1.4389547432372026e-06,771.5276234191047,100.0
72,1.9223723411560059,761.3519347480378,20.154831645784622,789.9577239868456,727.1205520889828,100.0,2.3743890228672564,0.1,0.007299184799194336,0.24848580360412598,0.06321715,0.03379648,762.0368330564204,-0.04638065567923586,7.605233897744256,100.0,9600,2.1667656898498535,1.8124388464253565e-06,1.325043967381876e-06,771.116196240627,100.0
73,1.9389488697052002,761.7670653100432,20.56306726868335,790.0804634850514,727.2197169170423,100.0,1.8080289712144453,0.1,0.008312225341796875,0.3271214962005615,0.044981588,0.03239768,762.0098562817827,-0.04624689801916223,7.609402959633717,100.0,9600,2.0152604579925537,1.3489844816414263e-06,5.05005794891911e-06,771.3922996149136,100.0
74,2.119292974472046,762.1605859291002,17.980496617207308,789.9256504281866,727.603016261398,100.0,2.243794795387399,0.1,0.014760971069335938,0.3363327980041504,0.047623623,0.033978846,762.0249292465145,-0.044139924426211626,7.613331172494898,100.0,9600,2.694035768508911,5.027018578662906e-06,1.3572412520600216e-06,771.4751327376306,100.0
75,2.1408514976501465,762.7132092716366,18.79663715227844,789.946308905501,727.790133793505,100.0,1.9570265224642218,0.1,0.007603645324707031,0.23390603065490723,0.048220653,0.045482647,762.0937572490267,-0.04341397318211609,7.618863140630549,100.0,9600,1.7591736316680908,1.675919790100217e-06,1.153201453968948e-06,771.2905908327369,100.0
76,2.3078951835632324,763.0173893550741,21.29291210306281,789.901949077356,727.4232643186663,100.0,2.651608828988657,0.1,0.007361650466918945,0.2375338077545166,0.047272734,0.01669699,762.1861204596314,-0.04609281826179388,7.621920689946191,100.0,9600,1.659379243850708,1.2685546591338252e-06,8.375350561250808e-07,771.5359815089257,100.0
77,2.053147315979004,761.0883122059753,19.989430598112843,789.9452077846463,727.2674673327157,100.0,1.9818126393970688,0.1,0.007078886032104492,0.272904634475708,0.047388826,0.09458618,762.0763396342658,-0.048199189605353,7.602616417672755,100.0,9600,1.7563459873199463,1.5705821246665863e-06,1.7128392059017572e-06,771.6343343934798,100.0
78,2.1588993072509766,759.8639960936052,18.863276046559655,789.9387763614731,727.3348039170629,100.0,2.2641898654157404,0.1,0.014130830764770508,0.3140230178833008,0.047201194,0.02296971,761.8551052801997,-0.047972733039151026,7.590359442116359,100.0,9600,2.1948249340057373,1.3319825833151648e-06,1.3921700226721408e-06,771.4739275571367,100.0
79,2.1186041831970215,762.0580560309817,18.457374267175844,790.1575858232295,731.4259291359452,100.0,1.6685354179464897,0.1,0.008049249649047852,0.31140685081481934,0.049784485,0.037360873,761.875400355278,-0.04546444033756858,7.612305600701621,100.0,9600,1.9455037117004395,1.6688206897923853e-06,1.4082431284867586e-06,771.4941588383126,100.0
80,2.0533738136291504,758.3840382261873,19.90866005928545,790.0438347778556,727.4494127518093,100.0,2.578797371084914,0.1,0.014294624328613281,0.2765476703643799,0.04439498,0.030589107,761.5262641423689,-0.0511782692589422,7.575584029763637,100.0,9600,1.6000990867614746,1.1170775953405547e-06,1.708506581505474e-06,771.5172584122247,100.0
81,1.9573028087615967,763.3741143347537,20.434057287204485,790.1635991740766,727.4783856057476,100.0,2.997231235497998,0.1,0.041928768157958984,0.25745272636413574,0.045100268,0.035947632,761.7110491616073,-0.04537042696504767,7.625466184586853,100.0,9600,3.23356294631958,2.1614873685551745e-06,1.929683586584506e-06,771.4738767712954,100.0
82,2.1178324222564697,763.2444476948853,20.4514209196191,789.962397972727,728.1833275619674,100.0,1.8433884104048008,0.1,0.02973175048828125,0.33786892890930176,0.043798793,0.026498273,761.8643890149351,-0.04646217143441065,7.6241670050882675,100.0,9600,3.0350027084350586,2.059367694420205e-06,1.4433281705901729e-06,771.56457254944,100.0
83,2.197965621948242,762.9070543975364,18.453974517666587,790.0021677794487,732.0758157719317,100.0,2.0553154907342814,0.1,0.014364004135131836,0.24209833145141602,0.051133517,0.067983255,761.9686555531953,-0.04450321823607223,7.620790747212208,100.0,9600,2.2291975021362305,1.146673787187989e-06,2.4887977947364926e-06,771.5529067464795,100.0
84,2.0893142223358154,759.0014695362925,18.708910484108554,789.965651320315,728.5137301542956,100.0,2.291652776596426,0.1,0.014655113220214844,0.28418588638305664,0.047299527,0.01802361,761.671936951505,-0.049214753474334405,7.58177153674175,100.0,9600,1.9873645305633545,2.5155138108407956e-06,2.1110186873003057e-06,771.5974948518572,100.0
85,2.053671360015869,762.6242200886624,18.729023258483064,789.9447315186382,727.4946484826669,100.0,2.8063497417107097,0.1,0.008406877517700195,0.296889066696167,0.042534024,0.03894338,761.7671652652208,-0.04501179682188581,7.617972174158216,100.0,9600,3.2016756534576416,2.049716820794903e-06,1.3093896458783712e-06,771.4610158715413,100.0
86,2.590132474899292,760.2592545923902,19.82639076470301,790.2046373791342,727.3776920347602,100.0,1.6215765768466905,0.1,0.029968976974487305,0.2813842296600342,0.047380894,0.046881218,761.6163741979377,-0.04792202610181928,7.594327478771618,100.0,9600,2.418201208114624,1.47648129360522e-06,1.4540484091450302e-06,771.417455132119,100.0
87,2.1777827739715576,763.0493305583492,18.755216022871263,790.1169116212858,731.9641255025787,100.0,2.1016392472902683,0.1,0.027888774871826172,0.3422505855560303,0.04671047,0.051418953,761.7596698339788,-0.04394527577319377,7.622243354259898,100.0,9600,2.4108402729034424,1.1776091039088221e-06,1.4472492923277767e-06,771.6871182199216,100.0
88,2.0772945880889893,763.6815871712025,19.852149340195275,790.1242217013288,727.807327794256,100.0,1.8695654444936707,0.1,0.008482217788696289,0.30181241035461426,0.048293926,0.022956066,761.9518615677011,-0.04450894572040349,7.628566810690845,100.0,9600,1.4864192008972168,1.3768729112965553e-06,1.6664753609721006e-06,771.3510854414033,100.0
89,2.085648536682129,761.5699063821827,20.75189755471606,790.0045357511705,727.4903036204182,100.0,2.5574940749218116,0.1,0.029828786849975586,0.29428625106811523,0.0482411,0.03335864,761.9136660491494,-0.047351973566845784,7.60742122355899,100.0,9600,2.4425549507141113,1.7132951357065769e-06,1.1570765008749232e-06,771.3554334903151,100.0
90,2.1194090843200684,761.3865691940385,19.20233027712422,790.023059033572,727.6091017374631,100.0,1.9830093996325724,0.1,0.01420450210571289,0.23226094245910645,0.046875525,0.05161098,761.8609563636383,-0.04568709656357376,7.605584080098162,100.0,9600,1.924041748046875,1.171877208818744e-06,1.1544652971135254e-06,771.2938812881534,100.0
91,1.9351122379302979,762.9598058485889,20.921656394594983,790.0343181578776,727.7553074064791,100.0,2.3897604997114583,0.1,0.03023219108581543,0.25623297691345215,0.049421255,0.036992613,761.9708413121333,-0.04544919654600877,7.621346904601214,100.0,9600,2.262542963027954,1.163706986149423e-06,1.3799109515564936e-06,771.6476816248357,100.0
92,2.2653968334198,764.9189892398067,19.634590459961768,790.1021971425381,727.9857362968158,100.0,1.9880345610468055,0.1,0.008844852447509766,0.29947447776794434,0.046579186,0.044576406,762.2656561049007,-0.04254494631766825,7.64091044168113,100.0,9600,2.179335832595825,1.3167406628051922e-06,1.1867252775469469e-06,771.6548883802689,100.0
93,1.9698660373687744,761.674943803839,20.74788707761193,790.0272975896722,727.6590667050012,100.0,2.013501450756654,0.1,0.01453542709350586,0.29409313201904297,0.046762772,0.07388837,762.2065848747945,-0.04688102062088481,7.608475986310086,100.0,9600,1.8150765895843506,1.1621971429430747e-06,1.1972960778917269e-06,771.7076100913932,100.0
94,2.1006062030792236,762.7689069561278,19.125700613113974,790.0877827575297,727.3219773478111,100.0,1.7608974857969946,0.1,0.014157772064208984,0.23465585708618164,0.052849703,0.041522656,762.2628170829279,-0.044317043393789946,7.619404260988449,100.0,9600,2.0683369636535645,1.403820750021808e-06,1.8067133536246373e-06,771.6723878357157,100.0
95,2.197479248046875,762.0417465725608,19.95322792019554,790.0704388139729,727.8465019824673,100.0,1.8396420273575729,0.1,0.007175922393798828,0.2469017505645752,0.049913723,0.031494547,762.2407100318912,-0.04581630833688912,7.61214949542995,100.0,9600,1.6957526206970215,2.0861832527677226e-06,1.6801839014218992e-06,771.687055997333,100.0
96,2.0795745849609375,764.949146341063,19.776162631674723,790.1264467347897,731.5673424570334,100.0,3.090599900518869,0.1,0.013942718505859375,0.22876787185668945,0.04708844,0.017277908,762.5115536628084,-0.04213673941971908,7.641225536210849,100.0,9600,1.9917325973510742,1.541563413145957e-06,1.0232546799877328e-06,771.7665844012046,100.0
97,1.906416893005371,759.7320158271413,19.157346889253137,789.9426236497259,727.9225027365724,100.0,1.9831149293388712,0.1,0.014418363571166992,0.22562098503112793,0.046996508,0.046200715,762.2335998792416,-0.04767877139326095,7.589034817302616,100.0,9600,2.3659608364105225,1.190243855234928e-06,2.3065648863710817e-06,771.7645149730643,100.0
98,1.9574968814849854,765.5858031609883,19.026132236136554,789.9715505772831,727.9312331181757,100.0,2.1554359231204447,0.1,0.007102251052856445,0.2045753002166748,0.047283262,0.038406257,762.5688202074164,-0.040893312230518834,7.647568081670329,100.0,9600,1.9905915260314941,1.99884256338087e-06,1.3269522778213104e-06,771.7171350554826,100.0
99,1.9132511615753174,763.3243702417303,18.265969646527818,789.8930866604,727.3980670459987,100.0,2.1361770081876603,0.1,0.013924121856689453,0.1913743019104004,0.048281357,0.027241392,762.6443752108478,-0.04258162482690855,7.624962934324043,100.0,9600,2.073369264602661,1.3532644779938212e-06,2.082873391321735e-06,771.4644628887118,100.0
100,1.906750202178955,759.5853785018011,19.53047747976514,790.016445316637,727.2068676304692,100.0,2.261668036762017,0.1,0.00733184814453125,0.2530393600463867,0.048529364,0.015683979,762.3384755399431,-0.048045307809678826,7.587564108222989,100.0,9600,2.3331756591796875,2.3288447299283545e-06,2.1049635306768854e-06,771.7854372752208,100.0
101,1.9324984550476074,762.4621570676951,19.31113159052389,790.2100257589941,731.6394422919311,100.0,2.0489150128540357,0.1,0.014132022857666016,0.2598743438720703,0.04762548,0.05402341,762.3508436927183,-0.04443224063505811,7.616343278929286,100.0,9600,2.765411853790283,2.2351530736599836e-06,1.3386521780025597e-06,771.7379837277127,100.0
102,2.1034693717956543,764.3806039692754,18.412437584022562,790.2052781961922,728.1278815589757,100.0,1.9884622696059595,0.1,0.009049415588378906,0.30619215965270996,0.05153518,0.03131107,762.553819720374,-0.042152181723333425,7.635543805680345,100.0,9600,2.587284564971924,1.1759977567545697e-06,1.9820650375560426e-06,771.6108386737686,100.0
103,2.5590739250183105,763.8933976836612,17.96860042166019,790.0608269977166,727.3199629192892,100.0,2.2882027681494197,0.1,0.007612705230712891,0.2701754570007324,0.048946824,0.05806509,762.6877775167027,-0.04314207817986255,7.630675509179166,100.0,9600,2.361631393432617,2.030060745839588e-06,8.779463185939846e-07,771.6967230378901,100.0
104,2.3400962352752686,762.1333204258373,18.687380017353078,790.2426472504906,731.3212854131973,100.0,1.8976265063227062,0.1,0.007166862487792969,0.24536418914794922,0.049054794,0.056559257,762.6323318076162,-0.0453040770993427,7.613052703051477,100.0,9600,2.242628574371338,1.1814810406910034e-06,1.5001320783377096e-06,771.7724023481237,100.0
105,2.2060670852661133,760.970820605013,19.510167542946792,790.2572487889081,727.3590496474038,100.0,1.6259598920447895,0.1,0.012029170989990234,0.2460947036743164,0.04729598,0.03802396,762.4661806873559,-0.04714534410432839,7.601419249544766,100.0,9600,1.7390961647033691,1.8488499630409666e-06,1.9580629904079558e-06,771.6597638077878,100.0
106,2.0371742248535156,764.3700780727037,17.199211754791186,790.1330295544842,731.6738690709192,100.0,2.1285311650626992,0.1,0.014188289642333984,0.26305317878723145,0.04631746,0.052481875,762.6565704258907,-0.04178240907902233,7.635403280983989,100.0,9600,1.9594900608062744,1.4714271989225485e-06,1.1141176063272433e-06,771.6443002627668,100.0
107,2.2178826332092285,761.9044172720929,18.125082125582427,790.033992351558,727.5044998537945,100.0,1.7506125931106111,0.1,0.015044450759887695,0.27173352241516113,0.049217537,0.011112946,762.5813551105109,-0.04566420741630608,7.6107527175306044,100.0,9600,2.2204527854919434,1.2639744061826006e-06,1.2495195260155053e-06,771.6265977606491,100.0
108,2.419982671737671,764.480459818984,19.469470400882884,790.1644777748191,727.6289310431661,100.0,2.283962075713603,0.1,0.008624792098999023,0.31264567375183105,0.048174288,0.010097854,762.7712655813583,-0.04320942361451696,7.636547734494044,100.0,9600,3.024545431137085,1.3359668489764291e-06,2.011334139557134e-06,771.7650490561346,100.0
109,2.2114522457122803,764.1515467239827,18.48512286499851,790.1881648254514,732.4370206698475,100.0,1.8646178122447574,0.1,0.008173704147338867,0.26377129554748535,0.04908618,0.044840496,762.9092936956208,-0.042455452226854984,7.63324895321072,100.0,9600,1.8928124904632568,1.9531404828898544e-06,1.7238957866040593e-06,771.8363360720233,100.0
110,2.067760467529297,761.589117706464,21.237006503403354,790.1977774533285,727.3167531995631,100.0,2.0776138349787625,0.1,0.00741267204284668,0.3087327480316162,0.049301468,0.03268033,762.7772760967052,-0.048100800856981686,7.607617450659852,100.0,9600,1.9143688678741455,1.6286804434134906e-06,3.851501913652351e-06,771.813317919889,100.0
111,1.9232704639434814,760.2002453413938,19.452110384258233,790.0679041287901,727.4861371561215,100.0,2.5273601732859268,0.1,0.007128000259399414,0.24510979652404785,0.04890326,0.04220076,762.5195730211741,-0.049005804223807514,7.593724764426263,100.0,9600,2.1882290840148926,5.41005312809888e-06,2.0417599842084076e-06,771.874160566615,100.0
112,2.1867642402648926,764.187484362248,19.408064089925258,790.2382076739785,732.5731593241983,100.0,2.196906689215022,0.1,0.014044046401977539,0.23737120628356934,0.049021073,0.048257645,762.6863641552816,-0.04362665014678285,7.63360161661966,100.0,9600,1.7461049556732178,9.880690487232273e-07,1.3027084737283212e-06,771.8341931995169,100.0
113,2.1293506622314453,763.9427978411765,20.112555970872783,790.1763503613377,728.0349277793034,100.0,2.4386034414356974,0.1,0.014559507369995117,0.35609936714172363,0.044423625,0.0127731,762.8120075238711,-0.04455695817583616,7.6311369670875395,100.0,9600,3.9488298892974854,1.351843586529036e-06,3.125727227146334e-06,771.9595019464707,100.0
114,2.3199024200439453,765.2606846425033,19.805613107257717,790.3710474742928,727.8227423346094,100.0,1.7161842118543746,0.1,0.014500141143798828,0.25359606742858887,0.048285823,0.033221383,763.0568752357343,-0.0431096390081414,7.644323454776692,100.0,9600,2.182522773742676,3.0614303365311256e-06,1.7176507880807708e-06,771.7613155168441,100.0
115,2.2720494270324707,764.4529396385934,18.00294544156144,790.0410124542386,727.9834489771065,100.0,1.9851339101714962,0.1,0.007112741470336914,0.2628037929534912,0.049031366,0.0591482,763.1964816760203,-0.04271756865537308,7.636227108259938,100.0,9600,2.927321195602417,1.9196340506161405e-06,1.2812733261825292e-06,771.5114962010475,100.0
116,2.0979204177856445,761.331639630777,19.229229249994393,789.8910819190363,732.2872086280064,100.0,1.9909561227794144,0.1,0.014123916625976562,0.2659158706665039,0.04990041,0.041840456,763.0099974714959,-0.046586377894401045,7.605056459664734,100.0,9600,3.5549614429473877,1.0257274670978528e-06,1.3821677035062135e-06,771.5364718294834,100.0
117,2.0527563095092773,763.2143197795858,20.14872440554241,790.3628719522984,727.299320033423,100.0,1.971293490209107,0.1,0.009596824645996094,0.29921483993530273,0.04594184,0.044591937,763.0304297023049,-0.045532484675782435,7.623874724348727,100.0,9600,1.6014935970306396,1.3587410425368703e-06,2.4411094141599214e-06,771.566382645594,100.0
118,2.1262290477752686,762.9674888430369,18.00918345608981,790.0777250012495,728.7937265163439,100.0,2.4743374952554484,0.1,0.026676416397094727,0.2853076457977295,0.041268837,0.025897373,763.0241356163782,-0.043267252956447434,7.621418639500845,100.0,9600,2.6258416175842285,2.2280046798705705e-06,1.0488438996521818e-06,771.6501682460666,100.0
119,2.145554542541504,759.5022048530931,19.61279082607261,789.9905459191223,727.4007899241317,100.0,2.311650893797281,0.1,0.00877523422241211,0.29437971115112305,0.04826243,0.031034539,762.6719425400497,-0.04930405219239717,7.586735230497321,100.0,9600,1.4518513679504395,1.6353653543853104e-06,1.354930770282942e-06,771.7730541015815,100.0
120,2.1251304149627686,761.7259898473349,19.022243047135557,790.2421225295784,727.9325996663836,100.0,2.0541177030622255,0.1,0.008660078048706055,0.3068501949310303,0.0475696,0.032274842,762.5773472707782,-0.045570116713959975,7.608977651031133,100.0,9600,2.5551271438598633,1.0849691075676093e-06,1.3354231001975724e-06,771.583154842572,100.0
121,2.174518346786499,764.5491976529611,18.378440392552964,790.1197641099618,728.4106347162367,100.0,2.240231797754866,0.1,0.014764070510864258,0.2739243507385254,0.042611264,0.02489848,762.7745323089965,-0.04212047918984971,7.6372149127765,100.0,9600,1.5020954608917236,1.165248922037198e-06,1.384579427226107e-06,771.7412279074815,100.0
122,2.0506398677825928,763.4827525591078,18.887372482671516,790.08470371128,727.7684399071527,100.0,2.69230628842797,0.1,0.014135122299194336,0.24568748474121094,0.04681633,0.03626541,762.8453543340077,-0.04353939818352957,7.626558126286255,100.0,9600,2.5874788761138916,1.461495480383073e-06,1.7298725050603052e-06,771.8123407662858,100.0
123,2.2152011394500732,766.3217454160489,18.634179797725814,790.1975113147813,728.0429992835399,100.0,1.7619736721789545,0.1,0.02791452407836914,0.3147914409637451,0.06484497,0.043392316,763.1929934422118,-0.04001224106417345,7.654934571258907,100.0,9600,3.003016948699951,1.5591149298681847e-06,1.204316301288219e-06,771.4642601856015,100.0
124,1.9553546905517578,763.6673274634376,18.586896132393328,789.9192086715859,728.0826585201141,100.0,1.9623732652489607,0.1,0.008161067962646484,0.28725361824035645,0.04812575,0.047806673,763.2404268443345,-0.0442815623588359,7.628418734829322,100.0,9600,2.780392646789551,1.2360231206064812e-06,2.9107202341223656e-06,771.5482180489972,100.0
125,1.9879391193389893,763.617674704837,19.74368962385107,790.1300869765207,727.7528241120898,100.0,1.8434629124016888,0.1,0.027977943420410156,0.2756214141845703,0.049997643,0.08676689,763.2781516303849,-0.0447995109847085,7.6279089926857075,100.0,9600,2.3768794536590576,2.8082245267457366e-06,1.0686925206028687e-06,771.6883517660186,100.0
126,2.1467220783233643,762.9391965511095,19.65845225040899,790.0629377493442,727.518618677952,100.0,2.4361896082821928,0.1,0.028024911880493164,0.26245832443237305,0.05294141,0.06304964,763.2442561224573,-0.04540406041226382,7.6211378409166,100.0,9600,2.1147472858428955,1.1401513161272732e-06,1.0755047731622053e-06,771.5353653600151,100.0
127,1.9290759563446045,763.922000453344,18.00417483162972,790.1749204179206,727.7266302646129,100.0,1.9660963422607156,0.1,0.029836416244506836,0.2768890857696533,0.050800495,0.032895576,763.312030555546,-0.04417666423957822,7.630933428865487,100.0,9600,2.1273036003112793,1.7262226316000944e-06,1.6941591982262144e-06,771.6998152033389,100.0
128,2.143242835998535,764.6073769232258,18.855442204080216,790.1349105958349,727.9019576932309,100.0,1.9851266973965427,0.1,0.014444112777709961,0.2436683177947998,0.044348374,0.079011455,763.441565192314,-0.042783305285429174,7.637809842186644,100.0,9600,2.8738644123077393,9.815226150774226e-07,1.22842835894656e-06,771.4154057435146,100.0
129,2.4403481483459473,760.5446273695926,19.93831617005562,790.0202822132416,727.6836312332431,100.0,2.1676646904758683,0.1,0.015326976776123047,0.40833330154418945,0.044144902,0.040280428,763.1518714100418,-0.048710338702832645,7.597188147602021,100.0,9600,3.434502601623535,1.3780011627360161e-06,1.7735682504343666e-06,771.6424644192844,100.0
130,2.149104595184326,764.1463874000037,20.329934440951046,790.2345409903995,728.1079661765627,100.0,3.031643547568995,0.1,0.014189481735229492,0.22258377075195312,0.0449475,0.024507262,763.2513230090381,-0.04379022202158447,7.633192493310986,100.0,9600,2.8717055320739746,1.447493823734761e-06,7.631146132144984e-07,771.5047010139689,100.0
131,2.3324785232543945,763.8331442275148,18.200773597922645,790.4745168551084,723.9612467469001,100.0,2.062319922491341,0.1,0.03313565254211426,0.45293641090393066,0.045687933,0.022983078,763.3095051308858,-0.042331647711770976,7.630068157451146,100.0,9600,3.5447559356689453,1.022400356332321e-06,1.7487935669761507e-06,771.7101504468599,100.0
132,2.367967128753662,765.7259010603611,18.32932696616764,790.168878242385,733.0218287530859,100.0,2.2144455392216105,0.1,0.04175209999084473,0.3775160312652588,0.048673563,0.015532579,763.5511447238334,-0.04080401098524059,7.648986143087815,100.0,9600,3.286550998687744,2.174174943199066e-06,9.541551260979326e-07,771.8226658931443,100.0
133,1.9342689514160156,762.3481124227405,19.545935247961484,790.0912762891235,727.7686604941935,100.0,1.8269674804677118,0.1,0.01434469223022461,0.30203986167907715,0.049485564,0.05398817,763.4308414937242,-0.04568083067500836,7.6152018022441075,100.0,9600,2.3235256671905518,9.470912896230306e-07,1.3057121217894687e-06,772.0985755629991,100.0
134,1.9482223987579346,762.9195932942899,19.40510714727268,790.1993853063465,727.7507562862676,100.0,2.017820752821334,0.1,0.007487297058105469,0.23033642768859863,0.047198184,0.020686867,763.3797166737808,-0.04608778227875462,7.62092377069001,100.0,9600,2.1565370559692383,1.6622918205994244e-06,1.5076344285006508e-06,771.8189980615566,100.0
135,2.2126388549804688,762.5142422226405,19.420880841811563,790.2887207826652,723.8324433468368,100.0,2.5265932897620895,0.1,0.008149862289428711,0.31443142890930176,0.04646032,0.027621904,763.2931692286668,-0.04519910823796134,7.616868524801011,100.0,9600,2.180786371231079,1.5618249258886018e-06,2.240961522927094e-06,771.7764885703805,100.0
136,2.075014591217041,762.7257239108741,18.91505187811384,790.1106591213718,722.9842765524251,100.0,1.5087776651872618,0.1,0.00851583480834961,0.30825042724609375,0.047266424,0.060073074,763.2364246968875,-0.04454923852317636,7.618984341383675,100.0,9600,1.9493467807769775,1.809508304634102e-06,1.5739754978544255e-06,771.8169311176304,100.0
137,2.1420223712921143,764.7717326383532,20.15833957797368,790.362830993416,728.195001873533,100.0,2.064456323693029,0.1,0.04203367233276367,0.2836453914642334,0.048277665,0.023298077,763.3899554910341,-0.04356550168118289,7.639445542432512,100.0,9600,2.8703746795654297,1.5964518914714564e-06,1.3511963566730293e-06,771.7810263523793,100.0
138,2.061816692352295,761.2316210371972,19.725062265709795,790.191619212972,727.4918372120234,100.0,2.357593234558975,0.1,0.030373573303222656,0.26537227630615234,0.043323956,0.06690799,763.1741220456504,-0.047730160646947184,7.604036211020166,100.0,9600,2.139407157897949,1.3539928676221253e-06,2.3031728257108244e-06,771.801559914179,100.0
139,2.198280096054077,763.7115434345119,18.418316678288804,790.1666408675613,727.8094255943712,100.0,1.5973675036234367,0.1,0.00703883171081543,0.23801469802856445,0.047535032,0.09923335,763.2278641845365,-0.043546788624196385,7.628861172776774,100.0,9600,2.821059465408325,2.317987761044052e-06,1.1643122783275736e-06,771.7522313291307,100.0
140,2.0376131534576416,763.4025323055752,18.442262527657213,790.2583292521933,728.4610537192258,100.0,1.8397134664786623,0.1,0.014069080352783203,0.24954509735107422,0.0519007,0.057765484,763.2453309966404,-0.04407204391275632,7.62577055576143,100.0,9600,2.250664234161377,1.1289832972439436e-06,3.100545519263147e-06,771.8787745771444,100.0
141,2.2724320888519287,766.2283136794653,19.72240291071584,790.2151552409545,727.8896391807061,100.0,1.8701888267617945,0.1,0.014596700668334961,0.26657915115356445,0.051388774,0.047692742,763.543629264923,-0.04263615330282003,7.653993412884603,100.0,9600,2.7520968914031982,3.0607580332240687e-06,1.0344780604040392e-06,771.645345875346,100.0
142,2.263367176055908,760.5406191148794,19.315420244857236,790.231687936429,727.9764403836404,100.0,2.092584684809375,0.1,0.008983373641967773,0.28119993209838867,0.050589968,0.029419255,763.2433282499186,-0.04728137179398866,7.597112412147304,100.0,9600,2.0076961517333984,1.3987698320968405e-06,1.4867438359273818e-06,771.891789519605,100.0
143,2.0041770935058594,761.0904236218885,19.096462040648817,790.2868647792279,723.4247590787886,100.0,2.241193215003442,0.1,0.014343023300170898,0.2774515151977539,0.04804534,0.033368796,763.0280377871155,-0.04798213335167589,7.602634670546425,100.0,9600,2.9529733657836914,2.2678025755783776e-06,2.056941098815536e-06,771.8214474460381,100.0
144,2.295039176940918,759.3250449217024,20.018218582138463,789.8915522370279,727.7064456301135,100.0,1.8837129646035473,0.1,0.029674768447875977,0.26349568367004395,0.05576659,0.041550737,762.6577385005742,-0.05026426627863558,7.584979575691098,100.0,9600,1.743131160736084,1.5051690016539468e-06,1.4937180081255846e-06,771.7289157453736,100.0
145,2.1583831310272217,768.0894428225716,20.61436652677614,790.083581927563,723.2649788514761,100.0,1.7129170398418254,0.1,0.027842044830322266,0.32626986503601074,0.051155843,0.053328305,763.2009089327739,-0.040527799413437655,7.672598941824611,100.0,9600,2.9088938236236572,1.4088742220540465e-06,1.5364206501983323e-06,771.6009014841835,100.0
146,1.9270217418670654,758.9562270993887,20.72785533461322,790.25010333303,727.7804374725497,100.0,2.5798956491487557,0.1,0.01477956771850586,0.2803821563720703,0.047890387,0.015576079,762.7764407494354,-0.05143923616843466,7.581283425119402,100.0,9600,2.267784833908081,2.2209459187274024e-06,1.655372902689673e-06,771.6460730148664,100.0
147,2.215641736984253,762.6838394046645,19.341867906662593,790.1081160306918,727.5131480495689,100.0,2.4149578081153282,0.1,0.008246898651123047,0.2774059772491455,0.048531543,0.05381147,762.7671806149584,-0.04515604175322952,7.618575550113234,100.0,9600,1.6192431449890137,1.2404694394909638e-06,4.024701310563258e-06,771.5156286696647,100.0
148,2.390528917312622,760.468545710039,19.190264415695136,790.0896122841882,727.6639422961246,100.0,2.0185897877182333,0.1,0.014214038848876953,0.2575690746307373,0.050670587,0.04455171,762.5373171244665,-0.04907153859755262,7.596414701530155,100.0,9600,2.301973342895508,4.98983497346821e-06,1.6617685343756662e-06,771.3276723722754,100.0
149,2.183455467224121,764.6341198937262,18.64312229214466,790.1487646233235,731.8179044382281,100.0,2.8375149023869577,0.1,0.014173269271850586,0.24628019332885742,0.0418263,0.014212026,762.7469974013925,-0.0436520004822741,7.638057067216411,100.0,9600,2.0296008586883545,1.4212053714818753e-06,1.3187357081117329e-06,771.3884088855467,100.0
150,2.2716946601867676,762.3477816734812,18.961538451538257,789.9803882373692,727.7994832688506,100.0,2.548698330322606,0.1,0.014127016067504883,0.20824265480041504,0.042388428,0.057282176,762.7070758286014,-0.0455954740085735,7.615211859838919,100.0,9600,1.633254051208496,1.1600351300797406e-06,2.52154247654735e-06,771.7187883004278,100.0
151,2.0749073028564453,764.9192699152915,18.8101656950941,790.2629573851179,727.4926351207606,100.0,2.1013135721742837,0.1,0.014369964599609375,0.3678717613220215,0.050039273,0.05743858,762.9282952372704,-0.04245532613316085,7.640907735683958,100.0,9600,2.8514277935028076,2.8784701905774466e-06,1.3114393937518573e-06,771.959741697625,100.0
152,2.0057873725891113,761.9495971374117,19.84514737453001,790.2255212129339,722.8704015529854,100.0,2.045394899062072,0.1,0.014576435089111328,0.30874013900756836,0.047761574,0.044471003,762.8304254272845,-0.0469037633277077,7.611217327141443,100.0,9600,2.1820321083068848,1.207106837216625e-06,2.230268647766326e-06,771.793624229745,100.0
153,2.0901355743408203,763.0230072751596,20.396251482167898,790.4522073341121,728.0114818061735,100.0,2.668342685600263,0.1,0.02958822250366211,0.32010531425476074,0.050645035,0.025729327,762.8496836120719,-0.045927676875159716,7.621953499510529,100.0,9600,2.883574962615967,2.025671571893213e-06,1.139843050435054e-06,771.591390971821,100.0
154,2.0905351638793945,764.7470454480514,20.260048138147553,790.1304098800256,727.9463708507225,100.0,2.3412524020279695,0.1,0.014739274978637695,0.40126562118530273,0.047070988,0.0022694056,763.0394197956699,-0.04321789884115316,7.63918851682008,100.0,9600,3.0404891967773438,1.1176727314546644e-06,1.1255500263227253e-06,771.5995213483795,100.0
155,2.3287036418914795,760.4416359505243,20.17077295707561,790.0583305294348,727.5096442500677,100.0,2.0667429955533403,0.1,0.029797077178955078,0.2926931381225586,0.051142137,0.04194693,762.7796414111554,-0.049207475527467355,7.596159581339946,100.0,9600,2.8152291774749756,1.481175736962083e-06,1.2615197840987167e-06,771.6758300449414,100.0
156,2.1314914226531982,765.0745051107718,19.78219368317452,789.9747301983226,727.733236658651,100.0,2.3357535430400915,0.1,0.009095191955566406,0.3025481700897217,0.04794304,0.05363697,763.0091277811171,-0.04274970963302691,7.642468441418502,100.0,9600,2.252866268157959,9.142962911425792e-07,9.925345225089746e-07,771.9197508236393,100.0
157,2.19038462638855,762.5933500513438,18.70528977317669,790.1854859049498,727.2867460877729,100.0,2.077640562148675,0.1,0.04352450370788574,0.5494937896728516,0.046166103,0.04708764,762.9675500081398,-0.0446865281055722,7.617668729176013,100.0,9600,2.053496837615967,1.1240096948464654e-06,1.541708696163061e-06,771.794384673655,100.0
158,2.1974074840545654,764.0528539813562,19.099568397508268,790.147200672188,732.6424375615403,100.0,1.9375554173012535,0.1,0.051952362060546875,0.31612086296081543,0.045832504,0.037027758,763.0760804054614,-0.0432175824294349,7.632232178689563,100.0,9600,1.9331543445587158,1.544900290423586e-06,1.611954279819942e-06,771.676768627339,100.0
159,2.3156168460845947,763.6570828072983,21.310806726601438,790.2871799594752,727.8613048137073,100.0,2.0355093658553676,0.1,0.03006577491760254,0.31503891944885254,0.048966072,0.022860052,763.1341806456451,-0.045378599934412484,7.628313334667315,100.0,9600,2.642080783843994,1.7469323559161368e-06,3.555971747302665e-06,771.7154561858574,100.0
160,2.021242141723633,764.700511309773,19.42019360224276,790.1915263300027,728.1407310398986,100.0,3.012730339025949,0.1,0.014762401580810547,0.3121206760406494,0.047572885,0.105986126,763.2908137120578,-0.04303365700710302,7.638764027580103,100.0,9600,2.75144100189209,3.397127357925693e-06,1.6711583588429093e-06,771.7486661708649,100.0
161,2.3273935317993164,765.9978904518397,19.7742723049145,790.194748898319,732.1023553881178,100.0,1.9093123545774748,0.1,0.009254217147827148,0.23950576782226562,0.052578695,0.054304413,763.561521386036,-0.04186191966019511,7.651716621586594,100.0,9600,1.6682000160217285,1.71985751316183e-06,1.2949938487915125e-06,771.4310966824713,100.0
162,1.934481143951416,762.405834508079,19.16789475399155,790.0364832901503,727.9110362419158,100.0,1.9509013375388162,0.1,0.008163690567016602,0.3081483840942383,0.049286135,0.025798894,763.4459526982404,-0.04526942310298143,7.615806414496791,100.0,9600,1.8238296508789062,1.7079627477947984e-06,1.493132576200641e-06,771.5412680623565,100.0
163,2.534714698791504,762.4629858239672,19.80554113934028,790.3012458821438,727.8719526434483,100.0,2.466615180197105,0.1,0.014580488204956055,0.3031184673309326,0.04704455,0.08359032,763.3476560108131,-0.04604574913536206,7.6163476023150025,100.0,9600,2.6948113441467285,1.6214095032558333e-06,1.0190068840948464e-06,771.7599700401986,100.0
164,2.464154005050659,760.6170942925746,16.58507795984265,790.2727870314792,727.864912147051,100.0,2.8686018382954126,0.1,0.030701160430908203,0.2763841152191162,0.05033155,0.021199225,763.0745998389893,-0.046127349410285255,7.597910535283202,100.0,9600,2.220677375793457,1.1542214646706627e-06,2.761753334746983e-06,771.6447447437299,100.0
165,2.085555076599121,762.1714463699091,18.655572630764617,790.2412713268749,719.8129465697165,100.0,1.8864796803814436,0.1,0.030047893524169922,0.28378963470458984,0.04845122,0.028365511,762.9842844920814,-0.046066327924840784,7.613460974263481,100.0,9600,1.889620065689087,3.871470272726613e-06,4.125970186413601e-06,771.6012413243884,100.0
166,2.346367597579956,765.9192547586631,20.20262307283573,790.0337544074561,727.9045281308198,100.0,1.4469841780500203,0.1,0.014024019241333008,0.26488828659057617,0.050070535,0.03933797,763.2777815187396,-0.04258420610489947,7.650912450296105,100.0,9600,2.0907959938049316,2.949541240227066e-06,1.2878020093679022e-06,771.4476925689856,100.0
167,2.200847864151001,763.906114561074,20.188551526409977,789.9814947763092,727.6547116386872,100.0,1.870252369064009,0.1,0.006801128387451172,0.2762572765350342,0.047825616,0.021867363,763.3406148229731,-0.04491574711836599,7.630780490478462,100.0,9600,2.309121608734131,1.2284785315572042e-06,1.1387454257992962e-06,771.6036157545789,100.0
168,2.148292303085327,760.6836377005924,18.257468005240984,790.1037121884791,727.57662074118,100.0,2.5019546611269665,0.1,0.006899118423461914,0.24324846267700195,0.051232345,0.016178295,763.074917110735,-0.04708494194874902,7.5985653530694535,100.0,9600,1.5483818054199219,1.5606679453737626e-06,1.4138139711469527e-06,771.4401423626223,100.0
169,1.9861705303192139,761.9239964620451,20.117634625798228,790.2069388581923,728.0803271819022,100.0,2.6396778402465957,0.1,0.029958486557006836,0.3101034164428711,0.049823042,0.034794584,762.9598250458661,-0.046233942357429704,7.610972504422698,100.0,9600,2.3246333599090576,1.2396887862224293e-06,1.3036509169627719e-06,771.6073589785822,100.0
170,1.931513786315918,765.9937314043033,18.510388400454577,790.2297573903096,728.0242471929814,100.0,2.5219177168622124,0.1,0.03013300895690918,0.25749850273132324,0.05098302,-0.03557633,763.2632156817098,-0.04113280516849789,7.65166390256514,100.0,9600,3.4068737030029297,1.0487088239798684e-06,1.4062325539667736e-06,771.7218239100694,100.0
171,2.3440351486206055,764.0703980314802,17.13027792624724,790.187075588984,727.7863014588883,100.0,2.204138912885011,0.1,0.014650106430053711,0.3354072570800781,0.048154887,0.05777376,763.3439339166868,-0.042369529726015646,7.6324340203576115,100.0,9600,2.602365255355835,1.3984193009713024e-06,1.2994630451862512e-06,771.7769062892726,100.0
172,1.9410078525543213,762.4308623083648,19.571756855470756,790.0634456864053,728.0977315938186,100.0,2.459397277160101,0.1,0.007933378219604492,0.26456165313720703,0.050369434,0.050914954,763.2526267558546,-0.04567518467051756,7.6160281875949565,100.0,9600,2.3315818309783936,1.5129491773604762e-06,1.11730068415178e-06,771.7261770794871,100.0
173,2.184786558151245,760.0890407219259,17.253704026780962,790.1113429733259,727.7453473717752,100.0,2.025976105922169,0.1,0.007361173629760742,0.27016305923461914,0.049289905,0.032850742,762.9362681524617,-0.04709832641805208,7.592622633823343,100.0,9600,1.8134028911590576,1.2937596296206653e-06,1.5520906174467246e-06,771.6485956390775,100.0
174,2.082641363143921,764.953920101782,19.05360823410175,790.2269719944429,727.640456850324,100.0,2.923522930914575,0.1,0.007125377655029297,0.26215124130249023,0.046140727,0.02895553,763.1380333473937,-0.041600816037750565,7.641263374310662,100.0,9600,1.9354488849639893,1.1915086772223753e-06,1.8527742872474919e-06,771.6477980864128,100.0
175,2.189952850341797,765.8185187711423,20.450843518359356,790.135657934347,727.7071795204147,100.0,2.0820193313472264,0.1,0.008657455444335938,0.28283262252807617,0.04703143,0.043859202,763.4060818897686,-0.041848997895744096,7.6499239767979965,100.0,9600,2.1413943767547607,1.9436027008654347e-06,1.0863037071262317e-06,771.7334822251094,100.0
176,2.3286890983581543,767.0729447703583,18.94321873604425,789.9555262617603,732.1751876081908,100.0,1.9199005741298332,0.1,0.00997304916381836,0.30976033210754395,0.048274804,0.015448513,763.7727681778276,-0.0398433456688426,7.662448678566153,100.0,9600,1.7377288341522217,9.530645433705607e-07,2.793942732351693e-06,771.7105653182599,100.0
177,2.1308329105377197,765.307337730138,20.735484647933248,790.2186777852908,727.8868874351189,100.0,1.943252611580408,0.1,0.008173465728759766,0.28441286087036133,0.050026525,0.024176365,763.9262251330587,-0.04256774839889386,7.64478927240129,100.0,9600,1.6341967582702637,2.995722295339015e-06,1.0737433488779536e-06,771.5200627802558,100.0
178,2.322761058807373,764.3935167556065,18.645053908551876,790.0222741238775,732.4933420634559,100.0,2.4545754945280103,0.1,0.008411884307861328,0.2993292808532715,0.046923045,0.046742518,763.9729542953135,-0.04218707594843698,7.6356589197655955,100.0,9600,1.936232566833496,1.3688110157516396e-06,1.4996321182390207e-06,771.7746025383938,100.0
179,2.378587484359741,766.1810008273669,18.16124858782884,790.3223887735412,728.1366432136696,100.0,1.6887241000222326,0.1,0.014785051345825195,0.35442185401916504,0.082751274,0.058393657,764.1937589485187,-0.039580601676266175,7.653532932511612,100.0,9600,1.6971485614776611,1.2985144055797962e-06,1.4959716776971035e-06,771.672480707478,100.0
180,2.0566892623901367,763.5500432371881,20.042951472808145,790.0635942297332,727.6356206982996,100.0,2.199461245392682,0.1,0.008419513702392578,0.28400254249572754,0.045274623,0.046036962,764.1293873773857,-0.0446112091117368,7.627218447470252,100.0,9600,2.2101247310638428,1.5317778807300832e-06,1.297994602466223e-06,771.6447385228166,100.0
181,2.103956460952759,763.3785940678093,19.558157273889503,790.0538513160583,727.8308322493965,100.0,2.823488027130328,0.1,0.029749393463134766,0.28377413749694824,0.069119476,0.0441535,764.0543080464281,-0.04498213778371265,7.625522673262644,100.0,9600,2.7248990535736084,1.3347462845542618e-06,1.0478441745356243e-06,771.2692564216052,100.0
182,2.349749803543091,767.2076908996033,18.236569064761454,790.0206270563694,727.4595630292193,100.0,2.554200082586169,0.1,0.00921630859375,0.4022228717803955,0.051510353,0.066037826,764.3696463317456,-0.040796275503827126,7.663814104266483,100.0,9600,2.374629259109497,9.48739334985417e-07,1.2663273954345758e-06,771.4128686320802,100.0
183,2.1795215606689453,766.1956075728544,19.141014111402963,789.9680012879344,732.3335691986186,100.0,3.5264354634135326,0.1,0.014874935150146484,0.33508968353271484,0.044701263,0.020121142,764.5522424558565,-0.042898701609205364,7.653700650618542,100.0,9600,2.6272459030151367,1.3681195246895024e-06,1.118948644229417e-06,771.4220488583313,100.0
184,2.1465394496917725,761.834385735383,18.042285190704973,790.0773520815045,728.0085947825435,100.0,2.674346987169442,0.1,0.008595466613769531,0.28902697563171387,0.048028853,0.035878185,764.2804567838091,-0.046013206740308364,7.610086022437379,100.0,9600,1.9726366996765137,1.2978781106935007e-06,1.2610280386963544e-06,771.4551455780165,100.0
185,1.9507403373718262,761.4366755466045,18.894992171934152,790.227358039497,728.1842846589176,100.0,2.351315454482122,0.1,0.030141353607177734,0.33968472480773926,0.0448873,0.018729623,763.9960786600886,-0.047533319418165944,7.606109124090419,100.0,9600,2.9279301166534424,1.2649304631692347e-06,9.027717865335138e-07,771.5342438930134,100.0
186,2.055741310119629,766.8356035206215,19.613123053748325,790.1067092244325,727.3063144636096,100.0,1.4300767007329382,0.1,0.027887344360351562,0.3208310604095459,0.04988725,1.4640962,764.2800311461419,-0.04126035384810197,7.660105254754906,100.0,9600,1.967756986618042,9.933607137613147e-07,2.4849617785928722e-06,771.61068131292,100.0
187,2.1831343173980713,761.7291142219543,19.877910548355494,790.12935429279,727.5085130218862,100.0,1.779334752090251,0.1,0.01451730728149414,0.34224820137023926,0.048405558,0.06523442,764.0249394537232,-0.04708850869949709,7.609005991241929,100.0,9600,3.231727123260498,2.435294969227458e-06,1.196814406769866e-06,771.5900186330871,100.0
188,1.9401519298553467,764.7653553439717,19.27658467052533,790.0702283579559,728.0247317604873,100.0,3.001540443958356,0.1,0.014260292053222656,0.2522897720336914,0.049643964,0.033900544,764.098981042748,-0.04331088685710022,7.639374080312469,100.0,9600,1.9622650146484375,1.3550009406476865e-06,1.1549774142329264e-06,771.509854248084,100.0
189,1.993025302886963,763.7067293139258,17.781945750907386,790.2943089603364,732.5080159686034,100.0,2.129782467348472,0.1,0.02995443344116211,0.41219043731689453,0.049936116,0.058299422,764.0597558698659,-0.04344032536942108,7.6287937504699945,100.0,9600,1.838838815689087,1.154557585368114e-06,1.423670553780893e-06,771.6907396244761,100.0
190,2.238628387451172,764.8955992882151,18.908323555535457,790.108340039243,723.5341593045893,100.0,2.1287923000823628,0.1,0.041837453842163086,0.3560905456542969,0.049055733,0.023323255,764.1433402117009,-0.04239774109038422,7.640675445319815,100.0,9600,3.543017864227295,1.3028466315974093e-06,1.946791674604983e-06,771.8136254685448,100.0
191,2.1892447471618652,762.5184388192157,17.825257098937985,790.175276750068,728.084748728681,100.0,2.051362181404058,0.1,0.04225945472717285,0.3402225971221924,0.046059977,0.03629797,763.9808500724524,-0.04460547222737891,7.616889983506099,100.0,9600,3.457087278366089,2.024906403973951e-06,1.3312084884409788e-06,771.765699393853,100.0
192,2.1623196601867676,761.5754552756907,18.919070870449296,790.0383649552133,723.1257183651478,100.0,2.0090973740481486,0.1,0.008291244506835938,0.30466222763061523,0.05148321,0.014928127,763.7403105927763,-0.046368269181684435,7.607489751741716,100.0,9600,2.822592258453369,1.6950676978502567e-06,1.591030675873376e-06,771.7019512342024,100.0
193,2.490705966949463,761.1013107131157,18.512599151511477,790.0385670322595,727.338135228145,100.0,2.355720060984369,0.1,0.007193088531494141,0.26186275482177734,0.047809154,0.038503483,763.4764106048102,-0.04676313835061489,7.602730096731048,100.0,9600,2.0640108585357666,1.2655829021147704e-06,1.1129048127157569e-06,771.6611125048696,100.0
194,2.3178954124450684,762.0600619888968,19.196936112286465,790.0067515136185,727.4447910477331,100.0,2.2688575631358603,0.1,0.029713153839111328,0.3004150390625,0.049882967,0.020296175,763.3347757432189,-0.046354940592295855,7.612319479965232,100.0,9600,2.6906015872955322,1.0878119298592825e-06,1.1816298429407126e-06,771.6410294107625,100.0
195,2.063157796859741,764.5671658118434,19.571590322725534,790.1023328104194,731.4941709476974,100.0,2.1124487700193004,0.1,0.03334450721740723,0.2749648094177246,0.04702916,0.024529448,763.4580147500814,-0.043778180487049734,7.637403346782304,100.0,9600,3.003812789916992,1.1949474903017185e-06,1.3723119081122132e-06,771.8102875824572,100.0
196,2.038874864578247,765.2892793414276,18.660643866673965,790.0279237715196,732.1195235783965,100.0,2.8045614853492298,0.1,0.007141828536987305,0.2776792049407959,0.045590248,0.026008045,763.641141209216,-0.0417334169436964,7.644634385904403,100.0,9600,2.1896071434020996,1.328819598080501e-06,3.859469181369428e-06,771.8754783552558,100.0
197,1.9789581298828125,764.2415195851542,18.40419844622073,790.011146700037,728.0762057591589,100.0,2.137257800613768,0.1,0.04178476333618164,0.3551514148712158,0.0537946,0.020340197,763.7011790468098,-0.0422939225063525,7.634129167976737,100.0,9600,1.7782495021820068,3.849692784951451e-06,1.026462341369808e-06,771.8737255934534,100.0
198,2.195378303527832,759.5295874189602,20.1292322726687,790.1046785164016,727.8161255767558,100.0,2.707942150383767,0.1,0.014992713928222656,0.3060879707336426,0.048224997,0.014746709,763.2840198840249,-0.04973201884920586,7.587013379040052,100.0,9600,1.9688711166381836,1.04943176767698e-06,1.2508553004374904e-06,771.94204629657,100.0
199,2.1181962490081787,766.6081331890964,19.38351455153288,790.1575540050555,727.9296292304161,100.0,2.106334577905186,0.1,0.014328956604003906,0.26824283599853516,0.04834845,0.013268992,763.6164312145321,-0.0407476698595569,7.657821966287419,100.0,9600,1.8946342468261719,1.2078530463987857e-06,8.068709442035509e-07,771.9968554909822,100.0
200,2.191882848739624,768.8659680691608,18.473445804988355,790.1099894499741,728.0823373930814,100.0,1.644329785934407,0.1,0.014912128448486328,0.277665376663208,0.049608406,0.046852876,764.141384899995,-0.037648189389695635,7.680373348119265,100.0,9600,2.0774104595184326,8.615544572905093e-07,8.832238777103624e-07,771.8363177881056,100.0
201,2.348134756088257,764.8614800817073,19.466700438780837,790.1378349751781,727.8363574676168,100.0,2.6431242467735974,0.1,0.014621734619140625,0.34748411178588867,0.04635128,0.025751786,764.2133944181663,-0.04262402928984479,7.640326098310132,100.0,9600,2.7809274196624756,9.504001195474447e-07,9.69406884174428e-07,771.7787228897843,100.0
202,2.3581833839416504,759.6560719559579,19.951189853988748,790.1656564068522,728.1574276855708,100.0,1.7820422586423892,0.1,0.008400440216064453,0.2825131416320801,0.05041618,0.055571526,763.7576621719455,-0.04973786089141501,7.588284268898796,100.0,9600,3.1165454387664795,1.2269377690764839e-06,1.2914096397659217e-06,771.7514049006782,100.0
203,2.147958517074585,761.2450199072719,19.484215153391574,790.1338198997074,727.8309674738789,100.0,1.7552084677590152,0.1,0.008402109146118164,0.30131030082702637,0.049269382,0.0739614,763.5063979454782,-0.04749169824197775,7.60418650851248,100.0,9600,2.9251577854156494,1.1257179826208564e-06,1.7392455042498537e-06,771.6977142463329,100.0
204,2.163433313369751,761.0893711447205,19.425341377574885,790.0904462849418,727.8374440966866,100.0,2.6481869368564688,0.1,0.014982938766479492,0.3067598342895508,0.04874724,0.07478651,763.2646952654025,-0.04737895772150852,7.602614108382512,100.0,9600,3.4795429706573486,1.7901095750630912e-06,1.2856237921976523e-06,771.7137958017563,100.0
205,2.2624239921569824,763.8280010956529,19.877892661911122,790.0398092114986,732.4937748785638,100.0,2.0198154746880483,0.1,0.007187366485595703,0.274181604385376,0.04944688,0.0047382275,763.3210258484276,-0.044276874577418586,7.630009594776368,100.0,9600,4.323189973831177,1.1970194201335736e-06,1.3134345160525093e-06,771.7923471986987,100.0
206,2.1125261783599854,764.2059233357951,18.834862944790586,790.1243523798295,727.714533135491,100.0,1.8321169269561817,0.1,0.029984712600708008,0.26495361328125,0.049081642,0.03079543,763.4095155971644,-0.042999872454854225,7.633783504912421,100.0,9600,3.2587649822235107,1.2369278811656549e-06,8.456026898981058e-07,771.6689670049558,100.0
207,1.9303443431854248,763.8875798851612,19.66325735285201,790.172963561449,732.475054832394,100.0,2.0783048129849173,0.1,0.0298769474029541,0.3196530342102051,0.04840831,0.031220647,763.457322025964,-0.044281670798852375,7.63061272244365,100.0,9600,4.8103928565979,9.453504860908151e-07,9.497136349961588e-07,771.7532900481383,100.0
208,2.0811922550201416,762.0944410175747,18.414272890428983,790.3069615932743,727.8244754352743,100.0,2.205228450554863,0.1,0.029782772064208984,0.42763423919677734,0.050156932,0.03798982,763.321033925125,-0.04519889523741536,7.612688081523506,100.0,9600,3.597583532333374,1.1728526626140072e-06,1.221456461653037e-06,771.7669523799404,100.0
209,2.314889430999756,762.743190927592,17.831503851872498,790.2087175930101,728.1249639401361,100.0,2.328900913477386,0.1,0.014644622802734375,0.3359992504119873,0.04566138,0.037727024,763.2632496253717,-0.044022628454959654,7.619182866054833,100.0,9600,3.021608352661133,1.254506761177719e-06,1.8819457649345619e-06,771.8419318708401,100.0
210,2.1170480251312256,763.2884425782566,19.170029207066488,789.8638275903311,727.9445637281171,100.0,1.905703850015169,0.1,0.028092145919799805,0.28191351890563965,0.049205467,0.035424072,763.2657689206603,-0.04422857937481676,7.624620380522319,100.0,9600,2.404510498046875,1.9791842191567126e-06,9.683386735209167e-07,771.883017408234,100.0
211,2.345993995666504,763.2383845620346,19.06056078688795,790.3987897561976,727.9631257454462,100.0,1.9423599283259805,0.1,0.02957463264465332,0.2920951843261719,0.048538994,0.031876538,763.2630304847978,-0.044806178022856996,7.624123647124314,100.0,9600,2.5866124629974365,9.551406053572103e-07,3.063406199439815e-06,771.9559674210642,100.0
212,1.9849956035614014,762.8143309356951,19.28489825800163,790.0455447344751,727.7222519908115,100.0,2.518377556136008,0.1,0.029590368270874023,0.27327966690063477,0.060205016,0.018023761,763.2181605298875,-0.044911385541881295,7.619877854654836,100.0,9600,2.2789788246154785,3.104008317110522e-06,1.2663141178574378e-06,771.6771208983946,100.0
213,2.0882248878479004,763.779812237437,18.353381247818927,789.9566667714217,727.6057610294898,100.0,1.7899835324419353,0.1,0.028032302856445312,0.2257397174835205,0.048969857,0.06368989,763.2743257006425,-0.044470786496142466,7.629515334717649,100.0,9600,2.287645101547241,1.360395487630647e-06,1.0323708779429177e-06,771.5425934130869,100.0
214,2.091113567352295,766.6444199763009,20.178592545642537,790.2357342390765,727.5164507561271,100.0,2.0170169053360176,0.1,0.013964176177978516,0.2700066566467285,0.04911484,0.06769679,763.6113351282083,-0.04197939318480565,7.658172353800109,100.0,9600,2.726358652114868,1.4930468781880809e-06,2.2376359104672695e-06,771.5265341079021,100.0
215,1.9329907894134521,763.3498655907093,17.800824595275262,790.081488330968,727.3539522393231,100.0,2.084092823880762,0.1,0.03502774238586426,0.47235655784606934,0.04621494,0.0738499,763.5851881744584,-0.04472781979854972,7.625226418631308,100.0,9600,4.380348443984985,2.1477848650294484e-06,1.1893034535319394e-06,771.4192942022489,100.0
216,2.089484930038452,764.9104313094543,19.35326112228543,790.0498096885586,727.5680872642424,100.0,1.9990101657226065,0.1,0.014558792114257812,0.3336780071258545,0.049352825,0.10314117,763.717712487958,-0.04384589470467922,7.640831250154115,100.0,9600,1.50577712059021,1.1404855786271041e-06,1.217588714777126e-06,771.5926372160072,100.0
217,2.3348960876464844,765.6799876430086,19.632028622484455,789.8757294712618,727.9897642529203,100.0,1.7640784960077727,0.1,0.008250713348388672,0.31146955490112305,0.046837784,0.25477895,763.9139400034632,-0.04277790317390937,7.648554487571363,100.0,9600,1.7601261138916016,1.2918315761847451e-06,1.130700549991598e-06,771.5436145347769,100.0
218,2.1576197147369385,766.6217930102439,18.500063623614352,789.9464968024265,727.3072830419803,100.0,1.963818339477951,0.1,0.007769107818603516,0.30407214164733887,0.048019703,0.039093107,764.1847253041412,-0.04058035961004464,7.6579350989319055,100.0,9600,2.3562426567077637,1.1400425364172681e-06,8.365897098749809e-07,771.4713357137324,100.0
219,2.3115785121917725,759.6942543642389,18.347134789614636,789.9912071504851,727.9065746181478,100.0,1.7892180808295521,0.1,0.014685630798339844,0.33316469192504883,0.050186884,0.05141023,763.735678210151,-0.04911331274776399,7.5886844631796295,100.0,9600,2.5148203372955322,1.05717928123777e-06,1.1862219212535946e-06,771.5074816507464,100.0
220,2.1451950073242188,767.5919128178035,19.166882018723744,789.8950317074888,727.7623812745219,100.0,1.935500532072617,0.1,0.014871835708618164,0.31063365936279297,0.046755757,0.03194288,764.1213016709163,-0.04062327948920893,7.667649274329346,100.0,9600,3.0257773399353027,9.438035455619356e-07,1.5154856398951258e-06,771.312589847777,100.0
221,1.9220244884490967,766.3880047538955,18.577148771145353,789.8488328046378,727.9143952798246,100.0,2.3859830117774092,0.1,0.008561849594116211,0.2974417209625244,0.046312537,0.049482923,764.3479719792142,-0.04102473585649922,7.655616724391904,100.0,9600,1.4672229290008545,1.5630603857168655e-06,1.0631421976669981e-06,771.2589037956309,100.0
222,2.087411403656006,765.660615652571,16.498834144424034,790.0123785961044,732.3183618646577,100.0,2.7159633121110462,0.1,0.029869556427001953,0.3054201602935791,0.04740071,0.018478237,764.4792363465499,-0.040867432685707465,7.648321985796643,100.0,9600,3.6035001277923584,1.1286263762422606e-06,1.3694581305704806e-06,770.6687393218893,100.0
223,2.117586851119995,763.949221608255,19.50039619596926,790.0416801169846,727.2659999299452,100.0,1.6142894374740038,0.1,0.009182929992675781,0.29499149322509766,0.05019005,0.108273394,764.4262348727204,-0.044092734940595235,7.631228137871261,100.0,9600,1.4159343242645264,1.3968151888302593e-06,1.3228386181438871e-06,770.7083731770462,100.0
224,1.9866888523101807,761.334638440407,20.38752001128125,790.0811916610909,726.7085891381785,100.0,2.1050157064291684,0.1,0.01401209831237793,0.25725555419921875,0.045610808,0.033386502,764.117075229489,-0.04863246771873434,7.605114518585322,100.0,9600,1.3594450950622559,1.2243276992867379e-06,9.617578782932237e-07,770.8342552467425,100.0
225,1.9293320178985596,763.4801182117199,18.0830606025448,789.8535850059217,727.6669801810931,100.0,2.3350998852477036,0.1,0.014123678207397461,0.23102498054504395,0.048180014,0.031238345,764.0533795277122,-0.043933320344027714,7.62652455574987,100.0,9600,2.574481725692749,9.828257970943913e-07,9.528476221689991e-07,771.0485505317258,100.0
226,2.075752019882202,756.8125011307524,18.19981016801223,789.6941380411221,727.9428210975123,100.0,2.7615162624182643,0.1,0.02988123893737793,0.33518385887145996,0.05260043,0.05023801,763.3292916880162,-0.05310469188377439,7.559850200654893,100.0,9600,2.0397722721099854,1.0828048792408863e-06,1.437934897892782e-06,771.255943744571,100.0
227,2.1451163291931152,763.5611051955535,18.269147699149023,789.9811462876274,727.6524695424849,100.0,2.2520171835757297,0.1,0.015017032623291016,0.26007628440856934,0.046386134,0.038227808,763.35247303877,-0.04376361742035693,7.627350596057478,100.0,9600,2.4174492359161377,1.4720540288276985e-06,9.880513013374249e-07,770.9334947409614,100.0
228,2.42889404296875,761.7628199635113,19.51677877893141,789.9736407960306,727.7575287634269,100.0,2.06200703979034,0.1,0.015002250671386719,0.2621016502380371,0.05170446,0.045620017,763.1935077312442,-0.048047317301905194,7.609349012346043,100.0,9600,2.6649880409240723,1.241303823597911e-06,3.3393181275690348e-06,770.9812508109169,100.0
229,2.0061235427856445,763.4144613811526,18.611938892663662,789.9076899307702,727.3480225814669,100.0,2.0746483593241107,0.1,0.02978515625,0.3446950912475586,0.048570167,0.027246622,763.2156030962351,-0.04648981502696837,7.625915742846701,100.0,9600,3.411616086959839,3.3170089358829163e-06,1.8218887602418692e-06,771.0235673786988,100.0
230,2.3826630115509033,762.8833407632413,18.035987339135843,789.7581921673069,728.236962990696,100.0,2.5202306687053486,0.1,0.011315107345581055,0.3401322364807129,0.047554184,0.031149752,763.1823768629358,-0.046074160270081765,7.620553097169361,100.0,9600,1.6122782230377197,1.8206579829305866e-06,1.9379573934053076e-06,771.0546158750644,100.0
231,2.1221091747283936,764.0865173043345,19.940818751891292,790.0039394628573,723.7277425952216,100.0,2.129990872365384,0.1,0.00993037223815918,0.30848217010498047,0.04722843,0.030119205,763.2727909070758,-0.04597346699338281,7.63257090997238,100.0,9600,2.142699718475342,2.1504421097605364e-06,1.087019890818424e-06,771.119728132781,100.0
232,2.0138189792633057,762.6461694725868,18.493662486265745,790.3660729454654,727.988152974644,100.0,2.085892864678731,0.1,0.014766454696655273,0.2808806896209717,0.04590465,0.033949126,763.2101287636269,-0.04662050329050534,7.618188594002977,100.0,9600,2.43505597114563,9.617601728585445e-07,1.1699367422589745e-06,771.1081209029138,100.0
233,2.0327508449554443,761.9567541119203,18.1572483142638,790.0323523042149,723.3059734960593,100.0,2.805543821637072,0.1,0.014912843704223633,0.33480358123779297,0.05201874,0.04308323,763.0847912984563,-0.0476532126873774,7.611283218309263,100.0,9600,2.5282740592956543,1.3365273962039635e-06,1.3745292012226251e-06,770.9501175053642,100.0
234,2.407202959060669,764.5758700170481,20.16937023494782,789.9337116084307,728.301245849164,100.0,2.4468115835849162,0.1,0.014116048812866211,0.2482004165649414,0.04868918,0.050022073,763.2338991703155,-0.04518587814784958,7.637454911688607,100.0,9600,2.5686392784118652,1.973427154843742e-06,1.792367195370562e-06,771.0797842003342,100.0
235,2.1813018321990967,767.8138024361655,20.00173760970123,789.9610121504581,727.7993047167681,100.0,1.9189855067750479,0.1,0.01407766342163086,0.26110410690307617,0.048360344,0.073513485,763.6918894969006,-0.04143787148031582,7.669876572142729,100.0,9600,2.5868496894836426,1.1275737854814344e-06,9.040310862691064e-07,771.1757624210098,100.0
236,2.385996103286743,761.2021894841373,18.708689707200392,790.1619456605766,731.4070964858855,100.0,2.8292741087896243,0.1,0.030415773391723633,0.24404072761535645,0.047082197,0.01925781,763.4429194956242,-0.04819393609442079,7.603752826995894,100.0,9600,2.040076971054077,1.1243744034948885e-06,1.2364894638476917e-06,771.1203790586808,100.0
237,2.3823344707489014,761.9658386515085,19.835536726503644,789.9107647347879,727.4032987004288,100.0,3.4931190406810484,0.1,0.007338047027587891,0.23534107208251953,0.046528608,0.009203152,763.2952114112127,-0.047923843374588986,7.611415054944438,100.0,9600,1.8733317852020264,1.3018237358639499e-06,2.776148847463764e-06,771.2648785968347,100.0
238,2.1317968368530273,764.0653807612374,19.09108823407203,790.0250707383725,728.2674825089632,100.0,2.021205254019245,0.1,0.008887290954589844,0.3127758502960205,0.050358348,0.037149217,763.3722283462151,-0.04438831770945456,7.632370519062213,100.0,9600,1.6934452056884766,2.758505722958077e-06,1.2686683705179639e-06,771.1979501084664,100.0
239,2.243597984313965,757.5837742118223,17.899798938186144,790.0481521956234,727.9462921237168,100.0,2.0701140491002947,0.1,0.015224456787109375,0.3000607490539551,0.047070168,0.046505935,762.7933829327759,-0.05213340368298758,7.567588611646218,100.0,9600,2.1076784133911133,1.455458977261438e-06,1.6308571249296718e-06,771.2701491236492,100.0
240,2.0148353576660156,761.6348141930645,19.772741433336545,790.1968624405233,727.6517805713024,100.0,2.0981516592829488,0.1,0.030207157135009766,0.3228733539581299,0.045260325,0.037856482,762.6775260588048,-0.04776139556343643,7.608074410750923,100.0,9600,2.6093180179595947,1.5355245035810098e-06,3.2989961061887513e-06,771.2814983478762,100.0
241,2.0783698558807373,766.7085377634829,19.64408179420634,790.1266062725015,727.5107412899152,100.0,2.870223008453574,0.1,0.029985904693603516,0.29990053176879883,0.04946157,0.033854082,763.0806272292726,-0.04171049030107273,7.658809312854859,100.0,9600,2.645362138748169,3.255569013804976e-06,1.1915167282980582e-06,771.3002164117041,100.0
242,2.05729603767395,760.809388846223,19.18622917743944,790.16812401161,727.7285960367874,100.0,2.3511477919020574,0.1,0.013909578323364258,0.24772000312805176,0.046951953,0.032993037,762.8535033909677,-0.04835487617670031,7.599805116398616,100.0,9600,3.455498456954956,1.8086986510591193e-06,1.6874971736419074e-06,771.2446004905687,100.0
243,1.9313862323760986,764.00196047584,19.873766467742215,790.108678786784,723.3832407009598,100.0,2.564413103995444,0.1,0.013993978500366211,0.22224092483520508,0.049697828,0.03228568,762.9683490994549,-0.04549306447473304,7.63176304905577,100.0,9600,2.1382884979248047,1.2854777241166622e-06,1.4652257523553396e-06,771.1271753231019,100.0
244,2.3514232635498047,762.8066356654431,21.032491096183218,790.0511868523358,723.5001188704528,100.0,1.9485629483402491,0.1,0.014572620391845703,0.2787654399871826,0.045761503,0.0665768,762.9521777560537,-0.047131771628936926,7.61980190855085,100.0,9600,3.051480770111084,1.8247382030229108e-06,1.5831339991900025e-06,771.2552075372304,100.0
245,2.1866512298583984,764.2033441869985,19.520539176205848,789.9963619582799,727.5609003313275,100.0,2.461419733552813,0.1,0.028247356414794922,0.3141515254974365,0.04734886,0.015503192,763.0772943991483,-0.04411519412633915,7.633750753875439,100.0,9600,2.6146113872528076,1.0903422950122013e-06,1.2252098375607917e-06,770.9098204987597,100.0
246,2.248790979385376,762.4449679434902,19.84166765024199,790.0710017801997,727.9610657816036,100.0,2.669408588559293,0.1,0.014727592468261719,0.2846817970275879,0.048283514,0.029041503,763.0140617535825,-0.0460452724713595,7.6161890283699805,100.0,9600,1.9507379531860352,1.0609838302219121e-06,2.6305758065810934e-06,771.0044607019374,100.0
247,2.2812752723693848,760.2212703433337,20.41273162569534,789.8940613911992,727.832653977658,100.0,1.9597429986457215,0.1,0.013968944549560547,0.22989439964294434,0.0469739,0.037736382,762.7347826125576,-0.04999363519739657,7.593965226653421,100.0,9600,3.236067533493042,2.64974839059053e-06,1.021884753291541e-06,771.088368774967,100.0
248,1.9900155067443848,762.3976879628232,19.910041852336438,790.0715674059066,728.0019850157528,100.0,2.676712392435039,0.1,0.014243364334106445,0.2530848979949951,0.04586338,0.029744886,762.7010731475842,-0.04548357097225825,7.615720208049449,100.0,9600,1.873765468597412,9.898007448869265e-07,1.0069471123269472e-06,771.131308866597,100.0
249,2.0974831581115723,762.2177905160803,19.909650536190345,790.1462156236867,727.5975509793635,100.0,1.8831550726768531,0.1,0.040113210678100586,0.2517890930175781,0.050331533,0.022732975,762.6527448844338,-0.046235872043757766,7.6139348069118755,100.0,9600,2.9085307121276855,1.0607581454687901e-06,1.6771505696235678e-06,771.1062008417847,100.0
250,1.9584691524505615,761.4853862320257,20.144668546105667,790.0584909354395,728.1308207586267,100.0,2.476440203915494,0.1,0.02784109115600586,0.2629890441894531,0.046195976,0.05471845,762.536009019193,-0.04779271411193864,7.606574407117496,100.0,9600,2.6385185718536377,1.6730397176978858e-06,1.5540303771593356e-06,771.1955121150544,100.0
251,2.040350914001465,768.3240450787131,19.141482448826146,790.2211802481434,731.7205403912708,100.0,2.5566779619506903,0.1,0.009406566619873047,0.30492377281188965,0.047072034,0.040412176,763.114812625145,-0.03870577469540453,7.6749736716338655,100.0,9600,2.034152030944824,1.502332491917351e-06,1.1452386053127652e-06,771.5819781283391,100.0
252,2.2773988246917725,764.7989962765859,21.025532782078592,790.1076777260092,727.7846413549709,100.0,1.9944462212979737,0.1,0.04192686080932617,0.30321717262268066,0.048504993,0.04131546,763.2832309902891,-0.043783894896704874,7.639719083399051,100.0,9600,3.239027976989746,1.4701539501407247e-06,1.118234122497462e-06,771.5819399964962,100.0
253,2.05698299407959,762.2235353663563,20.44950802887427,790.034324464987,728.0538745996757,100.0,2.8579194398631107,0.1,0.008860111236572266,0.28102803230285645,0.04326591,0.03003,763.1772614278958,-0.04729177668637099,7.613946220230074,100.0,9600,1.8203003406524658,9.276915347252049e-07,1.193181307277392e-06,771.411064560935,100.0
254,2.0327467918395996,763.7366751870012,18.950989590235757,790.1385932050148,727.7552040612771,100.0,2.0624889596269615,0.1,0.007340669631958008,0.2535209655761719,0.047273807,0.11514928,763.2332028038064,-0.04414830076230867,7.6290859050808,100.0,9600,1.5942695140838623,1.0706144767510088e-06,7.353840630092772e-07,771.6441600101904,100.0
255,2.1489737033843994,762.0082929494832,17.991318109699392,789.9463550748285,731.8361462731306,100.0,1.9636375129689736,0.1,0.014704465866088867,0.2846815586090088,0.049907357,0.047878362,763.1107118183742,-0.04525836727971108,7.611801027139264,100.0,9600,2.4506964683532715,1.1053661946135623e-06,1.127911119723901e-06,771.5857915874742,100.0
256,2.0849859714508057,764.9761311153985,19.534613914654038,790.279905646562,727.9192416005978,100.0,1.8947388765048336,0.1,0.014171838760375977,0.22926020622253418,0.048174247,0.04172059,763.2972537480766,-0.042680269743865955,7.641506601050222,100.0,9600,2.796448230743408,8.444349006588438e-07,1.077857500707785e-06,771.6487244884937,100.0
257,1.9352774620056152,762.393759927991,19.123191957990976,790.2665248593091,728.0348357426483,100.0,1.9223085539180371,0.1,0.014200448989868164,0.26534104347229004,0.049386322,0.24688299,763.2069043660681,-0.046028186621645935,7.6156679309116315,100.0,9600,2.5766589641571045,1.3586472838558494e-06,1.54405746862229e-06,771.6786352840325,100.0
258,2.072089910507202,761.2024993750683,18.90350944039167,790.2782536249186,727.4097381438546,100.0,1.726850356762021,0.1,0.01410531997680664,0.23108863830566406,0.048932016,0.028320098,763.0064638669681,-0.04710794126702327,7.603723557687232,100.0,9600,2.3349740505218506,1.5934383710739217e-06,1.1188900068685067e-06,771.5970155127523,100.0
259,2.163909435272217,761.2473830256718,19.506228521755535,790.3191353000218,731.7533193600352,100.0,1.4231942612280666,0.1,0.014018058776855469,0.3130359649658203,0.048941467,0.09666851,762.8305557828385,-0.047445605980135384,7.6042551747153695,100.0,9600,2.38055419921875,1.1432806581625444e-06,1.067609948543697e-06,771.7833610311526,100.0
260,2.160484790802002,764.0417418218234,17.154752010744122,790.2238611305878,727.9861835120852,100.0,1.9624706774625813,0.1,0.014180421829223633,0.2459564208984375,0.04969368,0.067372404,762.9516743867371,-0.04237375078569707,7.632140221491859,100.0,9600,1.7755601406097412,1.0379798018662624e-06,1.413152777494315e-06,771.7290551411581,100.0
261,2.035820722579956,762.3332798366574,19.19274877770576,790.0924094013227,727.9946044026293,100.0,1.8491528093607836,0.1,0.007118701934814453,0.24028539657592773,0.050348453,0.067275114,762.8898349317291,-0.046398637374840325,7.615051612627884,100.0,9600,1.784491777420044,1.3513375357492502e-06,2.628444114983091e-06,771.7374237111574,100.0
262,2.075601577758789,765.7368524687921,17.76304229948499,790.3178541724144,731.8718530177568,100.0,1.9402298716058444,0.1,0.014499664306640625,0.25240230560302734,0.048094943,0.04572654,763.1745366854354,-0.040506309412352025,7.64908220813323,100.0,9600,2.7062809467315674,2.609273493810064e-06,8.976424909387383e-07,771.7215982125406,100.0
263,2.2329487800598145,763.0231582827928,18.439587290596094,790.056207951365,727.6446247291811,100.0,1.917233714501841,0.1,0.014669418334960938,0.2922525405883789,0.050640043,0.06259343,763.1593988451712,-0.04479961114007417,7.621949207205273,100.0,9600,1.6622493267059326,1.234101217603954e-06,1.3329837051448425e-06,771.8400961213065,100.0
264,2.4815526008605957,766.0679870862486,18.558629750546814,790.4399170446571,727.1952203380345,100.0,1.41898964249051,0.1,0.014849662780761719,0.29945969581604004,0.04849466,0.058424708,763.4502576692789,-0.041024455553332076,7.652420851721356,100.0,9600,2.983952522277832,9.917941460856068e-07,3.7512997179273818e-06,771.7671248623308,100.0
265,1.9380276203155518,762.079740694266,18.95989632840913,790.1965870148148,723.5186580840349,100.0,2.234032849160539,0.1,0.014453887939453125,0.2571232318878174,0.050147425,0.032850683,763.3132059717777,-0.04559169475779368,7.612506163025088,100.0,9600,2.8539156913757324,4.187785488883846e-06,1.8814173666890698e-06,771.8656122364929,100.0
266,2.0168328285217285,761.8061707532651,18.909946024547832,790.3078173395565,732.3150821280109,100.0,3.9638535021798176,0.1,0.014025449752807617,0.2663900852203369,0.049900983,0.0031298562,763.1625024499265,-0.045473943746194484,7.6097907685239905,100.0,9600,2.037942886352539,1.6829497006273142e-06,2.007543662992729e-06,771.7878708070532,100.0
267,2.4827606678009033,766.4363111790848,18.899105117142167,790.2835082391698,727.424659140148,100.0,1.6600274505107626,0.1,0.015146255493164062,0.28081178665161133,0.047498304,0.024817653,763.4898833228424,-0.03976922538440642,7.656076713658984,100.0,9600,2.8731541633605957,2.3234745309977565e-06,2.1664427806266785e-06,771.7889876038528,100.0
268,2.1144378185272217,761.07375941418,20.306452079149313,790.102659290346,728.0011265391126,100.0,2.463950237014764,0.1,0.008019685745239258,0.2702925205230713,0.049014192,0.038484756,763.2482709319762,-0.04774620272737154,7.602440961480525,100.0,9600,1.986217737197876,2.1008016194119324e-06,1.2485994360971687e-06,771.7917642675748,100.0
269,2.1609954833984375,763.38628214525,18.8530858173523,790.3472841024967,727.3740154561366,100.0,3.064043175706331,0.1,0.04224276542663574,0.3811302185058594,0.04844472,0.1152972,763.2620720533035,-0.04382189717088903,7.62559690721385,100.0,9600,2.925156354904175,1.014372311750482e-06,9.430899718478289e-07,771.8048987554474,100.0
270,2.0773983001708984,763.7731084104404,20.077938790912963,790.3334586420642,727.6831509578421,100.0,1.8014869070953334,0.1,0.011975765228271484,0.31366491317749023,0.048983023,0.05273633,763.3131756890173,-0.043835175174686825,7.629450620049487,100.0,9600,2.6014833450317383,1.2380571602628899e-06,1.3412307949530947e-06,772.0365388366861,100.0
271,2.337653160095215,762.5794645719064,19.759218921598407,790.2059537536837,727.5715217892093,100.0,2.3317059106835076,0.1,0.04361677169799805,0.31653738021850586,0.04500907,0.026709158,763.2398045773062,-0.044510159494484836,7.617522803395808,100.0,9600,3.2317967414855957,1.156012479026238e-06,2.061579025801771e-06,772.2192799175795,100.0
272,2.2050578594207764,763.0723021342425,18.322975117245612,790.2233229044687,732.3893185323926,100.0,2.543816713187538,0.1,0.014234781265258789,0.26479220390319824,0.049085014,0.018818924,763.2230543329999,-0.042537042688355425,7.622445262881063,100.0,9600,4.235499858856201,1.845588758580759e-06,8.773964576181774e-07,772.21851389734,100.0
273,2.0368223190307617,762.3577042974697,18.155985971847894,790.2497936346492,732.1332127779064,100.0,1.8152665538913717,0.1,0.027878761291503906,0.34833598136901855,0.0495431,0.0630542,763.1365193294469,-0.04352972497186334,7.615317309774201,100.0,9600,3.89150071144104,1.0822778212088816e-06,1.066500786118078e-06,772.1620819025388,100.0
274,2.0446760654449463,760.4831517814479,19.9278922506551,790.2474797603627,727.8056616221024,100.0,2.811449867684023,0.1,0.007886886596679688,0.2950139045715332,0.048031554,0.020804059,762.8711825746469,-0.04727674201004769,7.596551114534036,100.0,9600,2.5754330158233643,1.0708294789274797e-06,1.3819734316337125e-06,772.0990439246362,100.0
275,2.2167062759399414,761.7313050228053,19.522376694181474,790.3068605572707,727.6801824001896,100.0,1.8547236728434813,0.1,0.014618873596191406,0.23027443885803223,0.050121367,0.066200234,762.7571948194627,-0.0455481963634937,7.609032112973885,100.0,9600,2.5178070068359375,1.452409847145748e-06,9.681671043665971e-07,772.1260510681786,100.0
276,1.932074785232544,760.1964348567658,17.864293995960246,790.0351344884124,728.0345677415916,100.0,3.209630705324185,0.1,0.029800891876220703,0.22865772247314453,0.046845704,0.0040656608,762.5011188231931,-0.046233372339541896,7.593702176925568,100.0,9600,1.8686516284942627,9.949618506313814e-07,1.3196228826950196e-06,771.9898367278017,100.0
277,2.2152156829833984,764.973084278494,18.890598947695388,790.2358611811998,732.1187783323284,100.0,2.090453437709466,0.1,0.027728796005249023,0.27050042152404785,0.04801426,0.029643087,762.7483153687232,-0.040603432712519046,7.641443743520077,100.0,9600,2.5435447692871094,1.1457269279839898e-06,9.727710383092553e-07,772.0555399421323,100.0
278,2.138012170791626,762.0025692749996,19.067607657141014,790.1453949384703,727.8829365879102,100.0,2.5013769609911063,0.1,0.015288114547729492,0.3412590026855469,0.048943553,0.01801977,762.6737407593508,-0.044357328157744215,7.611746004373502,100.0,9600,2.046987771987915,1.2329104139011542e-06,1.402018026160066e-06,772.2247653261509,100.0
279,2.4033634662628174,764.6330586924933,18.871282736892166,790.2593498980077,732.1334512835753,100.0,3.2080795078151363,0.1,0.01485133171081543,0.28978443145751953,0.050732717,0.0341929,762.8696725526651,-0.040541825107582856,7.6380305583118355,100.0,9600,1.593296766281128,1.3285133869214155e-06,1.3995031565216706e-06,772.250123494752,100.0
280,2.0497145652770996,763.3799952477231,18.09044462773689,790.3596109651713,732.4622143538544,100.0,1.8172852263640034,0.1,0.028027772903442383,0.3007042407989502,0.047496103,0.044516996,762.9207048221708,-0.04187809398325224,7.625526741671962,100.0,9600,2.408161163330078,1.3903821297328564e-06,9.469451005111203e-07,772.1680282490992,100.0
281,2.2535974979400635,763.0070567484519,20.231144741457378,790.2733960826878,727.9123639524511,100.0,2.298504299548749,0.1,0.014546871185302734,0.3068974018096924,0.046565957,0.035871614,762.929340014799,-0.04413072617824812,7.621783850813867,100.0,9600,2.0069267749786377,9.815624304361355e-07,9.215011121069781e-07,772.3831652444201,100.0
282,2.1056671142578125,759.6399826075236,18.659917175744283,790.1559786433402,731.6177247276944,100.0,2.6412361487957137,0.1,0.008690834045410156,0.2834627628326416,0.04778823,0.028970463,762.6004042740715,-0.04644439960426014,7.5881557400962665,100.0,9600,1.8163981437683105,9.947317921462691e-07,2.724894742449185e-06,772.4607048732895,100.0
283,2.096085786819458,760.3829080550919,18.983953987537394,790.3406995980685,727.5823044744466,100.0,1.8998114187087307,0.1,0.040068626403808594,0.3032233715057373,0.05445636,0.05400709,762.3786546521735,-0.04575390173488134,7.595545902154581,100.0,9600,3.733042001724243,2.8422333515916187e-06,2.1135167490389583e-06,772.4397981856143,100.0
284,1.9627492427825928,763.44839278677,20.087891141644462,790.3395098390074,727.9240480548908,100.0,2.6444529429239934,0.1,0.01507115364074707,0.2964324951171875,0.05149988,0.02590876,762.4856284656332,-0.04277790016757848,7.626191032022613,100.0,9600,2.624028444290161,1.9720634960544277e-06,1.3302754857250065e-06,772.7207905198318,100.0
285,2.013484239578247,767.534641701337,19.662082500832426,790.3684317291079,728.0797635621901,100.0,2.05711732361402,0.1,0.008652448654174805,0.4169919490814209,0.058479488,0.027981164,762.9905297892036,-0.038297077428811215,7.667065861856767,100.0,9600,2.098351001739502,1.5474420058800245e-06,2.28828129436651e-06,772.776273796537,100.0
286,2.0668373107910156,766.5764953847229,19.069592090864834,790.3449827073199,728.0079460499418,100.0,2.4655808572554845,0.1,0.015187740325927734,0.39752721786499023,0.04811861,0.033459287,763.3491263487555,-0.03886798727807205,7.6574810086387295,100.0,9600,2.4993162155151367,2.065818437598844e-06,1.7117182676703776e-06,772.7713763856234,100.0
287,2.276973247528076,759.7973349886774,17.541519022179518,790.1435910728936,728.2132721286462,100.0,2.346855645564915,0.1,0.031325340270996094,0.3169825077056885,0.048387878,0.038206544,762.9939472127477,-0.04666507953059056,7.589689520812392,100.0,9600,2.1707100868225098,1.753432350025396e-06,1.116099539666127e-06,772.8856585385836,100.0
288,2.0843846797943115,761.9522639860911,18.537027234012868,790.0707747457271,728.0228572080383,100.0,2.440510278312899,0.1,0.03005218505859375,0.2683711051940918,0.051510457,0.07552841,762.889778890082,-0.0448141037910012,7.611290835980129,100.0,9600,2.0556890964508057,1.2267095955152173e-06,1.7457100995909054e-06,772.6900426930953,100.0
289,2.2588813304901123,768.807349888953,19.846323109034252,790.3926626248289,728.0744155806428,100.0,2.564804271527053,0.1,0.014843225479125977,0.28057360649108887,0.046944086,0.01900752,763.4815359899692,-0.037864630441425406,7.679816123624744,100.0,9600,1.532430648803711,1.419931761789983e-06,1.7149539372033762e-06,772.5802504231651,100.0
290,2.375178575515747,759.4734129576169,19.193785065088772,790.2519753402456,727.6632662797491,100.0,2.3943469138718583,0.1,0.014777898788452148,0.3040344715118408,0.048936933,0.044166375,763.080723686734,-0.04945740954978345,7.586449561637278,100.0,9600,2.1063292026519775,2.3417626708832195e-06,1.3518062860412584e-06,772.4178711496107,100.0
291,2.0836246013641357,764.8025821835977,19.74761665564155,790.1085837465928,732.3782622508157,100.0,2.6022003832846416,0.1,0.04397225379943848,0.3118550777435303,0.050013486,0.002304194,763.2529095364204,-0.0427177470163908,7.639795060236828,100.0,9600,2.6370601654052734,9.577910810157693e-07,9.015500116041748e-07,772.3940161517551,100.0
292,2.1928391456604004,763.6617976112011,18.479553373913884,790.3442385812355,728.2814782428675,100.0,2.2276659547458553,0.1,0.013965606689453125,0.2560758590698242,0.049496245,0.029052572,763.2937983438984,-0.042950887446074226,7.628333497704929,100.0,9600,2.7232553958892822,9.34830354345513e-07,1.0290190464652278e-06,772.4756411295022,100.0
293,1.9984378814697266,765.2191070336556,18.506175246282126,790.3576741908815,728.2618970266199,100.0,2.5690938524576463,0.1,0.014778852462768555,0.2947049140930176,0.05104096,0.05753492,763.4863292128741,-0.04120560925948261,7.64391975368634,100.0,9600,2.0444464683532715,8.900292504540314e-07,1.0687440910528813e-06,772.4433281915105,100.0
294,1.9726557731628418,763.5975380652449,18.29380358897365,790.3710935222443,728.1755976034883,100.0,1.6943027029738587,0.1,0.014766693115234375,0.287290096282959,0.04824466,0.4289975,763.4974500981112,-0.04321317914381548,7.627710977500262,100.0,9600,2.203446388244629,1.176778260831121e-06,8.38157217070816e-07,772.6386307954509,100.0
295,2.0603904724121094,765.5472002704364,20.587263965068882,790.1182921133059,727.9167023156452,100.0,2.1522757037956235,0.1,0.014201164245605469,0.23919391632080078,0.048626713,0.044018507,763.7024251153438,-0.0421208128574069,7.647190239916426,100.0,9600,2.125434398651123,8.133515900580334e-07,1.2328748787304046e-06,772.8272016059241,100.0
296,1.9329679012298584,760.9437493519512,18.962352387101873,790.171119168828,728.0876451619614,100.0,3.315686278056284,0.1,0.007371187210083008,0.255324125289917,0.041181765,0.00747005,763.4265575390045,-0.0464431105024893,7.601176040626863,100.0,9600,1.5890908241271973,1.4273909144243294e-06,1.0778971700334536e-06,772.4883944812044,100.0
297,2.165602684020996,763.0940251024437,18.750705830839987,790.462667690548,727.9758345123261,100.0,1.6775321786718345,0.1,0.014730691909790039,0.3036539554595947,0.049874306,0.068096526,763.3933042953485,-0.0437235078875225,7.622644880993668,100.0,9600,1.5482525825500488,9.886854859794696e-07,1.1546573687303322e-06,772.7182543778792,100.0
298,2.1774795055389404,765.182292194419,18.81569750998067,790.47639157558,728.040421180128,100.0,2.3636753068635423,0.1,0.008549690246582031,0.30372071266174316,0.04894247,0.023082292,763.5722030852555,-0.041539983266040185,7.643571407189129,100.0,9600,1.4390900135040283,1.282786345461088e-06,2.138476290515968e-06,772.5666694051079,100.0
299,2.266623020172119,765.672987184715,19.198807425637643,790.2682844826264,727.6044147324195,100.0,2.378166238676723,0.1,0.014420032501220703,0.28125548362731934,0.04850102,0.034335606,763.7822814952016,-0.04143171407057707,7.648446782097088,100.0,9600,2.336655855178833,1.9773934468971164e-06,1.1873971432828105e-06,772.311273670414,100.0
300,2.1406326293945312,767.2803080272516,18.74669410767153,790.3177684722687,728.0496513403324,100.0,1.9529153983482177,0.1,0.007882118225097656,0.2664222717285156,0.04930872,0.028357068,764.1320841484065,-0.039197464029592136,7.664524941025114,100.0,9600,1.6418797969818115,9.978502619656899e-07,1.358021401802036e-06,772.2871520007908,100.0
301,2.1157302856445312,767.4733498626146,18.44084340182737,790.328356871809,731.6278006900243,100.0,1.3572561039679358,0.1,0.00707554817199707,0.23961615562438965,0.05073563,0.04301575,764.4662107198274,-0.03899801066294633,7.6664472336574105,100.0,9600,1.8188238143920898,1.6113499485843812e-06,1.6133734141954238e-06,772.4528512244065,100.0
302,2.0023443698883057,763.370443640098,18.224217248553554,790.3229206200253,732.2026321280891,100.0,2.615089153742967,0.1,0.054054975509643555,0.30735301971435547,0.049466047,0.052081026,764.3566340118545,-0.04367397915511754,7.625439693928837,100.0,9600,3.296713352203369,1.770520040831625e-06,1.3061039294311455e-06,772.3302827238615,100.0
303,1.930922269821167,761.6196710515605,18.93763466021088,790.2454349220977,728.0065287004426,100.0,2.301658273388202,0.1,0.014143943786621094,0.26259422302246094,0.050741456,0.053723637,764.082937715825,-0.046055945408240116,7.607939918998517,100.0,9600,2.4810595512390137,1.2098589418217004e-06,1.3321572848499385e-06,772.4627693941334,100.0
304,2.271458864212036,764.1441185809359,18.398969290149164,790.4310770629778,728.0493089217326,100.0,2.374152811844126,0.1,0.007837533950805664,0.28569722175598145,0.047979664,0.028536621,764.089055802336,-0.04193004560912262,7.633168085163671,100.0,9600,2.8732473850250244,1.0793134740168618e-06,1.2257414188864512e-06,772.2276061820993,100.0
305,2.296064615249634,764.5548690567576,19.091859131978236,790.3527648734275,727.9602640421052,100.0,2.645216767314511,0.1,0.014837980270385742,0.32962703704833984,0.050898965,0.03564691,764.1356371277782,-0.04271178617021324,7.637263049098692,100.0,9600,1.7429478168487549,1.2448247486692684e-06,3.3877149815645866e-06,772.442066980383,100.0
306,2.1769566535949707,761.46123693421,20.17503608474174,790.0462748359587,723.4351058167845,100.0,2.851080571497515,0.1,0.014620780944824219,0.3319246768951416,0.044539176,0.061983224,763.8681971084214,-0.04807889335693938,7.606339223710112,100.0,9600,1.9356422424316406,3.705146445735602e-06,2.038543698154556e-06,772.4474713419339,100.0
307,2.3441736698150635,763.6724341793475,19.639787755814154,790.1998250778691,727.4560428845398,100.0,1.789547627725265,0.1,0.01424098014831543,0.25031232833862305,0.05002725,0.06621497,763.8486208155141,-0.0440141278502672,7.6284520027069,100.0,9600,2.312561511993408,1.694803769711597e-06,8.553077947515408e-07,772.6213020816365,100.0
308,2.116807222366333,766.0733229111166,17.974724339635465,790.3109049008109,730.1084771546876,100.0,1.8641327537735877,0.1,0.006962776184082031,0.2523930072784424,0.048808802,0.059504557,764.0710910250743,-0.04017679367702689,7.652433772357798,100.0,9600,1.629133701324463,1.3313831009866453e-06,1.4727522170572155e-06,772.932406389308,100.0
309,1.9419612884521484,765.1781926703644,19.061493730968326,790.3173637631836,732.0572970952858,100.0,3.0939143305268413,0.1,0.014171361923217773,0.26721668243408203,0.05191773,0.020414745,764.1818011896033,-0.04233359021136591,7.64350995354557,100.0,9600,1.9366636276245117,1.2052401451905891e-06,1.1398111136635767e-06,772.9333486099135,100.0
310,2.08835506439209,760.1976590869461,20.220377254418526,790.1944448189065,727.5911577382597,100.0,3.3450437760616327,0.1,0.03120112419128418,0.2918858528137207,0.045768235,0.014763097,763.7833869793376,-0.04943870335515344,7.593695628697972,100.0,9600,3.129225492477417,1.1594148140660097e-06,9.292588893910307e-07,772.9975242746657,100.0
311,1.9370815753936768,760.9310513142931,19.840700320579984,790.0906995412329,727.9355013044285,100.0,2.4003445413418474,0.1,0.030115127563476562,0.30915141105651855,0.047126375,0.037669998,763.4981534128332,-0.048456586461706606,7.601045813556598,100.0,9600,2.2265655994415283,9.815665293159938e-07,3.408376727028866e-06,772.5630200098398,100.0
312,2.0695693492889404,761.8246359322023,18.657390636764735,790.2676343717823,727.9555691376556,100.0,2.2506394806472043,0.1,0.030251026153564453,0.35790467262268066,0.047903944,0.043801237,763.3308016647702,-0.04621702450554388,7.609961330893429,100.0,9600,3.0035386085510254,3.1881714544604694e-06,1.1396868893546686e-06,772.5445723205643,100.0
313,1.9957945346832275,759.4645751079147,19.31408067168007,790.3362666641225,723.4571762716495,100.0,1.816487856846656,0.1,0.01504659652709961,0.3175656795501709,0.048718438,0.04188382,762.9441790090847,-0.049803207778072865,7.586351790032055,100.0,9600,2.6164438724517822,1.3917234099182469e-06,1.6987852791126001e-06,772.6061976459591,100.0
314,2.3075292110443115,763.8968225067265,19.08268552136413,790.197863164859,728.4735053902651,100.0,2.4376349700183337,0.1,0.009064435958862305,0.346832275390625,0.049611002,0.019277094,763.0394433588489,-0.04380302441984468,7.630681401513265,100.0,9600,1.7599921226501465,1.4975397768836995e-06,1.0676711418409792e-06,772.6835997278612,100.0
315,2.0666418075561523,762.0032634973877,18.135808603200616,790.1554484460239,727.9647051360032,100.0,2.2958100773408336,0.1,0.01472926139831543,0.3641223907470703,0.049196623,0.042080283,762.9358253727028,-0.04480523339795595,7.611768570267343,100.0,9600,1.7181754112243652,1.0562474617930611e-06,8.369207773671352e-07,772.3370529169324,100.0
316,2.0457866191864014,763.3340286313447,19.111697152198026,790.3901450171774,728.1031228833879,100.0,2.1079421688182878,0.1,0.010323047637939453,0.32852745056152344,0.04987142,0.07227361,762.975645698567,-0.04441311422822391,7.62506979198075,100.0,9600,2.0930798053741455,7.611373734633755e-07,8.331036787421593e-07,772.648547214493,100.0
317,2.0920562744140625,763.0709278012364,18.258491713197582,790.3349456504322,731.9931099452235,100.0,2.0159004403244953,0.1,0.01519012451171875,0.3141789436340332,0.049303167,0.028593315,762.9851739088339,-0.04386742058777441,7.622424306267873,100.0,9600,2.6745989322662354,1.0272594683995692e-06,8.742428628220944e-07,772.6257808567324,100.0
318,2.0218348503112793,762.1861825787315,18.749283381859758,790.3389257490022,731.945831896393,100.0,1.621999666172544,0.1,0.014872550964355469,0.3166654109954834,0.04867508,0.067968264,762.9052747758236,-0.04557999974109169,7.6135919527418325,100.0,9600,2.001997947692871,1.181582337395736e-06,2.200026319745147e-06,772.5984905422206,100.0
319,1.992605447769165,759.8195732666363,19.054326830626234,790.0735051868261,727.9377426630671,100.0,1.733944964359389,0.1,0.007439613342285156,0.2559983730316162,0.048025344,0.049639184,762.5967046249049,-0.0484828279216822,7.589932551774201,100.0,9600,1.764772653579712,2.1860426521405863e-06,2.004599966069676e-06,772.6116247259951,100.0
320,2.0045056343078613,764.0560916453991,18.907874552831455,790.4347749414859,728.0524424202151,100.0,2.7975238467589882,0.1,0.014285564422607422,0.37160420417785645,0.04643233,0.011522293,762.7426433269543,-0.04367209402154196,7.632264753856845,100.0,9600,3.128861665725708,1.963637708699906e-06,1.567596173287229e-06,772.588738131872,100.0
321,1.9549789428710938,763.5654505014987,19.78420521053559,790.128372015585,728.0270508147983,100.0,2.6465368838825785,0.1,0.04213309288024902,0.29784297943115234,0.047773216,0.028343987,762.8249240444087,-0.04464537496149699,7.627398051635157,100.0,9600,2.4801385402679443,1.556680658867608e-06,1.1955185551295695e-06,772.686137522056,100.0
322,2.2186880111694336,762.2371148258663,18.946022262304616,790.117285774899,727.9230870666619,100.0,2.0728307140256126,0.1,0.030051231384277344,0.2478337287902832,0.05133874,0.055550903,762.7661431225545,-0.04477901599109948,7.614068738653899,100.0,9600,1.7567451000213623,1.1960910882683565e-06,3.6109162528279774e-06,773.042089564304,100.0
323,2.3052334785461426,764.2820288521921,16.918502804482422,790.2681965433983,732.0281077678932,100.0,3.439713249824092,0.1,0.007350444793701172,0.2131786346435547,0.048582327,0.027254479,762.9177316955182,-0.04148328370158791,7.634549484312299,100.0,9600,1.4241600036621094,3.6012250461079916e-06,1.1244497765117762e-06,773.1184838770689,100.0
324,2.375657081604004,762.6572451459214,18.14672087466652,790.0630302947311,727.5555607477278,100.0,2.4711687853613986,0.1,0.03011488914489746,0.23817920684814453,0.041195165,0.03502904,762.8916830405585,-0.04444070501473301,7.618294903963215,100.0,9600,1.707582712173462,1.2551540449092113e-06,1.2364091984897386e-06,772.8820557045649,100.0
325,2.1821913719177246,762.5970835756948,18.493291092210168,790.4526344842573,732.1548985630627,100.0,2.714240553523044,0.1,0.029866695404052734,0.38702917098999023,0.048343547,0.043183506,762.8622230940722,-0.045614939706019264,7.617694936748585,100.0,9600,3.8812015056610107,1.07872759692813e-06,8.59599029207146e-07,772.4034998633017,100.0
326,2.2250020503997803,762.4284596329959,20.50074656576162,790.3225312586308,727.630047476139,100.0,1.8672828686544696,0.1,0.02983570098876953,0.33838701248168945,0.04873346,0.042270694,762.8188467479646,-0.04681096396986554,7.616014687913984,100.0,9600,2.165842294692993,1.1989819391977925e-06,2.4601187804313675e-06,772.6629303374566,100.0
327,2.026369333267212,764.5803669466464,19.749573105962625,790.3630889113684,732.3704178632994,100.0,1.8500549683712304,0.1,0.008265018463134766,0.29583263397216797,0.04947814,0.06784101,762.9949987678328,-0.043522279942117485,7.637518640943026,100.0,9600,2.0914220809936523,2.5462413622101592e-06,9.464766703732559e-07,772.6885944726964,100.0
328,2.142831325531006,762.354733973673,19.25009310987516,790.0784779571864,732.5640398071334,100.0,2.4287624253817595,0.1,0.007108211517333984,0.23824429512023926,0.04972862,0.043126293,762.9309722884169,-0.046187547672848876,7.615264864452333,100.0,9600,1.624849557876587,8.316054634208211e-07,1.0666011436428363e-06,772.7872880164019,100.0
329,1.9162945747375488,764.351458259965,19.711619670385428,790.2587513990251,727.8485037596212,100.0,2.477153954489493,0.1,0.014620304107666016,0.27834534645080566,0.04944985,0.081812516,763.0730208855717,-0.04425323003539642,7.635215490554134,100.0,9600,2.5567331314086914,1.2299586021199357e-06,9.90794790158008e-07,772.8365877598702,100.0
330,1.9395880699157715,764.2865732874797,18.775720077947668,790.3356377834203,727.8487082171517,100.0,1.9342944056043105,0.1,0.014941930770874023,0.325789213180542,0.049403936,0.04257043,763.1943761257625,-0.043204116258029425,7.634619029530615,100.0,9600,2.2764732837677,8.973962989801465e-07,1.5409168149897103e-06,772.94439846361,100.0
331,2.1718928813934326,762.870836615617,19.103127985282388,790.284216777027,732.3832097448469,100.0,2.706175720153779,0.1,0.009844779968261719,0.35797858238220215,0.050922543,0.033158097,763.1620221747479,-0.04567855486679275,7.6204294933874825,100.0,9600,2.7336714267730713,1.6989822390253964e-06,1.0537864045582383e-06,772.7909638685206,100.0
332,2.111924409866333,766.2264577615855,18.62403357479853,790.3806678430782,732.7647506727743,100.0,1.6192555285464054,0.1,0.011967182159423828,0.26715707778930664,0.05014342,0.051070727,763.4684657334317,-0.040871497737020125,7.654005674291359,100.0,9600,1.9268832206726074,1.0155075222339192e-06,1.2519343894967494e-06,772.9222001391751,100.0
333,2.298290252685547,763.5415694312127,19.319115416506996,790.3746889529457,731.5420287059757,100.0,1.9307022452621243,0.1,0.007117033004760742,0.25582432746887207,0.04844858,0.023036307,763.4757761032099,-0.04467448565713442,7.627140478077517,100.0,9600,1.5781223773956299,1.3379500162521934e-06,2.2156807265005977e-06,772.8124959042932,100.0
334,2.3418128490448,760.4956672233458,18.96427478959056,790.4271480932529,727.8977127213617,100.0,1.9057001760083,0.1,0.00827789306640625,0.2939755916595459,0.05012523,0.039766032,763.1777652152235,-0.04808472963584499,7.596680477449229,100.0,9600,1.6360201835632324,2.4596040625765e-06,1.3156737683233964e-06,772.9268596634884,100.0
335,2.3058321475982666,761.9181151463749,19.128277420706134,790.3528391944335,727.5015667278387,100.0,2.384088100161394,0.1,0.029969215393066406,0.310056209564209,0.049379665,0.059084594,763.0518002083387,-0.04589399236900168,7.610902731293035,100.0,9600,2.6996240615844727,1.3849075989710423e-06,1.7712352864400058e-06,772.9194068217151,100.0
336,2.266434907913208,762.8039946246814,19.245982047294582,790.3408383953179,727.9304268960703,100.0,2.803677053393855,0.1,0.0486912727355957,0.5971555709838867,0.047927644,0.029129721,763.027019649973,-0.04480251952732333,7.619764376110496,100.0,9600,1.9397592544555664,1.475856783220984e-06,9.564804811302888e-07,772.8303628573217,100.0
337,2.0530240535736084,765.7353478619049,18.237194751373174,790.4466397047075,728.3402156692492,100.0,1.9740605817119108,0.1,0.015706300735473633,0.32262253761291504,0.051786173,0.03599515,763.2978524711663,-0.04017401751788402,7.649078512994997,100.0,9600,2.79858660697937,9.806550390615503e-07,1.3642492916774324e-06,773.0193911159624,100.0
338,2.11631178855896,764.3557905191905,18.749045265221316,790.4288346016615,727.9036229139734,100.0,2.483231594957987,0.1,0.014603853225708008,0.3074319362640381,0.049015574,0.04117494,763.4036462759686,-0.04241167976055934,7.635281137288833,100.0,9600,2.429715394973755,1.2703725679289875e-06,2.0965552786003394e-06,772.7402539150623,100.0
339,2.0595505237579346,763.5154549791396,18.868028781268304,790.4205515196746,731.8599730845641,100.0,1.9076293713145651,0.1,0.014875173568725586,0.30034303665161133,0.05127897,0.03365125,763.4148271462858,-0.043371007694209464,7.626870022511124,100.0,9600,3.2612767219543457,2.327760461685572e-06,1.073952449992561e-06,772.8494971821601,100.0
340,2.0927517414093018,762.3110286975385,19.64536679713348,790.4002235611052,727.5118527011479,100.0,2.201731341062205,0.1,0.030104875564575195,0.32978224754333496,0.04858201,0.05392614,763.3044473014111,-0.04581294060241498,7.614840305143822,100.0,9600,2.421508550643921,1.2302776515810303e-06,1.2089108564953743e-06,772.9317035998718,100.0
341,2.4353573322296143,764.7763519705723,19.609871015693184,790.2431692780408,728.2937508039582,100.0,3.556251007743368,0.1,0.008848190307617188,0.3297455310821533,0.046799883,0.027778214,763.4516377683273,-0.04286079234387872,7.639492747261133,100.0,9600,1.7837409973144531,8.798306109889612e-07,1.443145838347041e-06,772.9255879166524,100.0
342,2.217881679534912,762.1769231211728,18.413504293858008,790.2134814634541,727.8858935061945,100.0,2.3915883335020163,0.1,0.014688253402709961,0.2640361785888672,0.04493008,0.0353356,763.3241663036118,-0.04494197436019524,7.6134943284082945,100.0,9600,2.409943103790283,1.5607494264756707e-06,1.2509792992793914e-06,772.9868398475446,100.0
343,2.2997777462005615,766.5996003805172,18.286282586838578,790.4959438128145,727.9238435594285,100.0,2.35550653943576,0.1,0.02995753288269043,0.22794747352600098,0.04961712,0.018427616,763.6517097113024,-0.03941968546800826,7.657711586047594,100.0,9600,1.9367902278900146,1.0694806429552287e-06,1.9480141140665556e-06,773.0350281284661,100.0
344,2.34954571723938,764.2655244664493,18.97283001638581,790.3319973627341,728.2322180985184,100.0,2.3744357748304137,0.1,0.014746427536010742,0.2662932872772217,0.04612129,0.051417258,763.7130911868171,-0.043231618935266586,7.634383387352102,100.0,9600,2.8501453399658203,2.149409287447651e-06,1.0360199024936992e-06,773.0217178854589,100.0
345,1.9805412292480469,762.4943497162918,19.26948101264079,790.5169610906337,728.0541333314619,100.0,2.3161302630178358,0.1,0.01387643814086914,0.23224997520446777,0.04847453,0.02449491,763.5912170397646,-0.04545123684137365,7.616661279764789,100.0,9600,2.483750820159912,9.740654696511158e-07,1.4019477743663673e-06,772.9528367819287,100.0
346,2.156775712966919,763.4167662257532,19.64188860414299,790.3286246187363,728.0603955400809,100.0,1.9801855408263993,0.1,0.01436614990234375,0.2531430721282959,0.049248204,0.037011735,763.5737719583634,-0.04478722861778978,7.625916672866217,100.0,9600,3.592083692550659,1.4080891038739577e-06,2.725715256505069e-06,773.0262316088181,100.0
347,2.440544366836548,765.166142418224,18.92788676046371,790.4363303961374,733.2175018623009,100.0,1.9986403008796287,0.1,0.030131816864013672,0.344606876373291,0.048507255,0.035617243,763.7330090043495,-0.041528031901327096,7.64339091882519,100.0,9600,2.9737908840179443,2.6798423980304885e-06,8.401863940760795e-07,772.868062806031,100.0
