iteration,time_sampling,stoc_pol_mean,stoc_pol_std,stoc_pol_max,stoc_pol_min,rollout_success,alpha,delta,time_vpg,time_npg,kl_dist,surr_improvement,running_score,rwd_sparse,rwd_dense,success_percentage,num_samples,time_VF,VF_error_before,VF_error_after,eval_score,eval_success
0,8.465070247650146,-3019.9881755221218,2666.821490852544,878.4282500191885,-9417.92504817284,0.0,1.3435662352375757,0.1,0.13560199737548828,0.4048902988433838,0.05704644,0.07533381,-3019.9881755221218,0.707595215870399,-15.089376981944072,0.0,16140,1.7391862869262695,0.9999480453157875,0.5029357607623582,-3753.748368048534,0.0
1,11.32752537727356,-2400.5865441888695,2220.7661644936356,570.70812837136,-9151.94099831794,0.0,1.715441565650732,0.1,0.03342890739440918,0.5895867347717285,0.05089174,0.057684127,-2958.0480123887965,0.5721176641598088,-12.003940188127038,0.0,17317,3.0908143520355225,0.6700911040287859,0.5014332502590475,-1934.1923822753586,0.0
2,8.643566131591797,-2455.1848425650737,2346.160572300669,1966.4881867322542,-9498.131258680714,0.0,1.7951680193259243,0.1,0.01662588119506836,0.5178253650665283,0.053857878,0.05609901,-2907.761695406424,0.6823800284125037,-12.282726680148878,0.0,17472,2.433568239212036,0.5069126569357265,0.37485997324937637,-1244.133767439279,0.0
3,7.035531520843506,-1997.1847689057504,2028.7773907958615,978.2618374854868,-6501.3370632616425,0.0,1.64764283897787,0.1,0.014006614685058594,0.37545251846313477,0.050406538,0.060464237,-2816.7040027563567,0.5528281316791802,-9.989535184755434,0.0,16339,2.2198379039764404,0.4390984921490981,0.36290059610005626,-1344.0189397874892,0.0
4,7.181427240371704,-2826.521647288158,2673.3326765187717,944.5156689788167,-9330.135143220139,0.0,1.7681050264890972,0.1,0.013816118240356445,0.5348484516143799,0.05096415,0.05589737,-2817.685767209537,0.6761286314240674,-14.133998131071097,0.0,17895,2.387700319290161,0.35611536088829915,0.25481452710462954,-998.6407090629993,0.0
5,7.222500562667847,-1889.7076309957731,2274.7694949482902,1043.7417275280377,-9485.062349589032,0.0,1.6879582002544091,0.1,0.013515472412109375,0.33907651901245117,0.051699962,0.0596994,-2724.8879535881606,0.7017110231658291,-9.459598067924617,0.0,17548,2.349339008331299,0.38995996858116,0.3063493944425488,-656.9879241295964,0.0
6,9.126487731933594,-1851.2019232531263,2310.10146771866,1934.091377122179,-8713.86417215669,0.0,1.7749366724360893,0.1,0.016584157943725586,0.4275374412536621,0.05483864,0.056142315,-2637.519350554657,0.7103376953722904,-9.271038552492106,0.0,18524,2.7874035835266113,0.3068065452705511,0.26453295015357925,-932.5729701092772,0.0
7,9.015870094299316,-2036.5258375792953,2131.9540340364315,807.4146360800045,-8410.372214293022,0.0,1.6258876754153913,0.1,0.01672816276550293,0.6365289688110352,0.04836996,0.060346078,-2577.419999257121,0.48529456419227346,-10.18791045897064,0.0,17737,2.3429343700408936,0.32754866522267634,0.2876264223921177,-663.976436095161,0.0
8,8.238050937652588,-2403.8501168635235,2457.089074090768,1831.4276532178264,-8743.563868178617,0.0,1.6936048298820583,0.1,0.01264810562133789,0.339324951171875,0.053304404,0.056997076,-2560.0630110177613,0.6586182485640414,-12.027820445919366,0.0,18261,2.458064556121826,0.23012722341563924,0.1892922992768667,-441.0724115282396,0.0
9,9.771722793579102,-1541.1104790492634,2131.0066690379545,1039.5078166637377,-8844.179328043647,0.0,1.732260729135157,0.1,0.01742243766784668,0.6077971458435059,0.054702997,0.05702554,-2458.1677578209114,0.7796392221848136,-7.71216565804833,0.0,18279,3.5043299198150635,0.3005211216922059,0.26860155354585025,-1154.3257340957077,0.0
10,8.668498277664185,-1469.7244924944753,1843.6959734712416,1006.0099279830843,-6461.198287152307,0.0,1.856252375680951,0.1,0.017147302627563477,0.4493105411529541,0.051608134,0.05153905,-2359.323431288268,0.4740123177980123,-7.363212382492654,0.0,18725,3.411672830581665,0.28473798550474727,0.263169787099887,-723.8137239799366,0.0
11,8.562906265258789,-1198.2077488020723,1809.6646289044943,1048.554783596046,-5875.166940442884,0.0,1.8432779283818055,0.1,0.02583599090576172,0.4319639205932617,0.04921077,0.051656444,-2243.2118630396485,0.7734161628067646,-5.998620229256872,0.0,18993,3.294461488723755,0.3032814010077183,0.27830371236284196,-1394.0992077154,0.0
12,10.547754764556885,-994.8261305485785,1686.954852084612,1043.9498296706972,-4913.962109753399,0.0,1.7197572344529142,0.1,0.014661788940429688,0.4184389114379883,0.051749036,0.055559173,-2118.3732897905415,0.698883262513081,-4.984751616149141,0.0,18680,2.792050361633301,0.35193849451954384,0.33852961491996963,-1722.9944159674692,0.0
13,8.870682954788208,-877.2255735137334,1506.3915345551097,1111.2146450753228,-4724.097874595295,0.0,1.8861093264373194,0.1,0.014054536819458008,0.3136427402496338,0.04988428,0.049505908,-1994.2585181628608,0.42238753755243064,-4.398729326339711,0.0,18923,2.427924633026123,0.34447190169428377,0.30927054977130586,-723.4987052171164,0.0
14,9.328968524932861,-862.6660756636264,1525.8149342095046,1064.6903535063866,-4456.487166708267,0.0,1.9680146118367732,0.1,0.033821821212768555,0.4860560894012451,0.05149944,0.048150286,-1881.0992739129374,0.4713452338139052,-4.327552238616249,0.0,19200,2.7191741466522217,0.3029079284844004,0.2745849618154801,-903.4543811257092,0.0
15,10.619075059890747,-944.7234890354954,1500.599131100911,1107.360799905692,-4853.638536923013,0.0,1.993079169856186,0.1,0.023055553436279297,0.4762575626373291,0.051344212,0.04880467,-1787.4616954251933,0.5833911852385623,-4.741216001931849,0.0,19043,2.974466323852539,0.3454655636447136,0.32640452383913193,-1677.1231185674703,0.0
16,8.154483795166016,-508.7457958181856,1135.8125061635965,1038.7999196807052,-3740.9345396485674,0.0,1.9738020682726158,0.1,0.016289949417114258,0.5254759788513184,0.049532514,0.048702296,-1659.5901054644926,0.580999587390923,-2.5553864194868985,0.0,18910,2.5120880603790283,0.42475366549835963,0.3853557517783912,-2106.4979540527083,0.0
17,11.471275329589844,-559.6472552932883,1048.0822802594773,1154.9878388395011,-3470.2324974503645,0.0,2.0148461569732783,0.1,0.0203096866607666,0.4103827476501465,0.049892444,0.047963396,-1549.5958204473723,0.3959249911923646,-2.8107570279339185,0.0,19141,2.5134665966033936,0.44100434173046366,0.4020844812225291,-1090.081057840089,0.0
18,8.15215253829956,-575.3771971466048,1129.9993648188424,1501.196384335592,-3465.209853268052,0.0,1.9678647022609679,0.1,0.022345542907714844,0.5436766147613525,0.04921631,0.052570067,-1452.1739581172956,0.3654322833800743,-2.891635509409069,0.0,18861,3.9460134506225586,0.3497274086319246,0.32637970381333775,-1734.4888529082525,0.0
19,9.391559839248657,-280.51860681762713,1076.5593993049442,1138.7103034929817,-5557.88291973063,0.0,1.97106159363961,0.1,0.017904996871948242,0.4249742031097412,0.05003512,0.047210008,-1335.0084229873287,0.5976573932512683,-1.41460246019233,0.0,19154,2.5070159435272217,0.4154055416898976,0.3618760293890782,-1895.636595080159,0.0
20,8.576522588729858,-128.88376010567802,788.3977835333736,1178.578314178201,-2996.9053264046606,0.0,1.9380757553168457,0.1,0.0175473690032959,0.5236380100250244,0.050404843,0.05241853,-1214.3959566991637,0.6229952955833438,-0.6616161156074606,0.0,19057,2.649873971939087,0.5318919619217172,0.46234699611179364,-1944.8446935532781,0.0
21,7.790744304656982,-286.8782556490875,966.463197264925,1276.7856879043263,-5042.84159762402,0.0,1.8612519488748958,0.1,0.01665496826171875,0.46050500869750977,0.05014894,0.04879106,-1121.644186594156,0.3109404736710641,-1.4501572122259754,0.0,18940,3.264756202697754,0.5147007936109446,0.4254412707226378,-1811.757333996686,0.0
22,8.763635396957397,-123.44426225291967,894.3966603379472,1279.1679251439855,-4113.01886319988,0.0,1.9952314369437265,0.1,0.02095174789428711,0.5024359226226807,0.050046906,0.04596948,-1021.8241941600324,0.5330079460595732,-0.6364047917631096,0.0,19195,2.9225003719329834,0.47637001450324107,0.420727539513352,-1836.4209727803418,0.0
23,10.498340606689453,-61.72647198255806,669.4974970381131,1544.8825817341594,-3098.233207460182,0.0,1.9117826945350964,0.1,0.017084836959838867,0.5379805564880371,0.052192356,0.050763298,-925.8144219422851,0.43496069931930065,-0.3286632571419403,0.0,19200,2.575075626373291,0.3605365124049026,0.33599640326879393,-1205.8103479546858,0.0
24,7.9621665477752686,-224.86484792170623,997.6106420382678,1816.313210046874,-6359.20487388258,0.0,1.9994152965247751,0.1,0.01822185516357422,0.5687322616577148,0.051438186,0.048043136,-855.7194645402271,0.41520948206729996,-1.139033427626804,0.0,19081,2.6354904174804688,0.3986914925708859,0.33810329714158216,-1432.2575271646808,0.0
25,8.415367841720581,-21.378055378271835,727.6399588034686,1410.3506216878948,-3044.2297090127927,0.0,1.865253239774058,0.1,0.011635065078735352,0.3347001075744629,0.05058056,0.055090163,-772.2853236240315,0.5450033631843967,-0.12936043686967238,0.0,18941,2.988621950149536,0.5161889678504314,0.41730740625528484,-538.1174020710309,0.0
26,8.697071313858032,54.875697179520124,659.4046671397887,1644.5113879560106,-2489.3550137365833,0.0,1.7929986075417923,0.1,0.030516862869262695,0.5589950084686279,0.05129968,0.054647014,-689.5692215436763,0.6419607439936245,0.25380914128596926,0.0,19149,2.4979803562164307,0.42705476711559687,0.3649713478675003,-282.1873085047056,0.0
27,11.217096090316772,204.85853985918484,604.5959822628088,1660.9464587337734,-1375.6722871512297,0.0,1.8513553978761084,0.1,0.023714303970336914,0.4841740131378174,0.050635695,0.04927379,-600.1264454033902,0.7542530853329223,1.0010986145668068,0.0,19042,3.4686899185180664,0.23968033259461374,0.1307688907804378,-720.7911925193109,0.0
28,7.689574956893921,87.68313106891632,521.093452998341,1365.9430504869179,-780.9624595696088,0.0,1.7398305408857748,0.1,0.016238689422607422,0.6992812156677246,0.049895145,0.057727166,-531.3454877561596,0.5597987351256051,0.416161116639469,0.0,19200,3.3711650371551514,0.17220717940097485,0.15223897739213493,-987.8261173959556,0.0
29,9.747464895248413,107.60685851893113,743.1460170589155,1537.9693680989049,-3159.0849792746794,0.0,2.0509354190090603,0.1,0.015246152877807617,0.5227570533752441,0.048386347,0.04547409,-467.45025312865056,0.7325258934236426,0.5146533195497692,0.0,19200,3.0189714431762695,0.37467136425007996,0.2421099725995328,-2215.286398821844,0.0
30,11.48550033569336,224.7990292867477,631.6826366434634,1744.56029502418,-1336.6672848557505,0.0,1.938487008985939,0.1,0.01710057258605957,0.6315908432006836,0.050941214,0.053787995,-398.22532488711073,0.8238720500374406,1.1027755088887126,0.0,19200,2.4727375507354736,0.17926635723900752,0.11540567271558015,-2165.5498505457917,0.0
31,9.454813003540039,214.77566392760153,696.3291160665009,1909.6765086623773,-2032.9130410395571,0.0,1.8390883086183636,0.1,0.024810791015625,0.6533145904541016,0.050014984,0.046414282,-336.9252260056395,0.7584139510806991,1.0525356535888146,0.0,19200,3.0563454627990723,0.21078347151351787,0.14062811428754676,-1682.2314208758928,0.0
32,8.711951732635498,86.66401783753707,622.9263568459809,1833.3963390820352,-2469.414231837516,0.0,1.8584845869714879,0.1,0.024577617645263672,0.5525796413421631,0.050648384,0.052030586,-294.5663016213218,0.6334632290007703,0.4110658331899379,0.0,19200,2.374159574508667,0.23963413139257456,0.13905567556283052,-729.227576700725,0.0
33,11.13654899597168,227.55100588327514,640.5879030286992,1811.9599298397118,-761.9881587727599,0.0,1.8586521811239116,0.1,0.018863201141357422,0.5556485652923584,0.04974162,0.05503734,-242.35457087086215,0.8371243967016172,1.114926794420084,0.0,19200,3.2901298999786377,0.10460251370745981,0.09466926184335876,-2194.8574223359733,0.0
34,12.951950550079346,268.025045221027,690.6308788537314,1936.1299159340185,-722.5750897220972,0.0,1.7658636059383348,0.1,0.022889375686645508,0.48150634765625,0.051265016,0.10791811,-191.31660926167322,0.9133070213442646,1.3180206231523248,0.0,19015,2.3609304428100586,0.13825810382848336,0.10386109228015689,-1875.7507347377837,0.0
35,8.079247236251831,233.61835540091693,629.6489556339397,1867.7213191960593,-842.2974171313768,0.0,1.851921398231201,0.1,0.019877195358276367,0.4413182735443115,0.048286803,0.05362156,-148.8231127954142,0.8224106924009407,1.1436352913564576,0.0,19200,2.90561842918396,0.13288242214699827,0.11896328476179657,-2202.913631406189,0.0
36,8.256063461303711,317.82720624270706,623.598563316666,1653.0441319704055,-518.0022091199645,0.0,1.9474854975001599,0.1,0.013263225555419922,0.4174535274505615,0.049838558,0.05198481,-102.15808089160207,0.9831395576355216,1.5658530018854222,0.0,19200,2.35215163230896,0.10221647538226414,0.08731570614030207,-1690.0973275921122,0.0
37,6.874782085418701,273.48499536389187,625.1408227824039,1782.4340312300417,-692.7909369876526,0.0,1.966528671435855,0.1,0.022852659225463867,0.4704594612121582,0.050905403,0.04731515,-64.59377326605268,0.86280546155503,1.345114935633837,0.0,19200,2.6572299003601074,0.1226547312434978,0.09751730187828907,-3468.408020293923,0.0
38,10.188870906829834,335.8071226112767,777.534903916959,1795.4614928070105,-3361.919359307278,0.0,1.958972809934386,0.1,0.015886545181274414,0.6092977523803711,0.050180625,0.04585556,-24.553683678319743,1.0441279629275149,1.654829108282815,0.0,19200,2.4683115482330322,0.16843781375695588,0.08590687559872179,-2415.115000165095,0.0
39,8.276042461395264,301.67963514323355,697.2450424825961,1872.0277118249946,-1111.7960645428652,0.0,1.841747401044116,0.1,0.013384103775024414,0.503258466720581,0.050018806,0.056572985,8.069648203835587,0.9222502062729738,1.4841623021643542,0.0,19200,2.4871184825897217,0.089959711141694,0.07451397444935316,-1346.0440565595918,0.0
40,11.648221492767334,261.2895830084914,656.2213982765883,1916.2638317576534,-586.0951011448105,0.0,1.9000541986059287,0.1,0.024105072021484375,0.5688176155090332,0.050406035,0.05408631,33.39164168430117,0.8593214010788607,1.2825810170324723,0.0,19200,4.020793199539185,0.0957627951413055,0.08295621240951774,-675.8432190121412,0.0
41,8.326541662216187,207.71332583563233,680.535117401574,1938.7283703278636,-2369.959936020782,0.0,1.8731139641272216,0.1,0.023283958435058594,0.5088722705841064,0.049170677,0.057898007,50.82381009943429,0.7445839014054366,1.0157555333206887,0.0,19016,2.9355063438415527,0.19262318104527962,0.13036906038151816,-697.3699114674534,0.0
42,11.476998090744019,220.37993826007573,667.838544346313,1843.8126458844686,-1909.3342993893546,0.0,2.0644667306613527,0.1,0.022814035415649414,0.45111942291259766,0.050965276,0.0479862,67.77942291549844,0.8484487824073456,1.0788612225716898,0.0,19200,2.433504104614258,0.16543868956749844,0.14014894137392364,-887.7570506734896,0.0
43,7.869139194488525,390.83254754369636,789.9411567429294,1896.7720928575868,-1297.6235068299688,0.0,1.8759459405085415,0.1,0.012171268463134766,0.4320681095123291,0.050403718,0.055950686,100.08473537831824,1.102273991133337,1.9282948871084091,0.0,19024,2.6382715702056885,0.11051442291694573,0.09813048201754922,-388.16920625733354,0.0
44,8.665705442428589,314.69694015687736,673.3393583416068,2069.3401149045612,-1065.685853078204,0.0,1.9552315009289192,0.1,0.015542268753051758,0.5003728866577148,0.050192546,0.049083892,121.54595585617416,0.9573439966686542,1.547759590815426,0.0,19200,3.9176790714263916,0.09124366315805807,0.07493478761619203,-1166.8062628904102,0.0
45,11.506511688232422,305.58297419767763,791.794332516915,1923.5111390652796,-1727.6619284546364,0.0,1.8859106441226832,0.1,0.01926565170288086,0.5327751636505127,0.04977167,0.052627027,139.9496576903245,0.9359543083382332,1.5047388111719762,0.0,19200,2.7190980911254883,0.11999816271222355,0.10093686961479181,-400.78474597417795,0.0
46,10.616617918014526,407.0237097197034,785.0477376757381,1954.070983549081,-1575.0796359246315,0.0,2.120948443419121,0.1,0.019429445266723633,0.6708593368530273,0.0504119,0.048082322,166.65706289326238,1.0877868113345541,2.010061588715439,0.0,19200,3.529798984527588,0.10583822505147127,0.09397624276203224,-818.5726927604967,0.0
47,8.144440650939941,372.47485137997955,748.5793373520747,1963.431841332171,-944.8558914120299,0.0,2.0873225223047425,0.1,0.018822908401489258,0.5385861396789551,0.049316056,0.04432997,187.2388417419341,1.007894020621236,1.837323821470991,0.0,19200,2.6241800785064697,0.09073356597862839,0.06336095534409733,-315.7544668323336,0.0
48,7.778326749801636,212.37369484385758,639.3686195083458,1833.0219159703938,-1203.9914579009278,0.0,1.9019471217042963,0.1,0.021439552307128906,0.6059818267822266,0.050058994,0.056218058,189.75232705212645,0.7130289836028053,1.038542444044852,0.0,19200,3.6308445930480957,0.13858544654248517,0.11466226562352824,-554.3872451435343,0.0
49,10.134364604949951,416.5108505078003,756.3143988699683,1956.180577212517,-499.4244237380507,0.0,1.909767511964057,0.1,0.015131473541259766,0.769974946975708,0.04984761,0.05137197,212.42817939769384,1.0643132750701747,2.058993707502437,0.0,19200,3.534801721572876,0.07150636842360121,0.05811500166923511,-575.4416719883836,0.0
50,8.571304082870483,423.42008494465625,796.5206794029205,1933.9429021298909,-770.4534139629203,0.0,1.8443450207905665,0.1,0.017607927322387695,0.46120166778564453,0.050634004,0.05930485,233.5273699523901,1.0173381482177895,2.094105734516113,0.0,19200,2.431460380554199,0.06621515395442072,0.05363851252127974,-359.8561055443493,0.0
51,11.118271112442017,476.62561033523554,811.7727080964576,1942.5589079159627,-595.2139239546375,0.0,1.821586723827292,0.1,0.019580364227294922,0.5309114456176758,0.050481383,0.049995866,257.8371939906747,1.0856036055017546,2.358690508508871,0.0,19200,2.4932522773742676,0.042919143763826516,0.033635381194305466,168.2929646182571,0.0
52,8.781360864639282,399.99293247381246,774.8630987204232,2004.5972096150754,-637.855429819725,0.0,1.8121188743208407,0.1,0.029042959213256836,0.7958507537841797,0.049283586,0.06649849,272.0527678389885,1.0121957431614266,1.9757582912782317,0.0,19200,4.010299444198608,0.0548300850099518,0.04564300016786168,231.03913428032882,0.0
53,9.608829498291016,322.60867107499826,746.2635422408487,1997.790855220371,-634.0003583052123,0.0,1.8380829373733125,0.1,0.016318798065185547,0.4770174026489258,0.050506737,0.04949364,277.10835816258947,0.8884716881444407,1.5924647847568707,0.0,19041,2.4137094020843506,0.07527304974277552,0.056826411082396396,611.7927859990982,0.0
54,8.376332521438599,543.5126416273275,859.82123641462,2046.6548675100778,-1363.2331093392518,0.0,1.994244393078147,0.1,0.017409086227416992,0.5843544006347656,0.049555995,0.046790496,303.7487865090633,1.2824664505497063,2.690911653704429,0.0,19200,2.850402593612671,0.05532071281476849,0.0421894171284503,212.23588079196082,0.0
55,8.816699743270874,627.8896601105486,891.2323119323818,2033.6161017480892,-652.3041910353883,0.0,1.899545687501386,0.1,0.015292167663574219,0.5401771068572998,0.050491884,0.06459675,336.1628738692118,1.368327606631074,3.1140949336871127,0.0,19200,2.996814250946045,0.03898222047002829,0.031399650824923526,682.6649100765703,0.0
56,12.768282413482666,535.4589887260998,846.3739122759748,1964.5033308918728,-500.6918509880953,0.0,1.904955242979463,0.1,0.018206119537353516,0.6458282470703125,0.04964865,0.052323565,356.09248535490065,1.20149703003304,2.6522217776099333,0.0,19200,3.759376049041748,0.04265899196959732,0.036308861105315844,740.1784273839249,0.0
57,6.990319013595581,440.210238659188,867.0323502938667,1991.1422620746305,-1438.572680552318,0.0,2.001598484338943,0.1,0.021000385284423828,0.5489516258239746,0.050954152,0.053890433,364.5042606853294,1.1068041503827541,2.175672550898325,0.0,19200,2.526970624923706,0.07898136050073207,0.06723670763565028,902.7036992270057,0.0
58,10.761984825134277,500.5899506871289,824.2935724242384,1975.6811910832657,-723.1188344226701,0.0,1.9069921571163932,0.1,0.028975963592529297,0.7600815296173096,0.049830187,0.048394214,378.1128296855094,1.2104067885658116,2.4782445674468927,0.0,19200,3.1130781173706055,0.0842850116240635,0.06566400244077723,941.6929137329712,0.0
59,9.288299322128296,375.1617029465815,907.116912837096,1978.6646888210912,-1379.2019526115548,0.0,1.8785542894709613,0.1,0.017392635345458984,0.5753405094146729,0.048909895,0.050615244,377.8177170116166,0.8853961985845933,1.8510819760193877,0.0,19200,2.8028411865234375,0.0728727467865208,0.05791788697283761,576.7017453242572,0.0
60,8.306757926940918,536.690352365034,864.673302341589,2033.2597899186367,-520.2664788280722,0.0,1.9834853971482793,0.1,0.016890287399291992,0.587838888168335,0.05058894,0.049529966,393.7049805469584,1.2061191185482165,2.6583275693848427,0.0,19200,3.581193447113037,0.04838686660246488,0.03499564427799656,495.695965456808,0.0
61,8.206823825836182,544.9237435195386,858.9384225663844,2040.8330644593793,-1063.2324169959652,0.0,1.6944036345681766,0.1,0.01756596565246582,0.5214626789093018,0.050561696,0.05299202,408.8268568442164,1.2173946288813595,2.700871999968315,0.0,19039,3.2527480125427246,0.049923355731039745,0.03998499736604327,222.61636395095087,0.0
62,8.187856435775757,629.0412846610477,905.0484585899069,1966.3332409711234,-1064.5802201145955,0.0,1.722813800154767,0.1,0.015227794647216797,0.6704931259155273,0.050240714,0.06914854,430.8482996258996,1.361539344986195,3.1211173074578356,0.0,19200,3.552151679992676,0.048453083206334714,0.03627438765939724,493.6711919801153,0.0
63,8.039479732513428,620.2930787168085,973.4978934850268,2009.7254076782447,-3440.7707713282334,0.0,1.8687682198386508,0.1,0.05382084846496582,0.9801483154296875,0.050011422,0.05047435,449.7927775349905,1.4056330037925777,3.077314854408628,0.0,19200,2.5787246227264404,0.08830132592235153,0.05059208300432988,400.8341134006547,0.0
64,8.053131103515625,396.91748238056607,840.9611353781905,2008.373273780001,-2004.6660995620994,0.0,1.7172856060809227,0.1,0.020060300827026367,0.7025492191314697,0.049974952,0.05646397,444.50524801954805,0.9969149893444128,1.9578068479832627,0.0,19200,2.6146388053894043,0.07124451068909589,0.03960573531257466,-249.51290553513195,0.0
65,9.79348635673523,446.99116715389624,811.3066901896381,2066.179620260213,-434.1866291363284,0.0,1.9725787137411592,0.1,0.01872396469116211,0.5350682735443115,0.04976395,0.0501449,444.7538399329829,1.0684265441238263,2.210798858866005,0.0,19200,3.9476656913757324,0.043749571922787146,0.03182570776150474,312.6856452242938,0.0
66,9.087108373641968,559.970635898662,944.2054123238541,1970.9936423661409,-2238.7313997023252,0.0,1.8266957312080367,0.1,0.0276186466217041,1.0002474784851074,0.05078386,0.050960537,456.2755195295508,1.2374538222727318,2.776372833836421,0.0,19200,2.6429038047790527,0.06929479644051496,0.049898219869741696,331.93666623166166,0.0
67,9.716911792755127,469.6760480400688,848.6939730187642,1955.043049466371,-1330.6667945196234,0.0,1.9676634571029876,0.1,0.029495716094970703,0.8751680850982666,0.049881034,0.04872477,457.61557238060266,1.154839251647502,2.3241292466239227,0.0,19200,3.626059055328369,0.11182268819512758,0.07801217144157163,-244.88400622576202,0.0
68,7.75334358215332,497.3455118479842,984.4672477740858,2002.1005703661604,-4575.2651788672365,0.0,1.6153724712566213,0.1,0.017795085906982422,0.6511564254760742,0.052718252,0.051423453,461.5885663273408,1.235686932688288,2.4632214051251933,0.0,19200,2.7073974609375,0.1285462161424607,0.05045169123061721,241.04893599267527,0.0
69,7.47274923324585,544.3986718082186,855.970319631667,1998.4304696138006,-1514.625349857095,0.0,1.874401530858151,0.1,0.01834273338317871,0.6008708477020264,0.05013577,0.051418316,469.8695768754286,1.3068821072665078,2.6974954583820163,0.0,19200,3.224926471710205,0.10653810956242443,0.07745721625971379,549.6783365225499,0.0
70,8.086665391921997,516.3386542278789,818.2478851779343,1970.380437883631,-409.5181479802654,0.0,1.8427834527666596,0.1,0.05029630661010742,0.95717453956604,0.049866375,0.051243097,474.5164846106737,1.1981561382511414,2.5584026526425396,0.0,19200,7.236850023269653,0.0442543192153218,0.03062368058552129,672.5798218680698,0.0
71,7.601042032241821,526.0184987191951,831.6023933908127,2017.2530663071543,-300.29168101735695,0.0,1.8627160811336303,0.1,0.02712845802307129,0.7593915462493896,0.049451556,0.05434122,479.66668602152583,1.2192201453510025,2.6048616617361904,0.0,19200,2.925753116607666,0.04782719209952652,0.03304420394842339,459.19721477869894,0.0
72,8.210821390151978,760.4653271119556,899.9320627294128,2012.8776914086636,-712.36121386213,0.0,1.8135090556682054,0.1,0.03068399429321289,0.7552909851074219,0.05030505,0.05430387,507.74655013056883,1.5774595474774458,3.7770977629411626,0.0,19200,4.555448770523071,0.03409848195392693,0.02239062696629541,-384.9608072987519,0.0
73,8.723377466201782,642.1441738525199,922.5793553696566,2020.6817437788065,-372.92904522642357,0.0,1.7938865996444615,0.1,0.030108928680419922,0.8325695991516113,0.05044098,0.060347322,521.1863125027639,1.3723535622031162,3.186213675560871,0.0,19200,2.658226490020752,0.026214647903519246,0.020246608637039348,303.6833154676104,0.0
74,8.494149208068848,632.8985169106874,933.7832188315992,2035.9044828568954,-1460.8213398550615,0.0,1.8714045027097181,0.1,0.026204586029052734,0.7366833686828613,0.049513027,0.050007273,532.3575329435563,1.3372314437741581,3.1415127408485897,0.0,19200,3.855067729949951,0.040824748703715906,0.0323645746014525,-208.1621776924809,0.0
75,8.561506509780884,722.5449768174531,910.4788480802441,2005.449929293295,-523.2834163954367,0.0,1.8724568982913599,0.1,0.04405474662780762,1.0459158420562744,0.050190613,0.05051899,551.376277330946,1.5233000039958868,3.587083495659961,0.0,19200,3.5921823978424072,0.02729685561361533,0.022894705864404258,-213.92109203575563,0.0
76,8.550047636032104,652.6166903877235,876.6690655186122,1976.1646442172676,-332.91595268429967,0.0,1.8371598247860739,0.1,0.019869089126586914,0.579582691192627,0.050666597,0.055154532,561.5003186366238,1.4461563545544829,3.236531686044202,0.0,19200,3.0343706607818604,0.03689378110724818,0.02864084981815002,-408.1811679197819,0.0
77,9.030674695968628,764.8777811325854,925.8553184574557,2049.824201539439,-1572.1106970470378,0.0,1.796669339039407,0.1,0.026386260986328125,0.7090685367584229,0.050637115,0.063893706,581.83806488622,1.6388617659859424,3.799189360547409,0.0,19200,6.433202266693115,0.04614628633861051,0.03298320933920905,-684.150849373091,0.0
78,8.033809900283813,746.6578383610249,883.5599668954134,2043.9693891849736,-318.74038571035805,0.0,1.8948190829945721,0.1,0.029478073120117188,0.8805274963378906,0.051047098,0.053432867,598.3200422337005,1.5639618182497472,3.7064694258132835,0.0,19200,4.399851083755493,0.03429064701732633,0.026186400782264578,-330.31696155619164,0.0
79,7.911352634429932,816.5740481053886,892.4817414944067,2006.0424379854624,-364.96454290836994,0.0,1.6787241234157118,0.1,0.025339365005493164,0.804603099822998,0.04885596,0.057875965,620.1454428208693,1.7070379196298378,4.054653697117026,0.0,19200,3.585343599319458,0.028539523675366323,0.0238027453659971,-727.0500841829405,0.0
80,8.32205057144165,726.5373003326889,920.2990610875081,2030.4889245822355,-276.9877494010101,0.0,1.7200244624063574,0.1,0.02338385581970215,0.9161851406097412,0.04911206,0.070876315,630.7846285720512,1.5520695754191378,3.6070128945618833,0.0,19200,3.9818203449249268,0.02882725005117373,0.020783003354564986,-1034.0060412345433,0.0
81,8.702921867370605,791.0542619128502,924.0613510498233,2036.103575811527,-348.3048086902134,0.0,1.752176207444635,0.1,0.01806783676147461,0.6324806213378906,0.04973885,0.05348175,646.8115919061312,1.6553809524003242,3.929318676199222,0.0,19200,4.001950263977051,0.03564410351291419,0.024492912523144415,-783.9161925509062,0.0
82,10.66279935836792,726.9713808096534,904.2755476539733,2014.44651187464,-241.4276174552981,0.0,1.7871530667957285,0.1,0.020774126052856445,0.6569721698760986,0.051046535,0.05133853,654.8275707964834,1.5443959808145984,3.608724426103413,0.0,19200,3.769211530685425,0.029973390737848365,0.022733056676768094,258.5699290392414,0.0
83,10.905797481536865,772.9058756689524,946.8694909451178,2074.231247461553,-502.55556134914264,0.0,1.8025165024543386,0.1,0.02426004409790039,0.903834342956543,0.05071919,0.051078375,666.6354012837304,1.5802381723889123,3.839643932338651,0.0,19200,3.2308273315429688,0.023691800770300024,0.017318698712077554,56.750126463688034,0.0
84,11.217555046081543,659.6964596257604,880.6975617861913,1990.8370692431977,-281.2222286989353,0.0,1.9428565539148634,0.1,0.031076431274414062,0.9055683612823486,0.05063677,0.053310145,665.9415071179334,1.431581313707768,3.2739752284177723,0.0,19200,6.468764543533325,0.03792346187844834,0.027269522646084846,483.6910526452547,0.0
85,7.895893335342407,859.3859960972501,919.7096322321225,2008.5665489199425,-312.5217229480764,0.0,1.8430363837882762,0.1,0.025165557861328125,0.79585862159729,0.04975999,0.05372009,685.285956015865,1.741142223011683,4.272098323666158,0.0,19200,4.192681789398193,0.024916037278497973,0.018643658904912815,243.81764841320802,0.0
86,9.340974807739258,671.9808957594526,900.7035855760378,2013.9033290480309,-687.5519209203595,0.0,2.0254819442999454,0.1,0.051268577575683594,1.0890913009643555,0.050540548,0.048879504,683.9554499902238,1.4627412141983713,3.335192596057046,0.0,19200,9.030896425247192,0.03287901730158981,0.023643015959391014,204.234107634696,0.0
87,9.010267972946167,685.2065392253465,874.6162864325374,2061.2421132589793,-370.41710154477323,0.0,1.9316291504502228,0.1,0.03435635566711426,1.1214308738708496,0.051753115,0.052072104,684.080558913736,1.4697927553627992,3.4019286768627595,0.0,19200,8.240103244781494,0.03343340666968727,0.02532174739676915,417.78417598976483,0.0
88,8.819972038269043,914.6272479534058,909.255551256828,2019.0471486418724,-275.0999441573907,0.0,1.9413689088831494,0.1,0.025829076766967773,0.9230687618255615,0.049013652,0.059310783,707.135227817703,1.8295741661483405,4.547394008546628,0.0,19200,5.036380767822266,0.026332922142605478,0.01923805615073896,-79.2512249828545,0.0
89,8.339768886566162,716.0699094811762,900.5566674799426,2054.5094435546594,-223.5958796572805,0.0,1.7207647273807019,0.1,0.042472124099731445,1.4036140441894531,0.04949592,0.05116087,708.0286959840504,1.5096203679383855,3.5544100723331566,0.0,19200,3.1892809867858887,0.021596611990748173,0.01643072301160262,511.60327169796426,0.0
90,8.576508045196533,700.4191212175618,924.4887933594856,2075.177500514435,-234.3675813191104,0.0,1.8066274555467956,0.1,0.03432416915893555,1.1180312633514404,0.049410988,0.069877625,707.2677385074016,1.4566650320133847,3.477150199127355,0.0,19200,3.352839708328247,0.027300249154711215,0.02221045102671801,-57.71322166653354,0.0
91,12.27114987373352,728.1766522066042,918.7780435603078,2023.517713962445,-304.7169053788327,0.0,1.7664386641687997,0.1,0.03706026077270508,1.3300657272338867,0.048382066,0.057145137,709.3586298773218,1.520410191704438,3.615491301846544,0.0,19200,3.346815347671509,0.017455622898074223,0.01405343447539897,-466.67455021313447,0.0
92,13.637624263763428,955.8269077425533,906.977068243779,2045.1566548814437,-175.55522180526066,0.0,1.998431770687331,0.1,0.031943321228027344,0.930229663848877,0.049450018,0.050692815,734.0054576638449,1.8981098031767745,4.751424976985014,0.0,19200,3.8155603408813477,0.01779644723659408,0.014046068539656094,-632.8624243909505,0.0
93,9.292184829711914,629.521483454442,899.8425706579964,2013.4358363687413,-1159.0162835793128,0.0,1.7684914463914925,0.1,0.04836440086364746,0.9671330451965332,0.049746957,0.041694358,723.5570602429048,1.4014932821200492,3.1228568303119224,0.0,19200,3.22163462638855,0.02522466876013884,0.019001605155261853,149.2560442331802,0.0
94,13.064018487930298,767.9241633454388,886.2690301605675,2035.0617268508693,-430.6248098287737,0.0,1.9035482862867759,0.1,0.02721858024597168,0.9811911582946777,0.05119789,0.0739472,727.9937705531581,1.6225710938374382,3.8145755156977237,0.0,19200,4.720407485961914,0.02105668900584726,0.0175163607824813,-138.7023246984984,0.0
95,8.950937271118164,717.138127544337,898.1972346493678,2051.198853664041,-430.92610026118416,0.0,1.984937590465134,0.1,0.046150922775268555,1.0061566829681396,0.0497566,0.053720728,726.908206252276,1.5006642969417523,3.5604124111038353,0.0,19200,3.522610664367676,0.02431901587064738,0.015045932423054855,-348.44379163093924,0.0
96,23.76917314529419,691.8866711307405,1111.659117572375,2052.1095520872714,-5538.590401523568,0.0,1.8605646930197144,0.1,0.050403594970703125,0.9335951805114746,0.05153134,0.041017666,723.4060527401225,1.5753306415341681,3.4371904543232312,0.0,19200,7.278833866119385,0.15149887639944204,0.043238750310883756,-407.9158727483866,0.0
97,8.936061382293701,864.0097392259137,948.2253942451157,2049.2086336725806,-196.3584001097752,0.0,1.9144000492940776,0.1,0.04832792282104492,1.1341772079467773,0.049371146,0.0632341,737.4664213887016,1.7594883296999464,4.293496934704989,0.0,19200,8.719053268432617,0.01868522849693094,0.010639247524375126,15.44342445990705,0.0
98,11.0451979637146,825.7107757947933,901.467235725348,2048.6043148081035,-189.31596724542138,0.0,2.100778455950646,0.1,0.03174185752868652,0.9401607513427734,0.05021673,0.044144217,746.2908568293109,1.6864658841768458,4.101098655683615,0.0,19200,5.8453264236450195,0.02372268248263514,0.014969207180602155,121.2329431424842,0.0
99,9.280287981033325,704.7719016200114,904.0983146670304,2003.6563154285263,-266.4876155173892,0.0,1.9263614842317314,0.1,0.0291898250579834,0.6296391487121582,0.05014695,0.045611605,742.1389613083809,1.5109162530941234,3.499099212424621,0.0,19200,3.1492815017700195,0.019162725540353413,0.014758767666629471,537.6157313318488,0.0
100,9.12656283378601,928.1170824029768,948.4167484416762,2029.2992812999203,-411.0947008787635,0.0,2.032067078732983,0.1,0.032892465591430664,0.938572883605957,0.0503946,0.042259194,760.7367734178405,1.837267970708418,4.614355920894397,0.0,19200,7.850778818130493,0.011262985714289861,0.009899561244369824,476.5906063514767,0.0
101,8.337294578552246,893.3825559451221,942.00689335046,2036.8222064476288,-315.3285060566332,0.0,1.989383625492958,0.1,0.0259552001953125,0.782271146774292,0.050842367,0.045398965,774.0013516705687,1.8093040028306986,4.440316723920666,0.0,19200,5.41097092628479,0.019867678132642782,0.01525348526520317,339.9308846340875,0.0
102,9.417872667312622,916.5756105237652,960.1835138005667,2092.3228244163674,-242.0812337576957,0.0,1.875843270900453,0.1,0.038579702377319336,1.0710475444793701,0.04938389,0.05658684,788.2587775558884,1.792040849336346,4.556622162803806,0.0,19200,4.394700050354004,0.01292050762216148,0.010377678157695224,737.1919051604216,0.0
103,8.633066654205322,909.1506372886979,939.7410526402922,2131.282216857694,-228.18600396632152,0.0,1.8727807873424955,0.1,0.027022838592529297,0.7601971626281738,0.05001682,0.056156732,800.3479635291693,1.8348198125893322,4.5205382422840445,0.0,19200,5.190964698791504,0.018091152416007217,0.01328379872396226,949.5179097095386,0.0
104,9.187472343444824,839.0325028262772,923.4724246062598,2043.3645242401499,-377.6540171662019,0.0,1.8075364115335273,0.1,0.04319167137145996,0.8913426399230957,0.049872372,0.05506897,804.2164174588801,1.7205208215138506,4.173067261799104,0.0,19014,4.7819132804870605,0.02939848340990032,0.02048463186603488,782.6392670825161,0.0
105,8.716679811477661,886.7262462703974,912.9142458188863,2025.0697246509433,-435.5813372592104,0.0,1.8721125224814263,0.1,0.0246431827545166,0.9146788120269775,0.05042052,0.0734495,812.4674003400319,1.8253969327412276,4.40753705842335,0.0,19200,5.1135663986206055,0.029149384931397078,0.0206940069863858,343.436539498307,0.0
106,10.765690088272095,738.6004226192312,948.460280854378,2060.0450881801576,-507.21485906169886,0.0,1.795425991267563,0.1,0.03057575225830078,0.9691908359527588,0.050818518,0.0541665,805.0807025679518,1.5432495170193377,3.666945428722985,0.0,19200,3.62433123588562,0.0200372460131947,0.013688005823342687,293.460946094168,0.0
107,9.327554702758789,771.6699544932793,907.204318858002,2056.6988100986255,-245.6540420119295,0.0,1.731780309244311,0.1,0.03937172889709473,0.8120617866516113,0.050628528,0.059090964,801.7396277604846,1.633594377048998,3.832080883411107,0.0,19200,8.327293634414673,0.02194767385264102,0.01706084558141914,101.74891112232208,0.0
108,10.93899917602539,941.2186518233283,1114.8705031649774,2077.5347174232943,-5481.9698211531495,0.0,1.886418470987465,0.1,0.032473087310791016,0.8243045806884766,0.049411107,0.04262056,815.687530166769,1.978863582646703,4.679914869954282,0.0,19200,10.494700908660889,0.1360375837543831,0.03703093376600705,114.1492594478668,0.0
109,12.963712692260742,873.5545861615792,898.0162293191787,2066.1709374347492,-337.0791136009736,0.0,2.0190126911435105,0.1,0.029872894287109375,0.9352209568023682,0.049569856,0.04737102,821.4742357662501,1.79650888811965,4.341987186239753,0.0,19200,2.442842483520508,0.04161665755601878,0.024516205974432152,448.0292494436991,0.0
110,7.86083459854126,790.7396701647185,895.4192344260858,1994.052367805865,-433.7341579981737,0.0,1.9299508487630777,0.1,0.03534078598022461,0.9056539535522461,0.049531914,0.056174636,818.400779206097,1.7019240627970316,3.9273537834666326,0.0,19200,4.28555154800415,0.051849912394749446,0.03909608377436519,53.32208649092746,0.0
111,8.092486143112183,1054.957890469312,920.5361790771601,2075.3445843657573,-540.5477541131877,0.0,1.968910524199254,0.1,0.027043581008911133,0.8507256507873535,0.048618205,0.047066506,842.0564903324185,1.999341182006713,5.2479484373654435,0.0,19200,5.85045051574707,0.021925131082675665,0.011694176192528454,1.5605786749796948,0.0
112,9.22820258140564,819.3884262795481,916.8209175594488,2047.620046702378,-291.0034363814611,0.0,1.7136865941540382,0.1,0.0485992431640625,1.2414476871490479,0.049770154,0.05404272,839.7896839271316,1.7243520151772795,4.0718267157871,0.0,19200,4.963063955307007,0.02284357647311177,0.014048786155919419,359.9078259726518,0.0
113,8.254788875579834,673.0316394357659,925.2531270728612,2069.8799101140617,-317.4877904510321,0.0,1.7282546578453801,0.1,0.024709224700927734,0.6527690887451172,0.05069415,0.055437665,823.113879477995,1.5053977085796901,3.3411090306682367,0.0,19200,3.5602400302886963,0.03050652982433228,0.022588734980349415,197.2405863496373,0.0
114,9.235567569732666,865.5577617664838,952.2876175138532,2076.512006855947,-375.1907209010758,0.0,1.6057213072432082,0.1,0.034752607345581055,1.057044267654419,0.05214192,0.0704647,827.3582677068439,1.7755842521603027,4.299659762333479,0.0,19200,4.945629358291626,0.01799916285818666,0.012320364534419622,-170.16246350131235,0.0
115,14.181843519210815,868.1582717673399,935.9029285571312,2043.5313662463461,-577.5233588135011,0.0,1.8408972495549738,0.1,0.03519606590270996,1.1850793361663818,0.04990633,0.055838514,831.4382681128934,1.7562485773788612,4.315311414713671,0.0,19200,6.251455783843994,0.027622382414156543,0.01846414093117528,-34.82577959069337,0.0
116,10.84293007850647,918.5095770405974,980.488391020249,2084.301862953166,-2455.8332406560007,0.0,1.7514684298731364,0.1,0.05220222473144531,1.1606194972991943,0.049878184,0.050516006,840.1453990056639,1.8402465480774586,4.564048049444157,0.0,19200,5.306444883346558,0.05082394412221279,0.02655376426035111,526.9728832174899,0.0
117,7.6635777950286865,876.5458193429369,946.9156621413555,2038.0302259234156,-424.2176643679297,0.0,1.8788058097502875,0.1,0.05124950408935547,1.0402231216430664,0.051288005,0.051529106,843.7854410393912,1.7731027103249752,4.354916221534483,0.0,19200,2.9594790935516357,0.02380854198633652,0.01833534576864862,-83.11501365255958,0.0
118,9.370824098587036,819.9684108875213,950.1991043017276,2029.5713885861953,-239.09052062704365,0.0,1.9166114186046703,0.1,0.0444340705871582,1.0115814208984375,0.04962358,0.04484156,841.4037380242042,1.6708087536359315,4.0727231078345065,0.0,19200,2.9240493774414062,0.016377291934108473,0.011459031891527884,-232.87687339123124,0.0
119,9.731653690338135,845.5650727608237,925.6432212242578,2026.770596714993,-699.5514212077754,0.0,1.725048890557209,0.1,0.03733015060424805,1.0785126686096191,0.050168816,0.053652864,841.8198714978662,1.7708103512638012,4.201293683128912,0.0,19200,7.969616413116455,0.03475112321004377,0.022516258187527456,8.443283145960265,0.0
120,9.141245603561401,1057.5255348927928,925.7862114272405,2096.5880925872434,-361.4012344691657,0.0,1.8021586442854232,0.1,0.04864764213562012,0.6563515663146973,0.0497268,0.060318787,863.390437837359,2.0173673052978596,5.260673366591333,0.0,19200,4.367989540100098,0.013539192584047031,0.008986817943776256,-335.9965405010835,0.0
121,9.655280113220215,894.9010122386286,965.8811751291059,2118.3036200589145,-263.2736743979927,0.0,1.8025685385926191,0.1,0.02443552017211914,1.335350751876831,0.049313102,0.04533346,866.541495277486,1.779169819111022,4.44685559470991,0.0,19200,2.490795373916626,0.013219317134568693,0.010329491853551129,-236.25725221211565,0.0
122,13.44884729385376,901.5807464007797,962.3149171433697,2037.6763491576396,-171.7011175513243,0.0,1.906775439225348,0.1,0.04130363464355469,1.043966293334961,0.050712284,0.051478673,870.0454203898154,1.8202691557872859,4.482815154985201,0.0,19200,3.9937050342559814,0.013887632916048137,0.011345730050099574,-384.6831233820969,0.0
123,8.79017424583435,1010.9601176796868,945.0939514633515,2085.162660279058,-274.2744167377398,0.0,1.665200598905311,0.1,0.023327350616455078,0.8093228340148926,0.050625853,0.058035735,884.1368901188025,1.9557920231945045,5.0279804721393795,0.0,19200,3.5567820072174072,0.018422934185772,0.0103100817244895,-139.27416691416573,0.0
124,13.982170820236206,1013.886587297662,930.6217886238894,2065.3966188838203,-249.7677455662954,0.0,1.7228584721022024,0.1,0.047545433044433594,1.2523102760314941,0.050077874,0.056468226,897.1118598366885,1.9653002786840934,5.041504132649256,0.0,19200,7.2503814697265625,0.016891795947845862,0.012204928512895705,-7.671254322969389,0.0
125,9.720949649810791,1027.7700248770605,954.8635256913606,2145.200675313717,-300.6271165856234,0.0,1.8160060342680715,0.1,0.03855299949645996,0.840670108795166,0.050347682,0.04793501,910.1776763407256,2.0028085756102416,5.112621822449643,0.0,19200,5.335984230041504,0.015129709643771194,0.011771770488014416,257.06153606883674,0.0
126,9.419214963912964,896.8534246802843,930.4416974421952,2127.418791323041,-308.99403975178586,0.0,1.8224080219861618,0.1,0.022774934768676758,0.6023781299591064,0.049379162,0.057193596,908.8452511746815,1.8122836982001305,4.458829804719097,0.0,19200,3.027792453765869,0.023424356660648026,0.018048955218567565,331.29742136908953,0.0
127,9.018656969070435,842.6407667476736,960.7099847796021,2129.5111840914724,-290.65732295732283,0.0,1.8099868978878264,0.1,0.035210609436035156,1.4407308101654053,0.050203618,0.049426697,902.2248027319807,1.714784464194442,4.187167396140507,0.0,19200,2.380223274230957,0.01005723746943493,0.006797221549376044,-535.9830053892216,0.0
128,12.575996160507202,868.9661648851564,931.976740774623,2100.0376991523485,-282.64140451518034,0.0,1.899257416749197,0.1,0.03161454200744629,0.7649657726287842,0.05024013,0.049880028,898.8989389472983,1.7867428487156445,4.317923993127947,0.0,19200,3.6159284114837646,0.02523146032633263,0.017883990378581936,-786.3720215669886,0.0
129,14.659599542617798,934.9304924725251,989.5177019453723,2083.906751665428,-448.2970418205465,0.0,1.7288890259540555,0.1,0.03143119812011719,1.2854890823364258,0.050720107,0.061184324,902.5020942998211,1.7903789888360329,4.649737321205394,0.0,19200,5.94038987159729,0.010086241596840316,0.005231290680864226,165.290020635804,0.0
130,10.512180805206299,897.4227694743377,924.1211775773565,2139.6626377285725,-250.57006986042663,0.0,2.067669870998449,0.1,0.03443789482116699,1.394592046737671,0.049501114,0.045528505,901.9941618172728,1.7748504046952494,4.461210866827623,0.0,19200,8.426224946975708,0.021083944251201987,0.016137771771307194,-218.79377164626396,0.0
131,11.151071071624756,906.927209216958,932.0690107070333,2127.4489770317796,-261.4996397077642,0.0,1.5938610439819663,0.1,0.04355502128601074,1.112455129623413,0.049019564,0.062371418,902.4874665572413,1.7861436550416008,4.507359182424675,0.0,19200,8.471493482589722,0.023562772922951915,0.018987238954463588,-93.29414550652041,0.0
132,9.124459981918335,945.1040618569599,925.0129134582282,2083.4347914349605,-264.2554594220567,0.0,1.8478092399137498,0.1,0.03721165657043457,0.958043098449707,0.050528903,0.068481885,906.7491260872132,1.8947236541817445,4.697772555178183,0.0,19200,6.017192125320435,0.021933513091306506,0.01509561716812784,-233.20890711507565,0.0
133,9.489187479019165,1049.071009674003,985.6126170911853,2109.181172961459,-492.426782510626,0.0,1.7138000306529986,0.1,0.02619767189025879,0.7181367874145508,0.050399393,0.05782343,920.9813144458922,2.0048439169072254,5.219005203002507,0.0,19200,2.8938121795654297,0.00887697280525967,0.0065504814807399335,-297.98590042893875,0.0
134,14.854934930801392,899.2234310044432,948.0897671927897,2133.7494582314116,-1015.1811439584001,0.0,1.8242829679599888,0.1,0.05333662033081055,0.7586641311645508,0.05082384,0.049966324,918.8055261017473,1.8303809595429197,4.469842109251968,0.0,19200,5.244381904602051,0.02438323806177056,0.018181502680841042,538.1231183015628,0.0
135,7.258925437927246,836.3601764593741,995.5399148297907,2053.5347491672806,-1322.3912798250715,0.0,1.8949505017385155,0.1,0.02861642837524414,0.7842426300048828,0.05037539,0.044808853,910.56099113751,1.720849143273387,4.153768628757633,0.0,19200,5.24357008934021,0.04334948421616448,0.03227930241434119,-30.082449127192035,0.0
136,13.057612657546997,882.5815190767571,947.9420018418451,2041.6552592608302,-471.352591458678,0.0,1.8150412550204806,0.1,0.05720973014831543,1.4582550525665283,0.05016155,0.052862868,907.7630439314347,1.7461475636292088,4.388520063805408,0.0,19200,6.279906988143921,0.02087928478685154,0.014300866648509512,421.36341518995545,0.0
137,9.714802026748657,1020.4006440114784,958.7882958670104,2063.6631808988272,-446.5783102340783,0.0,1.5804699247353347,0.1,0.031975746154785156,0.9762871265411377,0.048439883,0.07180362,919.0268039394391,1.9357282930837343,5.074074103233577,0.0,19200,7.7365453243255615,0.01040415897269393,0.007882371403595646,670.7269047795529,0.0
138,11.99190354347229,1010.7427422232334,938.1930204999286,2072.564858111392,-260.7000073059391,0.0,2.0192369323877952,0.1,0.03904914855957031,0.8966248035430908,0.050144754,0.048059296,928.1983977678185,1.954831082878102,5.026652915764067,0.0,19200,7.648164749145508,0.014964081086363044,0.009618516015116747,636.4179699114272,0.0
139,13.707726240158081,958.5307060333556,970.9959210199867,2056.6324394413195,-143.73186933159207,0.0,1.7865192047809515,0.1,0.03948068618774414,1.050715684890747,0.050007947,0.054351997,931.2316285943723,1.8890718440306067,4.765612686799122,0.0,19200,6.958022117614746,0.013229130725571055,0.00787970122836821,67.41119439758484,0.0
140,10.441564321517944,1114.582363061333,896.7446642615827,2092.471428710252,-227.7548911660559,0.0,1.822470199696249,0.1,0.02901744842529297,0.9876949787139893,0.049982127,0.05244304,949.5667020410683,2.1650143518284843,5.544619602059131,0.0,19200,4.941282272338867,0.020088870382387138,0.013777389328149465,33.11011701933421,0.0
141,10.396634578704834,1008.9655140649589,962.5097113876604,2051.988715745218,-233.75893298787906,0.0,1.686866642337747,0.1,0.0359959602355957,1.1671321392059326,0.05060983,0.07550205,955.5065832434574,1.9402796324127447,5.019712855600488,0.0,19200,3.355004072189331,0.012421852644998734,0.009669670633177122,246.49390174822568,0.0
142,9.776328802108765,937.2862005841625,963.2803231370391,2053.726019177975,-197.3392428879079,0.0,1.897554978649139,0.1,0.03480172157287598,0.9821698665618896,0.049626965,0.050652094,953.6845449775279,1.802326923737321,4.658787210315764,0.0,19200,8.2550687789917,0.011134349520418663,0.008617660524217448,43.401992151537,0.0
143,10.223432540893555,1129.1801159839997,911.64863828594,2060.088916723079,-174.0931369531653,0.0,1.8576741025564598,0.1,0.05789828300476074,1.6105401515960693,0.05051531,0.058581956,971.2341020781752,2.1503955266187167,5.619601748824858,0.0,19200,10.569983959197998,0.0195600209113194,0.012720300236038578,-30.748976010688068,0.0
144,13.379028797149658,1148.4625529729979,910.5717667316104,2064.887824347056,-146.32653617332224,0.0,1.6918005932087816,0.1,0.027837276458740234,0.9199862480163574,0.05028632,0.057275753,988.9569471676574,2.176867216818463,5.716528424214005,0.0,19200,2.6815602779388428,0.010171451257582832,0.007902118357048502,-134.80158022399326,0.0
145,10.780867099761963,869.0005115012115,963.891776672619,2120.866829633196,-315.3927368207224,0.0,1.787411906142019,0.1,0.03557729721069336,0.867988109588623,0.051901262,0.06720433,976.9613036010128,1.7058080838955998,4.318831924963465,0.0,19200,5.722740411758423,0.011916887029313263,0.008146225581568661,-310.8922104875504,0.0
146,9.478493690490723,1103.4039290967282,935.9689768434466,2078.676393071216,-262.07931639849295,0.0,1.7471091641614362,0.1,0.03713822364807129,1.2925434112548828,0.05015343,0.056559958,989.6055661505843,2.1019908746012814,5.490461557696745,0.0,19200,4.812654733657837,0.008586941037072335,0.0058035812005161535,-482.5282751809418,0.0
147,9.653143167495728,1226.0558137929659,911.8460427116264,2125.2009320523644,-175.85221408881873,0.0,1.7752206661893142,0.1,0.04502415657043457,0.9395568370819092,0.049606916,0.059243906,1013.2505909148225,2.2948455192649138,6.102848090707531,0.0,19200,6.388499021530151,0.008807698882924356,0.005669950567046258,-301.93158186765925,0.0
148,13.978520154953003,1214.1870869423112,899.6578482354169,2062.0782513483073,-249.6236571946151,0.0,1.686407098494864,0.1,0.06454825401306152,1.2753925323486328,0.05120236,0.046709295,1033.3442405175715,2.2428476771925108,6.043517514239393,0.0,19200,5.0964460372924805,0.010806976613073489,0.008200519602298211,-620.3956553696265,0.0
149,12.429674863815308,1048.9007157526905,949.4871531587717,2069.5782255998683,-234.55538387940058,0.0,1.6283853672770072,0.1,0.03641915321350098,0.8461883068084717,0.049253985,0.05296766,1034.8998880410834,1.9799305663041284,5.218407199618816,0.0,19200,3.011441707611084,0.008963060559215752,0.006285073564190814,-576.259097449082,0.0
150,8.257882356643677,972.2636329836396,997.9065766453377,2067.6758684835877,-1904.3159770097034,0.0,1.5871624734284173,0.1,0.034389495849609375,1.1527433395385742,0.050771594,0.04062849,1028.636262535339,1.8899126277591733,4.8345054186992735,0.0,19200,5.394644498825073,0.020528682624699344,0.014104052093017006,-417.1280513283102,0.0
151,13.588204622268677,1108.4010363937514,947.5337502899738,2076.3233673695668,-215.43300193211087,0.0,1.813118021368852,0.1,0.036679983139038086,0.9072513580322266,0.050405905,0.051163223,1036.6127399211803,2.0934568276552574,5.514693664844259,0.0,19200,3.565984010696411,0.012666335543619033,0.009215277359219854,-290.06195596951,0.0
152,12.033213376998901,1070.999548204991,972.1959334619619,2084.271476716062,-263.76566895234987,0.0,1.8428856269267033,0.1,0.037577152252197266,0.8517553806304932,0.050370574,0.04876059,1040.0514207495614,2.0238065929688247,5.327775060920909,0.0,19200,3.6688036918640137,0.008655154420777227,0.005058359037427778,414.3106029381219,0.0
153,9.824503660202026,1033.4956146975655,917.8280857565367,2056.3340123631333,-319.9854840350918,0.0,1.978847223836304,0.1,0.04895138740539551,1.28416109085083,0.050759066,0.045540933,1039.395840144362,2.0130539473697504,5.1417042562599455,0.0,19200,5.128545761108398,0.02154769484357498,0.014026657953336713,159.58994199120673,0.0
154,14.729405879974365,1004.740944328677,945.5714152780736,2062.323496368157,-328.8387337824216,0.0,1.7859399149923487,0.1,0.035277366638183594,1.0629189014434814,0.049449883,0.048494443,1035.9303505627936,1.876084768407459,4.995214275402231,0.0,19200,3.7323899269104004,0.011978268976793454,0.006192599340180526,-436.02940419413915,0.0
155,8.68021821975708,966.497118949533,921.2281237249385,2114.1163845493074,-151.58241879300863,0.0,1.9205990497745329,0.1,0.03529763221740723,1.1264524459838867,0.05034325,0.047558296,1028.9870274014677,1.8930310390682816,4.805679775076667,0.0,19200,4.77032208442688,0.01659111977339397,0.00978465332116371,-250.41418793717833,0.0
156,9.925915718078613,1095.907226693596,923.1272739344156,2161.6467401475966,-275.1398260841539,0.0,2.111048552071887,0.1,0.03400683403015137,1.0223863124847412,0.05130974,0.049077548,1035.6790473306805,2.085189225693233,5.451422191378661,0.0,19200,3.7096288204193115,0.015155334191570224,0.010518909024349534,-148.6075433616952,0.0
157,10.172747373580933,950.0656450936344,965.0522311573045,2145.0156888486704,-303.29817576107524,0.0,1.7614927481065592,0.1,0.04792952537536621,0.9814567565917969,0.049443528,0.046929196,1027.117707106976,1.8337380881782865,4.722555851950204,0.0,19200,3.6464014053344727,0.012478370957628254,0.009163917651898463,-26.94163418793596,0.0
158,11.289868593215942,906.7224639175068,964.5876690231428,2040.5185248087553,-451.2446207126234,0.0,1.792034587563841,0.1,0.043437957763671875,1.1577003002166748,0.04917505,0.056263134,1015.0781827880292,1.7814087088888046,4.507972389965789,0.0,19200,4.328527212142944,0.014685656063727908,0.010595316786120816,-59.840467348924676,0.0
159,13.568554162979126,879.5799952716167,960.7379979566483,2043.111342223867,-373.00219122159564,0.0,1.992227118558094,0.1,0.02810382843017578,1.119126319885254,0.050512224,0.044507083,1001.5283640363879,1.7278889140169216,4.3728690504436285,0.0,19200,4.609814882278442,0.013092836139456691,0.008622498752741412,-240.4843898440679,0.0
160,10.942994117736816,931.3018194484561,959.432558035056,2076.1318477237805,-262.0521545900311,0.0,1.8218550163268188,0.1,0.03279256820678711,0.785057544708252,0.048413996,0.050199077,994.5057095775948,1.7934416614334026,4.628711174388815,0.0,19200,3.5867910385131836,0.01218164100255838,0.0072842902905147205,-377.9584761901921,0.0
161,11.26337456703186,1110.7797075827411,931.1458900372154,2089.1897013467133,-744.1736449675444,0.0,1.84995684492418,0.1,0.042697906494140625,0.9473686218261719,0.049625445,0.05425121,1006.1331093781093,2.0590190473947105,5.526792702957841,0.0,19200,5.88104772567749,0.009155011938286172,0.00684329292220856,-508.02394988813376,0.0
162,9.521305799484253,936.1326257815348,972.495839867603,2035.1181414208418,-294.31592668840267,0.0,1.8082603138512794,0.1,0.03762006759643555,0.9400882720947266,0.04896438,0.051413186,999.1330610184519,1.7948800311393247,4.655938358236721,0.0,19200,4.272676229476929,0.008977344408330638,0.006167122760227413,315.9114019819016,0.0
163,10.110630512237549,1016.0616093799426,963.3210751752898,2054.913500511399,-482.2073090760707,0.0,1.9093976029146293,0.1,0.028215885162353516,0.8390119075775146,0.051355846,0.058853824,1000.8259158546011,1.9075778703328847,5.052982335199514,0.0,19200,7.921304225921631,0.010878744863231744,0.007162319828537548,-34.249698896019254,0.0
164,13.01049518585205,1184.1791747995237,924.9584020654108,2057.051449321092,-172.09359166033053,0.0,1.8947576918048084,0.1,0.03238320350646973,1.1464910507202148,0.049417704,0.051223792,1019.1612417490934,2.2055179058679197,5.892350357588842,0.0,19200,4.260219573974609,0.009465506812132407,0.006219729256338228,152.70541930170145,0.0
165,14.216710090637207,1204.3975068751106,894.6946547504293,2066.2706102013726,-233.1107832004867,0.0,1.7981991245222115,0.1,0.07518744468688965,1.3768036365509033,0.0497945,0.053691916,1037.684868261695,2.2258216173874255,5.991916891485672,0.0,19200,7.048884630203247,0.009200411662975652,0.006644096436994623,-139.29347546747323,0.0
166,10.866122245788574,1051.2021334221151,923.0522613956925,2106.071610241737,-245.27329461422076,0.0,1.950331081954584,0.1,0.05318713188171387,1.5203633308410645,0.051947653,0.045196474,1039.0365947777373,2.019930850941659,5.226269019299133,0.0,19200,6.777768135070801,0.013128279074593194,0.009550396683805001,-141.0582223612094,0.0
167,7.891476154327393,1038.010412307153,941.4184443846257,2095.826752040082,-200.6602754693037,0.0,1.8473947199099208,0.1,0.02728557586669922,1.1278986930847168,0.049551975,0.04564921,1038.9339765306788,1.9793282369973895,5.163307451981357,0.0,19200,4.277955055236816,0.011854587435821268,0.00911228974676071,-112.86954202438667,0.0
168,8.742893695831299,995.3099862399155,954.9030300749829,2049.0034731972896,-197.71770984097589,0.0,1.67768546365631,0.1,0.03718733787536621,1.3150551319122314,0.05057429,0.058408808,1034.5715775016026,1.9345363156324895,4.947083365384368,0.0,19200,7.469281435012817,0.01465249425205352,0.009733559629403383,189.4485011776474,0.0
169,10.397942781448364,922.7130925236315,960.2371888665531,2025.5242129754733,-280.05331459017907,0.0,1.816115422051975,0.1,0.03812599182128906,0.9135520458221436,0.049371187,0.04552417,1023.3857290038055,1.8091327743074193,4.588522205573534,0.0,19200,5.036662340164185,0.015763799162909892,0.009886048606849877,-89.68687023756252,0.0
170,8.166434526443481,1046.0867150005995,930.4338038500719,2044.8622142711492,-235.64503812710876,0.0,1.7719138240132428,0.1,0.03677487373352051,0.9396708011627197,0.049940504,0.0549145,1025.655827603485,2.0284724680013517,5.205976719135614,0.0,19200,3.7791390419006348,0.016056269859963557,0.010304817360996095,-372.3449521510295,0.0
171,8.568946361541748,1097.177901287596,957.7491581292556,2097.6675488973474,-284.4158784946407,0.0,1.8727363772028687,0.1,0.025475025177001953,0.7117316722869873,0.050474145,0.047287934,1032.8080349718962,2.080463338954044,5.457838805704694,0.0,19200,5.680680990219116,0.0071110390706344085,0.003960138610460588,-317.41040048052116,0.0
172,10.869598150253296,1042.0608623490307,948.2044298299495,2108.0868984366643,-247.82825839592678,0.0,1.9120240391795482,0.1,0.03374195098876953,0.8217160701751709,0.050723244,0.051685974,1033.7333177096098,1.9980710729436921,5.181430596885384,0.0,19200,4.054498672485352,0.013147696414006118,0.009271194154931389,-931.8778410633979,0.0
173,9.276843547821045,1059.7503837136298,927.7355541111739,2086.5233070012923,-211.7334560415254,0.0,1.740027354706659,0.1,0.03347373008728027,0.9960331916809082,0.0507006,0.05115872,1036.3350243100117,2.056211764108241,5.2718437719624935,0.0,19200,3.940472364425659,0.014086378657207238,0.008765194914146802,-255.13197534472184,0.0
174,11.169522762298584,990.6609227019358,985.8021056376635,2104.157322141914,-1724.4248311460192,0.0,1.6821494429370625,0.1,0.035144805908203125,0.9576079845428467,0.05046128,0.058833804,1031.767614149204,1.9495351468729794,4.925297215093336,0.0,19200,5.145182847976685,0.03539333142028154,0.02227833309420186,-695.3833230891444,0.0
175,11.539101123809814,1020.5403825744388,940.4388172456256,2102.8724609704263,-243.96168926501642,0.0,1.8775347319411906,0.1,0.03718447685241699,0.9374463558197021,0.050254945,0.060077216,1030.6448909917276,1.9820128339718142,5.074508251956643,0.0,19200,8.128268718719482,0.01471479056567572,0.00808892921452959,12.288360361049683,0.0
176,8.783164262771606,1191.6785005919612,947.050323001072,2205.179192628242,-540.987192054173,0.0,1.7684835135857468,0.1,0.044588565826416016,0.9080057144165039,0.049319886,0.061458685,1046.748251951751,2.2466439019684286,5.93191655424769,0.0,19200,4.04480504989624,0.007585993199545971,0.006008058719220574,63.53137940884159,0.0
177,9.569407939910889,997.6458971389284,977.5248097477771,2131.1347667027885,-257.77852759924576,0.0,1.8605700915911898,0.1,0.02997756004333496,1.193589448928833,0.05038146,0.04793251,1041.8380164704686,1.9302153703151959,4.960878140932352,0.0,19200,5.344362258911133,0.01036553628763958,0.008002545312311517,6.351679223662359,0.0
178,13.658260583877563,957.1863582968994,1027.9461223354954,2112.380775797837,-2213.9858027798205,0.0,1.7104436120932422,0.1,0.06053972244262695,1.1836159229278564,0.05034764,0.04485194,1033.3728506531118,1.8566879513959191,4.761367003172217,0.0,19200,5.023236989974976,0.01948139808319636,0.008724194187903392,92.51358695185684,0.0
179,14.65218734741211,1069.7135384589021,951.7738201480726,2119.6576030662977,-187.63767338324897,0.0,1.8682101374564561,0.1,0.05297255516052246,1.2035109996795654,0.050746728,0.05849547,1037.0069194336909,2.0506568068582953,5.323559192488954,0.0,19200,3.11165714263916,0.01740694835106385,0.009490337464948938,71.48588881072553,0.0
180,10.237497806549072,1259.99985123808,911.4172258532686,2112.2349586253617,-203.85558729619206,0.0,1.8688434102325133,0.1,0.02744007110595703,0.8817346096038818,0.050688803,0.04627941,1059.30621261413,2.3287815691706104,6.272092257169554,0.0,19200,5.417922258377075,0.01125175268875751,0.006011782287935212,-239.55974515754315,0.0
181,9.957056045532227,1047.5005119338005,957.4690604959605,2089.527052776847,-176.49759817465383,0.0,1.9894223425508282,0.1,0.036312103271484375,1.1889348030090332,0.049645588,0.055895366,1058.125642546097,2.0179921920049253,5.210100887984795,0.0,19200,6.115807056427002,0.013594578900277852,0.009421841375786154,-269.79327293668644,0.0
182,11.196255445480347,1090.1876129055124,1025.5042538855744,2115.722680539594,-2471.1837244941225,0.0,1.8798628290274892,0.1,0.028040647506713867,0.8613779544830322,0.050461374,0.047426168,1061.3318395820386,2.109715041810548,5.42416062396216,0.0,19200,8.65984582901001,0.04771087355149019,0.021832792900627975,-67.63272491845132,0.0
183,14.12729024887085,1080.602759035967,927.3225099485176,2086.6195736494747,-201.1729056532146,0.0,1.8458231736777635,0.1,0.044669389724731445,1.3287522792816162,0.04995141,0.053209104,1063.2589315274315,2.063006721579356,5.376541492666841,0.0,19200,2.8480896949768066,0.016753353610935367,0.00775674325945803,41.575069597361306,0.0
184,14.312920570373535,1121.765337605826,949.1796451804814,2112.9200761610186,-244.91485170333428,0.0,1.7763002727264923,0.1,0.02604079246520996,1.7947258949279785,0.049644418,0.06282826,1069.109572135271,2.126269587903652,5.5815217342849595,0.0,19200,4.480222225189209,0.010639262496389605,0.007202849559933022,-439.6455057960384,0.0
185,11.287794828414917,1141.5364567046597,917.0313662512294,2094.3499818338883,-160.56451703927092,0.0,1.7520722101242832,0.1,0.04486656188964844,1.0356602668762207,0.04976982,0.0514465,1076.3522605922099,2.1348593968985035,5.680622937835658,0.0,19200,9.688860177993774,0.007417833005009553,0.004711408001395969,-1221.53161510288,0.0
186,8.086751699447632,1127.2890727782333,921.5327691998706,2098.711115945361,-162.42604398869693,0.0,1.8639348437884191,0.1,0.0375056266784668,1.0226032733917236,0.049325347,0.04564928,1081.4459418108122,2.1370617556281353,5.609334584863347,0.0,19200,3.637251615524292,0.008358388162821306,0.00595799697753354,-1224.7787209041617,0.0
187,10.553099870681763,1201.6506558784304,881.3427841274865,2088.161765118084,-175.0851859209442,0.0,2.039856510399394,0.1,0.032918453216552734,1.0530292987823486,0.0501071,0.046560854,1093.466413217574,2.243179151958554,5.981266510571889,0.0,19200,5.231403112411499,0.009265012926425453,0.006319317494918725,-1287.9645155067906,0.0
188,14.428227424621582,1020.140502673739,956.6250403590997,2103.4191137680523,-232.9590602914986,0.0,1.9986919788798543,0.1,0.04173088073730469,1.3682160377502441,0.05014488,0.03881775,1086.1338221631904,1.9718701554337421,5.074210343241641,0.0,19200,6.3848114013671875,0.014659408335710836,0.0097663778520458,-1236.3070892118094,0.0
189,9.501182079315186,1200.2534647490627,922.7513179961766,2089.2500759805534,-364.90755246744493,0.0,1.960079549420278,0.1,0.08326148986816406,1.3289306163787842,0.051641084,0.04765037,1097.5457864217776,2.219652813194021,5.973539525709685,0.0,19200,3.930842399597168,0.008144249035037483,0.005379887578247447,-1347.3492781799732,0.0
190,8.961179494857788,1029.316294627634,916.3191362116673,2059.675240484603,-288.82421996069917,0.0,2.0038570291818654,0.1,0.027497053146362305,0.7423787117004395,0.049593303,0.05055186,1090.7228372423633,1.9817183068958937,5.118071964857869,0.0,19200,3.695505380630493,0.015374319200519631,0.009251809720658331,-905.8959640658508,0.0
191,8.714035511016846,983.2870304472644,939.9488332757668,2057.4252168400776,-217.13932297274067,0.0,1.8839358617024569,0.1,0.020227432250976562,0.6527740955352783,0.050248135,0.04739535,1079.9792565628534,1.9029129258079103,4.890440259274086,0.0,19200,3.4174859523773193,0.0145251919362678,0.008217045625836859,-753.9913426880489,0.0
192,7.111070394515991,1095.1761108919854,943.0902347140832,2084.037606709484,-408.79329308479527,0.0,1.8792979032896167,0.1,0.020395278930664062,0.6684794425964355,0.050589398,0.052797507,1081.4989419957665,2.0607990478364147,5.449105901312436,0.0,19200,3.5644912719726562,0.010200598509206254,0.006285003212430505,-1170.3785765022847,0.0
193,7.463845491409302,1022.407918338558,992.8271397240899,2103.472987025931,-590.2505440341674,0.0,1.9122419006012985,0.1,0.03523659706115723,0.9474122524261475,0.05020274,0.04809693,1075.5898396300456,1.9386215053977143,5.085683650761647,0.0,19200,7.904562950134277,0.006271600520548412,0.004205782581100185,-1000.1400284714343,0.0
194,11.884298086166382,1012.4954320042401,927.4035145449952,2142.07164520256,-168.3848157408218,0.0,1.839822612763729,0.1,0.07225251197814941,1.6449615955352783,0.04966949,0.053420246,1069.2803988674652,1.9728827465302352,5.0358945050843005,0.0,19200,4.0890607833862305,0.012506249533396956,0.009033125677819796,-580.810208127886,0.0
195,9.443873882293701,1250.4850202910407,888.1616701647827,2098.44778814069,-194.9572868206479,0.0,1.9607248092052043,0.1,0.03888559341430664,1.1826589107513428,0.05000974,0.041630246,1087.4008610098228,2.318189621504431,6.225028064345221,0.0,19200,3.897306203842163,0.013786722387908791,0.010898539950233857,-196.8293614706177,0.0
196,7.6174476146698,1100.075137090071,901.7962158792562,2114.6500021072975,-196.3879086076191,0.0,1.7861090683687655,0.1,0.034204959869384766,0.8196911811828613,0.04981441,0.054545898,1088.6682886178478,2.117397229540467,5.472547534793335,0.0,19200,3.8826844692230225,0.012069537129569582,0.009506231750982735,29.406559174255904,0.0
197,15.47269082069397,1006.9377155220444,959.793890897311,2104.516879830118,-159.70954756270845,0.0,1.6830013066627967,0.1,0.05272173881530762,1.1682655811309814,0.049105972,0.04766207,1080.4952313082676,1.9528326309183264,5.006110617018496,0.0,19200,4.245009422302246,0.00964129461488711,0.006587985545805029,-784.5931829180943,0.0
198,13.373338460922241,1004.007328389257,984.1206487577974,2088.9601027382264,-254.60622780683434,0.0,2.0313673963192356,0.1,0.04581952095031738,1.3048837184906006,0.050018106,0.04430545,1072.8464410163665,1.9174662549417263,4.993210383623949,0.0,19200,7.707303047180176,0.008713882202588617,0.004947934344030066,-520.3969620809806,0.0
199,10.137408256530762,1117.455699120972,914.3661751977868,2143.885289853685,-188.63716635674118,0.0,1.806551455364678,0.1,0.046491384506225586,0.7854697704315186,0.05030679,0.0536197,1077.307366826827,2.1266148477782516,5.559659700430648,0.0,19200,4.021193981170654,0.01154636768116208,0.008009870355602336,-172.54178549665573,0.0
200,10.235835075378418,1135.0797260515556,905.5498706900411,2057.4765164450255,-205.80457527431588,0.0,1.8057794222954358,0.1,0.04017376899719238,1.5292623043060303,0.050420217,0.07311511,1083.0846027492998,2.1548689188710513,5.64806706310257,0.0,19200,6.5607335567474365,0.009141957412721115,0.00565949817762101,-1199.3561540458231,0.0
201,10.249867916107178,977.6514666081763,952.7528130714527,2137.286989467503,-384.4703169111081,0.0,1.8397323714048646,0.1,0.03960061073303223,1.2531323432922363,0.050428834,0.047152225,1072.5412891351875,1.9128398529885142,4.860832075469484,0.0,19200,7.5232861042022705,0.009570036261820656,0.006935636526226062,-961.7068554645177,0.0
202,13.053896188735962,1047.6575085893355,947.8251149359025,2054.394576527214,-244.6436361487553,0.0,1.7817141008242052,0.1,0.03773999214172363,0.8507814407348633,0.04978281,0.05909748,1070.0529110806024,2.0117477519333593,5.211480950646272,0.0,19200,3.3161826133728027,0.00850832037373446,0.0049183768246980385,-1067.8335864147637,0.0
203,8.990032196044922,1175.461578484844,928.4384135165624,2122.7398365050885,-125.56189482523142,0.0,1.8909283560838865,0.1,0.04091358184814453,1.3161394596099854,0.05029616,0.052865803,1080.5937778210266,2.2113307894993537,5.849523266918093,0.0,19200,3.156627893447876,0.007615190765018239,0.005492380939071664,-1663.6768196378537,0.0
204,8.767714977264404,996.7871041994118,925.5805219977291,2097.2650953624543,-196.52013613956524,0.0,1.9693455664780612,0.1,0.05113029479980469,1.296950340270996,0.049329553,0.05620824,1072.2131104588652,1.9480928451819957,4.956645744920611,0.0,19200,7.170844554901123,0.01346629859351676,0.008814883294392244,-1092.4577796924837,0.0
205,14.794076442718506,898.3493922235548,966.478716165365,2106.8429294439857,-197.81530475764308,0.0,1.7984971421926454,0.1,0.021897554397583008,0.5560302734375,0.050229143,0.0531258,1054.826738635334,1.7932431869132612,4.466936264142818,0.0,19200,3.1159515380859375,0.011695289748599891,0.007988376342855158,-381.75909536635305,0.0
206,12.050382137298584,904.2484636712215,954.2564431835121,2113.509347694614,-121.16287436662175,0.0,1.960604072757614,0.1,0.020117759704589844,0.5276241302490234,0.050474025,0.047967326,1039.768911138923,1.8018663327393638,4.493885852044204,0.0,19200,3.215341091156006,0.013849224930532703,0.007944281039301594,-1104.012263979527,0.0
207,8.661898136138916,1268.8267447356984,899.040466861099,2117.874399947614,-186.10478842608404,0.0,1.8918973084709207,0.1,0.0382235050201416,0.744225025177002,0.049526963,0.050149277,1062.6746944986005,2.366519387348098,6.315512592624034,0.0,19200,4.215778589248657,0.009196560694112729,0.005545127585896395,-938.1218355330088,0.0
208,8.422897815704346,1109.5727944354915,900.2821210584638,2185.916135911261,-148.65526707927626,0.0,1.9569395504846174,0.1,0.017347097396850586,0.6306157112121582,0.05047877,0.044445787,1067.3645044922896,2.143714843379272,5.520927892537167,0.0,19200,3.188079595565796,0.011957577837604969,0.009321966121093832,-1325.8571312519373,0.0
209,9.482422113418579,1119.3507532996962,952.8662584945765,2124.425469900584,-166.34108507870752,0.0,2.003058820421483,0.1,0.030556201934814453,1.0252571105957031,0.050029956,0.042880148,1072.5631293730303,2.1257222113506,5.569961821562898,0.0,19200,5.516695737838745,0.011602433448596837,0.007960012706770499,-948.1320482926889,0.0
210,9.485456466674805,1054.841435386902,960.7070541008893,2139.2692090720743,-247.37703123866783,0.0,1.7414808977219718,0.1,0.03425121307373047,1.2344257831573486,0.050331593,0.07446084,1070.7909599744175,2.03632883754995,5.2468103686227865,0.0,19200,10.551406383514404,0.01156009755511151,0.005989745431560734,-1717.5307793615461,0.0
211,11.011782169342041,1015.2205592781573,965.6183276444891,2101.440026264024,-189.54618154667727,0.0,1.8203724175533649,0.1,0.03623843193054199,0.7407517433166504,0.051050626,0.04412068,1065.2339199047915,1.9712888767464183,5.047580993730265,0.0,19200,4.468770742416382,0.010524547693496802,0.006871032448021807,-1833.3143124427404,0.0
212,9.93081545829773,942.3190577379522,942.4398289436841,2119.403684789235,-209.2075826695851,0.0,1.91152660989515,0.1,0.02249932289123535,0.8638749122619629,0.048485335,0.05140291,1052.9424336881075,1.8689884662574336,4.686418074280518,0.0,19200,5.611364841461182,0.009278859386693886,0.005464577031320415,-1597.2411364619402,0.0
213,9.18278980255127,1226.942728317629,924.0217654092473,2141.7409697365547,-186.55984137239548,0.0,1.9894179427713177,0.1,0.03592085838317871,0.6613137722015381,0.05062436,0.059526525,1070.3424631510597,2.2990919098361515,6.108035613216901,0.0,19200,4.850431680679321,0.009225355814587312,0.006902698919566362,-1836.234162046406,0.0
214,13.064738750457764,960.0883613834676,948.3823032430805,2087.1822284086074,-199.92175043665273,0.0,1.9316993649403083,0.1,0.04541802406311035,1.4179606437683105,0.048709724,0.06307714,1059.3170529743006,1.848621003531998,4.774851217549537,0.0,19200,2.958146333694458,0.008777593454467495,0.006550989244956882,-1889.555661417797,0.0
215,8.595148086547852,1016.2482181571255,959.5138177085328,2174.903717226394,-150.14505805506045,0.0,1.8284408166557813,0.1,0.03049302101135254,0.6827857494354248,0.05047693,0.050545715,1055.0101694925831,1.9726182138833537,5.0550615889966615,0.0,19200,2.5305933952331543,0.00874001169440751,0.0058617136311936305,-1257.4898496796598,0.0
216,10.932413339614868,1068.6077232040466,940.646590259194,2102.2274180506174,-157.3088515080152,0.0,1.8310820562300265,0.1,0.016098499298095703,0.5450873374938965,0.049883705,0.058020655,1056.3699248637295,2.0667165963810823,5.315787639277641,0.0,19200,3.629005193710327,0.01451324838668443,0.0072687938526568895,-1140.852484608674,0.0
217,8.746822595596313,1116.8816638256756,927.7756892168079,2108.5589693400757,-333.11844442254227,0.0,1.9470038050768883,0.1,0.017965316772460938,0.7049899101257324,0.050417073,0.04540072,1062.421098759924,2.1427987576122267,5.557528308719362,0.0,19200,2.82837176322937,0.012079623403767418,0.008322983231822395,-2037.5075223752578,0.0
218,7.188364028930664,1078.6624720614004,974.5319364372426,2109.1092819612945,-171.3908537931501,0.0,1.8299206335553542,0.1,0.021343708038330078,0.5185186862945557,0.05080843,0.06644221,1064.0452360900717,2.0555068518504243,5.365844540738107,0.0,19200,2.83193302154541,0.00546987313160031,0.004196387749479836,-1627.1266974475975,0.0
219,8.62488079071045,1031.9166745122031,966.651923922712,2063.0453083401867,-216.749167734678,0.0,1.8162526170278586,0.1,0.015586137771606445,0.48547935485839844,0.04995761,0.05555834,1060.832379932285,1.9549433543575663,5.132444201805018,0.0,19200,2.946017026901245,0.008236616102774437,0.006802761823894531,-1243.1426036909143,0.0
220,8.568543910980225,1041.0827642366382,931.2569692434498,2120.447455582114,-289.64010491415456,0.0,1.8963801940550264,0.1,0.016304969787597656,0.5870604515075684,0.0496874,0.055639368,1058.8574183627202,2.0331424220543166,5.177893647855838,0.0,19200,3.1213505268096924,0.00979914521460535,0.006527891223651967,-2164.0303284913193,0.0
221,8.042093753814697,974.0753725898636,940.5099982953556,2078.7348754375635,-185.00699227694614,0.0,1.7358752068669954,0.1,0.016724348068237305,0.5360357761383057,0.04980295,0.056256097,1050.3792137854346,1.9179547628774838,4.843550391448401,0.0,19200,3.2055397033691406,0.014460875700119485,0.008970386654273391,-1686.9787018172938,0.0
222,8.373293399810791,1114.3444533981985,945.3501591829443,2104.269218518921,-132.15012061153746,0.0,1.7811524171715838,0.1,0.016170263290405273,0.5623037815093994,0.04973775,0.07345109,1056.775737746711,2.126727503965781,5.543746015711051,0.0,19200,3.2711479663848877,0.0077897394649161684,0.0042158643751437005,-866.4305968238992,0.0
223,8.385244846343994,1179.4959752007167,910.3222745663846,2103.065213445927,-228.95615275119707,0.0,1.8724637461695075,0.1,0.017996549606323242,0.5136997699737549,0.050180115,0.048910752,1069.0477614921117,2.238209644108237,5.870890925081556,0.0,19200,2.9697105884552,0.008719356892935138,0.006125579536437805,-1070.9057720718893,0.0
224,8.432631254196167,1090.5398616850443,970.7596185781586,2121.4104302490036,-200.77135483716773,0.0,1.931087628491954,0.1,0.017062902450561523,0.4731922149658203,0.05017979,0.043563306,1071.196971511405,2.0837021108667027,5.425232861991602,0.0,19200,3.0059287548065186,0.008541490156643154,0.006379703851144191,-1173.8421535797795,0.0
225,8.516847372055054,1155.467618863731,958.3215019417016,2114.5482742146,-257.8592891470779,0.0,1.8215567207247483,0.1,0.013860940933227539,0.42754316329956055,0.049224995,0.06410028,1079.6240362466376,2.1938962874442947,5.750225235595313,0.0,19200,3.0618202686309814,0.007152543052327621,0.004819227114577849,-1083.8437545590343,0.0
226,8.355385780334473,1134.4004383506015,948.4182254783925,2083.90877409809,-201.68794825314396,0.0,1.8697495690357304,0.1,0.02081775665283203,0.5744869709014893,0.049945947,0.0562966,1085.101676457034,2.126508134758335,5.645433568606555,0.0,19200,3.173344135284424,0.009383344806539207,0.004665561919042516,-152.3045730677594,0.0
227,8.466631174087524,886.3682302298135,979.0684008714011,2145.0450901246313,-217.1889487033858,0.0,1.78594161265447,0.1,0.01578545570373535,0.569584846496582,0.049252395,0.10799553,1065.228331834312,1.7975719996795778,4.406025315160222,0.0,19200,3.4773991107940674,0.013010890314694594,0.009020886613511572,-186.7811839734684,0.0
228,8.324759483337402,1115.9021018919466,965.6782139868394,2166.659948715299,-630.4608311265434,0.0,2.0220101948594973,0.1,0.01999378204345703,0.5348024368286133,0.049585193,0.04087406,1070.2957088400756,2.1237879948818996,5.552688844858821,0.0,19200,3.126291513442993,0.017778173199922795,0.011291468126431272,-595.9689134219252,0.0
229,7.880091190338135,1198.0863617489556,954.007977188039,2149.697719459804,-306.4054470019416,0.0,1.9404705158849398,0.1,0.0166318416595459,0.5128793716430664,0.050172817,0.058752492,1083.0747741309635,2.223001994525831,5.962746674129678,0.0,19200,3.2799408435821533,0.007490573141877356,0.005042391522458393,-874.6063228747107,0.0
230,7.806992053985596,1196.2140309036295,930.7226457388008,2131.4679777867154,-232.5328521887202,0.0,1.8698858866703478,0.1,0.01735687255859375,0.5828320980072021,0.049565956,0.062646,1094.3886998082303,2.2739769128410643,5.952418701576178,0.0,19200,3.142955780029297,0.011256344889124094,0.007609110873521132,-972.5160119646719,0.0
231,8.724499940872192,1159.1180054416984,948.1666718034226,2133.5702249366927,-169.34758241674822,0.0,1.7094248199696058,0.1,0.016393423080444336,0.46254682540893555,0.049696226,0.069648944,1100.8616303715771,2.1772911843863496,5.767266977732732,0.0,19200,2.9736649990081787,0.008080770501713923,0.005211235531383601,-1368.3207798138387,0.0
232,8.75145435333252,1096.5302221366035,962.0521410648374,2176.0150566901693,-413.65911883920086,0.0,1.7407665422445997,0.1,0.01808786392211914,0.5981650352478027,0.051080007,0.04718067,1100.4284895480798,2.082689811041271,5.454183515844558,0.0,19200,3.313826084136963,0.011641084583093573,0.006540249593640644,-1722.9590808066587,0.0
233,8.550270795822144,955.1435564141557,943.9572057225901,2108.516448775199,-157.58492873958187,0.0,1.716923769694979,0.1,0.01666116714477539,0.6307380199432373,0.049765676,0.050187036,1085.8999962346875,1.8568293119951378,4.748936971484752,0.0,19200,3.0003888607025146,0.009079055779499946,0.005993580548518178,-1498.3260405114283,0.0
234,8.033603429794312,1271.23426803624,911.5248654890914,2194.5196915502065,-185.17648533623785,0.0,1.7189620683595221,0.1,0.014264583587646484,0.4776921272277832,0.050003275,0.05401786,1104.4334234148428,2.3398955041699345,6.328601676431479,0.0,19200,3.032930374145508,0.009561391128177632,0.0074784326873112246,-2438.4859272495187,0.0
235,8.14778470993042,1163.8112143815051,926.8057893019078,2132.048103721621,-426.1588373734709,0.0,1.6931120943134683,0.1,0.014549970626831055,0.4737086296081543,0.049780272,0.05184556,1110.371202511509,2.220694577767624,5.791119214304351,0.0,19200,2.9497954845428467,0.009973062811301576,0.006609256342328691,-2486.9918176943434,0.0
236,8.93486762046814,1212.9545803561184,931.2284109722439,2158.795578865643,-157.65181025362313,0.0,1.7813509570161399,0.1,0.014018058776855469,0.48906970024108887,0.05085784,0.04828651,1120.62954029597,2.2864619053544,6.03441087394516,0.0,19200,3.7856197357177734,0.008150902452970477,0.005679325210395382,-2451.1378157181753,0.0
237,8.842092037200928,1206.3871565351744,922.1934472746813,2127.585069644925,-223.1482822538385,0.0,1.8067160979334143,0.1,0.015859127044677734,0.5204522609710693,0.050049532,0.052485693,1129.2053019198904,2.257617007168196,6.003936919729202,0.0,19200,3.2616491317749023,0.009497371912640894,0.007349249465028996,-961.4732300793848,0.0
238,7.803900718688965,957.6236896149359,993.7240157037771,2150.804751103234,-199.07000588307955,0.0,1.7602514193723824,0.1,0.01887369155883789,0.4903383255004883,0.049517814,0.04900788,1112.047140689395,1.8763150834792997,4.761921522553508,0.0,19200,3.1571905612945557,0.004971359411110921,0.0028452884437001336,-1175.643963066493,0.0
239,8.635005474090576,1182.8260306493285,944.3968623618678,2184.025014272717,-167.98056664401494,0.0,1.8077090807175358,0.1,0.017219066619873047,0.545447587966919,0.04938478,0.056693293,1119.1250296853884,2.212093420223987,5.885700464550008,0.0,19200,3.0362331867218018,0.008284854052522042,0.00478442704357478,-1441.8525751048583,0.0
240,8.054133653640747,1221.6999812886713,916.3444372877432,2117.8844357489684,-144.1717696422537,0.0,1.8534433546594877,0.1,0.0176849365234375,0.5533020496368408,0.04942507,0.06277022,1129.3825248457167,2.278557963803737,6.081633592785582,0.0,19200,3.6421029567718506,0.007887630649941793,0.004406821061593925,-1644.3078105947595,0.0
241,8.337646484375,1113.4973379052785,949.5262272697346,2158.8270961888416,-140.55414995253207,0.0,1.6739533475174098,0.1,0.016744136810302734,0.5574719905853271,0.05021787,0.063932754,1127.7940061516729,2.1299534174244674,5.539561585504651,0.0,19200,3.1677916049957275,0.011320704782901762,0.008316943343074625,-1860.0107310543822,0.0
242,8.556117296218872,1205.5561843750831,957.3045905696113,2138.1966237874667,-166.0051353554422,0.0,2.045985296825793,0.1,0.037740230560302734,0.5792286396026611,0.050308835,0.035038754,1135.570223974014,2.23135090060903,5.998088853766123,0.0,19200,3.463350772857666,0.00760924091835254,0.0043623500941874956,-1586.3052911217696,0.0
243,8.119947671890259,1178.9808501780992,903.6900737071784,2068.0954546073876,-141.85570806784068,0.0,1.8267750971629817,0.1,0.023281574249267578,0.9555509090423584,0.049122576,0.05078147,1139.9112865944226,2.2032682804375168,5.868085865901466,0.0,19200,3.053420305252075,0.015563477068764093,0.009588213976261245,-282.7469501428243,0.0
244,8.533512353897095,1212.5690654404555,915.3686164146447,2138.653170533733,-179.3776927053853,0.0,1.7146302085239211,0.1,0.01571369171142578,0.5884268283843994,0.049940098,0.06158713,1147.1770644790258,2.2775052031714016,6.036314316112398,0.0,19200,3.301004409790039,0.016078413244103636,0.010936033535365194,-692.3579461815764,0.0
245,8.503361940383911,1084.3065133243545,934.6528032320116,2111.5061522272767,-256.69397885210174,0.0,1.777610729097676,0.1,0.018497705459594727,0.5581400394439697,0.050355982,0.05639424,1140.8900093635586,2.063866488768452,5.394124130882162,0.0,19200,3.0671682357788086,0.016331734889359316,0.011254198461637862,-752.0720299376557,0.0
246,8.476940393447876,1263.0597102675613,900.9963773908439,2092.2210923103385,-379.1633660372765,0.0,1.7663832272445252,0.1,0.01817798614501953,0.5472652912139893,0.050070275,0.05278942,1153.106979453959,2.335757405599296,6.289350278772949,0.0,19200,3.2452127933502197,0.013287694189461376,0.00991595334069368,-1275.9122075481978,0.0
247,8.715611219406128,1110.6317803841775,968.4712570330295,2164.380171598991,-168.0119686246107,0.0,1.6573968966592385,0.1,0.02455282211303711,0.4988212585449219,0.04977741,0.050386216,1148.859459546981,2.1034076261634196,5.524523054636732,0.0,19200,3.374485492706299,0.008197856147526182,0.005461933698050916,-1629.7583165600065,0.0
248,8.483620882034302,1023.0297021737106,924.7825173273419,2101.479368892427,-186.4351665060251,0.0,1.9356327642675843,0.1,0.016983509063720703,0.6029009819030762,0.050179016,0.057043362,1136.2764838096539,1.9848471308796831,5.089169934571699,0.0,19200,3.055053472518921,0.013943019986041636,0.007803012253474243,-1962.337505091109,0.0
249,8.348584413528442,1087.1675173995088,945.3377050586668,2129.1952452095625,-204.6509675355915,0.0,1.7970478251570376,0.1,0.017809391021728516,0.5917308330535889,0.049844865,0.043466404,1131.3655871686394,2.0872975849100626,5.408068573507204,0.0,19200,3.2730712890625,0.012521814115299425,0.008003997817930108,-2034.373449801953,0.0
250,8.480733871459961,1227.4727319154802,913.5787620203786,2084.882802560062,-216.96275019368863,0.0,1.6925269420177322,0.1,0.012634038925170898,0.47414398193359375,0.049944106,0.09177435,1140.9763016433235,2.281956469260775,6.108180081857597,0.0,19200,3.2036828994750977,0.006864799365875793,0.005433763370711721,-1975.1523293696537,0.0
251,8.569079875946045,1152.852005580901,914.6946024755287,2191.9308550836413,-223.40994089438325,0.0,1.7018598287126778,0.1,0.016369104385375977,0.4297826290130615,0.04991842,0.0526036,1142.1638720370813,2.1963939922426707,5.735955098574014,0.0,19200,3.3562543392181396,0.012052557564240552,0.010097741619680549,-2419.934704613175,0.0
252,8.168544292449951,1101.9506123610065,969.6653260338429,2148.636229831495,-176.13858777994088,0.0,1.7031172148918794,0.1,0.016257524490356445,0.5080716609954834,0.049300637,0.14397417,1138.1425460694738,2.0892571746700797,5.482350762268756,0.0,19200,3.172250986099243,0.004292279615717649,0.0025991735277920073,-2207.617391865842,0.0
253,8.658856868743896,1106.2866090397604,973.1139745456969,2147.0253766426936,-182.35907545700854,0.0,1.8178612698384793,0.1,0.025175094604492188,0.5723631381988525,0.050403107,0.07261816,1134.9569523665025,2.1166124988420094,5.504512893242737,0.0,19200,3.180213451385498,0.0056300055649947745,0.004121057305513422,-2591.773766947847,0.0
254,8.739692687988281,1206.9020526198535,934.4756926160467,2175.122468774068,-129.75996671558622,0.0,1.7939426235202647,0.1,0.018614768981933594,0.5419445037841797,0.049895857,0.04836005,1142.1514623918376,2.2769659081581914,6.006835897904982,0.0,19200,3.2531888484954834,0.010610668180472625,0.0068459823831351204,-2259.5348920639944,0.0
255,8.320260763168335,1240.456542263427,946.9265603403869,2167.939247565966,-191.93776699118231,0.0,1.8299872932723031,0.1,0.017611265182495117,0.7576823234558105,0.05009351,0.041578244,1151.9819703789967,2.3379881140777066,6.173698829130212,0.0,19200,3.161229133605957,0.011223382725604305,0.006719394957271809,-2294.429182752101,0.0
256,8.498038530349731,1043.1580920811018,942.3970737073051,2168.6494371510594,-174.57854859104214,0.0,2.139795045817637,0.1,0.02626323699951172,0.5606441497802734,0.05068544,0.04065353,1141.0995825492073,2.0309580770800015,5.1877627740057655,0.0,19200,3.075589895248413,0.012408105127443184,0.008017189438794228,-1663.1726071112478,0.0
257,8.420958757400513,1061.7762475182303,962.1118932841001,2157.7306397560737,-145.41266081960094,0.0,1.803602067038937,0.1,0.021388769149780273,0.5530490875244141,0.04977702,0.041406468,1133.1672490461096,2.039354626254219,5.281145772263035,0.0,19200,3.0708465576171875,0.01074738112028608,0.005611723066623554,-2461.8845867767086,0.0
258,8.919044733047485,1360.436006427447,929.8134521345864,2166.250196509196,-206.41756693334602,0.0,1.6893899991081003,0.1,0.017750024795532227,0.5311295986175537,0.05057869,0.062490273,1155.8941247842433,2.52282039163623,6.774079034624222,0.0,19200,3.055881977081299,0.008732007350924777,0.004205656590580299,-2421.529583358105,0.0
259,8.263727188110352,1047.89121825791,983.3351955299376,2183.207869608678,-286.2579930803674,0.0,1.8303330932899544,0.1,0.016659259796142578,0.5268650054931641,0.050700624,0.0532905,1145.09383413161,2.0031199039241714,5.212639387690303,0.0,19200,3.46138858795166,0.015595570470991348,0.008547551982151782,-2350.91989524799,0.0
260,8.780255556106567,1133.0596571201072,936.6138954366962,2116.038530592012,-238.14698844848184,0.0,1.703466983725739,0.1,0.017910242080688477,0.6436069011688232,0.04956502,0.059447143,1143.8904164304597,2.1424142841075935,5.637373653827321,0.0,19200,2.839836597442627,0.013707561435867979,0.009491290303749856,-2485.431221545146,0.0
261,8.561630725860596,1126.7731836316646,940.9028467608139,2146.331832080067,-332.7585216356934,0.0,1.8589066186496992,0.1,0.01439666748046875,0.508251428604126,0.04975041,0.05029293,1142.1786931505803,2.116685093267098,5.606482253378521,0.0,19200,3.048988103866577,0.011324547117002195,0.008707947538892404,-2713.0586757473275,0.0
262,8.479988098144531,1207.4866834006987,897.2150743094764,2125.661741122351,-336.7915187471322,0.0,1.9379618658984354,0.1,0.016338825225830078,0.5439841747283936,0.050222497,0.043213736,1148.7094921755922,2.261722725563873,6.010313710139407,0.0,19200,2.8829433917999268,0.015026920009617068,0.01211746369237788,-2665.581654004268,0.0
263,7.743499279022217,1308.5438424935844,907.7022737094501,2141.4831096189982,-565.2835669822733,0.0,1.7854084665065149,0.1,0.026902198791503906,0.49560022354125977,0.04996827,0.06144399,1164.6929272073914,2.3717034536953623,6.515332372944573,0.0,19200,2.94942045211792,0.007202142295244291,0.003991720170666697,-1956.3593682319924,0.0
264,8.713050842285156,1091.2052452646878,994.1005858722615,2143.714870953742,-241.46482010176058,0.0,1.8268565176252272,0.1,0.022365570068359375,0.6276490688323975,0.050568566,0.05823801,1157.344159013121,2.0836091176469136,5.428884948242666,0.0,19200,3.3850014209747314,0.007846722697211718,0.005037617307391773,-1347.6056623010638,0.0
265,8.649986505508423,1212.8485688786732,944.8591922338813,2125.742610999295,-1530.7443179830634,0.0,1.628635713723096,0.1,0.022882461547851562,0.5802340507507324,0.050318625,0.060134638,1162.8945999996763,2.2928728356776458,6.036445266007906,0.0,19200,3.0179178714752197,0.02226379975253487,0.011579888245637935,-1891.1315858814849,0.0
266,8.662822246551514,1235.3264278168492,906.0332552764455,2163.8718583410146,-170.42634600677079,0.0,1.8991696277809753,0.1,0.018570423126220703,0.4469602108001709,0.04988519,0.05523292,1170.1377827813935,2.294929737211829,6.149613774946069,0.0,19200,2.8658933639526367,0.008034845858880764,0.005822368026175574,-1488.1177823486237,0.0
267,8.522946119308472,1298.9913671834831,855.1632898212703,2092.299309485013,-178.105813437637,0.0,1.7296584386933747,0.1,0.020433664321899414,0.5567219257354736,0.05046731,0.048959486,1183.0231412216024,2.388789459440435,6.465975987882989,0.0,19200,2.9711532592773438,0.007487701269906854,0.005063318165320753,-617.8449252258034,0.0
268,7.922600746154785,1178.3781554758218,922.1113730195152,2107.886095122623,-208.74681568346807,0.0,1.6206762017708873,0.1,0.014100790023803711,0.42398905754089355,0.049730323,0.07129476,1182.5586426470245,2.22165802714917,5.864412346487441,0.0,19200,2.9289474487304688,0.010566142166483078,0.007562675246416797,-656.4110761691659,0.0
269,7.44571590423584,1308.1733236701286,880.7916133534702,2095.2118234395243,-167.78896641255068,0.0,1.9222830181998716,0.1,0.01927328109741211,0.6412367820739746,0.050462786,0.055827305,1195.1201107493348,2.393098881976932,6.513118720517468,0.0,19200,3.0285680294036865,0.007979706896445407,0.005710432875097411,-735.8510836772401,0.0
270,7.820564270019531,1275.5844647911492,863.1352388485125,2158.827404392053,-417.79563096327473,0.0,1.7072896928435441,0.1,0.01738762855529785,0.48522496223449707,0.049951177,0.057021916,1203.1665461535163,2.3694005616671276,6.349835766324721,0.0,19200,3.723302125930786,0.01074877985606076,0.007221517776650069,-964.8530459708365,0.0
271,8.53390121459961,1208.6884304456873,917.6577321802847,2110.765423564158,-437.61792256786185,0.0,1.8721662995790702,0.1,0.017445087432861328,0.4738011360168457,0.050507035,0.048324723,1203.7187345827333,2.2884405042630624,6.017212069161385,0.0,19200,2.887014150619507,0.019258352104200127,0.011839418110149564,-923.8282151302283,0.0
272,8.543408155441284,1132.2643574472993,906.8371246211649,2126.990133756076,-356.5409865481391,0.0,2.0263548491656445,0.1,0.022458791732788086,0.5752935409545898,0.049737435,0.045479994,1196.57329686919,2.1831206833950065,5.634298213699483,0.0,19200,3.0103256702423096,0.02247064216154163,0.01475755132697398,-1190.260143921666,0.0
273,8.39626169204712,1151.4917821343136,959.7106343432774,2133.3819020669935,-222.0316545522004,0.0,1.9211968408111773,0.1,0.016955137252807617,0.6393270492553711,0.05059295,0.045606606,1192.0651453957025,2.18142966828065,5.727253975619656,0.0,19200,3.1215810775756836,0.009963619951452923,0.007007076343963724,-1525.3196078188503,0.0
274,8.514037370681763,1120.7835051397158,981.8764683328626,2128.452341770843,-2404.392817162509,0.0,1.8610735648986994,0.1,0.016180038452148438,0.5204989910125732,0.050100174,0.047181938,1184.936981370104,2.1888509392423177,5.580795365166062,0.0,19200,3.5078847408294678,0.06073817483584307,0.034964640051888526,-1272.2409648135963,0.0
275,8.902747869491577,1102.7908086637492,947.7276205368387,2125.4855993562905,-159.33628490715626,0.0,1.9437477337664042,0.1,0.016750097274780273,0.5267360210418701,0.050576173,0.051695865,1176.7223640994685,2.10719301118115,5.487700910674278,0.0,19200,3.1398379802703857,0.016912086922650064,0.007407049774715618,-1209.7572825484692,0.0
276,8.573773860931396,1184.3476573346907,905.0805541071167,2125.30626160632,-175.44816585614413,0.0,1.857419156164019,0.1,0.017040729522705078,0.5359659194946289,0.050134588,0.059298523,1177.4848934229906,2.2144190473684575,5.894759837596467,0.0,19200,3.084821939468384,0.008933651539755519,0.004843036689954305,-1445.1275602040835,0.0
277,8.397570133209229,1316.8019469299372,890.6580734235836,2131.3948687566017,-144.22214926974874,0.0,1.6097285955237315,0.1,0.021266460418701172,0.6746327877044678,0.049580958,0.045890898,1191.416598773685,2.446252806952136,6.555898562624993,0.0,19200,3.264439582824707,0.008891369419970154,0.005863196327697046,-1505.5757306203427,0.0
278,7.143686056137085,1042.9536060544342,967.0029479527207,2182.8550686710337,-231.04982377446035,0.0,1.856210322278444,0.1,0.01696944236755371,0.5435528755187988,0.049507525,0.057639066,1176.57029950176,2.0387080818406083,5.186894886848461,0.0,19200,3.5027222633361816,0.00845600325276667,0.006135232128412525,-1746.4498272170454,0.0
279,8.359037160873413,1182.5341169897047,909.6932922630682,2119.4812191112514,-122.44643458792336,0.0,1.9472850755293727,0.1,0.023801088333129883,0.512556791305542,0.04924551,0.043704797,1177.1666812505546,2.247188095916311,5.885754405182724,0.0,19200,3.0339834690093994,0.009814465941237659,0.007241492691218187,-1195.7741140869732,0.0
280,7.971126317977905,1152.0708617578714,939.0059618227874,2168.8001434478792,-161.98518535561126,0.0,1.8318108153528854,0.1,0.01364445686340332,0.44045257568359375,0.050291546,0.047366846,1174.6570993012865,2.1907110157021075,5.732363593024396,0.0,19200,2.9959559440612793,0.006404195754595925,0.004560464455993444,-1880.245377422038,0.0
281,8.831400394439697,1061.4690952632452,936.8922617355615,2116.0735538654603,-289.00278148771457,0.0,1.7929684382343243,0.1,0.016492366790771484,0.5878145694732666,0.049843304,0.04464417,1163.3382988974822,2.045249299007214,5.277733768565914,0.0,19200,2.991123676300049,0.012633886392061955,0.009644252525589637,-1419.2509994108489,0.0
282,8.343293190002441,1188.1119174091357,943.0483092422411,2170.7728219232904,-417.5625101032927,0.0,1.8894114390960952,0.1,0.01645064353942871,0.5232431888580322,0.05011956,0.052929312,1165.8156607486476,2.2238539427804898,5.910807678409166,0.0,19200,3.3282618522644043,0.009005643761535774,0.006248204304580201,-2397.021458026322,0.0
283,8.5396568775177,1006.917043335747,934.6342495220138,2156.745878762647,-264.0066031020743,0.0,1.955525128011173,0.1,0.023147106170654297,0.623619556427002,0.050026618,0.05367726,1149.9257990073577,1.9563784024097277,5.0060043572023165,0.0,19200,3.33305025100708,0.00988052277862492,0.006437673233585222,-1352.1173795786913,0.0
284,8.655771493911743,1124.4061768171066,950.9787770255656,2119.7767609547373,-164.41963966108474,0.0,1.7265780177658212,0.1,0.0190279483795166,0.6256003379821777,0.04982023,0.07025244,1147.3738367883325,2.1306884752649187,5.59566436236391,0.0,19200,3.156846761703491,0.00557316281127091,0.0026966498895710286,-1256.639291674122,0.0
285,8.673264026641846,1050.6551216790458,943.7223237181499,2123.498724655871,-949.0372937099876,0.0,1.7961103413146862,0.1,0.016054630279541016,0.5954852104187012,0.05000471,0.045992315,1137.701965277404,2.020081339232832,5.226029108330541,0.0,19200,3.3149571418762207,0.024843621537038934,0.014283691226051198,-1805.343271427579,0.0
286,8.454465866088867,1269.5147248977164,913.213561414131,2129.0633293935043,-222.16311436578442,0.0,1.882333760056824,0.1,0.020917892456054688,0.5068092346191406,0.049608126,0.051304482,1150.8832412394354,2.3764053919030443,6.32062717379915,0.0,19200,2.920125961303711,0.008169717019646127,0.0046675371949086615,-2121.560109133293,0.0
287,8.616269588470459,969.4617755231417,979.7509086953928,2122.78550444898,-251.06293366564526,0.0,1.689723289118189,0.1,0.016221046447753906,0.5424938201904297,0.04923682,0.042500176,1132.741094667806,1.8973772700667195,4.820838504867287,0.0,19200,3.1570591926574707,0.009784177767201387,0.0064011031433791775,-1612.3042095047524,0.0
288,8.821425437927246,1105.9236401558583,964.1130467558213,2170.923880168527,-292.609106105155,0.0,1.6703378598213579,0.1,0.023363590240478516,0.5752778053283691,0.049705323,0.068970785,1130.0593492166113,2.1115853970942915,5.503023730189462,0.0,19200,3.1855456829071045,0.005260392737860243,0.0038231785045686,-1321.7129529585222,0.0
289,8.812043190002441,1059.9872822505351,955.4044971543548,2152.767296641582,-208.76126189203097,0.0,1.8407298233232885,0.1,0.017518997192382812,0.5720326900482178,0.050164863,0.0556367,1123.0521425200036,2.0391499924944814,5.2724653987498655,0.0,19200,3.096652030944824,0.02185968145798722,0.010893254159532234,-1817.3403705461237,0.0
290,8.799187421798706,1244.5925595941692,895.6353952370822,2112.652188106918,-440.10850785564656,0.0,1.9341222184420472,0.1,0.02950596809387207,0.4955465793609619,0.05010491,0.044290327,1135.2061842274202,2.3483066673879613,6.194364142801728,0.0,19200,3.6963248252868652,0.01566235508976547,0.00934218584617664,-1442.4270662379931,0.0
291,8.269817113876343,1207.383217611581,915.0145605075413,2140.8031268055734,-264.00598623756673,0.0,2.1160409979681685,0.1,0.01671910285949707,0.5277893543243408,0.049464725,0.042797297,1142.4238875658361,2.2705956285443354,6.0087151863688675,0.0,19200,2.9478914737701416,0.010427635171607264,0.006333062252145036,-1612.376352546233,0.0
292,8.592989683151245,986.4165852360646,967.3988836535176,2147.0187401711178,-215.8136424378049,0.0,1.8725716101615966,0.1,0.02454209327697754,0.5278313159942627,0.05042622,0.042447917,1126.8231573328592,1.9400565516143689,4.906910453370315,0.0,19200,2.8457162380218506,0.007948260554141235,0.0042827438697397935,-2025.1877550344502,0.0
293,8.461529016494751,1186.2693928828478,906.988816676765,2146.691302255727,-181.07844507622647,0.0,1.8316365274281985,0.1,0.013226747512817383,0.5037095546722412,0.049718805,0.049564973,1132.767780887858,2.257819166134583,5.9032879828559075,0.0,19200,2.816851854324341,0.014557908242840263,0.008751473295985029,-2785.9911852493497,0.0
294,9.083022117614746,1051.9335196858856,977.7707643651939,2134.942856184013,-589.3593738736622,0.0,2.0077395651983907,0.1,0.01242375373840332,0.4914729595184326,0.049225077,0.043941002,1124.6843547676608,2.0379053124444657,5.234386420742619,0.0,19200,3.647657871246338,0.010820003174799904,0.006333500224951343,-2438.753406533405,0.0
295,8.221901416778564,919.1051893339474,985.760972690228,2146.242692840479,-710.854576190658,0.0,1.960919508606469,0.1,0.01971888542175293,0.6610517501831055,0.049795747,0.052898314,1104.1264382242894,1.812322313210224,4.570414522138915,0.0,19200,3.041384696960449,0.014679961805763753,0.008608644380939449,-2355.511914067647,0.0
296,10.077871799468994,1334.403683739734,896.6145143447079,2119.190417515405,-149.0645902638969,0.0,1.869942882246217,0.1,0.015842914581298828,0.4727187156677246,0.050320294,0.061146807,1127.1541627758338,2.4539056911179458,6.643764092182262,0.0,19200,5.048495531082153,0.007421982890350644,0.0037349958034521872,-2339.4439007105193,0.0
297,8.607558012008667,1067.6410540858678,981.7716618379632,2132.325435034354,-587.8409858266882,0.0,1.748928988993315,0.1,0.03128385543823242,0.8174479007720947,0.050192177,0.06133821,1121.2028519068372,2.0357203333475353,5.311299421785981,0.0,19200,3.4903616905212402,0.010440419890265692,0.0066362259577121005,-1575.1830003902326,0.0
298,8.871322870254517,1223.9963767277775,923.4866843669031,2105.288104161032,-266.39185976993934,0.0,1.7934185591978402,0.1,0.02955317497253418,0.661785364151001,0.04971873,0.08313528,1131.4822043889312,2.297229064406862,6.0927963496162905,0.0,19200,3.4516968727111816,0.012154794866333677,0.007143410601725924,-2324.171292163701,0.0
299,8.979125261306763,1203.8012994355904,931.678271595071,2177.728347419529,-159.15085484407695,0.0,1.6832201376832288,0.1,0.023543119430541992,0.6868133544921875,0.05030026,0.04550774,1138.7141138935972,2.278539912454446,5.990944157605923,0.0,19200,2.421182632446289,0.009875671887687626,0.00665477484908677,-2341.9583118901946,0.0
300,8.426703214645386,1233.1543467668191,953.0493906587121,2185.6910510180696,-238.7478089288649,0.0,1.945540156941106,0.1,0.014572620391845703,0.479616641998291,0.049927246,0.05360381,1148.1581371809193,2.307436076434997,6.138514791774308,0.0,19200,3.1490399837493896,0.009703516973849788,0.0042856339824594416,-2309.225641619115,0.0
301,8.715361595153809,979.2735010350801,953.3644551995611,2122.194208341608,-271.4544797028927,0.0,1.9208354326507904,0.1,0.021181344985961914,0.5694022178649902,0.050201267,0.047601625,1131.2696735663353,1.9221971637929218,4.869894343841832,0.0,19200,3.5398359298706055,0.011456910315429891,0.0067607500674685,-2160.298186043305,0.0
302,8.421743154525757,1090.3351716054196,966.6511879892987,2126.9828988987724,-228.52227381659716,0.0,1.8500129219776666,0.1,0.01618790626525879,0.5655577182769775,0.05034568,0.05391993,1127.1762233702439,2.1127078979516174,5.424844519203404,0.0,19200,3.205944538116455,0.009426406630601115,0.006285090664006406,-2320.990377411932,0.0
303,7.981184959411621,1176.426860297815,951.0078928269413,2145.9485931435693,-232.31763456626751,0.0,1.841172539006207,0.1,0.023365259170532227,0.6467745304107666,0.049656514,0.051400788,1132.1012870630009,2.256731831871137,5.853387946349874,0.0,19200,3.0072202682495117,0.0078038467747418945,0.00545292612452354,-2725.1578225241847,0.0
304,8.473905563354492,1199.6117877270478,921.9041281233192,2127.6045264276254,-191.19511568256036,0.0,1.842211812617826,0.1,0.01722884178161621,0.5626509189605713,0.050726946,0.043732967,1138.8523371294054,2.250450220331294,5.971719974277749,0.0,19200,3.411940336227417,0.013833240754442252,0.00986826111325135,-2425.734591513787,0.0
305,8.26816201210022,1165.9645123812004,949.5638861343314,2110.56504120355,-275.9325988395741,0.0,1.6679200539995604,0.1,0.02022075653076172,0.6778364181518555,0.050620478,0.05237743,1141.563554654585,2.172654808891357,5.802332437105694,0.0,19200,3.2739627361297607,0.0038986070342434407,0.002387688105174148,-2380.696775170927,0.0
306,8.589989423751831,1131.1691659184569,952.8026541868102,2178.9901005255088,-150.3521493054896,0.0,1.654832659547313,0.1,0.05105781555175781,0.7805368900299072,0.05065557,0.086501956,1140.5241157809721,2.1754342256828876,5.627560869214489,0.0,19200,3.111506700515747,0.006851069223588402,0.00481057982158649,-2451.91853924065,0.0
307,8.165854215621948,1112.561990327036,960.126600194718,2140.4219814419157,-273.93707321500926,0.0,2.069778860298546,0.1,0.015636205673217773,0.49326252937316895,0.049927678,0.048729908,1137.7279032355784,2.141184788881295,5.535866330670903,0.0,19200,3.0010857582092285,0.008725086739326185,0.0065224499932892985,-2351.1938255299647,0.0
308,8.75410270690918,1059.5862222435364,940.1383879387447,2143.125550899495,-257.0886934567205,0.0,1.9854744571866234,0.1,0.017284631729125977,0.5111355781555176,0.050335325,0.04283189,1129.9137351363743,2.0684118219139447,5.270973232625965,0.0,19200,3.3979265689849854,0.011934083660569621,0.009021202786684435,-1943.8577456064097,0.0
309,8.280315399169922,1251.304359680651,926.8110635144907,2144.823959490536,-291.1767407190159,0.0,1.730145390436328,0.1,0.016829729080200195,0.5948381423950195,0.05008344,0.06470954,1142.052797590802,2.3546151235502726,6.230631982001005,0.0,19200,3.563213586807251,0.009836959482479077,0.007163521672450599,-1782.813580059919,0.0
310,8.07968807220459,1271.7608427023858,902.1525509136333,2112.5409321497327,-260.8259820955648,0.0,2.047052018611087,0.1,0.04642081260681152,0.5145978927612305,0.050181683,0.0434183,1155.0236021019603,2.366652495356995,6.331188395248856,0.0,19200,3.1024560928344727,0.008505993402263724,0.00588088456860883,-2006.0939002717157,0.0
311,8.372602939605713,1022.103793552625,959.2361811708979,2105.69794197555,-184.79210039146085,0.0,1.8959459640991827,0.1,0.015666723251342773,0.5176417827606201,0.05043213,0.0527879,1141.7316212470269,1.9883510453065885,5.085118519146459,0.0,19200,2.9008657932281494,0.01244815840247925,0.007845505625175397,-1880.2916292428986,0.0
312,8.531627655029297,1191.6916783142717,920.8720979878814,2161.4976299286363,-214.97768679623547,0.0,1.9277310002663999,0.1,0.01732015609741211,0.5574700832366943,0.049836747,0.04231544,1146.7276269537513,2.2699472137892616,5.930918529627886,0.0,19200,3.290346145629883,0.00857992044078708,0.006277822667572037,-1869.3164169040372,0.0
313,8.297287940979004,1273.34719405078,874.8899523481601,2177.870649827554,-166.2210035418984,0.0,1.6850573633230277,0.1,0.021544218063354492,0.5374510288238525,0.05030394,0.049718056,1159.3895836634542,2.380932891280989,6.3378389490913065,0.0,19200,3.2633113861083984,0.012919548017898779,0.009587973823943389,-2031.9988181071355,0.0
314,8.179961442947388,1159.1835829725599,953.4307794531366,2173.9905154975927,-136.5254501738715,0.0,1.9166965335776056,0.1,0.01687002182006836,0.5369877815246582,0.049706765,0.045018766,1159.3689835943649,2.2182415875147976,5.7677876779174975,0.0,19200,3.2223317623138428,0.011254700181663977,0.007745551238839742,-2186.897095405654,0.0
315,8.363581657409668,1273.9116881956877,898.6403045680146,2098.7930376049135,-1007.9455452307983,0.0,1.8487048430496293,0.1,0.016408443450927734,0.581728458404541,0.049482383,0.061732363,1170.823254054497,2.4024080081587766,6.340658450452996,0.0,19200,2.9631223678588867,0.021552571488080867,0.014484975153034204,-2742.4922734317206,0.0
316,8.5048189163208,1073.1271376284853,952.6690697892524,2139.866116532869,-350.1449189435233,0.0,1.8599676012446735,0.1,0.015778779983520508,0.5482432842254639,0.0492009,0.052724726,1161.053642411896,2.0840893589967404,5.339013550410189,0.0,19200,2.9001612663269043,0.013726431322680574,0.00859427619234411,-2764.2107416819595,0.0
317,8.054752349853516,1156.2793882046735,944.4351304189302,2183.8660817118325,-283.6912620930152,0.0,1.698673725695389,0.1,0.016391277313232422,0.5696690082550049,0.050139263,0.05508637,1160.5762169911736,2.19591810839822,5.751936876060301,0.0,19200,3.1559994220733643,0.012166740326721059,0.008315369617750439,-2733.613612540464,0.0
318,8.560363292694092,1357.3983038218662,917.8179200676028,2174.8865741639916,-527.4220671692055,0.0,1.6594144692838484,0.1,0.016684532165527344,0.5373456478118896,0.050554093,0.07388523,1180.258425674243,2.502910988553436,6.7582038361138865,0.0,19200,3.1071574687957764,0.004340001556075714,0.0024962823500516234,-2716.681571116437,0.0
319,9.060046911239624,1125.5667238801564,962.8194369313924,2190.4174769852125,-1063.93334620735,0.0,1.813734729027875,0.1,0.019324541091918945,0.47627806663513184,0.050480925,0.055349287,1174.7892554948344,2.183472914428718,5.600096766784017,0.0,19200,3.050158977508545,0.02513699292559208,0.014183636911535784,-3008.376854649353,0.0
320,8.818132162094116,1156.736116940069,937.736028548864,2165.468220724907,-355.62688955365377,0.0,1.7615307229139754,0.1,0.024154186248779297,0.5420639514923096,0.05010839,0.04726759,1172.983941639358,2.2178007031586797,5.7558856747745635,0.0,19200,3.0691983699798584,0.02092158874189939,0.013447661281771875,-2454.927966634378,0.0
321,8.549585580825806,1043.3911492803747,961.6812180510965,2163.0826976122353,-578.4712674389348,0.0,1.9194192333406224,0.1,0.016857147216796875,0.49250006675720215,0.050329175,0.053625215,1160.0246624034598,2.0280061998503407,5.192098897367504,0.0,19200,2.857398509979248,0.01615585112288424,0.011787298509108528,-2245.2596180687146,0.0
322,8.297293186187744,1241.0543277224133,944.3815347329127,2140.049648025659,-156.24451169900934,0.0,1.7470658569129238,0.1,0.023717164993286133,0.5521640777587891,0.050540205,0.05676522,1168.1276289353552,2.3525571769847775,6.175836610054378,0.0,19200,3.0280439853668213,0.009553091606405446,0.007166751949000759,-2533.694711117732,0.0
323,8.554447650909424,1185.57253575517,931.1085404690416,2141.355164345667,-245.96624956785405,0.0,1.7861878249184133,0.1,0.022943496704101562,0.5519824028015137,0.050099734,0.06522129,1169.8721196173367,2.2616375906046082,5.898695041687574,0.0,19200,3.418670415878296,0.014244694736964856,0.009554918613177655,-2424.921888609129,0.0
324,8.472288370132446,1057.9047638406437,923.243477357696,2160.074788929801,-241.1963658531019,0.0,1.9061730728231834,0.1,0.0169222354888916,0.5920455455780029,0.05056533,0.04448751,1158.6753840396673,2.048284911819248,5.2629980971879435,0.0,19200,2.9659011363983154,0.013497863302590823,0.010084137039034333,-2439.2228448373294,0.0
325,8.302374124526978,1131.8385971156133,916.936854424264,2188.3842095977648,-311.9594489414001,0.0,1.9736324315006892,0.1,0.014648675918579102,0.4298665523529053,0.04993555,0.04766771,1155.991705347262,2.169147275587621,5.632703268833918,0.0,19200,2.9462592601776123,0.020070966029078784,0.012463280836757974,-2187.094142395088,0.0
326,8.612274408340454,1175.4583371101855,929.6667280288489,2133.429657100893,-554.1692473351304,0.0,2.1129301265968623,0.1,0.017191410064697266,0.5492503643035889,0.049964525,0.043056387,1157.9383685235543,2.2008569020569864,5.849511174805808,0.0,19200,3.2107720375061035,0.013643643245171836,0.009042746655320415,-2049.8378482798544,0.0
327,8.781917572021484,1154.5396421541918,950.0502078802912,2146.730741599303,-1771.1785922102015,0.0,1.8483749337124862,0.1,0.01769256591796875,0.5059013366699219,0.049056977,0.048724916,1157.5984958866181,2.225060447219349,5.744814679072934,0.0,19200,3.48323655128479,0.03395200264495436,0.022972672932073352,-2368.3251492346662,0.0
328,7.90274715423584,1099.4407772435543,911.8079224153955,2136.935062726313,-228.6050298773311,0.0,1.966935984367814,0.1,0.024873018264770508,0.6424789428710938,0.049870953,0.07291308,1151.7827240223116,2.143619645407321,5.470305691372155,0.0,19200,3.0617501735687256,0.021197796179430597,0.013583634392020063,-1811.696204034023,0.0
329,8.442651748657227,1026.3419776398434,932.9308208219642,2180.6400822570954,-558.555189067402,0.0,1.9463828430206054,0.1,0.018885135650634766,0.5776047706604004,0.05061469,0.05206352,1139.2386493840647,2.040126808315405,5.1071220382009725,0.0,19200,3.1809115409851074,0.020884970186479033,0.014795740217696514,-669.8243014616635,0.0
330,8.501975297927856,1138.3367827916513,881.9474671337072,2104.682682231919,-155.5033922471244,0.0,1.891974000952406,0.1,0.014350414276123047,0.7498724460601807,0.05014299,0.06087172,1139.1484627248233,2.2239654194381244,5.663840103867634,0.0,19200,3.4172682762145996,0.024494099499136137,0.015619682032613255,-1471.6196072528755,0.0
331,8.12150526046753,1010.4636928650965,935.4047315552843,2178.2252487708342,-188.90420877826605,0.0,1.74410161836619,0.1,0.015613555908203125,0.5021517276763916,0.05000853,0.053870633,1126.2799857388507,2.02640711005575,5.0257135570733285,0.0,19200,3.116581916809082,0.018750162965735444,0.014559516613098386,-1657.6179829663913,0.0
332,7.9502174854278564,1232.1090797593604,911.5030973172999,2181.950885963995,-266.70907043528473,0.0,1.872089485301794,0.1,0.03205704689025879,0.8021714687347412,0.050079577,0.044323422,1136.8628951409016,2.3703142026965236,6.134189034066921,0.0,19200,3.2902724742889404,0.015527538261746373,0.011986380947516839,-1459.9040555300844,0.0
333,7.6249308586120605,1285.7627518820882,849.9180385507583,2158.793950701419,-192.29977933361906,0.0,1.8492007451439356,0.1,0.014912128448486328,0.5420539379119873,0.04932433,0.07328653,1151.7528808150203,2.4294305709803385,6.400494905623533,0.0,19200,3.1413536071777344,0.01249921634033283,0.00828587844161889,-1121.9747161151024,0.0
334,8.358699083328247,1123.656993568393,932.8207341659759,2182.994534574365,-665.2108808749956,0.0,1.8813842578492805,0.1,0.01385951042175293,0.4339761734008789,0.04965235,0.050236925,1148.9432920903575,2.136992952553742,5.593103809519474,0.0,19200,3.045306444168091,0.015212821095346505,0.011437561958917954,-1462.8303314073712,0.0
335,8.647720098495483,1149.8794223786197,919.2701704616411,2145.57379846715,-349.9713484393609,0.0,1.8168504111267394,0.1,0.016882896423339844,0.5912184715270996,0.05032968,0.06447707,1149.0369051191838,2.190061284849763,5.7225921797476795,0.0,19200,3.2605321407318115,0.016354658620343743,0.012915636430853153,-671.5903048442485,0.0
336,8.35020899772644,1206.1804380196602,938.5704878320942,2198.3092616384806,-317.8332430828396,0.0,1.7959081207107748,0.1,0.03174591064453125,0.5929563045501709,0.05068158,0.049568687,1154.7512584092315,2.2763725928386704,6.002369473596846,0.0,19200,3.3473687171936035,0.009609030540817657,0.006414453649453342,-821.6747157736145,0.0
337,8.406238555908203,1202.1122307907667,944.047275472658,2222.967478040071,-185.77573560769915,0.0,1.729367909980721,0.1,0.01726555824279785,0.5611283779144287,0.04982718,0.045347165,1159.4873556473851,2.320451972389499,5.983559126219,0.0,19200,3.1768901348114014,0.009709021870874185,0.006322681951623457,-697.2622498082458,0.0
338,8.56047248840332,1107.527666230694,956.2532447715896,2150.934388099011,-274.89331865417347,0.0,1.9786821270592916,0.1,0.017832517623901367,0.5994737148284912,0.049882837,0.05335087,1154.2913867057161,2.1287305915122823,5.510479883169783,0.0,19200,3.2555270195007324,0.015620277238132418,0.011101315149054219,-737.8521792770277,0.0
339,8.277357339859009,1048.1045055526154,937.7761643336091,2072.3332512971574,-196.81268378218547,0.0,1.9720557372521794,0.1,0.014499902725219727,0.48825669288635254,0.04917043,0.044993844,1143.672698590406,2.0695008269394424,5.213535410035285,0.0,19200,3.023989677429199,0.017629474101100075,0.011432736789135185,-1017.6731175012926,0.0
340,8.517035484313965,1188.0882878385025,906.9076677961713,2150.5938636346127,-322.8517188624107,0.0,1.7877205547147499,0.1,0.024901390075683594,0.657069206237793,0.050639585,0.046842296,1148.1142575152157,2.2649615122301765,5.914361566033885,0.0,19200,3.3127472400665283,0.014650813292245754,0.00944384391465912,-439.2412500662446,0.0
341,8.833812475204468,1304.3064212316642,897.1007106305447,2209.2243858631605,-310.87426567990127,0.0,2.143135267569592,0.1,0.02614760398864746,0.5219969749450684,0.05043226,0.041905567,1163.7334738868608,2.392513458613094,6.492854632546937,0.0,19200,2.180917739868164,0.008684422228490416,0.005623659965407499,-797.0185630001007,0.0
342,8.369945764541626,1149.0884144590545,968.6818196500298,2198.477256610008,-528.8798474304214,0.0,1.7103375504684553,0.1,0.0202481746673584,0.4090108871459961,0.05003982,0.069492884,1162.2689679440803,2.150536793023081,5.717588929272067,0.0,19200,2.814459800720215,0.008473390932841843,0.005330701640827228,-326.44116984473794,0.0
343,8.397860050201416,1181.935640346512,987.0138862923675,2149.938953080927,-1013.1962314770419,0.0,1.8777333681972475,0.1,0.016140460968017578,0.557790994644165,0.050246652,0.057927035,1164.2356351843234,2.149222929815911,5.88250486003673,0.0,19200,3.143734931945801,0.011384351523133517,0.00655960755423222,-1159.3748951002044,0.0
344,7.732152700424194,1056.4470746996158,971.9791633554506,2229.578609005337,-186.03522343361027,0.0,1.6958592704928241,0.1,0.013477325439453125,0.5414161682128906,0.05014162,0.038342874,1153.4567791358527,2.0802991817966388,5.251908720009817,0.0,19200,3.039747476577759,0.014157408825293993,0.008125643605546098,-1120.4093545863077,0.0
345,7.822953939437866,1300.8532734211876,847.7052906746029,2186.8896089329332,-253.42023705764706,0.0,1.961272193458608,0.1,0.014256477355957031,0.5129661560058594,0.050138954,0.07293708,1168.1964285643862,2.458782129849894,6.476775585453274,0.0,19200,3.2029666900634766,0.013315222508648843,0.009562616715171186,-567.585606364469,0.0
346,7.925671815872192,1108.2030498426157,943.5149687549495,2187.751516857237,-341.9511368239971,0.0,1.8283903785690434,0.1,0.01655864715576172,0.6735632419586182,0.050296172,0.04431678,1162.1970906922093,2.1253004075312076,5.514077288804195,0.0,19200,3.286104917526245,0.015772873819058644,0.009965999562445047,-429.3445689404544,0.0
347,8.684589862823486,1211.4049427210218,889.2393339621066,2158.5017778248193,-174.86585803190744,0.0,1.8606438767780906,0.1,0.013957977294921875,0.4376358985900879,0.050352477,0.057968903,1167.1178758950905,2.2975744031836314,6.030167657934608,0.0,19200,2.930403709411621,0.01520175751152811,0.009923821758860836,-163.87982255905166,0.0
348,8.591323614120483,1212.6254702397825,905.3431592244248,2163.5403760857994,-304.9054513676284,0.0,1.769667918746559,0.1,0.014081716537475586,0.5049805641174316,0.050478857,0.045981128,1171.6686353295597,2.2952967507062176,6.034769137481976,0.0,19200,2.920433521270752,0.013629484480384098,0.008761260533306479,-262.10346557715985,0.0
349,8.567453384399414,1276.992430035811,894.2855077429682,2134.868525028815,-315.6510941342864,0.0,1.713059818486851,0.1,0.01387929916381836,0.5176651477813721,0.050000034,0.055243213,1182.201014800185,2.410162454857107,6.3550389331187676,0.0,19200,3.4722933769226074,0.010373656413434573,0.006687550175512851,-49.56534390512394,0.0
350,8.44420051574707,1076.6938648658058,940.4839045393903,2132.216295879611,-572.0296286001876,0.0,1.9699375816575415,0.1,0.024652719497680664,0.7248528003692627,0.050119076,0.042894933,1171.6502998067472,2.0478385568805533,5.357626427249033,0.0,19200,3.075770139694214,0.013263408159207913,0.009385013442977767,-228.93619492806144,0.0
351,7.253163814544678,1205.389496491548,938.3622972305683,2170.5520138127504,-324.2234536629947,0.0,1.7249761307516909,0.1,0.014360904693603516,0.5378422737121582,0.05085747,0.051734082,1175.0242194752273,2.2423065276230316,5.998068461684393,0.0,19200,3.581519603729248,0.010447090111665459,0.006690751422757783,-408.78989706668347,0.0
352,8.778189420700073,1213.9860845534242,902.6241096129603,2130.0470191402815,-156.73793221145758,0.0,1.7132103130514331,0.1,0.01598501205444336,0.5759997367858887,0.04986428,0.06240789,1178.920405983047,2.3033272900080908,6.041157169074509,0.0,19200,2.5868024826049805,0.01380483389933892,0.010235527810002304,-290.8793024934398,0.0
353,8.215672016143799,1145.8648518015189,946.7673784229534,2105.0368207831716,-272.15692344920274,0.0,1.700200453794519,0.1,0.017221927642822266,0.43814730644226074,0.04934518,0.050096087,1175.6148505648941,2.1670727194214288,5.701709767925796,0.0,19200,3.288114070892334,0.010191209124000922,0.006397986820476626,61.25230427656402,0.0
354,8.462875604629517,969.9910627332464,955.3858858825203,2084.0178254495977,-269.2689241557201,0.0,1.8619368407942882,0.1,0.0174102783203125,0.7553677558898926,0.049920585,0.05263413,1155.0524717817295,1.897180982365516,4.822244944151237,0.0,19200,3.7210962772369385,0.013882484411419713,0.008862199945911831,-237.5273579567262,0.0
355,8.772669792175293,1216.320539152843,936.9910200481376,2184.0545944852092,-172.39751050343008,0.0,1.7893420664241266,0.1,0.017716407775878906,0.5406224727630615,0.049918182,0.04881831,1161.1792785188409,2.307432745894186,6.053200892686244,0.0,19200,3.117363452911377,0.009508090426454566,0.007499396461565514,-494.47457753747733,0.0
356,8.634008407592773,1167.3696140794711,976.8176554449772,2175.8373915816665,-269.5348801275228,0.0,1.8183315809266463,0.1,0.02066636085510254,0.5645520687103271,0.05046454,0.06255354,1161.7983120749038,2.180593614661736,5.8080166649492275,0.0,19200,3.779740333557129,0.006061604670881206,0.003162962908655603,-608.962361560277,0.0
