iteration,time_sampling,stoc_pol_mean,stoc_pol_std,stoc_pol_max,stoc_pol_min,rollout_success,alpha,delta,time_vpg,time_npg,kl_dist,surr_improvement,running_score,rwd_sparse,rwd_dense,success_percentage,num_samples,time_VF,VF_error_before,VF_error_after,eval_score,eval_success
0,1.799560546875,-93.53165530147402,226.5723171704658,866.2700847820012,-270.4095682139506,5.208333333333333,7.265959912193773,0.1,0.05704641342163086,0.4035625457763672,0.04619352,0.0145397475,-93.53165530147402,-0.8887685571984617,-0.46751855719846164,5.208333333333333,19200,1.842336893081665,0.9998329352231972,0.6919241217014434,-120.0134843558719,6.25
1,1.599790334701538,-103.87814107470452,207.8841723772247,1041.4261009010236,-276.2913508005278,2.0833333333333335,6.013801856168573,0.1,0.010908126831054688,0.3186972141265869,0.047935054,0.015438989,-94.56630387879707,-0.9062604374661918,-0.5191771041328584,2.0833333333333335,19200,1.7257211208343506,0.6303589816941476,0.5094404707688919,-130.86411097657162,0.0
2,1.5881006717681885,-77.14944806020199,257.26265243028325,1114.6718954167554,-260.5121530039527,6.25,6.26445590593397,0.1,0.010830163955688477,0.27092480659484863,0.046211883,0.01379618,-92.82461829693757,-0.8617346138320467,-0.3863179471653801,6.25,19200,2.246514320373535,0.5962766988611857,0.5267067936433072,-125.43412820685526,0.0
3,1.6124398708343506,-70.02533300758792,254.02900521966615,866.0551994571871,-294.79032932052945,8.333333333333334,5.3334771673671115,0.1,0.01316380500793457,0.3378102779388428,0.05478906,0.020316541,-90.5446897680026,-0.9038275305922544,-0.3498691972589211,8.333333333333334,19200,2.489983081817627,0.6954920813854939,0.5164364942130097,-102.15622123951218,6.25
4,1.6260976791381836,-93.69296812908335,235.1620762443508,846.0312984914126,-297.1308601062392,8.333333333333334,5.8215156142653175,0.1,0.012782573699951172,0.38604021072387695,0.048575126,0.01695191,-90.85951760411068,-0.9061481255391954,-0.4682314588725287,8.333333333333334,19200,2.6682958602905273,0.5554241384795843,0.48243219035577506,-46.110669243536556,6.25
5,1.6699566841125488,-29.806398800042604,287.1419215494808,845.0629761550573,-256.19478608887124,14.583333333333334,8.547493210679505,0.1,0.011512279510498047,0.320451021194458,0.04534635,0.011208021,-84.75420572370388,-0.8787979623709817,-0.14879796237098172,14.583333333333334,19200,2.7092082500457764,0.5288903981373654,0.3856574728328736,-33.311346724196994,6.25
6,1.562342643737793,-65.95976461388294,283.544751107515,873.0198829760176,-280.5074863324319,13.541666666666666,6.567031164711955,0.1,0.011132955551147461,0.2980685234069824,0.060176346,0.017167203,-82.87476161272178,-0.9033368211964842,-0.3297951545298175,13.541666666666666,19200,2.6753764152526855,0.44074434126511275,0.378478002799154,-22.36985643378752,6.25
7,1.5679514408111572,-42.71721646697935,310.9430385228073,987.319301993504,-284.1640534145892,15.625,7.614569350592389,0.1,0.012343883514404297,0.2721893787384033,0.059478942,0.013655478,-78.85900709814754,-0.8822750041009884,-0.21331667076765504,15.625,19200,2.5428285598754883,0.3969859781522269,0.32399324462439255,-18.505808058606675,6.25
8,1.8927209377288818,-39.155584541840405,295.1371285398584,1070.5920497497889,-274.49199472787933,10.416666666666666,7.865857736716946,0.1,0.01152801513671875,0.32130908966064453,0.048451986,0.012839911,-74.88866484251683,-0.8638194096280084,-0.1965277429613418,10.416666666666666,19200,2.618783473968506,0.3333457047556938,0.27636940637941704,-16.158755633375335,6.25
9,1.541834831237793,-27.27783634671087,329.45000913939236,1085.8412490675364,-276.91986987243,13.541666666666666,7.748512679759363,0.1,0.014098167419433594,0.36797118186950684,0.051607974,0.011959718,-70.12758199293623,-0.8706189143571077,-0.13707724769044113,13.541666666666666,19200,2.850112199783325,0.27893912624348793,0.19299932011772614,-3.8408882881286246,6.25
10,1.6027858257293701,-21.07575301345916,287.53672033270533,1098.4590114034738,-286.29756946169397,14.583333333333334,7.450605270873328,0.1,0.011727333068847656,0.3230433464050293,0.056293283,0.016052023,-65.22239909498852,-0.8344874081045784,-0.105320741437912,14.583333333333334,19200,2.5876333713531494,0.33530149199355225,0.24162609596738993,8.13630907973716,6.25
11,1.6501190662384033,-8.221501212406205,344.52444341047027,972.500775174256,-286.602590445856,16.666666666666668,6.36568266835228,0.1,0.012009859085083008,0.3837015628814697,0.045232814,0.015660942,-59.522309306730286,-0.8495444214234208,-0.04183608809008741,16.666666666666668,19200,2.60390043258667,0.315513617845235,0.22992381071206894,22.006030023153443,6.25
12,1.6776432991027832,16.741495276149966,338.7260595460148,979.183276949326,-262.48236448705785,20.833333333333332,7.840949469178617,0.1,0.010828733444213867,0.3191850185394287,0.050366778,0.013168837,-51.89592884844227,-0.8297646904433265,0.08336030955667358,20.833333333333332,19200,2.4556198120117188,0.2337774475144644,0.19930527722442243,37.303126766439846,6.25
13,1.7381620407104492,-13.787961780426985,301.9469390070261,863.3838973290178,-284.6928699150949,14.583333333333334,7.769248353276876,0.1,0.012683391571044922,0.31914639472961426,0.0556022,0.012905997,-48.08513214164074,-0.82382996814548,-0.06882996814547995,14.583333333333334,19200,2.448019027709961,0.24455859753875575,0.1810723437440065,32.520948800146726,6.25
14,1.7914257049560547,-44.081705622973374,273.2985107367663,1127.114411891883,-300.3368506810186,11.458333333333334,5.1397840829240495,0.1,0.012498855590820312,0.330599308013916,0.05147919,0.01959806,-47.684789489774005,-0.8340838561832756,-0.220542189516609,11.458333333333334,19200,2.503941535949707,0.23709532052504667,0.20234432739891423,70.7694067320836,6.25
15,1.783642292022705,27.391188702110977,366.8005652648837,1056.8603631077613,-267.734907423173,13.541666666666666,8.115864460049064,0.1,0.011962175369262695,0.38385796546936035,0.050323553,0.010907586,-40.17719167058551,-0.7912358569613333,0.1368891430386666,13.541666666666666,19200,2.536287784576416,0.25818339345778124,0.20320773441554602,32.156268556418645,6.25
16,1.9108176231384277,24.78191464125703,387.4163558995639,1205.0375742218303,-268.42045475226416,13.541666666666666,7.339504833455966,0.1,0.011552095413208008,0.2789011001586914,0.054620907,0.0087420605,-33.681281039401256,-0.8287294103790487,0.12356225628761798,13.541666666666666,19200,2.5191142559051514,0.16551326998745405,0.12215217111876076,11.874816596947,6.25
17,1.7031044960021973,109.67941192694282,437.52317027029846,1316.7365337131243,-266.8386804272066,20.833333333333332,7.0886888548156275,0.1,0.011150360107421875,0.28389453887939453,0.047605887,0.012777527,-19.345211742766846,-0.7766422520973713,0.5475244145692957,20.833333333333332,19200,2.435415506362915,0.18940179338615806,0.15968888811933976,9.986329122340393,6.25
18,1.7239861488342285,103.05619825753934,432.22215557923204,1198.137375642141,-306.1332631729823,21.875,6.991676344556313,0.1,0.011193037033081055,0.2752242088317871,0.05329512,0.01475049,-7.105070742736226,-0.7820983670621442,0.5139432996045225,21.875,19200,2.412897825241089,0.14720869529275046,0.10565036192588685,-0.8182335591943541,6.25
19,1.7325992584228516,25.947146631740754,356.9792419148743,1045.5171043550295,-240.99573954996566,14.583333333333334,5.603913174312559,0.1,0.010759830474853516,0.35178184509277344,0.055495225,0.017997857,-3.799849005288528,-0.77556874160154,0.12859792506512682,14.583333333333334,19200,2.4562008380889893,0.18199479447422162,0.13722564839462273,14.997527403617013,6.25
20,1.7972936630249023,64.20012980457399,402.0871048940191,1134.714032368626,-277.1463817173474,16.666666666666668,6.027513107851845,0.1,0.01260828971862793,0.3548884391784668,0.053945236,0.015495844,3.0001488756977244,-0.8042275519298435,0.3193141147368233,16.666666666666668,19200,2.494009256362915,0.15545971632535144,0.11759619503164936,41.48560678912217,6.25
21,1.6784663200378418,128.4687091453234,505.07760635243915,1425.60595057963,-280.00297048974807,20.833333333333332,7.214619630615146,0.1,0.01151585578918457,0.3172478675842285,0.050196324,0.014891152,15.547004902660293,-0.7519291406714356,0.6418208593285646,20.833333333333332,19200,2.4722378253936768,0.12028913760498842,0.06835669461872823,65.35239404661247,6.25
22,1.463155746459961,155.17679508874264,513.2445042230001,1287.1887520788648,-278.57201555835525,21.875,5.303339204200834,0.1,0.016958236694335938,0.2875857353210449,0.050155263,0.018274477,29.509983921268528,-0.7476725002190093,0.7750358331143241,21.875,19200,2.520850896835327,0.14112574741474213,0.10704273065459279,48.108010018340494,6.25
23,1.6927568912506104,75.77176590627579,437.9668296508985,1511.7444691299338,-251.07808670169143,13.541666666666666,5.4860699399458,0.1,0.010558843612670898,0.26284265518188477,0.051078588,0.017650314,34.13616211976925,-0.7748640775386585,0.37805258912800815,13.541666666666666,19200,2.481963634490967,0.14824646828861532,0.09230102394957562,62.27234231065149,6.25
24,1.5643999576568604,147.34879127518994,540.6674691553787,1435.052302398828,-276.18484730429054,20.833333333333332,5.521049351243072,0.1,0.012093067169189453,0.2600727081298828,0.051027354,0.017785413,45.45742503531132,-0.7511278262823842,0.7357471737176157,20.833333333333332,19200,2.5122087001800537,0.13247073794401523,0.09160499423064043,85.0213632843919,12.5
25,1.6936595439910889,82.37961495612967,477.6720040708386,1380.0346256867606,-277.4571374111701,16.666666666666668,6.689880503746236,0.1,0.010994434356689453,0.28049516677856445,0.051267,0.01501721,49.14964402739315,-0.7814027381151716,0.41130559521816173,16.666666666666668,19200,2.5204684734344482,0.08520335285314666,0.05426492674371934,62.784430980643656,6.25
26,1.6570460796356201,110.38631174046567,490.44208372386936,1545.6042248519466,-275.5367056115619,15.625,6.024319817668963,0.1,0.010715723037719727,0.2747633457183838,0.05189717,0.0144956475,55.27331079870041,-0.7940998676474981,0.5513167990191686,15.625,19200,2.5270750522613525,0.10850685907489287,0.08055330065378968,41.02483510872465,6.25
27,1.6009151935577393,103.9125146124345,465.2313903503682,1271.3566528327658,-291.0378530040299,17.708333333333332,6.547143771243395,0.1,0.011321306228637695,0.2692568302154541,0.05137901,0.017799573,60.13723118007382,-0.7719144742499773,0.5185021924166894,17.708333333333332,19200,2.5503177642822266,0.10513248771710688,0.08730770473767353,27.686035000176325,6.25
28,1.4997377395629883,149.53620035808862,520.3908225921757,1435.9024763172126,-266.60698625993,19.791666666666668,6.040864286408697,0.1,0.012061834335327148,0.2984182834625244,0.04851514,0.018122813,69.0771280978753,-0.7461989440958735,0.7475510559041267,19.791666666666668,19200,2.629876136779785,0.08335802592901177,0.06481401062389681,50.83785864484527,6.25
29,1.4978837966918945,170.87880156222502,479.331853520968,1441.659217376141,-272.5331195833785,21.875,6.594793110168966,0.1,0.01093745231628418,0.2737081050872803,0.047807526,0.013719944,79.25729544431027,-0.7252395887460455,0.8539270779206208,21.875,19200,2.7734079360961914,0.099237756319557,0.0643901089433205,88.80708501903129,12.5
30,1.6194908618927002,176.58528041403073,472.52680856285747,1366.511463895492,-277.82116648788326,21.875,6.2996906446667955,0.1,0.011295557022094727,0.32512736320495605,0.05413671,0.015985878,88.99009394128232,-0.7169592136174147,0.8817907863825853,21.875,19200,2.737013339996338,0.10577942307658027,0.07189372603468654,98.84721515121717,12.5
31,1.9330298900604248,45.078241031281514,407.509665833194,1446.1954554142326,-270.244925169595,12.5,6.230704774631684,0.1,0.011154413223266602,0.3129866123199463,0.049576323,0.015004572,84.59890865028225,-0.763115930055323,0.2250090699446771,12.5,19200,2.688037157058716,0.16030309089027667,0.10553617932495915,92.50869745779652,12.5
32,1.6566293239593506,100.98583044555062,457.24805023313314,1394.7612156859855,-271.5593391723566,18.75,6.784163229328485,0.1,0.01101541519165039,0.31840085983276367,0.05169585,0.014287436,86.23760082980908,-0.7476993455586497,0.504592321108017,18.75,19200,2.6569020748138428,0.0946365231834612,0.06798649751554829,87.24933218839135,12.5
33,1.7457308769226074,72.02779635396617,415.7382489605249,1395.9301674007904,-286.1912361897034,14.583333333333334,5.996977937623073,0.1,0.010763168334960938,0.2604043483734131,0.04942665,0.017865457,84.81662038222478,-0.7754716313902232,0.3597367019431101,14.583333333333334,19200,2.5835418701171875,0.12283244349088948,0.07868971574364658,131.92220136866771,12.5
34,1.6032698154449463,105.411703337909,463.6183757505861,1557.701151031466,-288.5004866743605,18.75,5.991321395274951,0.1,0.012713909149169922,0.34941768646240234,0.050778423,0.015431051,86.8761286777932,-0.775647578530123,0.5262274214698769,18.75,19200,2.6749303340911865,0.11471121543136292,0.06069800673809762,160.43753216872048,18.75
35,1.7674829959869385,200.8643005325761,509.5424543100677,1451.0595820306528,-303.89000550788194,23.958333333333332,7.190434474386077,0.1,0.011947870254516602,0.31717967987060547,0.050735258,0.013146966,98.2749458632715,-0.7197304731411475,1.0021445268588527,23.958333333333332,19200,2.742326259613037,0.0936732495569492,0.05992793836008679,172.61378941474757,18.75
36,1.6674690246582031,202.9553936931093,513.9983748107078,1538.7975429883875,-286.5822660269006,22.916666666666668,4.921023571159918,0.1,0.01082158088684082,0.2725696563720703,0.05149413,0.018953502,108.74299064625528,-0.7202589508522635,1.0132827158144033,22.916666666666668,19200,2.581928253173828,0.09063596329885647,0.05280270370225896,160.03410010639607,12.5
37,1.6678354740142822,199.92769800011777,472.10579712821806,1556.0059577279014,-267.9947424785052,23.958333333333332,5.858592025186898,0.1,0.011300325393676758,0.25521302223205566,0.049031887,0.018268993,117.86146138164153,-0.6891555245558041,0.9989694754441958,23.958333333333332,19200,2.472247362136841,0.09162955006856113,0.054346445799530886,157.7710194814537,18.75
38,2.0385584831237793,210.4838888560818,533.7951837037444,1555.247025531287,-254.69747908297222,23.958333333333332,6.462541289579807,0.1,0.010835647583007812,0.292982816696167,0.051244333,0.01620898,127.12370412908555,-0.6889265037477433,1.0514901629189233,23.958333333333332,19200,2.4809038639068604,0.07210817889723295,0.04977127763231288,144.26408030833792,18.75
39,1.540229082107544,41.61247489099126,410.4024647238845,1508.468228674979,-274.10184463883695,11.458333333333334,6.3404500323915665,0.1,0.026231765747070312,0.4010181427001953,0.05164088,0.01658349,118.57258120527612,-0.765895052377625,0.20702161428904145,11.458333333333334,19200,2.605569362640381,0.1370520400081914,0.09272650865876743,147.00506448637208,18.75
40,1.5565989017486572,116.20528275374276,461.71947836935897,1384.825855196376,-288.35261410263973,21.875,5.28627824462034,0.1,0.011058330535888672,0.3109712600708008,0.050045002,0.017786039,118.3358513601228,-0.760158028764181,0.5796336379024857,21.875,19200,2.7526392936706543,0.06437330044130363,0.04221716906741854,163.82423045103275,18.75
41,1.540557861328125,129.85430299687982,480.0279840541481,1547.0588282034826,-283.03279837776034,17.708333333333332,7.071192770705445,0.1,0.010665178298950195,0.24953866004943848,0.047088858,0.012734044,119.48769652379852,-0.7403422312528599,0.64840776874714,17.708333333333332,19200,2.5733754634857178,0.06726683047377005,0.043936300833767136,171.55692722829787,18.75
42,1.5422658920288086,260.6253744932554,546.116256504494,1546.4564675066802,-276.583668253239,23.958333333333332,7.080076432442279,0.1,0.010854721069335938,0.3140990734100342,0.053724777,0.014883002,133.6014643207442,-0.6843871317180247,1.3004045349486422,23.958333333333332,19200,2.457566261291504,0.05899798783867021,0.04113002954544285,171.32637917343214,18.75
43,1.5695183277130127,101.09181311021983,440.676712701569,1545.2064204052347,-295.8620085550752,12.5,6.692179679348528,0.1,0.011197090148925781,0.29691553115844727,0.049131002,0.016528225,130.3504991996918,-0.7479835561359343,0.5036831105307327,12.5,19200,2.525812864303589,0.0553054674295721,0.0389780628067348,178.4384102574886,18.75
44,1.4868783950805664,68.58737514388018,406.9012431297859,1224.0086189668286,-267.63208799649556,13.541666666666666,5.1646034997634915,0.1,0.014119148254394531,0.3441810607910156,0.05899268,0.0192304,124.17418679411062,-0.7588699357131707,0.3427967309534958,13.541666666666666,19200,2.6356358528137207,0.10981255023069822,0.06837173209966922,192.1817809222537,12.5
45,1.678065538406372,108.6598037553676,453.04765667716936,1388.3134481266948,-292.01765950136866,14.583333333333334,5.886786490062282,0.1,0.010714292526245117,0.3141770362854004,0.049934074,0.012113918,122.62274849023633,-0.7478639764626971,0.5425526902039699,14.583333333333334,19200,2.5682857036590576,0.05631018748389237,0.03266502816389885,196.0746234570833,12.5
46,1.710756778717041,172.23653422203301,470.0611569181279,1397.9007982213088,-256.3605275090979,18.75,6.18476933483528,0.1,0.011018991470336914,0.26628589630126953,0.048839733,0.015665777,127.584127063416,-0.6880580685649105,0.8604835981017563,18.75,19200,2.3825104236602783,0.10885682567001835,0.044543483729423856,198.96828701829384,12.5
47,1.6409401893615723,171.00668168656202,484.3890941097293,1483.4959224728907,-271.59636624055946,22.916666666666668,5.602943967645102,0.1,0.010997295379638672,0.2934391498565674,0.05075051,0.014847714,131.92638252573062,-0.6998279137146458,0.8535054196186875,22.916666666666668,19200,2.4049220085144043,0.06284756113702232,0.04063236619917554,203.49470461955045,12.5
48,1.5960662364959717,148.37660897430624,526.8267051257561,1540.4948498605143,-257.97703498982145,19.791666666666668,5.4485024616128825,0.1,0.01395726203918457,0.3401007652282715,0.04668518,0.01890079,133.57140517058818,-0.7533318946407183,0.740626438692615,19.791666666666668,19200,2.4997689723968506,0.04819638805861819,0.026250589912267627,209.43691180161807,12.5
49,1.561110258102417,97.42662244150007,460.10535311878544,1363.0618888457414,-299.31035718282556,14.583333333333334,4.997111793265657,0.1,0.013338804244995117,0.34274816513061523,0.045265466,0.016446633,129.95692689767938,-0.7679972660608908,0.4853360672724428,14.583333333333334,19200,2.435204029083252,0.07052636681998614,0.041611247139317596,214.13934177743,12.5
50,1.5545461177825928,144.47812493439122,474.6142589619591,1399.436417473638,-253.58443060463807,17.708333333333332,6.097184137700198,0.1,0.011300086975097656,0.27971673011779785,0.05392124,0.017044032,131.40904670135058,-0.735522690650711,0.7217689760159557,17.708333333333332,19200,2.469736337661743,0.07473289233484927,0.0508608880150032,223.22555250705037,12.5
51,1.5067453384399414,160.16361221438402,493.9379573554876,1383.705509816339,-226.00129327457316,17.708333333333332,7.158788588368384,0.1,0.011049032211303711,0.31440234184265137,0.052272614,0.014083699,134.2845032526539,-0.6959801497162741,0.799228183617059,17.708333333333332,19200,2.5028371810913086,0.0748696858007427,0.044837688461275726,225.14185630269347,12.5
52,1.68332839012146,192.38993997205117,506.7686021319392,1367.9668105177873,-289.60727067727805,20.833333333333332,5.659524624736014,0.1,0.010979890823364258,0.2907125949859619,0.05075756,0.0162465,140.09504692459365,-0.7211407904118589,0.961359209588141,20.833333333333332,19200,2.5617997646331787,0.04145505200981018,0.019561342910432874,223.62408517294904,12.5
53,1.8597939014434814,318.67080928529737,573.1297492854914,1541.2683207861742,-295.6161116664935,30.208333333333332,6.327041342882736,0.1,0.011082172393798828,0.35820436477661133,0.04898362,0.020940628,157.95262316066402,-0.6541199168871962,1.5906717497794702,30.208333333333332,19200,2.557262420654297,0.05648115087338012,0.026336085748195445,220.14145201040154,12.5
54,2.0134148597717285,189.86808020258022,488.50440261928344,1544.9848484333702,-271.6390013526342,18.75,7.021220265318752,0.1,0.011353015899658203,0.3318822383880615,0.05190055,0.013532955,161.14416886485566,-0.6876532158438119,0.9475551174895215,18.75,19200,2.5391604900360107,0.06959873944929211,0.03871923415281227,220.57374214259494,12.5
55,1.4734761714935303,190.9762921584672,533.9252758639186,1537.606534881729,-261.62413172403484,20.833333333333332,5.975620441935116,0.1,0.010886192321777344,0.2808666229248047,0.05214859,0.014921391,164.1273811942168,-0.7206052939352042,0.9537697060647957,20.833333333333332,19200,2.6919760704040527,0.05383750782027877,0.031785527182518425,207.49737136613402,12.5
56,1.4639203548431396,133.57964439718754,470.05610451580435,1535.1024890552144,-257.12661388629374,15.625,7.3688621564364505,0.1,0.01145029067993164,0.31959033012390137,0.050735556,0.013695225,161.0726075145139,-0.7162751472237083,0.665183186109625,15.625,19200,2.6417667865753174,0.0685575494368535,0.03477352263641008,218.83305472251132,12.5
57,1.5380232334136963,279.0975965135132,592.4443538877738,1553.0336131667555,-284.8243336598064,28.125,7.911663394773112,0.1,0.010736465454101562,0.31934046745300293,0.051484093,0.011932018,172.87510641441384,-0.6938491648418109,1.3928175018248556,28.125,19200,2.8270983695983887,0.03728611689217079,0.019450505834366246,209.49934388909708,12.5
58,1.5360581874847412,216.5146148904618,550.7461276033858,1534.3159231688053,-263.7014455471458,21.875,5.715063588589301,0.1,0.011099815368652344,0.31637144088745117,0.04766033,0.0179691,177.23905726201863,-0.7045921909251757,1.0810328090748242,21.875,19200,2.5010852813720703,0.04999957613865887,0.031258047788358445,217.19699216310596,12.5
59,1.5797584056854248,232.6384592043653,576.8379825945856,1488.7581606833967,-280.2488801873121,27.083333333333332,6.314275014854239,0.1,0.016823530197143555,0.33270835876464844,0.04620345,0.016973231,182.7789974562533,-0.725157528299761,1.1613008050335722,27.083333333333332,19200,2.547724485397339,0.03766450623691272,0.023514646111770763,217.68929078078378,12.5
60,1.7238516807556152,187.3133881518032,527.7104788349463,1536.1137749974434,-279.7087898556084,20.833333333333332,6.436099041163194,0.1,0.01605963706970215,0.4025442600250244,0.05286494,0.015582239,183.2324365258083,-0.7249225841018246,0.9354940825648419,20.833333333333332,19200,2.625056743621826,0.053645108560099145,0.03512445619890539,219.5621708627956,12.5
61,1.7105398178100586,195.6694176103886,534.8362938642352,1506.0831069812032,-283.4450865366386,21.875,5.916256514414031,0.1,0.011028766632080078,0.35776185989379883,0.051052157,0.016973251,184.47613463426634,-0.7130921405337256,0.9756578594662743,21.875,19200,2.619033098220825,0.03260623984340134,0.02207317918654553,228.7972791877995,12.5
62,1.856665849685669,158.8795944194982,488.2641822653553,1543.4011894603723,-274.2279848545482,18.75,6.289246437503052,0.1,0.011053800582885742,0.30156850814819336,0.053290464,0.016349217,181.91648061278954,-0.7319490109381687,0.7934676557284982,18.75,19200,2.645141839981079,0.05900825024777055,0.04238767232478456,252.5625370404418,18.75
63,1.7666294574737549,195.7787305689234,522.54575593415,1550.6526367380118,-273.24924046578366,19.791666666666668,5.052470518439753,0.1,0.014988899230957031,0.2685215473175049,0.052311648,0.01791275,183.30270560840293,-0.7217782766779596,0.9773883899887069,19.791666666666668,19200,2.6029937267303467,0.029155426620404306,0.018303832673074467,243.86292817422145,18.75
64,1.7783513069152832,125.75599655345506,514.0254825114425,1448.3327491945959,-254.79196791803392,16.666666666666668,7.792086083871048,0.1,0.011507987976074219,0.29423093795776367,0.048756283,0.012805396,177.54803470290815,-0.7258324433001535,0.628334223366513,16.666666666666668,19200,2.5573644638061523,0.04487707769002221,0.02883277725416882,248.60723215236496,18.75
65,1.58213210105896,335.61588959617285,608.2556594214559,1549.9658476358477,-266.5572656038579,35.416666666666664,5.4813302257650935,0.1,0.012126445770263672,0.27994394302368164,0.047941115,0.01656601,193.35482019223463,-0.6648974182609088,1.6759359150724247,35.416666666666664,19200,2.5679128170013428,0.025291216151219053,0.0138906501086125,260.81818215386113,18.75
66,1.7243742942810059,259.6140022626216,565.8981967995051,1522.5268325728623,-256.5581891697109,26.041666666666668,6.872998553399656,0.1,0.010776519775390625,0.28221559524536133,0.054610495,0.014900414,199.98073839927332,-0.690710817959384,1.296997515373949,26.041666666666668,19200,2.530336380004883,0.027850207314381335,0.016402669716554012,260.0722065763266,18.75
67,1.6045372486114502,274.5467269425299,552.9555760523948,1487.3293209722576,-266.3496636220062,29.166666666666668,5.528338600252771,0.1,0.01672840118408203,0.3711426258087158,0.055567157,0.019267539,207.437337253599,-0.6608578187858017,1.371433847880865,29.166666666666668,19200,2.5289344787597656,0.03640148133517445,0.01874613063709409,241.68840494638775,18.75
68,1.8165864944458008,133.8389996207884,494.9868763031188,1486.3297956543036,-246.63786139955232,18.75,6.068056326831403,0.1,0.011104583740234375,0.29569411277770996,0.054181416,0.015795393,200.07750349031792,-0.7313796784724959,0.6675786548608377,18.75,19200,2.6301302909851074,0.03662393480487964,0.017400452545387902,253.11151239090375,18.75
69,2.0191152095794678,249.60703137828895,537.3057066376507,1544.666888303118,-273.65720175529003,22.916666666666668,6.651077853910621,0.1,0.011262893676757812,0.30178236961364746,0.05075307,0.015266864,205.03045627911501,-0.6622857334789259,1.2462559331877403,22.916666666666668,19200,2.854029655456543,0.036827106746030305,0.021238487709099304,244.7776728301353,18.75
70,1.5323591232299805,305.81661066043233,572.8633942767609,1518.163843260782,-259.2558115916775,32.291666666666664,5.593414949437939,0.1,0.012703180313110352,0.26159238815307617,0.054321468,0.018801041,215.10907171724676,-0.6691822916280393,1.5268593750386275,32.291666666666664,19200,2.871598958969116,0.026725602073031634,0.016240794917891474,234.76684801759532,18.75
71,1.633265733718872,349.9630701068854,593.0607223915086,1518.2846602104455,-279.3067145638876,33.333333333333336,5.205071758363894,0.1,0.010745048522949219,0.26322054862976074,0.047989007,0.017734202,228.59447155621064,-0.6529946504362446,1.748047016230422,33.333333333333336,19200,2.6198110580444336,0.026895630183885987,0.017085470947514232,249.13112682681228,18.75
72,1.5412817001342773,201.5934476910511,536.2081755622712,1513.7286994576616,-277.6575565232331,20.833333333333332,5.0773784868130845,0.1,0.010951042175292969,0.3175036907196045,0.0487597,0.018778581,225.89436916969467,-0.7000816492189893,1.006376684114344,20.833333333333332,19200,2.576181173324585,0.04310595114995281,0.020561345747864054,254.68734628639342,18.75
73,1.8649520874023438,187.9798134077762,522.5249199533231,1547.5770563717656,-240.92529468286327,16.666666666666668,6.0516543921149495,0.1,0.010874032974243164,0.2733025550842285,0.04846665,0.017291764,222.10291359350282,-0.7034988032140612,0.9390011967859385,16.666666666666668,19200,2.545227527618408,0.04374240654806173,0.027772809487252425,259.5923242600752,18.75
74,1.9050142765045166,179.40080789832436,528.3531361187894,1479.6706301208606,-275.66024329046405,19.791666666666668,7.754952269880371,0.1,0.012640237808227539,0.3791849613189697,0.049746025,0.011782194,217.832703023985,-0.7218266565648289,0.8952566767685043,19.791666666666668,19200,2.6518666744232178,0.037988296591988505,0.024057110495767784,271.32397847157097,18.75
75,1.5514981746673584,221.03454871290282,511.5829755001896,1371.9685532717356,-237.03308717794215,19.791666666666668,7.906284486938712,0.1,0.026873111724853516,0.37158942222595215,0.053179357,0.012902591,218.15288759287677,-0.6665678762752961,1.1042654570580372,19.791666666666668,19200,2.679919719696045,0.03718757968968335,0.02741432911895576,262.70801297493966,18.75
76,1.830338478088379,343.95607834630624,593.680849629755,1477.464356991331,-254.915135628436,34.375,6.297594965654474,0.1,0.011699199676513672,0.3255159854888916,0.051829018,0.015067807,230.7332066682197,-0.6553286246293581,1.7171713753706417,34.375,19200,2.642301321029663,0.02066971802346928,0.009807739546978259,284.44351915849984,25.0
77,1.9379680156707764,212.07177477871326,545.0940605218608,1398.941196736135,-250.95183308361933,20.833333333333332,6.264321399182642,0.1,0.01108241081237793,0.29729485511779785,0.053665087,0.015467576,228.86706347926906,-0.7099081985009993,1.0586334681656673,20.833333333333332,19200,2.5684895515441895,0.049312505536664795,0.017752824111232732,279.04255415555895,25.0
78,1.784722089767456,199.20093304383695,538.774899592754,1438.6728369190896,-278.54069992440617,20.833333333333332,5.732640806017135,0.1,0.011013507843017578,0.31304097175598145,0.04832358,0.018600168,225.90045043572587,-0.7039863252631274,0.995597008070206,20.833333333333332,19200,2.4231221675872803,0.03103947811480066,0.015948531870073064,279.72133987767387,25.0
79,1.5874042510986328,254.03877447175373,562.1371705860561,1520.3069004422644,-277.32325852864557,25.0,7.407848383975033,0.1,0.011111259460449219,0.28534746170043945,0.05221977,0.014560351,228.71428283932866,-0.6907288665095797,1.2684378001570875,25.0,19200,2.385699987411499,0.024230834480768373,0.013714404945086127,276.36477134382227,25.0
80,1.6083972454071045,214.82586030858045,557.449482920087,1542.9278133370008,-257.5783695600104,18.75,7.473226556523845,0.1,0.013352155685424805,0.35776352882385254,0.04883003,0.013823319,227.32544058625385,-0.709205582316884,1.072877751016449,18.75,19200,2.4256999492645264,0.04244975725327717,0.024144043595359488,279.9863016678975,25.0
81,1.7393810749053955,152.5313012613817,528.7060042356002,1532.0723910805566,-245.03593016491686,16.666666666666668,5.523344985661256,0.1,0.011617183685302734,0.32335782051086426,0.04992775,0.019906756,219.84602665376661,-0.7255745133439637,0.7613004866560362,16.666666666666668,19200,2.549592971801758,0.04564197177425998,0.02922144738202867,274.532574080062,25.0
82,1.6568019390106201,240.29128578335713,559.634626842317,1459.2195873233495,-246.39486314252534,23.958333333333332,5.956911913993588,0.1,0.010919332504272461,0.31789278984069824,0.05167264,0.016722502,221.89055256672566,-0.6819791041778996,1.1994792291554337,23.958333333333332,19200,2.465277671813965,0.051260656835285384,0.01955163814123742,275.7466458362039,25.0
83,1.6953065395355225,200.40245334469955,572.0038334845768,1555.4114429995357,-261.0845542836584,22.916666666666668,5.157344323782569,0.1,0.01094818115234375,0.3133053779602051,0.051636156,0.017911654,219.74174264452307,-0.7251246093913059,1.0007087239420276,22.916666666666668,19200,2.360931396484375,0.03071076373082229,0.016410113736542945,271.24795275699273,25.0
84,1.790550947189331,106.06556057866345,480.30285582695205,1507.8459702030555,-256.5809698492789,14.583333333333334,6.474427262223938,0.1,0.01264047622680664,0.26642322540283203,0.049383476,0.016483838,208.37412443793713,-0.7628826764362492,0.5292006568970841,14.583333333333334,19200,2.356671094894409,0.0333489537311979,0.01914815771723705,269.9078926964433,25.0
85,2.0480496883392334,174.12269646729524,532.6375198638733,1456.3673618056155,-249.45541918910257,17.708333333333332,6.475710072177712,0.1,0.010699033737182617,0.35397911071777344,0.049244277,0.015331576,204.94898164087294,-0.7015697033617455,0.8698886299715879,17.708333333333332,19200,2.4240200519561768,0.024275919031015402,0.013431674356925554,274.5300504922718,25.0
86,1.6728665828704834,240.05272008181223,576.732909218804,1535.0236760231087,-264.95709136676476,21.875,6.9470354995003785,0.1,0.012649297714233398,0.36652350425720215,0.049094785,0.014984511,208.45935548496686,-0.7045273818949456,1.1975559514383878,21.875,19200,2.632343053817749,0.03282445701163918,0.01951836334383854,270.77289444276414,25.0
87,1.6603493690490723,258.8086208370523,553.9523161170392,1545.902367059695,-256.546474712157,22.916666666666668,6.010840381561183,0.1,0.010712385177612305,0.31674718856811523,0.049437772,0.016042456,213.49428202017543,-0.6612039601431785,1.2923377065234882,22.916666666666668,19200,2.486058473587036,0.04064932806725244,0.01965372990041824,270.10572576516984,25.0
88,1.6353747844696045,247.4800223033751,523.0985015511786,1547.1239630335006,-264.1488006838811,21.875,7.100676348513048,0.1,0.011394977569580078,0.25194287300109863,0.0490141,0.014825133,216.8928560484954,-0.6710538639063325,1.2358211360936675,21.875,19200,2.4106109142303467,0.041336555032350245,0.022615433548220872,281.0850428987809,25.0
89,1.746798038482666,306.61487977013394,577.4822079294141,1534.2182761004883,-236.24656728997988,28.125,7.109537027351766,0.1,0.01115727424621582,0.3100707530975342,0.053718947,0.0145527655,225.86505842065924,-0.6532967392634347,1.531078260736565,28.125,19200,2.4555821418762207,0.030011146542525853,0.0160585222631612,283.6772612912887,25.0
90,1.7172563076019287,120.6108276356161,484.5568816926665,1562.1268507712161,-259.2280720612004,12.5,5.992854483131179,0.1,0.01806783676147461,0.4189467430114746,0.051883206,0.016681803,215.33963534215493,-0.7033494222311626,0.601442244435504,12.5,19200,2.402705669403076,0.048209147765618736,0.02530336562737497,280.1404327414614,25.0
91,1.665738821029663,304.3899497552412,577.5219885196528,1536.6240067258364,-268.93334085918565,26.041666666666668,6.557498608211188,0.1,0.0157623291015625,0.3373591899871826,0.052237585,0.014974177,224.24466678346357,-0.6640114131645528,1.5199469201687805,26.041666666666668,19200,2.531470537185669,0.04408752754258062,0.01631234841215368,274.31244560592256,25.0
92,1.6862378120422363,210.70139138956685,545.6433303161643,1549.7456816467686,-267.8453986461746,19.791666666666668,6.797371872972597,0.1,0.010842561721801758,0.32163095474243164,0.04832155,0.014467118,222.89033924407389,-0.6955366711529903,1.0523799955136761,19.791666666666668,19200,2.630352735519409,0.026628119627714206,0.012608011029215615,271.7453857026005,25.0
93,1.561324119567871,215.41317536525344,563.6184694626234,1534.4205389741142,-240.81364343829713,19.791666666666668,5.797875005359555,0.1,0.011001825332641602,0.31789612770080566,0.052202925,0.017361747,222.14262285619185,-0.7072115948778838,1.0752884051221165,19.791666666666668,19200,2.5366101264953613,0.030632370314395793,0.01564017300283105,275.94847255090434,25.0
94,1.716352939605713,202.26518406760434,551.8899646392156,1548.4366077647771,-241.55846756417492,22.916666666666668,6.519452523604818,0.1,0.011446475982666016,0.2736964225769043,0.048927758,0.013404226,220.1548789773331,-0.7049630585516363,1.0100369414483634,22.916666666666668,19200,2.717620849609375,0.03778290834565441,0.01735917037282678,274.4049028603276,25.0
95,1.6715497970581055,329.14625120658974,589.2901300184325,1511.7940287508138,-246.77345234199956,31.25,5.392357065153181,0.1,0.011010885238647461,0.3086230754852295,0.05228209,0.016862174,231.0540162002588,-0.6498701435941335,1.6440881897391997,31.25,19200,2.5021889209747314,0.023282683419031138,0.010764723474704396,277.34918306021945,25.0
96,1.796654224395752,273.6135106121938,564.2866067132917,1364.412019848999,-272.67108812376244,30.208333333333332,6.081625141784271,0.1,0.01425790786743164,0.3412744998931885,0.05185019,0.015559027,235.3099656414523,-0.6888735366917776,1.3667514633082225,30.208333333333332,19200,2.520404815673828,0.020854161545183048,0.012436542488563372,279.6990915499375,25.0
97,1.7860848903656006,182.79182833441487,516.336090731558,1470.2709054741374,-258.3812042114174,19.791666666666668,5.9628611495759385,0.1,0.024005651473999023,0.43565940856933594,0.05085086,0.015603118,230.05815191074856,-0.7052247062589844,0.9131086270743488,19.791666666666668,19200,2.5952095985412598,0.03240966537722085,0.019465452502050676,281.56458092263665,25.0
98,1.7625346183776855,261.3247861715606,542.6968902300996,1557.9142294341882,-260.64174528064586,25.0,5.553690504264463,0.1,0.011710166931152344,0.31704044342041016,0.055742275,0.017371578,233.1848153368298,-0.6624787723615267,1.30481289430514,25.0,19200,2.718240976333618,0.039499039587101575,0.018214712381565433,278.84126455285275,25.0
99,1.685650110244751,208.9687621223301,526.1596021067398,1560.2176402987238,-256.84039648447475,21.875,5.855636955519655,0.1,0.01108551025390625,0.3148767948150635,0.051501047,0.015448464,230.7632100153798,-0.7127325594012047,1.0435174405987955,21.875,19200,2.684689521789551,0.029200435096979623,0.014860756619634152,282.3674944390456,25.0
100,1.7673735618591309,158.37951137781616,465.76083067671874,1352.1654485385855,-264.1985446702608,14.583333333333334,6.7285303917612636,0.1,0.011719465255737305,0.3444688320159912,0.049850885,0.014212253,223.52484015162344,-0.7281416975981615,0.7908166357351719,14.583333333333334,19200,2.590862512588501,0.03606258052672605,0.019766188464579386,284.194585839389,25.0
101,1.6802647113800049,255.3711008954182,579.6093387770313,1544.3013441156882,-280.0751936695097,22.916666666666668,6.761618346393441,0.1,0.012956380844116211,0.32657432556152344,0.050814096,0.014829453,226.70946622600292,-0.6749204912032551,1.2746628421300785,22.916666666666668,19200,2.6045804023742676,0.022037924950733135,0.011642694470699941,284.4982401090982,25.0
102,1.7033655643463135,187.02993148852855,539.4566245869005,1459.8366558970652,-254.37673792428538,19.791666666666668,5.7503659348490554,0.1,0.011605024337768555,0.29020023345947266,0.05172485,0.018490406,222.74151275225546,-0.6822420510972605,0.9335912822360726,19.791666666666668,19200,2.7561590671539307,0.02519070264615964,0.011520245509429766,285.76056402868136,25.0
103,1.6765780448913574,255.1756073783496,567.0423805880798,1557.794334460497,-250.51183448830642,25.0,6.640772130937902,0.1,0.011303424835205078,0.29836130142211914,0.051090315,0.014894746,225.9849222148649,-0.6554566660477141,1.2743350006189527,25.0,19200,2.6614580154418945,0.03232813369754916,0.019349364341510654,288.6568347722684,25.0
104,1.550307035446167,309.5404502894813,613.953876187996,1554.1860226855329,-260.400985308227,25.0,6.109852829425294,0.1,0.010916948318481445,0.27478528022766113,0.04812513,0.018416572,234.34047502232656,-0.6564179075654751,1.5454570924345248,25.0,19200,2.6531381607055664,0.024652884073569744,0.011761080825418864,291.2659375775851,25.0
105,1.735555648803711,163.7512653416239,521.1858769354133,1562.7736048682914,-255.99976307657906,16.666666666666668,6.8336874825641125,0.1,0.011297225952148438,0.29432201385498047,0.051941805,0.014055022,227.28155405425628,-0.711599852222582,0.8169418144440845,16.666666666666668,19200,2.7388241291046143,0.04150536725604909,0.018646365049718245,297.8474126740437,25.0
106,1.7524762153625488,230.5654634974253,520.3548073918545,1502.1876769656305,-224.87019797592484,19.791666666666668,5.791547640446736,0.1,0.012206792831420898,0.38187718391418457,0.050399236,0.018416755,227.6099449985732,-0.6755597843229543,1.1517318823437128,19.791666666666668,19200,2.81813907623291,0.03569164731109733,0.015916530518901795,297.27919099914476,25.0
107,1.8635258674621582,143.37773301508898,487.63876190129355,1539.404731795939,-250.05242602598221,14.583333333333334,6.5188787215047235,0.1,0.017344951629638672,0.2964751720428467,0.049725965,0.01582815,219.1867238002248,-0.7153050951816701,0.7151115714849965,14.583333333333334,19200,2.8668038845062256,0.04585783861123364,0.02196949415022258,297.5798831908035,25.0
108,1.6687262058258057,304.57741050021053,597.2084732495948,1512.5658726270563,-271.00009797345234,28.125,6.4736558575806695,0.1,0.011496305465698242,0.3156266212463379,0.05060512,0.01681615,227.72579247022338,-0.6708640310354506,1.5218443022978827,28.125,19200,2.9238440990448,0.026356785158892164,0.013000809978601325,298.6460161300214,25.0
109,1.5495600700378418,248.62674876828387,541.2871960502763,1547.45118834692,-251.6040537364297,23.958333333333332,6.63357045494131,0.1,0.014303445816040039,0.39988136291503906,0.050006673,0.015338896,229.81588810002944,-0.6750175084142221,1.2406074915857779,23.958333333333332,19200,2.9308021068573,0.03553287340466322,0.019282545863652578,298.4178870836025,25.0
110,1.72520112991333,272.61363582241563,567.4111335716568,1554.5437696891,-273.96134711780206,27.083333333333332,6.509835985153297,0.1,0.011654376983642578,0.41572093963623047,0.052971043,0.015457939,234.09566287226806,-0.6543796760946478,1.3608286572386856,27.083333333333332,19200,2.805948495864868,0.025014628101524442,0.012576330253650722,303.3669825183458,25.0
111,1.7579774856567383,181.38761900776367,500.8897124317792,1518.8320832569261,-267.3352100922141,17.708333333333332,5.623768143190967,0.1,0.011582374572753906,0.30968713760375977,0.053239405,0.01960431,228.82485848581763,-0.7000682603013382,0.9053484063653285,17.708333333333332,19200,2.9751765727996826,0.03248218426104625,0.018510082072344215,308.85400661230307,25.0
112,1.7826907634735107,238.23918907208068,553.167383321046,1534.9979757478252,-262.48342320364725,25.0,6.053082969865909,0.1,0.010979890823364258,0.31656575202941895,0.05074996,0.017980019,229.76629154444396,-0.6867983022525102,1.18945169774749,25.0,19200,2.7627503871917725,0.024588369118846414,0.014390101792955037,311.4091687703348,25.0
113,1.7556662559509277,231.6420519840933,547.2785702445777,1461.5333736269652,-263.6571483278634,21.875,6.518272184883787,0.1,0.011026620864868164,0.30893969535827637,0.049416367,0.016863042,229.9538675884089,-0.6787291870990556,1.1568958129009443,21.875,19200,2.6137099266052246,0.030956276598648625,0.01358025221212894,310.43143233913395,25.0
114,1.6633732318878174,307.7388821317172,560.3332837729588,1367.2936264037103,-251.1104920669301,29.166666666666668,5.467019713180984,0.1,0.013135433197021484,0.3296365737915039,0.048408274,0.017756017,237.73236904273975,-0.6678475044158554,1.5369441622508118,29.166666666666668,19200,2.6664676666259766,0.031563062191279447,0.015586675813583403,310.21240980910113,25.0
115,1.7320401668548584,271.94852614217365,548.1978699542584,1552.1227882114842,-270.7000636319291,23.958333333333332,8.138745277128788,0.1,0.012090682983398438,0.3000500202178955,0.051092725,0.012398721,241.15398475268313,-0.6520852768502295,1.357706389816437,23.958333333333332,19200,2.633497953414917,0.03282094144362259,0.01656466540693139,314.11737087379106,25.0
116,1.5682446956634521,205.92599582483103,547.1259278555214,1451.709326297004,-244.79159706224806,20.833333333333332,6.163224969240871,0.1,0.010844945907592773,0.33017730712890625,0.051042337,0.015493864,237.63118585989793,-0.7003341988583207,1.0286241344750124,20.833333333333332,19200,2.776749610900879,0.02242000845546787,0.012000989289740699,306.479947708064,25.0
117,1.6639668941497803,304.5656294679215,588.9493792209659,1555.8164012517568,-244.69004974616945,27.083333333333332,5.470926312720664,0.1,0.011030912399291992,0.3374772071838379,0.052649617,0.0177269,244.3246302207003,-0.6553097440118267,1.5201069226548398,27.083333333333332,19200,2.824068784713745,0.02775142814170372,0.011194885391896978,305.8780105882389,25.0
118,1.7118265628814697,234.8813255656095,538.3024301653924,1549.6194222823842,-269.8197615162844,19.791666666666668,7.496413130382201,0.1,0.011073112487792969,0.3109726905822754,0.05012134,0.01353568,243.3802997551912,-0.6617880183849311,1.172586981615069,19.791666666666668,19200,2.669153928756714,0.031436043673143566,0.013901719628726116,321.29215193291145,31.25
119,1.5532166957855225,248.73481182957212,568.5584011406256,1561.9310175451637,-246.2108067063359,26.041666666666668,6.485413467318535,0.1,0.011690855026245117,0.3311474323272705,0.049610395,0.017708298,243.91575096262932,-0.6783320820450283,1.241876251288305,26.041666666666668,19200,2.6567392349243164,0.021947476466111216,0.010244642900117036,324.5196670294119,31.25
120,1.7708735466003418,323.98622296758464,584.8314907980604,1558.030768613356,-248.6228450895196,30.208333333333332,6.159886585341145,0.1,0.011468648910522461,0.3749964237213135,0.053641483,0.015630478,251.92279816312487,-0.6493668567670844,1.6179248098995824,30.208333333333332,19200,2.6114883422851562,0.01935463921249432,0.00962493300219601,320.78329629186516,31.25
121,1.698439121246338,276.56044266069006,541.2499144591816,1551.710364384664,-235.25455596662601,22.916666666666668,6.481523707657119,0.1,0.015567779541015625,0.3456909656524658,0.047573306,0.015209885,254.3865626128814,-0.6465883637688276,1.3800783028978387,22.916666666666668,19200,2.633309841156006,0.02637976240713567,0.015648940122960427,318.8159542228125,31.25
122,2.06851863861084,177.77476860313308,497.50703628085387,1468.8622537775236,-258.74550831717823,16.666666666666668,5.830297410214517,0.1,0.011351346969604492,0.39451098442077637,0.05026664,0.016676955,246.72538321190655,-0.6836324798404788,0.886159186826188,16.666666666666668,19200,2.7223732471466064,0.024875693685369273,0.015203652236676806,315.64185101855753,31.25
123,1.764906406402588,234.09425617122875,526.2555062606054,1523.1046051107708,-276.8588520580349,20.833333333333332,6.24190937610654,0.1,0.01076054573059082,0.30874013900756836,0.04737381,0.015155477,245.46227050783878,-0.6946269595117182,1.1684980404882819,20.833333333333332,19200,2.748746633529663,0.033461342049441234,0.011280917576650269,305.1141616269438,31.25
124,1.7833943367004395,310.26485083062204,594.8363840786765,1544.2631893148778,-250.59323773007424,26.041666666666668,4.934231955407863,0.1,0.011520862579345703,0.25603246688842773,0.05418064,0.021123173,251.9425285401171,-0.6302887363415636,1.5497112636584365,26.041666666666668,19200,2.5794665813446045,0.02665915857635452,0.014259716193383377,298.9102235271637,25.0
125,1.7992103099822998,224.51327929750514,521.03340920887,1517.0904197361149,-281.6737399217734,19.791666666666668,5.8743761539841595,0.1,0.011682271957397461,0.3210597038269043,0.052611046,0.016929155,249.19960361585592,-0.6840292018075994,1.1211791315257342,19.791666666666668,19200,2.6422159671783447,0.028750406256357514,0.01643390301558016,301.855226569273,25.0
126,1.737259864807129,336.11011704549605,585.1198888075658,1554.1222553879163,-261.539360553046,28.125,5.471037263136655,0.1,0.01098775863647461,0.2979447841644287,0.049086846,0.018290296,257.89065495881994,-0.6498562606307148,1.679518739369285,28.125,19200,2.5589041709899902,0.022629641291090925,0.01519003551006307,310.4129156744517,25.0
127,1.8006463050842285,230.25554985204622,538.8219985352993,1540.128651180773,-249.27151016891824,28.125,5.735439378197618,0.1,0.013879776000976562,0.3867764472961426,0.049629267,0.017711407,255.12714444814256,-0.6848886584694945,1.1499030081971722,28.125,19200,2.6635236740112305,0.03233087450170044,0.01735831830240037,306.79714470146973,25.0
128,1.7614614963531494,314.100951575193,585.8560067246239,1551.948864364469,-255.03016618577902,26.041666666666668,8.097957491151877,0.1,0.021071195602416992,0.3606858253479004,0.052922107,0.012183497,261.0245251608476,-0.6498923642041953,1.5680243024624712,26.041666666666668,19200,2.799790859222412,0.02412751645481975,0.013131131017980694,319.5444944504813,25.0
129,1.7958786487579346,297.43747615908273,595.0771956452891,1537.165758503045,-240.96419702958545,26.041666666666668,5.9444031437344265,0.1,0.014380693435668945,0.36780261993408203,0.05012602,0.01618993,264.6658202606711,-0.6476892323469511,1.486269100986382,26.041666666666668,19200,2.7691500186920166,0.021633425432189386,0.011897696254641118,327.0716175796043,25.0
130,1.6834557056427002,353.78586546746675,576.5287547173843,1559.2485460432515,-230.40303580587255,29.166666666666668,5.576715234578472,0.1,0.011339426040649414,0.3133962154388428,0.053540148,0.017463459,273.5778247813507,-0.6298857206045527,1.7657392793954472,29.166666666666668,19200,2.7944509983062744,0.022598663536064864,0.011313372160291659,323.7431161617826,25.0
131,1.7210817337036133,403.802392089261,632.0177730139886,1556.0094236541443,-277.3900149843124,38.541666666666664,5.899595629143502,0.1,0.01081705093383789,0.30711913108825684,0.04686505,0.01678985,286.60028151214175,-0.6150872545230447,2.0169960788102888,38.541666666666664,19200,2.797264814376831,0.024648100071376976,0.013095534167845476,329.433365326542,25.0
132,1.5524396896362305,322.95802865673113,602.0604575439072,1519.9605503100995,-277.0154992582725,32.291666666666664,6.736951880462277,0.1,0.010985851287841797,0.2594337463378906,0.047794476,0.014052331,290.2360562266007,-0.6574686065409117,1.6125313934590884,32.291666666666664,19200,2.672703981399536,0.015103931547595087,0.00877180575472326,336.68079271338365,31.25
133,1.5063323974609375,232.08841731732184,561.5589289419335,1436.3812055222925,-248.8414135466151,20.833333333333332,5.467265116828902,0.1,0.0111846923828125,0.3206350803375244,0.051124867,0.0174848,284.42129233567283,-0.6915995695998598,1.1579837637334736,20.833333333333332,19200,2.6226580142974854,0.01764900755062185,0.009243514348264887,347.8616809229885,31.25
134,1.8540012836456299,276.24799326709484,564.2265570011807,1478.6787122929748,-273.4804171133962,26.041666666666668,6.230035536203078,0.1,0.011251449584960938,0.29834604263305664,0.047829423,0.018795462,283.60396242881507,-0.6613850281488265,1.3792399718511736,26.041666666666668,19200,2.6333959102630615,0.020729509369593994,0.010154092670521173,341.72037084093614,31.25
135,1.7902634143829346,306.0011800651829,595.543652858626,1520.9321737891348,-270.4545589057713,27.083333333333332,7.239381503376735,0.1,0.012351751327514648,0.39974164962768555,0.050914876,0.01460005,285.84368419245186,-0.667989434229599,1.528468899103734,27.083333333333332,19200,2.648242712020874,0.018759601052300907,0.010515323428656189,341.08887339820075,31.25
136,1.7344145774841309,293.95378662172567,588.0988806556844,1543.2030003423156,-284.7234095530752,23.958333333333332,5.536826036579654,0.1,0.011042356491088867,0.31647586822509766,0.04787036,0.019079145,286.65469443537927,-0.6537263735527334,1.4673152931139335,23.958333333333332,19200,2.715282678604126,0.02200140647451196,0.010352148575514418,348.4458461756649,31.25
137,1.6996722221374512,321.2808654017829,603.0941779242851,1544.2029139501842,-283.74532836694993,33.333333333333336,6.222497662045568,0.1,0.011042118072509766,0.31977033615112305,0.05268937,0.017680323,290.11731153201964,-0.6712419636553749,1.6035497030112917,33.333333333333336,19200,2.7699966430664062,0.01580313580232997,0.008039240011243913,347.48414705007656,31.25
138,1.7533209323883057,256.6337733268502,572.6391371403391,1545.3298111793474,-261.9408549097597,25.0,5.327520914516295,0.1,0.010695219039916992,0.26995110511779785,0.04538014,0.016038716,286.7689577115027,-0.6836907325070086,1.2804759341596583,25.0,19200,2.68595027923584,0.019674674579203588,0.010948167022655648,345.0768052191182,31.25
139,1.4594426155090332,226.99952409359062,562.8704307833545,1421.095304856059,-254.98457770019635,26.041666666666668,6.055400267413284,0.1,0.01120901107788086,0.318403959274292,0.048275426,0.014984393,280.7920143497115,-0.6800223186036818,1.131644348062985,26.041666666666668,19200,2.6465134620666504,0.02037225120930805,0.009581696626758196,355.5383885003396,31.25
140,1.4641194343566895,279.0355849787766,556.2533450651642,1542.864122739181,-265.94407983436133,28.125,5.280190614860587,0.1,0.011472463607788086,0.31120824813842773,0.049318925,0.01904132,280.61637141261804,-0.658534239182288,1.392924094151045,28.125,19200,2.7084591388702393,0.027265382871567,0.014441411346786103,356.5292225737143,31.25
141,1.4770808219909668,312.2865473482464,563.1048536202153,1512.0591293299904,-260.8428652889444,26.041666666666668,7.3102929947296245,0.1,0.010544776916503906,0.3030574321746826,0.049018595,0.013055568,283.78338900618087,-0.6396458477759931,1.5591041522240072,26.041666666666668,19200,2.738731861114502,0.024826079218293082,0.014267365088028774,350.4557127701483,31.25
142,1.4367561340332031,227.61880114854932,551.0147500245633,1419.5510795793848,-278.22619071100706,25.0,5.5298541706835405,0.1,0.011505603790283203,0.3023700714111328,0.047998413,0.018464046,278.1669302204177,-0.7097454710357262,1.1362961956309408,25.0,19200,2.647779703140259,0.029862754018543436,0.016039757478407326,356.98670978062205,31.25
143,1.4707014560699463,163.48421166968288,493.8097721415932,1545.277690107788,-273.7524119472151,16.666666666666668,6.367782454093162,0.1,0.010950326919555664,0.25334954261779785,0.0498676,0.01591276,266.6986583653443,-0.7107784544136523,0.8160965455863476,16.666666666666668,19200,2.664062738418579,0.04031315085932667,0.021287496751886324,365.8842386190845,31.25
144,1.4523906707763672,239.51928625861902,553.1894893411809,1446.1829093821743,-260.648335271143,23.958333333333332,5.345986216488716,0.1,0.010731935501098633,0.3085169792175293,0.05258455,0.017709529,263.98072115467176,-0.7033602603005136,1.1951814063661532,23.958333333333332,19200,2.658362865447998,0.029939437905967495,0.01274542266163061,363.4362562614775,31.25
145,1.6011228561401367,512.1677739355938,617.7553446543958,1547.987840549556,-249.58067491298354,38.541666666666664,6.071428876206792,0.1,0.011279821395874023,0.29751062393188477,0.0509435,0.01537482,288.799426432764,-0.5750739849593262,2.5572176817073404,38.541666666666664,19200,2.668905735015869,0.015942617728309967,0.007407675331680979,372.168867022157,37.5
146,1.4587700366973877,189.1043413353634,543.7174458142975,1431.1564641205023,-277.491023250193,21.875,5.548760986005468,0.1,0.011078357696533203,0.3020014762878418,0.04936048,0.017942425,278.82991792302397,-0.7282573085402019,0.9436176914597985,21.875,19200,2.6697375774383545,0.01695746459255106,0.008106122392784153,381.96744580006794,37.5
147,1.4928200244903564,261.8302875607385,560.8091307846328,1404.0268838856548,-250.21256369202817,26.041666666666668,5.472214859140425,0.1,0.011356592178344727,0.2850213050842285,0.04888889,0.020685654,277.1299548867954,-0.6918481738924371,1.307110159440896,26.041666666666668,19200,2.6879022121429443,0.016756707272148206,0.009143739750997602,387.7239071250674,37.5
148,1.4745967388153076,286.27761990436676,597.3246610432599,1550.5567264706067,-248.61512069977687,27.083333333333332,5.713629903282657,0.1,0.01101994514465332,0.30541443824768066,0.05301775,0.018554077,278.04472138855255,-0.6873529050700454,1.4284804282632881,27.083333333333332,19200,2.6788980960845947,0.013235824397366043,0.008143875226811224,394.0276195439907,37.5
149,1.4311232566833496,335.4150529995195,575.3027335924907,1553.614945854566,-241.33150106435482,27.083333333333332,5.418508765400906,0.1,0.011304855346679688,0.30611133575439453,0.04664358,0.01799929,283.78175454964924,-0.6339258190768805,1.674615847589786,27.083333333333332,19200,2.67696213722229,0.026446290812334437,0.01254885019119617,413.438347356373,37.5
150,1.4792585372924805,266.691798522982,548.5384725562462,1553.8245990746902,-245.52111124406562,19.791666666666668,7.214138135945212,0.1,0.01092386245727539,0.26150035858154297,0.048595082,0.01316776,282.0727589469825,-0.6649805822783132,1.3318944177216865,19.791666666666668,19200,2.6911277770996094,0.03215811839035402,0.01648316251758783,413.4769614898922,37.5
151,1.4444115161895752,261.3440585331654,574.1439649174683,1547.7016620372349,-261.34625407796034,26.041666666666668,6.410321546256629,0.1,0.011737585067749023,0.2515571117401123,0.05082026,0.016063545,279.9998889056008,-0.6728379373867098,1.30466206261329,26.041666666666668,19200,2.6075501441955566,0.020031660464604643,0.009359097263583327,398.77342132849543,37.5
152,1.5812416076660156,300.4984909636287,605.0511509411639,1558.7677151346002,-229.44425321941696,29.166666666666668,6.08850906487555,0.1,0.011390209197998047,0.28096842765808105,0.049175344,0.017082602,282.0497491114036,-0.6557408582615406,1.500509141738459,29.166666666666668,19200,2.521986484527588,0.020543848907674637,0.010760028152685104,391.3750003902863,37.5
153,1.6214783191680908,315.7668123572719,581.1312306591564,1516.8911825654545,-256.4218640132282,30.208333333333332,5.278378524075396,0.1,0.010435104370117188,0.2494502067565918,0.048362598,0.016783286,285.4214554359904,-0.6573439691921436,1.5766143641411896,30.208333333333332,19200,2.51067852973938,0.018626201666678825,0.007478008489889169,390.6390736814467,37.5
154,1.452888011932373,383.75417657528163,609.2775610273986,1549.6487103862378,-246.8758309683784,33.333333333333336,6.622436398624622,0.1,0.011225461959838867,0.2945363521575928,0.04907232,0.015035168,295.25472754991955,-0.626854050440998,1.916270949559002,33.333333333333336,19200,2.535388469696045,0.030739064705530953,0.012175572372010208,390.9466018355797,37.5
155,1.4852325916290283,278.33906271053576,566.2601953015644,1531.5387038522445,-276.77927577292047,29.166666666666668,6.290651492215727,0.1,0.010732173919677734,0.3115668296813965,0.05125706,0.014856893,293.5631610659812,-0.6899502350693103,1.3894247649306894,29.166666666666668,19200,2.565338134765625,0.025514425532063394,0.011348803533505055,393.0371097670819,37.5
156,1.4458701610565186,400.64335278018916,635.520246425025,1482.6575248197507,-267.8826244501956,36.458333333333336,6.161570212875905,0.1,0.011010408401489258,0.3088259696960449,0.043296088,0.015208307,304.271180237402,-0.634227861033987,2.0001471389660135,36.458333333333336,19200,2.5489730834960938,0.01921134344552621,0.010570759667633777,388.39478195191697,37.5
157,1.4920721054077148,268.9820042819399,578.1361199969416,1552.0156136928383,-245.11554741860542,26.041666666666668,6.0819878502649285,0.1,0.011368513107299805,0.28792548179626465,0.050434224,0.016772892,300.7422626418558,-0.6523183933667599,1.3433066066332398,26.041666666666668,19200,2.589200496673584,0.0252122339796499,0.0093946007075201,377.9625484784933,37.5
158,1.4644482135772705,383.0206207604881,594.0889813546536,1567.2103193668254,-272.06185303217114,35.416666666666664,5.690454607052811,0.1,0.010673046112060547,0.2640960216522217,0.048307374,0.014832788,308.970098453719,-0.6288648896709408,1.9115517769957258,35.416666666666664,19200,2.5412909984588623,0.015144301604123205,0.007159995312881553,371.7296959206928,37.5
159,1.4442977905273438,267.4254475651187,551.4641689392696,1344.079987060962,-261.46937054224924,27.083333333333332,6.1718617006588685,0.1,0.011366605758666992,0.3117501735687256,0.052412543,0.014368314,304.81563336485897,-0.6822141850478122,1.335285814952188,27.083333333333332,19200,2.507289409637451,0.021830780429708502,0.012925047042279064,376.6226098568072,37.5
160,1.677025556564331,318.0585254547399,594.854824125056,1511.4662790047205,-273.7470293000161,28.125,5.494956968712546,0.1,0.011019229888916016,0.3109614849090576,0.04518099,0.018173518,306.1399225738471,-0.6448973199427468,1.5878110133905867,28.125,19200,2.5262246131896973,0.016703525534289596,0.007271809719102296,380.90220492764365,37.5
161,1.442060947418213,345.5988673874203,577.7941458312872,1535.8886158243781,-250.90702832509675,30.208333333333332,6.337590838011637,0.1,0.010854005813598633,0.2510032653808594,0.047011383,0.014678892,310.0858170552044,-0.6438763793027428,1.7250819540305908,30.208333333333332,19200,2.520902395248413,0.019155998202366773,0.010610482441349597,372.0836050110595,37.5
162,1.4544992446899414,319.99051148595123,573.8904342833506,1548.556175674085,-250.0046517313679,29.166666666666668,5.104900496533677,0.1,0.011856555938720703,0.3058645725250244,0.050814882,0.018831305,311.0762864982791,-0.6399920350202142,1.5979246316464524,29.166666666666668,19200,2.5459063053131104,0.03155480744915415,0.018222704430368736,368.85202434988423,37.5
163,1.442598581314087,300.6842848221445,565.9768443308113,1388.2578054193139,-249.0555830478044,29.166666666666668,5.583106380181339,0.1,0.011435508728027344,0.2867927551269531,0.04841668,0.017855242,310.03708633066566,-0.6517583899475724,1.5003249433857608,29.166666666666668,19200,2.5455539226531982,0.024141865988254015,0.012498333163123746,375.8823562626313,37.5
164,1.4598991870880127,295.6693946568016,577.6495779429667,1550.5910230588277,-257.1945217314147,27.083333333333332,5.920159269384725,0.1,0.010858535766601562,0.2784411907196045,0.04969855,0.015621336,308.60031716327927,-0.6586717443797251,1.4759115889536083,27.083333333333332,19200,2.554778575897217,0.02705746204406416,0.01446641947424913,371.68969529963596,37.5
165,1.4419443607330322,267.6645174881441,549.118385876329,1514.989081083077,-258.74597178504786,23.958333333333332,4.910615716813004,0.1,0.011127948760986328,0.26620054244995117,0.04761746,0.020988926,304.50673719576577,-0.6718045829900697,1.33694541700993,23.958333333333332,19200,2.5221216678619385,0.029748158436069445,0.015479463917495953,367.99877570978464,37.5
166,1.4413988590240479,322.14730330956183,601.2355895252532,1537.9090963655967,-266.0601645102749,31.25,6.089183919510497,0.1,0.011266708374023438,0.31668758392333984,0.052255727,0.014811926,306.27079380714537,-0.6544295511512065,1.6082787821821267,31.25,19200,2.5182676315307617,0.019333443205679736,0.009196970488219915,372.87325306001503,37.5
167,1.4439268112182617,384.24142382892563,629.2547672656855,1532.787881975997,-251.4257789346171,35.416666666666664,5.776457350834698,0.1,0.011032819747924805,0.24886369705200195,0.04915087,0.016009264,314.0678568093234,-0.6248208799811689,1.9183041200188313,35.416666666666664,19200,2.5445313453674316,0.016321554363702973,0.008018850126852679,367.77470410528485,37.5
168,1.629004955291748,246.93265778506694,543.2792969512826,1529.4460966510308,-259.38851869813925,19.791666666666668,5.504235958146161,0.1,0.0108795166015625,0.2923014163970947,0.05047492,0.017016746,307.3543369068978,-0.6600422150279462,1.232666118305387,19.791666666666668,19200,2.629096031188965,0.032006776483351936,0.01484684800569931,372.1322668258946,37.5
169,1.463550329208374,196.94369542725178,534.0297105151972,1442.1899336677448,-276.4902939528224,20.833333333333332,5.046194904469947,0.1,0.01062154769897461,0.3104879856109619,0.050507035,0.019407514,296.3132727589332,-0.694023331744941,0.9826433349217257,20.833333333333332,19200,2.6137032508850098,0.02974298968756914,0.013723059550106038,367.63009978693873,37.5
170,1.4713993072509766,358.4501280352544,583.5628111748049,1545.220360298122,-252.53572202980217,30.208333333333332,6.149448759725462,0.1,0.011425256729125977,0.3172760009765625,0.049865738,0.016576469,302.52695828656533,-0.6250318343379688,1.7897598323286978,30.208333333333332,19200,2.657212495803833,0.02710498021223858,0.01160712456088758,357.05922590703597,37.5
171,1.447965145111084,289.7937714009544,601.2299460623768,1552.2207865272078,-261.27105490046137,25.0,6.952935895231532,0.1,0.011298179626464844,0.24802923202514648,0.051288683,0.015723025,301.25363959800427,-0.6561811859794963,1.4471521473538373,25.0,19200,2.6065287590026855,0.021534436606047255,0.006893745161819483,369.92093556706396,37.5
172,1.4399585723876953,341.6792917779353,611.6453142838302,1545.409314783599,-230.72579096423297,30.208333333333332,6.250385797259657,0.1,0.010858774185180664,0.2970693111419678,0.04954563,0.017548453,305.2962048159974,-0.6260579559108165,1.7072753774225173,30.208333333333332,19200,2.659799098968506,0.01834379233024321,0.006436402179768439,372.4113328868658,37.5
173,1.4990363121032715,232.1266318193318,595.810006552288,1554.6775546101433,-236.24247073088873,25.0,7.04225964245,0.1,0.011232852935791016,0.27553462982177734,0.051194426,0.014577928,297.9792475163308,-0.6728514248492498,1.15902357515075,25.0,19200,2.652477502822876,0.008511013650350485,0.0035565591127417477,373.660753765918,37.5
174,1.444108009338379,352.769518735012,593.1701267599502,1515.8500261284528,-244.54398354456427,28.125,7.209137869648361,0.1,0.01132822036743164,0.25153064727783203,0.05193345,0.013560059,303.458274638199,-0.6035611026616376,1.7599805640050292,28.125,19200,2.621291160583496,0.01651003422563398,0.009513111755001625,370.33554321144146,37.5
175,1.6054775714874268,320.6642953619543,557.1204741528327,1508.8135626484673,-270.6610864104929,31.25,6.7670688896656985,0.1,0.010694026947021484,0.2613399028778076,0.053858496,0.015689801,305.1788767105745,-0.6557431851977223,1.6013401481356109,31.25,19200,2.6189262866973877,0.021726441207529208,0.010495970175099385,376.6808270413159,37.5
176,1.4505431652069092,304.8146386891827,545.7399213669577,1553.9534073765035,-277.982705740918,25.0,4.515887746185601,0.1,0.010539054870605469,0.29763126373291016,0.049821507,0.022689307,305.1424529084353,-0.6467898213771385,1.5213351786228617,25.0,19200,2.6184496879577637,0.02446309653018915,0.010661536921841673,382.27150731138113,37.5
177,1.4485912322998047,388.4096508695231,577.3633504857797,1522.0434807253196,-266.75178724353617,33.333333333333336,6.0102091832044975,0.1,0.010479450225830078,0.2532923221588135,0.04694326,0.01607337,313.4691727045441,-0.6179660247726568,1.93932564189401,33.333333333333336,19200,2.645103693008423,0.02246922798018713,0.010079197711236105,385.707392684605,37.5
178,1.4627103805541992,404.3604515584643,574.8968329118605,1538.793775358975,-276.75993212227394,29.166666666666668,6.427614222324591,0.1,0.01129913330078125,0.2955741882324219,0.04902246,0.015814057,322.55830058993615,-0.6120406273495168,2.020459372650483,29.166666666666668,19200,2.658115863800049,0.032514640360151906,0.013418981467703584,383.107216298737,37.5
179,1.4693958759307861,288.340587160103,566.583586888394,1516.3445163489002,-275.08592834375753,27.083333333333332,6.331652642891094,0.1,0.010986804962158203,0.31553030014038086,0.050766207,0.016734028,319.1365292469529,-0.662085675791337,1.4387476575419964,27.083333333333332,19200,2.7334141731262207,0.027882727989084095,0.01218462387519003,385.8703108234513,37.5
180,1.4624717235565186,312.36158219377535,606.6881089512959,1524.6737408714444,-279.1240307514728,29.166666666666668,6.314990828755778,0.1,0.011132240295410156,0.30104708671569824,0.050363854,0.0154166715,318.45903454163516,-0.6619220618087919,1.5593279381912086,29.166666666666668,19200,2.679766893386841,0.013287310764513515,0.005769514267601828,376.69677337149386,37.5
181,1.4689929485321045,351.7942501133696,591.7176725392341,1542.104762717218,-271.5377198656195,31.25,5.025015132628868,0.1,0.011221170425415039,0.25243687629699707,0.050037835,0.020175459,321.7925560988086,-0.6268070853028849,1.757567914697115,31.25,19200,2.63010573387146,0.018917188323590253,0.009958316878116207,371.9937446938821,37.5
182,1.4703483581542969,349.38690128609437,577.5104775175557,1496.6944453833853,-254.45427597187907,31.25,7.341592577316055,0.1,0.011676549911499023,0.3094046115875244,0.04927207,0.014126797,324.5519906175372,-0.6420445407956952,1.7437887925376383,31.25,19200,2.6116483211517334,0.01578557187781701,0.008480719709144735,372.9541384960977,37.5
183,1.6894807815551758,316.5889305833079,578.1035515460505,1389.0173752258352,-275.34805816273297,33.333333333333336,5.078013269689514,0.1,0.011391639709472656,0.25137853622436523,0.05070679,0.020013956,323.7556846141142,-0.6637192939795098,1.5800307060204901,33.333333333333336,19200,2.62754225730896,0.019486845893869918,0.01159385530564193,375.538269723115,37.5
184,1.4460954666137695,335.2362946597513,565.8521991372911,1518.8752641768128,-275.10329858382977,32.291666666666664,7.954918947347925,0.1,0.011583805084228516,0.2557041645050049,0.049041647,0.012781032,324.90374561867793,-0.6510376307584754,1.673545702574858,32.291666666666664,19200,2.6417956352233887,0.026423112499377666,0.012453821186697371,380.37788329466974,37.5
185,1.4572503566741943,229.53436103142823,527.9093779435672,1531.2947674043521,-238.76556735825443,19.791666666666668,5.501390610623619,0.1,0.011275768280029297,0.30936646461486816,0.051822484,0.01952806,315.366807159953,-0.6484793602254242,1.1456873064412425,19.791666666666668,19200,2.6621594429016113,0.025295835176564953,0.01273992806079222,382.9052574892123,37.5
186,1.4658541679382324,360.72729093531444,590.6042204862022,1532.8061428942049,-257.5254229560899,30.208333333333332,5.948204606770052,0.1,0.01133108139038086,0.2590806484222412,0.05016574,0.016739525,319.90285553748913,-0.6447011893030333,1.8019654773636333,30.208333333333332,19200,2.650700807571411,0.012654735753068845,0.0062284130122144555,395.55759494705956,37.5
187,1.4958250522613525,299.9468087821287,581.8227155640586,1540.8837003649182,-276.4303122939305,26.041666666666668,5.706097790552417,0.1,0.010554313659667969,0.2656552791595459,0.05115221,0.017666867,317.9072508619531,-0.6613686434990209,1.4984230231676456,26.041666666666668,19200,2.6331968307495117,0.014130078281402086,0.00981461243620917,395.9232323348264,37.5
188,1.447331190109253,237.14803158403535,532.8925537438333,1545.3263615440346,-269.6582451102914,23.958333333333332,5.536815761270127,0.1,0.010605096817016602,0.3056294918060303,0.051588546,0.017802063,309.8313289341613,-0.660317566941227,1.1830157663921064,23.958333333333332,19200,2.6684837341308594,0.036590643686596834,0.01340228334792807,396.98632385446524,37.5
189,1.445286750793457,253.864121102474,564.3511892703675,1549.4607783699616,-260.5756664464273,27.083333333333332,5.673583082674062,0.1,0.011245489120483398,0.24966168403625488,0.05014055,0.016534701,304.23460815099264,-0.6884907531807082,1.2679675801526251,27.083333333333332,19200,2.6938693523406982,0.016087159239595052,0.008847464649364648,393.70243548187653,37.5
190,1.5650207996368408,343.5477809616594,561.621092399202,1526.7833365514673,-252.10287893717108,30.208333333333332,6.026398343896611,0.1,0.010964393615722656,0.31179046630859375,0.055138506,0.01666053,308.16592543205934,-0.6347100136537822,1.715289986346218,30.208333333333332,19200,2.6798336505889893,0.022956224496870035,0.013132956854617746,401.9876853125219,37.5
191,1.6140849590301514,336.96301774974125,590.0298962005447,1558.5699932542925,-259.0295105199586,30.208333333333332,5.917963095134948,0.1,0.011260986328125,0.31061649322509766,0.05309739,0.018213382,311.04563466382757,-0.6237063592967985,1.6827519740365349,30.208333333333332,19200,2.6560122966766357,0.024443368158968123,0.011317761345236994,397.9141388935965,37.5
192,1.4523253440856934,321.182680557277,597.7255859950608,1559.3697136747944,-246.2849965703592,28.125,6.3894141395912385,0.1,0.011392593383789062,0.2505228519439697,0.048650987,0.016055126,312.05933925317254,-0.6417570822703603,1.6044929177296394,28.125,19200,2.6505355834960938,0.02297643385776777,0.011282552377587383,391.30634570061903,37.5
193,1.4873669147491455,217.62173853422436,536.9696819492732,1459.8843164256564,-282.10172101726636,23.958333333333332,6.028077096948071,0.1,0.011075258255004883,0.3122704029083252,0.05136346,0.01707283,302.6155791812777,-0.6823445433235049,1.0868221233431619,23.958333333333332,19200,2.687802791595459,0.01930558164695163,0.00708638373427909,388.48176971473225,37.5
194,1.4589862823486328,222.31629848992395,552.8123265300767,1504.8814730063368,-268.7563278643012,23.958333333333332,5.849874904725965,0.1,0.011420965194702148,0.29427027702331543,0.05064014,0.016130779,294.58565111214233,-0.6847022944330644,1.108006038900269,23.958333333333332,19200,2.6978399753570557,0.0210977531967528,0.011828142347845542,387.75712959155027,37.5
195,1.4905824661254883,416.62548937163336,615.6385712241384,1549.694712397215,-263.9632517960124,36.458333333333336,5.242592126684772,0.1,0.010770320892333984,0.25374460220336914,0.048115958,0.020997208,306.78963493809147,-0.6122986141411105,2.0808263858588893,36.458333333333336,19200,2.674330472946167,0.018924183886395208,0.010260638339276616,384.63311960289457,37.5
196,1.4773941040039062,255.2847420716738,564.0569341908738,1443.5305571861127,-265.8128884159633,27.083333333333332,6.507615022186985,0.1,0.010657310485839844,0.24793052673339844,0.05311014,0.014428097,301.6391456514497,-0.6648175568921236,1.2743491097745427,27.083333333333332,19200,2.570384979248047,0.013091479267301198,0.0063607233209755495,385.1068378119592,37.5
197,1.4778547286987305,338.3632012311221,581.9436467305302,1552.1938525103435,-276.7249861938057,32.291666666666664,5.78231418210508,0.1,0.011699199676513672,0.3092613220214844,0.051982712,0.015651898,305.31155120941696,-0.6587195060600195,1.6896138272733137,32.291666666666664,19200,2.646686315536499,0.024289344633077564,0.009179094383674424,400.4534172970947,37.5
198,1.6235160827636719,264.6057111120293,607.4182316591593,1540.8726245617127,-273.43972894350287,27.083333333333332,4.423292039563611,0.1,0.010786771774291992,0.2911062240600586,0.049078044,0.024329461,301.2409671996782,-0.7089856920647101,1.3210143079352898,27.083333333333332,19200,2.6754305362701416,0.018578859473588106,0.006655142951193382,395.82560616179524,37.5
199,1.662904977798462,422.8647438305008,623.9620378574797,1554.2386365678913,-254.07709151141773,37.5,5.120621206787731,0.1,0.011240482330322266,0.24978423118591309,0.049946435,0.017333493,313.40334486276043,-0.6065844777371582,2.110290522262842,37.5,19200,2.633648633956909,0.024685317211865766,0.008566994032223796,397.250715746435,37.5
200,1.4459373950958252,408.65552222228536,589.4743082100103,1530.8764110051961,-247.56969019930654,36.458333333333336,7.354994096367909,0.1,0.011285781860351562,0.30187344551086426,0.047357675,0.012709326,322.9285625987129,-0.608868852233002,2.0396728144336644,36.458333333333336,19200,2.592663049697876,0.019673134489168208,0.009682007385192707,391.78318143026775,37.5
201,1.4706006050109863,367.49988823755984,601.4241368919318,1557.9927747016818,-241.66637011849477,32.291666666666664,5.370266817055444,0.1,0.011419534683227539,0.3124098777770996,0.051990822,0.017691905,327.38569516259764,-0.6291924101944213,1.8343492564722457,32.291666666666664,19200,2.544489622116089,0.015602965336550983,0.007404231501862352,396.0785584240962,37.5
202,1.4650089740753174,281.65647062733666,580.8198062180868,1552.952006615119,-270.07792395603093,30.208333333333332,7.228252416099917,0.1,0.011593818664550781,0.3145480155944824,0.0522738,0.013725581,322.81277270907157,-0.6875402789896334,1.4053763876770329,30.208333333333332,19200,2.581021547317505,0.023662935882989528,0.010846098117698223,398.35384937415,37.5
203,1.4431400299072266,256.0112632149301,579.2562649559466,1558.4052129772797,-257.50095327127525,27.083333333333332,6.629484468957313,0.1,0.011456012725830078,0.2512953281402588,0.045328382,0.0152235795,316.13262175965747,-0.6817455710647593,1.2778377622685737,27.083333333333332,19200,2.5688869953155518,0.023040170359819732,0.007463586647666784,405.0198317770438,37.5
204,1.4462628364562988,320.5346444308884,576.906038596821,1542.0782888240071,-272.1483500689479,28.125,7.32775692279561,0.1,0.011129379272460938,0.3139679431915283,0.04507921,0.011660219,316.57282402678055,-0.6375229512268715,1.5999770487731286,28.125,19200,2.61187744140625,0.026897863866268353,0.010623489278940308,410.36868296555963,37.5
205,1.57509446144104,256.40325246815337,547.1925446914013,1420.107829663159,-266.335543951902,22.916666666666668,7.403923568546375,0.1,0.011253595352172852,0.3111300468444824,0.044908516,0.0138173355,310.55586687091784,-0.6693666803839577,1.2800083196160426,22.916666666666668,19200,2.6210556030273438,0.020779689464827503,0.0075286433389135845,407.5612961771486,37.5
206,1.6364061832427979,323.88910559136656,578.5067224347981,1545.6367015163357,-253.21090572421159,28.125,6.129042200837373,0.1,0.010894536972045898,0.31525707244873047,0.046739273,0.016059332,311.88919074296274,-0.6391107459445234,1.6169309207221432,28.125,19200,2.625455617904663,0.01765156706070962,0.008378205852490732,410.88405121331806,37.5
207,1.4450068473815918,248.35092866913305,576.1616548691585,1516.606199902944,-269.4160320593515,27.083333333333332,6.442130529336921,0.1,0.011653661727905273,0.31424808502197266,0.0523086,0.015568983,305.5353645355798,-0.6886015964279473,1.2393150702387192,27.083333333333332,19200,2.5931029319763184,0.009496160636601586,0.003949755020624835,414.67122488230405,37.5
208,1.4491288661956787,333.98366331783313,560.2356681480939,1550.757644330849,-270.2417413974417,29.166666666666668,7.47479524810402,0.1,0.010700702667236328,0.29103875160217285,0.047705587,0.014103827,308.38019441380516,-0.6297580928820755,1.6667002404512576,29.166666666666668,19200,2.561910390853882,0.04340964166157707,0.01908337001201955,425.31608754218803,37.5
209,1.4470393657684326,328.1879604322873,614.8270678043536,1567.510700549407,-269.1639990064678,30.208333333333332,6.032614907110614,0.1,0.011175870895385742,0.2936360836029053,0.049736187,0.017165601,310.3609710156534,-0.6633116064468533,1.639813393553147,30.208333333333332,19200,2.5752217769622803,0.01245419338008777,0.00721662845981101,432.60043505632245,37.5
210,1.4540870189666748,373.8653727706392,591.3461069535243,1565.385531794779,-279.41319681124963,35.416666666666664,5.800478286368034,0.1,0.012453079223632812,0.3024430274963379,0.048400436,0.017337993,316.711411191152,-0.6248266170096439,1.8668400496570225,35.416666666666664,19200,2.53001070022583,0.017162208926554925,0.007022354589246357,426.7997090228564,37.5
211,1.4618616104125977,327.12763900531337,610.5023042757053,1548.8739077738273,-278.27300529837555,30.208333333333332,6.904282411395062,0.1,0.01137852668762207,0.29886794090270996,0.047781173,0.014092146,317.7530339725682,-0.6527212472862011,1.6318620860471322,30.208333333333332,19200,2.50917911529541,0.018580081833647955,0.010370442110100724,436.2935462760234,37.5
212,1.4409148693084717,325.7886159684586,583.2586418871779,1379.0751285201854,-273.3656371459708,32.291666666666664,5.998387229124981,0.1,0.012778282165527344,0.31896209716796875,0.0456133,0.017229803,318.5565921721572,-0.6532676915120362,1.6277739751546303,32.291666666666664,19200,2.529010772705078,0.019240736572251168,0.007579536935925426,436.0695410886119,37.5
213,1.5697288513183594,367.1197930818935,603.7205463576817,1538.204169020167,-256.4385546032831,34.375,6.259291350139034,0.1,0.011397600173950195,0.2512242794036865,0.05193272,0.017365515,323.41291226313086,-0.6282472935308766,1.8317527064691237,34.375,19200,2.6023566722869873,0.024699306163620528,0.010166469620130321,436.9613790199212,37.5
214,1.6149756908416748,460.1861707373691,590.6650160286536,1560.6869621919004,-237.18482259508173,39.583333333333336,5.918465993207326,0.1,0.011074066162109375,0.2476329803466797,0.047255527,0.015269989,337.09023811055465,-0.587078868674184,2.297296131325816,39.583333333333336,19200,2.535872220993042,0.023150362790771758,0.008055278620923517,434.25582067770165,37.5
215,1.453012228012085,300.8592371561953,554.4134046086957,1470.890188541647,-243.61105369149942,32.291666666666664,6.083594761333433,0.1,0.011111021041870117,0.2957324981689453,0.039504025,0.013025128,333.46713801511873,-0.6517164086285877,1.5014085913714121,32.291666666666664,19200,2.5942623615264893,0.019827990892712522,0.007666647103040142,430.22623916175166,37.5
216,1.4815928936004639,377.0456573491036,591.4761305894756,1463.7079822830863,-275.9788432006999,37.5,5.672258352585925,0.1,0.011504411697387695,0.3000810146331787,0.05271958,0.019284232,337.82498994851727,-0.6470809972364274,1.8820856694302392,37.5,19200,2.5753328800201416,0.017536541290905837,0.005911802005133075,429.77536670184355,37.5
217,1.4633047580718994,388.03550996207014,589.6210238465775,1483.0330979732814,-255.16936810743866,35.416666666666664,6.752246702610687,0.1,0.011150121688842773,0.3131828308105469,0.049017873,0.015305275,342.8460419498726,-0.6284819324614331,1.936518067538567,35.416666666666664,19200,2.569876194000244,0.015729012424508904,0.005641472921725964,434.44719128179156,37.5
218,1.5114271640777588,352.566576786116,587.31856426644,1542.326042636516,-279.6643497854079,30.208333333333332,5.985631396810942,0.1,0.01081228256225586,0.3048563003540039,0.050308067,0.017249387,343.8180954334969,-0.6178709865679171,1.7592123467654162,30.208333333333332,19200,2.6396734714508057,0.015668716093328063,0.008956924412221007,426.07873924822155,37.5
219,1.4826726913452148,387.15246127857307,628.4173692571362,1556.5125785655682,-251.51071487821423,31.25,6.242516179522717,0.1,0.011201620101928711,0.3130009174346924,0.049720474,0.016988315,348.15153201800456,-0.6230545199063638,1.932362146760303,31.25,19200,2.6034786701202393,0.01829511497014042,0.00757822295015587,411.4607620555437,37.5
220,1.4693114757537842,534.3894165359752,606.8814634513033,1560.559782720325,-259.79636891866124,40.625,6.806580847410766,0.1,0.011099100112915039,0.31333065032958984,0.050426543,0.015429255,366.7753204698016,-0.5639194864009963,2.6683721802656706,40.625,19200,2.5547854900360107,0.015096794977197679,0.006347832542680962,419.58808523149685,37.5
221,1.6076650619506836,463.1578909386929,593.3965410456843,1534.846289375689,-245.6577898916956,38.541666666666664,6.478082702782951,0.1,0.011230707168579102,0.3124575614929199,0.053637683,0.015327539,376.41357751669074,-0.5859420910206349,2.3117662423126983,38.541666666666664,19200,2.6492972373962402,0.021359657383474683,0.007312548281176964,423.7593431223029,37.5
222,1.4481830596923828,309.7391853855523,570.7955230412168,1454.4614975489278,-283.49515785560783,29.166666666666668,7.9506815531143396,0.1,0.010994195938110352,0.3222026824951172,0.052094124,0.01176984,369.74613830357686,-0.6500211218863167,1.5464372114470166,29.166666666666668,19200,2.6617307662963867,0.021725130538353815,0.008537291655908217,432.57592998459916,37.5
223,1.4685182571411133,219.5773117302182,516.7757268955676,1522.6064409471292,-254.20309802807503,23.958333333333332,6.364962688087947,0.1,0.011559724807739258,0.30177974700927734,0.052651644,0.014584449,354.72925564624103,-0.6648003681244369,1.0962412985422296,23.958333333333332,19200,2.6722846031188965,0.022293820544818852,0.008989225955396345,441.0718849614691,37.5
224,1.499098777770996,342.7154958988879,609.306734347902,1562.1144556407082,-256.56042312524636,32.291666666666664,5.61829118372581,0.1,0.0107421875,0.32476305961608887,0.0527873,0.019366637,353.52787967150573,-0.6575798232078766,1.7097118434587901,32.291666666666664,19200,2.705881118774414,0.016720511355200637,0.00642170126069738,436.86133842793316,37.5
225,1.4670941829681396,398.45071532629873,609.4729358181527,1543.5658157424298,-279.1344312111972,36.458333333333336,6.507700043946238,0.1,0.010781288146972656,0.31126880645751953,0.051556658,0.015853493,358.020163236985,-0.6229437131058991,1.9901812868941005,36.458333333333336,19200,2.611351251602173,0.018660541843719684,0.009411198860460372,435.3746185827413,37.5
226,1.5000643730163574,147.00036819439342,496.63081573466167,1456.3810315895112,-220.21549029102292,15.625,6.568278770737489,0.1,0.011267900466918945,0.2507317066192627,0.049983438,0.016129106,336.9181837327259,-0.7125326963312464,0.7324673036687535,15.625,19200,2.6035423278808594,0.025529397423554943,0.013585097905491707,422.85592866719355,37.5
227,1.4929609298706055,308.95077913710503,556.0429943774385,1521.1021607368639,-270.14075087036605,25.0,6.345251626941039,0.1,0.011317253112792969,0.3231997489929199,0.04937907,0.01593151,334.12144327316383,-0.6318951298369929,1.542479870163007,25.0,19200,2.632026195526123,0.030616280729370032,0.013154390615258084,424.2263846657563,37.5
228,1.452800989151001,324.21178212520425,590.3790157310384,1552.8958968164163,-269.8376667739568,29.166666666666668,6.081221917561641,0.1,0.011024236679077148,0.32312536239624023,0.05107132,0.017285686,333.1304771583679,-0.6789355022460946,1.6177311644205723,29.166666666666668,19200,2.591461420059204,0.026728101084809542,0.008631770470981962,434.7735156178138,37.5
229,1.5775425434112549,357.1578528609488,601.6856072254818,1563.0844463289354,-249.3927584427068,29.166666666666668,5.7080273883349495,0.1,0.01062464714050293,0.3149425983428955,0.050265133,0.018392261,335.53321472862604,-0.6318021659171899,1.7819478340828105,29.166666666666668,19200,2.589099168777466,0.017721094812256324,0.007700858991313055,431.91461191330814,37.5
230,1.6218717098236084,297.47126644068106,572.4040152005218,1518.700161235978,-230.26674529622977,26.041666666666668,6.389292981115415,0.1,0.012094974517822266,0.30797457695007324,0.04563279,0.015653865,331.72701989983153,-0.6397326678292722,1.484642332170728,26.041666666666668,19200,2.659811496734619,0.015028257106877219,0.00688378249995481,425.6955821540789,37.5
231,1.4989993572235107,278.4022438334611,553.7415523140388,1489.149812157296,-253.84855604713655,26.041666666666668,6.388433530776957,0.1,0.01152348518371582,0.30938053131103516,0.05220089,0.01271299,326.3945422931945,-0.6612723639493322,1.3893526360506678,26.041666666666668,19200,2.616595983505249,0.02864567303910206,0.011395337622250232,418.6007368751125,37.5
232,1.5091445446014404,293.1818989796569,564.5502337021904,1523.4166399135904,-263.41907689389524,25.0,6.643537781381397,0.1,0.01073908805847168,0.32876110076904297,0.04725778,0.016304841,323.07327796184074,-0.6417161643881327,1.4649505022785334,25.0,19200,2.6308252811431885,0.02314090380135978,0.011720575073822627,426.1796768417121,37.5
233,1.513504981994629,250.75831794742126,527.9811116748714,1508.6932295381519,-277.78774499083966,19.791666666666668,6.335231256646971,0.1,0.011692523956298828,0.3303799629211426,0.049108725,0.015729655,315.84178196039886,-0.6303811065614414,1.2517022267718918,19.791666666666668,19200,2.6603949069976807,0.04250821497818237,0.012524910520163673,429.4403842603515,37.5
234,1.5041460990905762,424.9640645656113,640.6192260598827,1563.1766670177137,-267.0563553079335,39.583333333333336,6.33130279674534,0.1,0.010695695877075195,0.31125688552856445,0.05135303,0.020297633,326.7540102209201,-0.618890312250852,2.1215263544158147,39.583333333333336,19200,2.594649076461792,0.015715999047609827,0.006436499119919788,428.3805912752561,37.5
235,1.5200133323669434,418.1209947514191,583.1545380061888,1418.7218648096484,-264.07365522866246,36.458333333333336,5.636154581480657,0.1,0.01219487190246582,0.2935318946838379,0.049299076,0.017937602,335.89070867397004,-0.6151030441913289,2.0865636224753374,36.458333333333336,19200,2.578665256500244,0.016906441701819624,0.009045171020961182,422.78547620385183,37.5
236,1.6887531280517578,339.88403693831486,615.0195473738881,1555.6684442558708,-240.74164466926487,30.208333333333332,7.0728772777007105,0.1,0.012579202651977539,0.3335082530975342,0.048557576,0.0136878695,336.2900415004045,-0.6277149705111098,1.6964516961555567,30.208333333333332,19200,2.6386396884918213,0.018529306311069905,0.006631450264346798,428.21014766979687,37.5
237,1.5183839797973633,253.86134237869138,550.5426544621811,1532.587542743931,-278.1904016777559,25.0,6.905835064753727,0.1,0.011656999588012695,0.26019835472106934,0.05181629,0.0135421725,328.04717158823325,-0.6791157018145899,1.267342631518744,25.0,19200,2.552138566970825,0.0237834462963376,0.011535377627151587,424.9510172467782,37.5
238,1.6924026012420654,344.3205740137258,615.503122186315,1546.2457442279435,-253.55178818403976,29.166666666666668,5.389405891350585,0.1,0.011901378631591797,0.3138747215270996,0.05096948,0.018348446,329.6745118307825,-0.6250290044356634,1.7195543288976698,29.166666666666668,19200,2.625458002090454,0.021208998994728293,0.007497138303118276,419.2816621580159,37.5
239,1.518848180770874,246.64418469764988,553.6297595752651,1531.86735820608,-255.3446381408955,21.875,6.789972798063855,0.1,0.011371135711669922,0.31702232360839844,0.05102732,0.014881638,321.3714791174692,-0.6639671423303569,1.2318661910029765,21.875,19200,2.642035722732544,0.028025817630680377,0.011565139757566411,417.9805077981747,37.5
240,1.5313878059387207,298.90072259418247,589.0457687060319,1466.7597728219341,-249.436104514032,26.041666666666668,6.362609295413414,0.1,0.011500358581542969,0.33593010902404785,0.046800263,0.01692538,319.1244034651405,-0.6792961537893705,1.491120512877296,26.041666666666668,19200,2.6737492084503174,0.0253825461085531,0.00938458038513749,419.8347946419662,37.5
241,1.5081875324249268,441.28239084419056,612.8338757390827,1538.5209715142864,-244.37190616030324,36.458333333333336,6.969705462258713,0.1,0.011250495910644531,0.3049509525299072,0.04833273,0.014318668,331.3402022030456,-0.5942186568921376,2.2039063431078625,36.458333333333336,19200,2.7124271392822266,0.02194795786417983,0.009185880678788139,414.57193876954227,37.5
242,1.4892778396606445,294.32007018293393,584.7207272188749,1546.5130479525847,-256.56554321053153,30.208333333333332,6.101593780496385,0.1,0.011039257049560547,0.28650927543640137,0.050267905,0.014340797,327.63818900103445,-0.6576831121545293,1.4696085545121373,30.208333333333332,19200,2.7039761543273926,0.03121113673721148,0.00873857770835814,399.4262332123677,37.5
243,1.5073275566101074,341.1496948743921,597.8880540217131,1507.8957172744067,-264.55087433999387,30.208333333333332,6.028236990649951,0.1,0.011632442474365234,0.316176176071167,0.048705447,0.017016124,328.9893395883702,-0.646036652338475,1.7043800143281915,30.208333333333332,19200,2.678459882736206,0.025980529146653362,0.0095482321006928,400.7373426431602,37.5
244,1.5335323810577393,391.28063143165446,621.1931572737428,1472.5997849260766,-247.38670570994324,36.458333333333336,6.489167084350354,0.1,0.011037588119506836,0.26596856117248535,0.04929416,0.014803202,335.21846877269866,-0.6267302211367137,1.953061445529953,36.458333333333336,19200,2.6428916454315186,0.022770852081707316,0.007375599770408146,414.88576878102356,37.5
245,1.468689203262329,320.5622524846087,589.9550524791671,1520.0083973069475,-270.585190884221,31.25,7.064396984833227,0.1,0.011143684387207031,0.3206930160522461,0.050216157,0.013730362,333.75284714388965,-0.6625286059639621,1.6012213940360376,31.25,19200,2.60502028465271,0.01858035920729837,0.00991963835210973,418.1704818353526,37.5
246,1.6588428020477295,289.62166036858093,565.2004052198827,1537.516927113524,-237.40274675955348,27.083333333333332,5.703729423649255,0.1,0.012729406356811523,0.33468127250671387,0.050796602,0.015092085,329.3397284663588,-0.6597808773489985,1.4452191226510018,27.083333333333332,19200,2.7169299125671387,0.03135798754774988,0.01313766048447168,421.00005504506623,37.5
247,1.5336098670959473,322.6652891784104,582.9040424247428,1522.3058295872547,-251.04173177276058,26.041666666666668,5.776480238295288,0.1,0.012742996215820312,0.3202977180480957,0.048892595,0.018006347,328.67228453756394,-0.6563633956053039,1.6113449377280293,26.041666666666668,19200,2.713278293609619,0.016672141042521814,0.008059631261601752,413.74668440962694,37.5
248,1.5316994190216064,275.7439753269778,556.9730245201015,1545.722470888853,-269.94067694512495,25.0,5.320411781007063,0.1,0.011322975158691406,0.2731499671936035,0.050537057,0.01842379,323.3794536165053,-0.6752990112625087,1.3751176554041578,25.0,19200,2.7320635318756104,0.018954797319387914,0.007764916636306758,409.01151799233514,37.5
249,1.4968373775482178,317.70752038700476,598.4685543565008,1554.3449051819666,-270.19686790121415,30.208333333333332,5.603401472113686,0.1,0.011124134063720703,0.3167448043823242,0.050528772,0.018064575,322.8122602935553,-0.6667073296746627,1.5853760036586702,30.208333333333332,19200,2.6467840671539307,0.018349912839604902,0.0073030884623627185,412.63237879691064,37.5
250,1.5353224277496338,287.0411507115759,559.9685740925007,1349.322266420446,-247.38506972697547,27.083333333333332,6.183603025492624,0.1,0.011173486709594727,0.32259035110473633,0.05051571,0.016298039,319.2351493353574,-0.6501018255373198,1.43364817446268,27.083333333333332,19200,2.7423300743103027,0.02516523531716137,0.008739526873688709,419.3148049165236,37.5
251,1.503882646560669,419.0089954767105,591.3268625171919,1404.7617802555897,-224.76559383757606,38.541666666666664,6.094032749856206,0.1,0.011106252670288086,0.3220512866973877,0.053105213,0.016789917,329.2125339494927,-0.5939857868550792,2.0914308798115875,38.541666666666664,19200,2.6946661472320557,0.011985487588646752,0.004739416881658471,422.114627229265,37.5
252,1.5529868602752686,383.371575647974,586.5087288962058,1498.039217733298,-253.19281514316685,34.375,6.905435973849948,0.1,0.011219263076782227,0.2971065044403076,0.052547485,0.015109774,334.62843811934084,-0.6335899624901261,1.9130767041765404,34.375,19200,2.659796953201294,0.01737134180252016,0.009525298050183657,432.96215550866003,37.5
253,1.5468783378601074,246.68172531303495,555.0749430868594,1443.8214887287072,-247.73692631832608,28.125,5.236738268256647,0.1,0.011411666870117188,0.3132133483886719,0.050578497,0.018545257,325.8337668387103,-0.6877815177480745,1.2311768155852587,28.125,19200,2.6413745880126953,0.013888940222392137,0.005771566135133907,442.51006195740945,37.5
254,1.6840219497680664,395.3867626725069,589.5380739189617,1516.1995040449672,-261.0183005323241,35.416666666666664,6.397254575196272,0.1,0.010848045349121094,0.32035017013549805,0.0479879,0.016808085,332.78906642209,-0.6244704499035567,1.9753212167631098,35.416666666666664,19200,2.674767255783081,0.022081864650771818,0.00907241117156051,446.8502741676414,37.5
255,1.4792475700378418,314.9783189725434,603.7390788646294,1554.6552699837764,-241.39507344395537,30.208333333333332,6.593089555673568,0.1,0.011020898818969727,0.27567601203918457,0.052518304,0.014178051,331.00799167713535,-0.6343012875373442,1.572157045795989,30.208333333333332,19200,2.666834831237793,0.015851076532909236,0.006748684067688119,448.3481687289371,37.5
256,1.476797103881836,440.298031578925,624.41489238595,1552.7602267701127,-247.23842713001181,35.416666666666664,6.2741252677749255,0.1,0.011004209518432617,0.30796146392822266,0.050607376,0.016264085,341.9369956673143,-0.6062840739379677,2.1978825927286993,35.416666666666664,19200,2.7022881507873535,0.022391436728551758,0.008510177521994509,452.3625214763525,37.5
257,1.4870474338531494,377.5355156330429,596.4787123344641,1556.3917527561653,-258.17402377551866,32.291666666666664,5.5438138261965655,0.1,0.011176109313964844,0.30515146255493164,0.0472391,0.017168289,345.4968476638872,-0.6181779468906397,1.8843220531093603,32.291666666666664,19200,2.6770267486572266,0.021276217125658574,0.009109656522676755,457.1196756040675,37.5
258,1.512861967086792,214.30518398499362,541.8910616342101,1514.868946518706,-251.20013164988927,22.916666666666668,6.510746662368344,0.1,0.0109405517578125,0.2705698013305664,0.050173625,0.015696453,332.37768129599783,-0.6682878463880156,1.0679621536119845,22.916666666666668,19200,2.6107699871063232,0.025687860146122773,0.007352876997025802,456.80400973687887,37.5
259,1.5060968399047852,346.41614568901485,625.6248288435925,1558.653295807364,-229.503623685346,30.208333333333332,5.571916718645854,0.1,0.01189422607421875,0.32071542739868164,0.048157703,0.019041257,333.78152773529956,-0.6224734469079589,1.7298182197587082,30.208333333333332,19200,2.753061532974243,0.015397334843333287,0.007553208904054538,458.4030530175791,37.5
260,1.5015864372253418,371.7293976015936,625.5434011959326,1562.9425552878788,-256.499287017559,32.291666666666664,5.499432006024562,0.1,0.011559486389160156,0.4070110321044922,0.050008155,0.018416638,337.57631472192895,-0.6257958152489634,1.8552458514177037,32.291666666666664,19200,2.734865427017212,0.016618768789026916,0.007270696214084451,459.76411072763426,37.5
261,1.4768526554107666,270.8449218018603,565.9087066631693,1551.4631803668333,-265.2713912824032,27.083333333333332,6.019735675402962,0.1,0.010748624801635742,0.3232083320617676,0.051678278,0.0153997205,330.9031754299221,-0.6742680894813056,1.3517735771853612,27.083333333333332,19200,2.547513008117676,0.01984194608658792,0.006742928729527753,456.8477244708554,37.5
262,1.6891086101531982,378.06221848200994,599.5058831568937,1558.0905768836267,-271.68049581884554,36.458333333333336,6.766506182608306,0.1,0.011480569839477539,0.31603264808654785,0.046987094,0.015746431,335.6190797351309,-0.6198642308583162,1.887635769141684,36.458333333333336,19200,2.585338592529297,0.013397600672316492,0.007187136129969222,458.3119527822097,37.5
263,1.669792890548706,266.22141376924134,526.650716173568,1400.419103475783,-241.08882431672617,22.916666666666668,6.046208246175736,0.1,0.011396646499633789,0.32364821434020996,0.052101288,0.014850283,328.67931313854194,-0.6431633307193086,1.3299616692806917,22.916666666666668,19200,2.502251386642456,0.02902397627759364,0.016175263162494038,450.41275037867507,37.5
264,1.567676305770874,347.0762097093422,588.4225330634432,1555.854508752761,-250.02048799588147,32.291666666666664,6.50136783396233,0.1,0.011132478713989258,0.31403255462646484,0.04875772,0.015251958,330.519002795622,-0.63515148290236,1.7338068504309732,32.291666666666664,19200,2.611361026763916,0.017959773863422533,0.008705381383306749,451.8926329467046,37.5
265,1.4964520931243896,261.9824304975388,546.3825725842112,1550.4072761101427,-244.89170786060208,25.0,6.05382540372307,0.1,0.011218786239624023,0.30050230026245117,0.053485572,0.014721032,323.6653455658137,-0.6723203242135497,1.3078880091197835,25.0,19200,2.535869836807251,0.023829135646185072,0.008508037118672965,450.442562996373,37.5
266,1.4893279075622559,264.0657557303075,555.7304200736208,1541.1406688815955,-252.381065601717,26.041666666666668,6.702685611728959,0.1,0.01086282730102539,0.3098931312561035,0.05179133,0.014495176,317.7053865822631,-0.6611639043781773,1.316544428955156,26.041666666666668,19200,2.5578131675720215,0.028915545214364378,0.01248789106696477,446.36656075365187,37.5
267,1.5130605697631836,419.56352217883017,584.8438665578226,1539.4909390625667,-265.65162163153946,38.541666666666664,6.157331254053438,0.1,0.010622739791870117,0.33829236030578613,0.054806404,0.015834598,327.8912001419198,-0.5975996992301087,2.094900300769891,38.541666666666664,19200,2.604349136352539,0.013794789952266953,0.0069043241698155625,441.7714991922409,37.5
268,1.4931402206420898,266.45284094014386,572.9191651986114,1531.4371270163815,-267.1367498556261,30.208333333333332,5.889625120339132,0.1,0.010905981063842773,0.32152342796325684,0.050225798,0.01604073,321.74736422174226,-0.6775713807285473,1.3305536192714527,30.208333333333332,19200,2.6614465713500977,0.01657858550658199,0.008557987677866887,442.91813940687456,37.5
269,1.583066701889038,362.23824092011563,585.6557770313641,1537.1869465621255,-246.92895103185194,32.291666666666664,6.75234669544938,0.1,0.011126995086669922,0.30042386054992676,0.05173724,0.01488358,325.79645189157964,-0.6262063411688366,1.8102519921644966,32.291666666666664,19200,2.656060218811035,0.02332874217603115,0.007448479949861113,442.6990348771335,37.5
270,1.5287387371063232,385.37709352682515,610.0664626848226,1549.55322594121,-267.6645762083541,33.333333333333336,6.422879059756524,0.1,0.010759830474853516,0.33280062675476074,0.052507,0.016459823,331.7545160551042,-0.6202489868617175,1.9235010131382826,33.333333333333336,19200,2.648369789123535,0.017479691043122594,0.006333130859293159,436.46427442227184,37.5
271,1.5295300483703613,378.7247659352688,638.3835095883412,1560.6170527876845,-237.61253239992266,33.333333333333336,6.430185052143111,0.1,0.011777400970458984,0.34478306770324707,0.0503516,0.01497358,336.45154104312064,-0.6361853490549126,1.8902729842784203,33.333333333333336,19200,2.700437307357788,0.01326946137196913,0.00568571419768876,437.1397717705286,37.5
272,1.5409231185913086,346.53889640520765,615.6362226071818,1525.5403605371127,-253.84570304847654,30.208333333333332,6.9744972617460705,0.1,0.01142573356628418,0.3375711441040039,0.04923602,0.01397815,337.4602765793294,-0.6285319089503387,1.7302180910496616,30.208333333333332,19200,2.7353639602661133,0.019237243434643565,0.012422519700333444,432.3952918507303,37.5
273,1.8636515140533447,298.25634050131725,573.0919759274904,1558.0370267029753,-257.31104050641727,28.125,5.94776267423939,0.1,0.010969400405883789,0.33605098724365234,0.051929902,0.016828101,333.5398829715282,-0.6504122314128392,1.4881294352538275,28.125,19200,2.7093091011047363,0.02725771893660165,0.012803413818278233,429.3795359043511,37.5
274,1.6861495971679688,380.486961153164,622.1214785286397,1542.3982338250426,-254.8815720013535,30.208333333333332,5.907001731966856,0.1,0.02473759651184082,0.35668158531188965,0.046153363,0.015943632,338.23459078969177,-0.6093608227688625,1.8981391772311376,30.208333333333332,19200,2.701105833053589,0.015010044354326105,0.005751619836697011,430.7297529688217,37.5
275,1.458470106124878,253.50306215352904,557.0806694411983,1377.095964203136,-243.33900661800183,26.041666666666668,6.120830661239897,0.1,0.010693788528442383,0.31813931465148926,0.047084674,0.01575725,329.76143792607553,-0.6786683766993414,1.2650816233006583,26.041666666666668,19200,2.6811821460723877,0.01866606195596389,0.00794857651003105,434.2768421797168,37.5
276,1.45865797996521,302.17414660038963,568.3143529385591,1463.435063934299,-259.3781504755161,21.875,5.985054278218563,0.1,0.010701894760131836,0.2942032814025879,0.044558372,0.014836154,327.00270879350694,-0.659833616134886,1.509333050531781,21.875,19200,2.6370580196380615,0.026387258973045877,0.012634762242808411,432.244155858077,37.5
277,1.6129217147827148,342.7703682364618,578.672773893646,1523.1758732349915,-263.6671024848608,28.125,5.92763785077617,0.1,0.010531187057495117,0.3243825435638428,0.043250162,0.014894261,328.57947473780246,-0.6503664139668787,1.7104669193664546,28.125,19200,2.6007118225097656,0.016280559295855847,0.0065426969769566586,430.9940234751898,37.5
278,1.6866734027862549,333.4902305196046,609.0015809322965,1481.3916253360176,-245.52708271883816,30.208333333333332,6.982695184233454,0.1,0.010882377624511719,0.3309354782104492,0.04994983,0.014866039,329.07055031598264,-0.644626734315871,1.664539932350796,30.208333333333332,19200,2.63140606880188,0.019368339880556452,0.004783910703554628,427.03442786511425,37.5
279,1.458268404006958,348.1605174810823,598.4202420556678,1551.8140348201118,-257.57028469523874,34.375,6.38184693677294,0.1,0.01065826416015625,0.2887721061706543,0.047020897,0.014096898,330.97954703249263,-0.6389234535920675,1.7392015464079325,34.375,19200,2.5866570472717285,0.021831564128374285,0.006734223950783227,432.2591566751526,37.5
280,1.4624278545379639,388.2760450833327,598.9100435330042,1553.9030893884917,-256.5116859707341,32.291666666666664,5.974977426937284,0.1,0.010818004608154297,0.3139681816101074,0.048119687,0.014501127,336.70919683757666,-0.6273897237141894,1.938443609619144,32.291666666666664,19200,2.6002793312072754,0.020629667240841375,0.007394098181448676,433.3675788763558,37.5
281,1.4576416015625,310.0106543633549,565.5038936283119,1386.0513468433708,-252.1361072072396,29.166666666666668,6.374712736301745,0.1,0.010734319686889648,0.3188631534576416,0.048661977,0.0152812805,334.0393425901545,-0.6582704813499786,1.547146185316688,29.166666666666668,19200,2.6081552505493164,0.016685464440738054,0.0086391466352864,435.37576430185305,37.5
282,1.4263911247253418,287.05569945330785,600.7331741106606,1553.5266988255792,-279.35869531154367,25.0,5.2980477103700245,0.1,0.010588407516479492,0.3206055164337158,0.043814346,0.014661221,329.34097827646985,-0.6407984774087684,1.431909855924565,25.0,19200,2.5643808841705322,0.011017225305927303,0.004827406989979948,439.5317311233799,37.5
283,1.45927095413208,317.4347099159857,575.7139801386876,1456.4047210977794,-276.33094846296484,29.166666666666668,5.992146276222252,0.1,0.010938405990600586,0.2723836898803711,0.050671805,0.0155140525,328.15035144042145,-0.6511353977021493,1.584697935631184,29.166666666666668,19200,2.595339059829712,0.027933844948127416,0.007972743077712095,442.97452511810104,37.5
284,1.447770118713379,363.9961991009065,584.6175666337447,1534.0781562643801,-250.18183840433042,33.333333333333336,8.136986372594462,0.1,0.011729717254638672,0.33377742767333984,0.043089405,0.011233652,331.7349362064699,-0.6157885039888641,1.8183781626778028,33.333333333333336,19200,2.6137704849243164,0.02109651691522698,0.008070098397198494,441.6727054635277,37.5
285,1.605170488357544,486.7386875431335,629.1630729437699,1551.7105163310994,-276.24374811647846,41.666666666666664,5.864787063943088,0.1,0.01088261604309082,0.28340840339660645,0.051674094,0.018772578,347.23531134013626,-0.5824235036155511,2.4300764963844492,41.666666666666664,19200,2.534865617752075,0.013696400511643069,0.006691106309924563,444.48997949089323,37.5
286,1.4368538856506348,332.81566530314444,582.5009607987685,1561.3668052999715,-254.20914062903734,32.291666666666664,6.480833103322635,0.1,0.010736227035522461,0.31276607513427734,0.0505206,0.014696356,345.79334673643706,-0.6350827539546694,1.6615839127119976,32.291666666666664,19200,2.5602469444274902,0.020374691721846673,0.009776311067062228,437.30038693984653,37.5
287,1.4756906032562256,248.80777302223768,553.0690298311944,1445.4749826007628,-231.9382536644917,21.875,5.181597304825374,0.1,0.011071205139160156,0.3156750202178955,0.0471804,0.019552546,336.0947893650171,-0.6483482505110608,1.242276749488939,21.875,19200,2.592402935028076,0.01882195145417676,0.006459521339799709,442.9698998261845,37.5
288,1.4649815559387207,301.760618919988,574.9221352346591,1547.9691054771495,-208.8495059522805,26.041666666666668,7.0644893326146745,0.1,0.010707616806030273,0.3183326721191406,0.05064087,0.013088936,332.6613723205142,-0.6052000375560996,1.5060499624439005,26.041666666666668,19200,2.571776866912842,0.031018027467477567,0.010556651663130351,443.538170674636,37.5
289,1.4557616710662842,457.45239606216995,624.4419287127208,1544.9545457885429,-247.9914703767607,40.625,6.650390864765765,0.1,0.011222600936889648,0.3039548397064209,0.04864189,0.016750965,345.1404746946798,-0.5751334392602119,2.2831998940731215,40.625,19200,2.6265077590942383,0.01621983925303606,0.005678003859570748,441.92947617849677,37.5
290,1.4597961902618408,225.9291441013829,560.3687061374733,1549.8992207521562,-248.7285106127018,23.958333333333332,4.581941866317253,0.1,0.011205196380615234,0.3098487854003906,0.04762545,0.020926494,333.21934163535013,-0.688689656288533,1.127352010378134,23.958333333333332,19200,2.626224994659424,0.015549825608619335,0.007278373200489585,444.40022920256854,37.5
291,1.4400882720947266,262.6985804243417,537.6578310533735,1525.7822650591413,-264.6413470239775,26.041666666666668,4.833601199015742,0.1,0.011298179626464844,0.3085975646972656,0.047748625,0.02077958,326.1672655142493,-0.6632238267632226,1.3096928399034444,26.041666666666668,19200,2.6384758949279785,0.021211940376627107,0.009617217598070393,442.10767518907943,37.5
292,1.4418740272521973,316.42142726702014,570.1154785760407,1371.5688335243437,-247.37603716746958,31.25,6.011770225628527,0.1,0.010729312896728516,0.3079659938812256,0.05062046,0.016688226,325.1926816895264,-0.6505222936112761,1.5801027063887236,31.25,19200,2.671428680419922,0.025023040493332958,0.00782204704071266,441.7990723868901,37.5
293,1.618088960647583,335.0176449862631,591.817430331975,1543.2263577020851,-269.46161132817025,30.208333333333332,6.393266865922988,0.1,0.011085748672485352,0.3074219226837158,0.05375253,0.015609171,326.1751780192001,-0.6384182432102209,1.672831756789779,30.208333333333332,19200,2.6866817474365234,0.013581935669955646,0.006297263741637584,443.2640090168817,37.5
294,1.4877574443817139,342.48580913458903,614.3471374091577,1510.9954040679868,-260.33447791895577,29.166666666666668,7.145293564991788,0.1,0.011043071746826172,0.3162271976470947,0.04891189,0.015194613,327.806241130739,-0.6324587960964176,1.710457870570249,29.166666666666668,19200,2.6333796977996826,0.014436094662089264,0.006158753300731367,436.2973742730325,37.5
295,1.4955201148986816,413.97389642031254,611.040656541592,1514.4236832540807,-249.3328031064452,37.5,6.536107619153297,0.1,0.011261224746704102,0.26929259300231934,0.048185658,0.018294167,336.4230066596964,-0.6211177035704127,2.067423963096254,37.5,19200,2.6813576221466064,0.014231091989155276,0.006264992662462895,434.43535093309725,37.5
296,1.432999610900879,280.0339378622766,562.2637575567513,1551.2063305361237,-265.08531492611075,27.083333333333332,6.525306274902738,0.1,0.0107879638671875,0.3216114044189453,0.051167715,0.01573182,330.78409977995443,-0.6616849397559309,1.3972733935774027,27.083333333333332,19200,2.674132823944092,0.018897560021802505,0.01131161398346404,434.347612842103,37.5
297,1.441356897354126,333.17549350824595,598.8975669263135,1538.9969482457686,-271.88132610007176,26.041666666666668,6.044318920743808,0.1,0.01229548454284668,0.31830716133117676,0.04979469,0.017531542,331.0232391527836,-0.6425133473527039,1.6624866526472963,26.041666666666668,19200,2.6379971504211426,0.022228601111472256,0.013661770137378213,434.5803820127497,37.5
298,1.438185214996338,276.82451214781696,559.3934644319071,1535.1584167952362,-259.3455947435873,23.958333333333332,6.225044876228745,0.1,0.010958194732666016,0.3196077346801758,0.049240176,0.016846444,325.60336645228693,-0.6529589730686175,1.3818326935980492,23.958333333333332,19200,2.670304536819458,0.0270906930464403,0.008330247039627302,428.69162557714435,37.5
299,1.4468693733215332,373.73366124569367,636.9064789158489,1458.5205153525062,-273.169769288294,33.333333333333336,5.878450288856818,0.1,0.013414144515991211,0.3130354881286621,0.049738254,0.017554076,330.4163959316276,-0.6336894833698428,1.8652688499634904,33.333333333333336,19200,2.657576560974121,0.013192564211636264,0.0034592983072427893,432.2705277271121,37.5
300,1.455780267715454,372.4669683378805,611.7651449114869,1537.3919156458605,-261.8525240417807,33.333333333333336,5.4623671082653935,0.1,0.011399030685424805,0.314420223236084,0.051483855,0.01646687,334.6214531722529,-0.6072771744309057,1.8595978255690941,33.333333333333336,19200,2.61676287651062,0.01298413164323164,0.0041475182308950385,432.9055611718353,37.5
301,1.6321837902069092,421.8078030455033,568.2010441124096,1535.76207055559,-247.87658389254872,36.458333333333336,6.714584575172435,0.1,0.011254549026489258,0.31012678146362305,0.04949014,0.015382774,343.340088159578,-0.5888363871866326,2.1069969461467006,36.458333333333336,19200,2.6397204399108887,0.017861903055899592,0.0062636083795419165,448.8775375795065,37.5
302,1.4459702968597412,297.9935984303626,597.0234458215517,1482.8765301092008,-249.64117178600333,30.208333333333332,5.682886314130697,0.1,0.011198043823242188,0.2511708736419678,0.05166208,0.016738974,338.80543918665643,-0.6687374492693854,1.4875125507306148,30.208333333333332,19200,2.585590362548828,0.014468576695647684,0.0035958610154124813,445.886520943656,37.5
303,1.5443060398101807,281.7630277652291,585.5798361946165,1555.736735385175,-265.7578551875465,29.166666666666668,5.219793091426884,0.1,0.012979984283447266,0.34223437309265137,0.052762706,0.019758914,333.1011980445137,-0.6742619176908097,1.40698808230919,29.166666666666668,19200,2.6333823204040527,0.024014843074345208,0.007343907449017728,443.49884750798896,37.5
304,1.5195062160491943,247.92175596401333,526.8272969612581,1471.6427949407469,-277.4877748821993,23.958333333333332,5.096078849707228,0.1,0.011276721954345703,0.329695463180542,0.05253068,0.018783193,324.58325383646365,-0.6762617428165031,1.2360299238501635,23.958333333333332,19200,2.5850584506988525,0.026393309447534947,0.01307481257519966,443.7015245150185,37.5
305,1.5499987602233887,324.0024680107374,573.8818431837365,1377.8512612268528,-256.4967196793347,27.083333333333332,6.496569101974612,0.1,0.011514663696289062,0.3097856044769287,0.05014913,0.016458021,324.52517525389106,-0.6400028325149907,1.6174971674850094,27.083333333333332,19200,2.6593286991119385,0.019660103101529266,0.009894732436187574,445.6039177553569,37.5
306,1.4799001216888428,213.76815697963949,532.8564089173383,1523.5251434589225,-274.4023942000706,23.958333333333332,4.895598467497962,0.1,0.011377573013305664,0.3296480178833008,0.037960365,0.016806826,313.4494734264659,-0.7014868094400312,1.066638190559969,23.958333333333332,19200,2.6783668994903564,0.019441623647327353,0.008211811801828488,448.73121177137233,37.5
307,1.5838539600372314,303.5967097279429,584.2931962913094,1520.2415679272203,-285.4227811763045,26.041666666666668,5.0292068878359,0.1,0.011317729949951172,0.3227238655090332,0.04982444,0.020622378,312.46419705661356,-0.6501467993850184,1.5152698672816485,26.041666666666668,19200,2.6571052074432373,0.01863161221429039,0.00934646609906099,446.8336415752822,37.5
308,1.8868017196655273,342.1692012035525,611.2937361698065,1544.1435879930684,-247.83531625490124,30.208333333333332,7.220077985825376,0.1,0.01163625717163086,0.3219292163848877,0.04645848,0.014748776,315.43469747130746,-0.6115729074568784,1.7067604258764544,30.208333333333332,19200,2.641003131866455,0.019449983405662997,0.006416458833169318,447.65850989356494,37.5
309,1.8516404628753662,312.24861899626677,593.4448950864678,1512.0132970417478,-279.6760727862812,31.25,5.414538663164081,0.1,0.011602163314819336,0.31671738624572754,0.04816682,0.017886642,315.11608962380336,-0.6541168609532163,1.5590081390467834,31.25,19200,2.735499143600464,0.022373808451927078,0.006715386242844779,438.89735119140846,37.5
310,1.782658576965332,173.41940644060523,500.1939576551079,1540.038659609224,-262.2469625725933,20.833333333333332,6.002406309822873,0.1,0.013409852981567383,0.3150954246520996,0.05010692,0.016640684,300.94642130548357,-0.703047962872887,0.8652853704604465,20.833333333333332,19200,2.7347054481506348,0.04150470325084044,0.01010533444742685,438.30125748380067,37.5
311,1.736177921295166,316.0598008559477,568.0035865150362,1545.5441400407028,-215.05263058119291,27.083333333333332,6.736610897236253,0.1,0.01225590705871582,0.3537733554840088,0.045871936,0.012474588,302.45775926053,-0.6245404795431069,1.577334520456893,27.083333333333332,19200,2.706299066543579,0.028578712561502326,0.010997298547122301,440.980402435306,37.5
312,1.8215887546539307,238.65476795646114,547.7400346242538,1443.554078263791,-258.698659906673,25.0,6.087324670025667,0.1,0.012293577194213867,0.34277963638305664,0.047898542,0.014342435,296.0774601301231,-0.6798296943373989,1.1912119723292676,25.0,19200,2.672471523284912,0.016970572479279248,0.006840544839925984,432.5004818653294,37.5
313,1.8851087093353271,187.41922478773338,527.8318583258249,1374.4075338204514,-278.7782919791869,21.875,6.067698705630171,0.1,0.012390375137329102,0.35404396057128906,0.051074274,0.016299495,285.21163659588416,-0.6957268773035611,0.9353147893631054,21.875,19200,2.6520111560821533,0.019643669058107736,0.009420613819972851,431.4247631911923,37.5
314,1.8285167217254639,319.9396822170319,584.2696500520298,1549.2383340744852,-239.06605269564693,31.25,5.60666992706927,0.1,0.011669397354125977,0.3104696273803711,0.05024903,0.019170908,288.68444115799895,-0.6258796016432654,1.5970370650234014,31.25,19200,2.5566718578338623,0.018059778393348123,0.007071596044039141,425.6396941295537,37.5
315,1.5756709575653076,324.0664383555705,582.3359648968648,1509.7418971613351,-240.51995651168318,30.208333333333332,8.076056896653283,0.1,0.010769844055175781,0.3134748935699463,0.046880964,0.011919925,292.22264087775613,-0.6415088616463844,1.6180744716869488,30.208333333333332,19200,2.7122862339019775,0.029241741130605525,0.013516487393622904,437.864059117195,37.5
316,1.9389982223510742,374.80974210356067,598.3032939988012,1519.669838536992,-273.6358244618167,33.333333333333336,6.917453528671554,0.1,0.011634111404418945,0.3093571662902832,0.049653932,0.014489905,300.4813510003366,-0.6223649974768325,1.8720100025231676,33.333333333333336,19200,2.695476770401001,0.019713114051834547,0.007556267076476837,439.25671740252994,37.5
317,1.9477338790893555,272.6707054084097,521.8616503164055,1520.760847440539,-258.0083416767687,22.916666666666668,5.815211576659593,0.1,0.011438846588134766,0.3141357898712158,0.048080675,0.017972399,297.7002864411439,-0.666324954910957,1.3613833784223761,22.916666666666668,19200,2.70173978805542,0.02211688927010234,0.01077844031897609,435.9120771478026,37.5
318,1.7027249336242676,213.86118270707865,542.1903285897082,1505.4164065506993,-258.17725170349837,19.791666666666668,6.218314574223605,0.1,0.011200666427612305,0.31529998779296875,0.050332107,0.016335564,289.31637606773734,-0.6962572083729256,1.0672844582937413,19.791666666666668,19200,2.6535325050354004,0.019832079882981912,0.010747968980294674,438.1755460083693,37.5
319,1.700333595275879,332.3582548232113,571.6651963749651,1539.0686333396482,-261.0182197256997,29.166666666666668,6.3915296019251535,0.1,0.011490345001220703,0.2973482608795166,0.051602986,0.014658815,293.62056394328476,-0.6381253742448137,1.659791292421853,29.166666666666668,19200,2.6811931133270264,0.031175127043920697,0.016882659795850432,436.363160283611,37.5
320,1.7406244277954102,312.1454002036587,581.1809518925852,1413.6942192195097,-237.63028270529838,30.208333333333332,5.911562120760026,0.1,0.012347698211669922,0.36156320571899414,0.049419906,0.016349718,295.47304756932215,-0.6363817596253787,1.5575765737079548,30.208333333333332,19200,2.6221094131469727,0.019858725199285925,0.006944184128182177,423.123005709291,37.5
321,1.4704484939575195,293.3907840370738,568.9822034790297,1532.7924006521832,-272.1913425676279,23.958333333333332,5.306745547216117,0.1,0.011231184005737305,0.3065969944000244,0.04606119,0.016305454,295.26482121609735,-0.6563240319511844,1.4647176347154822,23.958333333333332,19200,2.661900043487549,0.018966498172626266,0.00865502416210836,430.77772776457823,37.5
322,1.4784624576568604,280.0200899773934,576.2595640929441,1550.5723164445794,-255.6198344431444,25.0,6.341262355201492,0.1,0.011296272277832031,0.2649829387664795,0.047217574,0.017365364,293.74034809222695,-0.6633671718528027,1.3985078281471974,25.0,19200,2.6694114208221436,0.02040467523147456,0.008332663519603798,431.3442592251749,37.5
323,1.5249192714691162,289.2685328095228,574.8640974817699,1529.7726156246306,-228.21007246056914,22.916666666666668,6.991150801939132,0.1,0.011501312255859375,0.3136610984802246,0.047853287,0.01322476,293.29316656395656,-0.6316892635315067,1.445185736468493,22.916666666666668,19200,2.6946539878845215,0.018651487803442755,0.005661898486751607,431.71765090072915,37.5
324,1.6310296058654785,318.59861639747595,595.3256483024298,1559.9204689285734,-270.46007031620223,30.208333333333332,6.335753176165821,0.1,0.011402368545532227,0.3033275604248047,0.046785235,0.017025283,295.8237115473085,-0.6373624739868732,1.5905541926797937,30.208333333333332,19200,2.7604007720947266,0.022858799545232483,0.009921826157856209,428.2320477394292,37.5
325,1.7778828144073486,360.41348592141554,626.752174445516,1554.3292438188544,-271.8909434723266,31.25,4.684633492538113,0.1,0.011072874069213867,0.323500394821167,0.05171847,0.020740984,302.28268898471924,-0.6406346500504556,1.799782016616211,31.25,19200,2.710663318634033,0.01807987852330157,0.008720363651382538,432.53622031889984,37.5
326,1.5744574069976807,299.2914721899283,588.2313179166806,1550.2953005404745,-241.1800400851332,25.0,6.435241973288999,0.1,0.011424541473388672,0.42585253715515137,0.04890984,0.0156086935,301.9835673052402,-0.6651705257511641,1.4944128075821694,25.0,19200,2.6774539947509766,0.017975656809585794,0.00878955584938987,424.35238092459804,37.5
327,1.6796875,375.43758152425744,599.8950111358869,1480.8457991632908,-253.8791018010056,32.291666666666664,5.9069494246837815,0.1,0.010924577713012695,0.3586544990539551,0.049683236,0.017505838,309.32896872714196,-0.6436241422884342,1.8749175243782326,32.291666666666664,19200,2.7119107246398926,0.01524971059700133,0.007271493067626477,431.11501043752486,37.5
328,1.7284541130065918,387.0074104177324,601.4245329830109,1549.1173258715116,-264.13890221600053,32.291666666666664,6.5973639569114,0.1,0.011463403701782227,0.32364821434020996,0.04803163,0.014856245,317.096812896201,-0.6017977856327565,1.9332022143672434,32.291666666666664,19200,2.799731969833374,0.0345170350421469,0.020790887725834997,435.5322642255635,37.5
329,1.706944227218628,339.8372662747795,590.5260481386274,1535.7797462617168,-268.13582492240533,30.208333333333332,6.512861485158297,0.1,0.0108184814453125,0.3167712688446045,0.0473045,0.016553873,319.37085823405886,-0.6428101126954836,1.6948982206378496,30.208333333333332,19200,2.7790169715881348,0.022669881180291496,0.007257598854840609,436.57229784409515,37.5
330,1.725386142730713,355.27809785292493,574.0937199657754,1555.521193157331,-270.9389881007704,28.125,5.723528858450942,0.1,0.011513471603393555,0.3149220943450928,0.047585856,0.016950231,322.9615821959455,-0.6337932501475545,1.773081749852446,28.125,19200,2.718421220779419,0.023180963509086088,0.011909395571406706,438.42018239596035,37.5
