Iter | Sampling Pol | Evaluation Pol | Best (Sampled) 
   0 -95.84 -127.98 -100000000.00 
   1 -107.94 -131.28 -95.84 
   2 -77.89 -127.45 -95.84 
   3 -73.93 -116.62 -77.89 
   4 -96.02 -61.55 -73.93 
   5 -32.05 -50.58 -73.93 
   6 -64.69 -38.31 -32.05 
   7 -43.57 -41.84 -32.05 
   8 -51.44 -43.18 -32.05 
   9 -34.76 -24.62 -32.05 
  10 -42.32 -13.54 -32.05 
  11 -38.20 -13.26 -32.05 
  12 -8.42 -0.84 -32.05 
  13 -37.95 -3.66 -8.42 
  14 -72.34  5.20 -8.42 
  15 -14.01 -3.15 -8.42 
  16 -25.36 -6.64 -8.42 
  17 56.59 -5.63 -8.42 
  18 65.56 -10.60 56.59 
  19 -3.02 -15.83 65.56 
  20 17.00 -0.97 65.56 
  21 72.83  7.10 65.56 
  22 73.91  4.26 72.83 
  23 12.93 10.63 73.91 
  24 59.81 31.20 73.91 
  25 16.75 43.51 73.91 
  26 54.15 55.51 73.91 
  27 62.75 73.36 73.91 
  28 119.40 82.40 73.91 
  29 157.12 99.43 119.40 
  30 169.11 117.07 157.12 
  31 26.72 119.35 169.11 
  32 82.93 134.39 169.11 
  33 89.66 136.43 169.11 
  34 91.18 152.39 169.11 
  35 154.40 149.82 169.11 
  36 176.77 146.60 169.11 
  37 212.73 158.00 176.77 
  38 189.41 161.00 212.73 
  39 17.81 164.54 212.73 
  40 131.25 172.85 212.73 
  41 128.09 173.59 212.73 
  42 241.75 174.93 212.73 
  43 127.27 177.01 241.75 
  44 72.59 183.54 241.75 
  45 79.97 188.17 241.75 
  46 186.30 191.53 241.75 
  47 189.24 192.34 241.75 
  48 151.96 204.39 241.75 
  49 109.31 188.59 241.75 
  50 135.23 187.80 241.75 
  51 139.33 192.22 241.75 
  52 178.44 210.43 241.75 
  53 316.08 212.78 241.75 
  54 197.41 206.66 316.08 
  55 195.53 211.31 316.08 
  56 132.88 209.44 316.08 
  57 266.29 221.22 316.08 
  58 210.23 226.04 316.08 
  59 237.75 225.20 316.08 
  60 177.26 220.52 316.08 
  61 203.02 220.51 316.08 
  62 149.04 225.99 316.08 
  63 181.61 226.57 316.08 
  64 109.94 221.28 316.08 
  65 328.45 222.95 316.08 
  66 253.94 217.63 328.45 
  67 266.25 214.71 328.45 
  68 131.88 221.19 328.45 
  69 242.71 224.02 328.45 
  70 294.27 227.21 328.45 
  71 334.88 228.78 328.45 
  72 195.40 232.61 334.88 
  73 185.38 230.32 334.88 
  74 171.74 228.77 334.88 
  75 227.09 225.14 334.88 
  76 320.68 234.83 334.88 
  77 208.29 234.95 334.88 
  78 219.35 246.72 334.88 
  79 242.92 264.04 334.88 
  80 216.55 263.12 334.88 
  81 140.89 249.11 334.88 
  82 229.45 255.36 334.88 
  83 191.51 265.20 334.88 
  84 115.95 245.21 334.88 
  85 165.06 230.79 334.88 
  86 238.96 232.46 334.88 
  87 244.78 231.39 334.88 
  88 229.42 256.08 334.88 
  89 299.24 266.39 334.88 
  90 121.79 256.80 334.88 
  91 296.73 258.99 334.88 
  92 213.53 262.80 334.88 
  93 216.23 272.89 334.88 
  94 192.50 277.21 334.88 
  95 324.99 274.99 334.88 
  96 276.34 279.57 334.88 
  97 192.77 283.11 334.88 
  98 252.49 288.78 334.88 
  99 203.76 293.75 334.88 
 100 179.61 296.27 334.88 
 101 253.34 302.56 334.88 
 102 210.07 299.47 334.88 
 103 269.02 301.87 334.88 
 104 303.20 302.73 334.88 
 105 174.89 302.05 334.88 
 106 231.89 306.29 334.88 
 107 152.27 311.65 334.88 
 108 305.98 314.44 334.88 
 109 254.84 321.53 334.88 
 110 278.34 319.41 334.88 
 111 188.26 320.14 334.88 
 112 236.66 322.37 334.88 
 113 228.78 320.42 334.88 
 114 314.89 316.89 334.88 
 115 270.96 317.72 334.88 
 116 205.01 320.63 334.88 
 117 308.63 323.22 334.88 
 118 236.71 324.61 334.88 
 119 253.33 333.54 334.88 
 120 334.11 332.56 334.88 
 121 283.36 329.74 334.88 
 122 191.13 326.96 334.88 
 123 251.04 329.52 334.88 
 124 316.64 325.19 334.88 
 125 228.55 327.38 334.88 
 126 333.90 326.42 334.88 
 127 232.99 331.13 334.88 
 128 300.90 332.07 334.88 
 129 291.61 331.64 334.88 
 130 336.67 328.67 334.88 
 131 392.42 342.27 336.67 
 132 320.59 336.64 392.42 
 133 231.78 338.72 392.42 
 134 264.87 339.39 392.42 
 135 306.05 336.18 392.42 
 136 286.81 337.71 392.42 
 137 324.18 331.31 392.42 
 138 251.70 326.47 392.42 
 139 228.92 329.07 392.42 
 140 257.75 333.90 392.42 
 141 294.75 334.87 392.42 
 142 219.20 334.75 392.42 
 143 151.94 332.28 392.42 
 144 225.86 338.02 392.42 
 145 506.49 354.91 392.42 
 146 172.02 358.73 506.49 
 147 257.20 366.55 506.49 
 148 269.60 367.68 506.49 
 149 309.80 372.73 506.49 
 150 238.83 360.39 506.49 
 151 245.08 361.83 506.49 
 152 282.77 360.30 506.49 
 153 305.19 354.08 506.49 
 154 359.17 335.79 506.49 
 155 264.29 335.89 506.49 
 156 380.43 332.63 506.49 
 157 255.77 334.30 506.49 
 158 378.15 332.59 506.49 
 159 248.28 332.32 506.49 
 160 311.14 332.45 506.49 
 161 332.67 332.47 506.49 
 162 327.10 331.86 506.49 
 163 314.85 328.66 506.49 
 164 282.00 330.09 506.49 
 165 262.03 331.23 506.49 
 166 313.52 351.21 506.49 
 167 390.82 345.01 506.49 
 168 246.26 329.82 506.49 
 169 184.85 328.44 506.49 
 170 344.03 327.64 506.49 
 171 288.53 347.99 506.49 
 172 341.03 353.91 506.49 
 173 228.46 355.79 506.49 
 174 347.07 357.06 506.49 
 175 319.29 353.18 506.49 
 176 289.01 360.37 506.49 
 177 372.19 362.88 506.49 
 178 384.54 358.40 506.49 
 179 274.72 360.15 506.49 
 180 311.38 357.68 506.49 
 181 344.91 353.66 506.49 
 182 337.50 355.68 506.49 
 183 307.43 348.15 506.49 
 184 308.55 348.86 506.49 
 185 221.86 355.51 506.49 
 186 347.33 360.09 506.49 
 187 293.84 359.18 506.49 
 188 225.09 359.73 506.49 
 189 261.41 358.14 506.49 
 190 332.90 359.04 506.49 
 191 324.54 357.87 506.49 
 192 301.25 359.11 506.49 
 193 206.41 358.71 506.49 
 194 217.47 360.61 506.49 
 195 392.65 371.64 506.49 
 196 235.00 371.94 506.49 
 197 343.37 376.66 506.49 
 198 256.02 360.48 506.49 
 199 400.09 370.38 506.49 
 200 383.01 367.34 506.49 
 201 337.16 368.14 506.49 
 202 275.27 367.88 506.49 
 203 243.24 367.35 506.49 
 204 293.45 371.79 506.49 
 205 229.79 378.22 506.49 
 206 294.78 381.08 506.49 
 207 228.12 382.06 506.49 
 208 304.81 385.98 506.49 
 209 311.17 392.44 506.49 
 210 347.46 393.46 506.49 
 211 315.74 393.65 506.49 
 212 300.13 390.82 506.49 
 213 343.31 387.29 506.49 
 214 426.48 385.19 506.49 
 215 279.24 384.43 506.49 
 216 346.52 382.17 506.49 
 217 361.13 383.20 506.49 
 218 330.60 385.15 506.49 
 219 373.23 385.83 506.49 
 220 520.10 390.77 506.49 
 221 432.06 397.06 520.10 
 222 297.99 397.13 520.10 
 223 189.46 397.82 520.10 
 224 322.47 398.90 520.10 
 225 398.33 407.39 520.10 
 226 131.10 411.30 520.10 
 227 294.73 414.39 520.10 
 228 330.46 416.82 520.10 
 229 338.98 419.94 520.10 
 230 282.51 417.01 520.10 
 231 263.67 414.57 520.10 
 232 276.23 422.39 520.10 
 233 241.57 422.58 520.10 
 234 413.63 428.85 520.10 
 235 421.35 424.55 520.10 
 236 338.76 426.64 520.10 
 237 248.95 424.99 520.10 
 238 342.09 423.90 520.10 
 239 242.90 428.37 520.10 
 240 288.66 427.95 520.10 
 241 442.30 427.75 520.10 
 242 302.93 423.80 520.10 
 243 342.89 426.49 520.10 
 244 403.40 430.87 520.10 
 245 315.83 428.54 520.10 
 246 302.56 421.66 520.10 
 247 326.93 417.87 520.10 
 248 285.51 416.50 520.10 
 249 325.16 407.22 520.10 
 250 292.39 410.17 520.10 
 251 421.22 409.38 520.10 
 252 375.76 415.90 520.10 
 253 235.68 425.20 520.10 
 254 390.80 419.66 520.10 
 255 313.73 415.99 520.10 
 256 434.85 423.96 520.10 
 257 355.30 424.78 520.10 
 258 207.90 424.13 520.10 
 259 321.98 424.89 520.10 
 260 373.00 426.17 520.10 
 261 258.67 423.02 520.10 
 262 361.15 420.33 520.10 
 263 259.21 422.40 520.10 
 264 321.11 422.42 520.10 
 265 251.62 420.32 520.10 
 266 253.06 418.90 520.10 
 267 402.66 421.07 520.10 
 268 254.92 426.79 520.10 
 269 361.60 427.87 520.10 
 270 366.32 427.28 520.10 
 271 373.76 425.77 520.10 
 272 343.55 425.54 520.10 
 273 286.91 427.48 520.10 
 274 378.66 417.23 520.10 
 275 249.41 422.71 520.10 
 276 313.56 419.33 520.10 
 277 340.72 410.45 520.10 
 278 336.79 413.47 520.10 
 279 350.03 418.10 520.10 
 280 389.99 414.51 520.10 
 281 314.57 415.28 520.10 
 282 282.64 412.79 520.10 
 283 319.71 418.54 520.10 
 284 357.14 419.83 520.10 
 285 474.24 425.04 520.10 
 286 330.96 423.80 520.10 
 287 257.10 419.93 520.10 
 288 296.96 421.01 520.10 
 289 450.30 426.23 520.10 
 290 220.16 429.37 520.10 
 291 257.23 432.16 520.10 
 292 318.32 430.37 520.10 
 293 341.59 424.00 520.10 
 294 343.14 414.03 520.10 
 295 401.61 417.75 520.10 
 296 280.81 426.04 520.10 
 297 336.29 422.42 520.10 
 298 273.79 420.54 520.10 
 299 379.06 434.09 520.10 
 300 375.26 434.47 520.10 
 301 428.70 434.69 520.10 
 302 301.06 436.75 520.10 
 303 294.22 436.92 520.10 
 304 249.22 435.52 520.10 
 305 329.15 434.84 520.10 
 306 212.70 436.88 520.10 
 307 300.62 441.54 520.10 
 308 339.57 442.72 520.10 
 309 309.88 443.47 520.10 
 310 182.27 442.32 520.10 
 311 335.10 441.10 520.10 
 312 240.43 440.53 520.10 
 313 193.49 433.38 520.10 
 314 332.12 428.27 520.10 
 315 353.03 431.78 520.10 
 316 382.29 434.85 520.10 
 317 275.62 437.45 520.10 
 318 231.87 437.74 520.10 
 319 336.92 434.15 520.10 
 320 323.77 440.04 520.10 
 321 293.79 436.73 520.10 
 322 284.34 436.05 520.10 
 323 301.17 441.26 520.10 
 324 326.51 441.96 520.10 
 325 374.44 431.17 520.10 
 326 298.82 431.92 520.10 
 327 382.12 430.70 520.10 
 328 403.62 432.34 520.10 
 329 356.08 440.64 520.10 
 330 376.55 436.07 520.10 
 331 318.02 441.06 520.10 
 332 353.28 435.33 520.10 
 333 343.69 436.96 520.10 
 334 284.08 437.54 520.10 
 335 248.70 432.20 520.10 
 336 325.09 432.86 520.10 
 337 319.18 430.85 520.10 
 338 318.20 431.06 520.10 
 339 349.34 427.65 520.10 
 340 382.11 438.12 520.10 
 341 305.93 436.63 520.10 
 342 211.11 441.21 520.10 
 343 411.36 439.66 520.10 
 344 286.67 439.14 520.10 
 345 319.88 446.35 520.10 
 346 371.26 445.95 520.10 
 347 254.17 441.28 520.10 
 348 300.11 442.24 520.10 
 349 355.21 443.07 520.10 
 350 315.97 444.24 520.10 
 351 359.05 446.74 520.10 
 352 243.02 446.67 520.10 
 353 304.67 449.74 520.10 
 354 323.89 448.16 520.10 
 355 261.53 443.93 520.10 
 356 213.13 445.56 520.10 
 357 358.21 447.39 520.10 
 358 344.14 448.37 520.10 
 359 269.98 445.13 520.10 
 360 356.16 439.48 520.10 
 361 361.96 436.28 520.10 
 362 350.11 434.81 520.10 
 363 347.39 432.86 520.10 
 364 281.28 435.76 520.10 
 365 169.36 428.70 520.10 
 366 328.22 429.63 520.10 
 367 217.35 429.68 520.10 
 368 339.38 429.52 520.10 
 369 231.46 427.35 520.10 
 370 274.20 441.29 520.10 
 371 353.59 438.69 520.10 
 372 240.61 434.01 520.10 
 373 313.18 445.44 520.10 
 374 352.29 449.34 520.10 
 375 363.13 444.70 520.10 
 376 347.50 449.95 520.10 
 377 311.10 450.37 520.10 
 378 330.63 453.71 520.10 
 379 386.47 451.11 520.10 
 380 373.61 451.55 520.10 
 381 437.04 448.14 520.10 
 382 369.69 445.80 520.10 
 383 354.50 444.60 520.10 
 384 425.73 445.43 520.10 
 385 307.56 443.13 520.10 
 386 443.51 431.40 520.10 
 387 361.10 430.60 520.10 
 388 301.43 429.80 520.10 
 389 325.07 451.73 520.10 
 390 413.63 453.50 520.10 
 391 281.50 453.47 520.10 
 392 365.02 458.43 520.10 
 393 319.24 453.90 520.10 
 394 290.95 449.74 520.10 
 395 418.23 449.02 520.10 
 396 444.89 450.97 520.10 
 397 332.93 447.65 520.10 
 398 353.07 449.89 520.10 
 399 312.01 447.44 520.10 
 400 415.47 449.55 520.10 
 401 306.77 450.96 520.10 
 402 361.71 459.30 520.10 
 403 407.10 457.85 520.10 
 404 391.12 460.15 520.10 
 405 374.70 461.63 520.10 
 406 421.78 462.42 520.10 
 407 413.65 460.07 520.10 
 408 442.61 461.64 520.10 
 409 355.36 459.60 520.10 
 410 347.38 459.23 520.10 
 411 387.59 463.05 520.10 
 412 326.54 460.14 520.10 
 413 377.75 460.98 520.10 
 414 341.55 459.96 520.10 
 415 426.70 460.27 520.10 
 416 353.02 457.71 520.10 
 417 314.87 460.32 520.10 
 418 449.12 459.82 520.10 
 419 331.14 458.67 520.10 
 420 251.62 461.66 520.10 
 421 337.48 463.00 520.10 
 422 341.48 461.91 520.10 
 423 463.28 462.49 520.10 
 424 539.43 466.08 520.10 
 425 221.34 465.47 539.43 
 426 424.14 469.54 539.43 
 427 368.53 468.82 539.43 
 428 389.36 470.35 539.43 
 429 373.88 471.30 539.43 
 430 236.17 472.35 539.43 
 431 499.84 474.88 539.43 
 432 279.95 476.11 539.43 
 433 373.87 477.13 539.43 
 434 295.53 477.37 539.43 
 435 387.16 475.05 539.43 
 436 331.27 473.33 539.43 
 437 293.77 474.41 539.43 
 438 335.81 473.67 539.43 
 439 274.78 473.26 539.43 
 440 364.89 474.06 539.43 
 441 419.93 477.69 539.43 
 442 334.17 478.13 539.43 
 443 392.49 477.69 539.43 
 444 297.10 478.68 539.43 
 445 252.99 478.35 539.43 
 446 397.82 477.63 539.43 
 447 404.69 476.33 539.43 
 448 407.59 477.85 539.43 
 449 398.91 479.86 539.43 
 450 322.49 480.13 539.43 
 451 463.02 481.19 539.43 
 452 412.09 481.20 539.43 
 453 341.21 480.18 539.43 
 454 363.05 480.37 539.43 
 455 297.54 481.45 539.43 
 456 419.20 482.46 539.43 
 457 351.12 486.20 539.43 
 458 271.38 487.69 539.43 
 459 291.90 484.69 539.43 
 460 408.97 481.92 539.43 
 461 278.97 482.63 539.43 
 462 429.32 482.19 539.43 
 463 353.14 481.07 539.43 
 464 374.60 485.38 539.43 
 465 283.78 483.85 539.43 
 466 362.06 481.66 539.43 
 467 431.00 481.18 539.43 
 468 379.58 480.70 539.43 
 469 343.40 481.65 539.43 
 470 334.07 482.71 539.43 
 471 355.38 482.44 539.43 
 472 271.33 482.83 539.43 
 473 369.67 483.58 539.43 
 474 382.80 485.12 539.43 
 475 367.85 482.60 539.43 
 476 367.20 480.70 539.43 
 477 247.26 480.63 539.43 
 478 424.81 482.44 539.43 
 479 373.69 482.33 539.43 
 480 487.05 483.11 539.43 
 481 307.38 482.87 539.43 
 482 243.22 482.58 539.43 
 483 341.46 482.38 539.43 
 484 412.01 480.96 539.43 
 485 380.62 479.48 539.43 
 486 447.24 477.65 539.43 
 487 334.35 478.88 539.43 
 488 243.06 475.84 539.43 
 489 278.47 477.71 539.43 
 490 309.85 480.09 539.43 
 491 462.19 479.89 539.43 
 492 333.29 478.06 539.43 
 493 402.46 477.51 539.43 
 494 239.66 478.84 539.43 
 495 427.68 479.68 539.43 
 496 394.45 479.26 539.43 
 497 474.59 479.60 539.43 
 498 317.46 480.41 539.43 
 499 263.06 479.63 539.43 
 500 444.01 478.57 539.43 
 501 373.33 481.61 539.43 
 502 329.83 480.90 539.43 
 503 301.22 481.84 539.43 
 504 331.88 481.56 539.43 
 505 312.67 479.80 539.43 
 506 408.93 479.75 539.43 
 507 369.51 480.58 539.43 
 508 426.05 482.35 539.43 
 509 220.93 482.54 539.43 
 510 346.28 482.12 539.43 
 511 423.83 482.21 539.43 
 512 378.14 480.98 539.43 
 513 221.19 480.20 539.43 
 514 443.62 480.00 539.43 
 515 269.19 479.96 539.43 
 516 439.42 478.84 539.43 
 517 372.51 478.38 539.43 
 518 448.11 478.97 539.43 
 519 279.82 476.39 539.43 
 520 329.88 476.90 539.43 
 521 348.96 476.07 539.43 
 522 362.05 474.79 539.43 
 523 320.07 473.49 539.43 
 524 332.36 474.56 539.43 
 525 276.80 476.30 539.43 
 526 426.58 475.85 539.43 
 527 431.21 477.73 539.43 
 528 374.84 477.14 539.43 
 529 271.69 476.87 539.43 
 530 348.83 477.09 539.43 
 531 330.29 477.07 539.43 
 532 318.15 478.68 539.43 
 533 382.75 479.04 539.43 
 534 326.48 479.57 539.43 
 535 266.15 480.11 539.43 
 536 304.71 478.28 539.43 
 537 339.00 477.75 539.43 
 538 431.97 479.81 539.43 
 539 371.02 479.83 539.43 
 540 385.43 480.55 539.43 
 541 320.03 481.14 539.43 
 542 450.57 480.17 539.43 
 543 368.65 481.92 539.43 
 544 347.27 482.37 539.43 
 545 400.61 483.93 539.43 
 546 391.49 483.19 539.43 
 547 390.34 481.45 539.43 
 548 395.45 479.44 539.43 
 549 259.48 479.70 539.43 
 550 338.96 480.25 539.43 
 551 456.97 479.38 539.43 
 552 338.76 479.59 539.43 
 553 480.26 477.74 539.43 
 554 359.81 479.13 539.43 
 555 452.82 477.82 539.43 
 556 329.13 479.35 539.43 
 557 348.56 481.05 539.43 
 558 415.61 481.05 539.43 
 559 388.90 480.76 539.43 
 560 270.77 482.29 539.43 
 561 197.72 482.85 539.43 
 562 337.60 481.36 539.43 
 563 331.69 479.01 539.43 
 564 265.39 478.73 539.43 
 565 405.06 478.05 539.43 
 566 459.60 478.08 539.43 
 567 430.11 476.82 539.43 
 568 357.56 477.04 539.43 
 569 294.63 476.00 539.43 
 570 315.48 478.37 539.43 
 571 422.59 476.24 539.43 
 572 290.48 476.85 539.43 
 573 246.07 475.00 539.43 
 574 477.59 475.76 539.43 
 575 394.34 474.47 539.43 
 576 278.73 473.19 539.43 
 577 379.92 474.47 539.43 
 578 335.18 473.83 539.43 
 579 308.23 474.03 539.43 
 580 363.18 474.61 539.43 
 581 362.81 473.82 539.43 
 582 395.76 471.94 539.43 
 583 300.29 474.51 539.43 
 584 339.89 474.67 539.43 
 585 367.93 473.84 539.43 
 586 344.68 475.06 539.43 
 587 207.88 475.81 539.43 
 588 290.68 473.71 539.43 
 589 312.06 474.15 539.43 
 590 356.86 471.89 539.43 
 591 300.67 472.92 539.43 
 592 450.10 473.94 539.43 
 593 381.57 472.54 539.43 
 594 280.85 473.29 539.43 
 595 461.68 469.47 539.43 
 596 351.22 467.63 539.43 
 597 230.94 467.28 539.43 
 598 475.43 468.30 539.43 
 599 265.21 467.72 539.43 
 600 387.25 465.14 539.43 
 601 298.43 464.69 539.43 
 602 284.89 464.38 539.43 
 603 488.64 465.66 539.43 
 604 324.05 465.72 539.43 
 605 482.76 463.36 539.43 
 606 326.63 460.35 539.43 
 607 263.01 457.81 539.43 
 608 465.80 452.38 539.43 
 609 363.86 460.40 539.43 
 610 419.28 454.67 539.43 
 611 382.76 454.90 539.43 
 612 246.79 451.41 539.43 
 613 325.97 450.45 539.43 
 614 303.45 450.14 539.43 
 615 392.56 449.91 539.43 
 616 370.82 451.49 539.43 
 617 289.74 451.30 539.43 
 618 373.95 451.40 539.43 
 619 378.04 449.56 539.43 
 620 278.19 453.90 539.43 
 621 344.01 456.20 539.43 
 622 331.99 457.33 539.43 
 623 337.55 454.23 539.43 
 624 317.17 454.04 539.43 
 625 491.13 454.60 539.43 
 626 357.51 458.70 539.43 
 627 503.94 460.63 539.43 
 628 358.97 463.67 539.43 
 629 364.20 457.07 539.43 
 630 259.31 456.92 539.43 
 631 293.87 457.14 539.43 
 632 489.42 457.93 539.43 
 633 339.15 455.44 539.43 
 634 445.84 453.90 539.43 
 635 361.87 454.84 539.43 
 636 351.36 455.19 539.43 
 637 327.98 454.01 539.43 
 638 447.81 450.13 539.43 
 639 397.60 451.72 539.43 
 640 327.11 462.00 539.43 
 641 329.27 463.13 539.43 
 642 415.52 463.59 539.43 
 643 409.14 460.29 539.43 
 644 339.55 463.41 539.43 
 645 344.23 459.83 539.43 
 646 279.95 455.13 539.43 
 647 462.76 455.09 539.43 
 648 449.61 462.92 539.43 
 649 296.59 462.18 539.43 
 650 289.06 464.23 539.43 
 651 390.52 462.47 539.43 
 652 419.25 462.44 539.43 
 653 422.10 463.97 539.43 
 654 362.12 465.22 539.43 
 655 249.81 463.72 539.43 
 656 393.24 459.34 539.43 
 657 427.02 456.81 539.43 
 658 363.52 458.69 539.43 
 659 276.95 461.38 539.43 
 660 276.43 461.92 539.43 
 661 307.58 462.48 539.43 
 662 355.35 460.85 539.43 
 663 378.59 460.36 539.43 
 664 157.78 459.45 539.43 
 665 333.09 451.49 539.43 
 666 259.56 448.46 539.43 
 667 420.70 447.37 539.43 
 668 385.21 445.39 539.43 
 669 322.99 445.89 539.43 
 670 320.22 443.76 539.43 
 671 282.32 446.78 539.43 
 672 376.02 442.85 539.43 
 673 372.90 441.55 539.43 
 674 286.21 441.35 539.43 
 675 315.62 440.87 539.43 
 676 316.69 441.17 539.43 
 677 279.70 442.97 539.43 
 678 250.92 442.47 539.43 
 679 326.21 442.74 539.43 
 680 232.20 440.55 539.43 
 681 316.65 439.79 539.43 
 682 354.05 441.88 539.43 
 683 376.69 447.09 539.43 
 684 231.16 445.55 539.43 
 685 419.67 446.15 539.43 
 686 236.53 448.17 539.43 
 687 355.79 452.28 539.43 
 688 345.93 453.24 539.43 
 689 395.43 454.28 539.43 
 690 311.10 456.16 539.43 
 691 397.03 453.03 539.43 
 692 360.22 451.99 539.43 
 693 323.85 453.40 539.43 
 694 418.33 455.44 539.43 
 695 316.44 457.54 539.43 
 696 348.88 457.57 539.43 
 697 365.78 459.31 539.43 
 698 391.17 458.48 539.43 
 699 459.11 463.78 539.43 
 700 385.49 464.07 539.43 
 701 359.04 464.12 539.43 
 702 406.12 465.57 539.43 
 703 279.23 464.74 539.43 
 704 591.13 466.25 539.43 
 705 334.52 466.98 591.13 
 706 317.55 468.28 591.13 
 707 304.14 474.75 591.13 
 708 298.43 468.26 591.13 
 709 305.72 469.22 591.13 
 710 325.62 463.60 591.13 
 711 424.46 467.87 591.13 
 712 320.50 463.22 591.13 
 713 272.86 463.05 591.13 
 714 394.36 464.23 591.13 
 715 316.84 464.79 591.13 
 716 353.51 472.10 591.13 
 717 383.84 469.46 591.13 
 718 352.20 470.32 591.13 
 719 369.26 468.32 591.13 
 720 298.43 468.82 591.13 
 721 260.19 466.73 591.13 
 722 344.12 466.77 591.13 
 723 160.13 466.05 591.13 
 724 483.92 465.47 591.13 
 725 332.77 462.64 591.13 
 726 188.53 461.28 591.13 
 727 347.04 460.01 591.13 
 728 263.58 460.07 591.13 
 729 280.38 460.34 591.13 
 730 387.61 462.17 591.13 
 731 336.35 463.63 591.13 
 732 371.40 462.81 591.13 
 733 243.57 458.25 591.13 
 734 345.26 457.06 591.13 
 735 395.46 458.34 591.13 
 736 220.34 467.56 591.13 
 737 314.21 469.28 591.13 
 738 363.07 470.11 591.13 
 739 330.08 469.84 591.13 
 740 371.94 471.88 591.13 
 741 427.30 473.48 591.13 
 742 229.50 472.37 591.13 
 743 269.50 471.13 591.13 
 744 324.60 473.80 591.13 
 745 215.34 472.85 591.13 
 746 430.55 472.08 591.13 
 747 396.08 472.25 591.13 
 748 319.65 471.47 591.13 
 749 298.42 473.30 591.13 
 750 405.29 471.48 591.13 
 751 346.06 472.60 591.13 
 752 339.04 475.60 591.13 
 753 284.94 474.85 591.13 
 754 213.67 475.91 591.13 
 755 390.45 475.62 591.13 
 756 407.69 475.27 591.13 
 757 396.20 473.91 591.13 
 758 268.66 474.29 591.13 
 759 356.52 475.20 591.13 
 760 372.03 472.30 591.13 
 761 293.84 472.59 591.13 
 762 348.36 473.26 591.13 
 763 450.00 472.65 591.13 
 764 428.58 474.37 591.13 
 765 373.82 477.10 591.13 
 766 258.74 478.67 591.13 
 767 370.08 477.67 591.13 
 768 301.50 478.64 591.13 
 769 301.19 479.97 591.13 
 770 351.18 481.62 591.13 
 771 322.56 481.71 591.13 
 772 317.45 483.05 591.13 
 773 483.88 482.78 591.13 
 774 320.23 482.32 591.13 
 775 413.84 481.99 591.13 
 776 359.06 483.35 591.13 
 777 375.00 485.26 591.13 
 778 354.33 486.62 591.13 
 779 297.25 487.49 591.13 
 780 314.41 483.29 591.13 
 781 413.69 483.15 591.13 
 782 350.22 482.78 591.13 
 783 319.08 482.06 591.13 
 784 401.24 481.85 591.13 
 785 371.97 483.98 591.13 
 786 463.86 486.26 591.13 
 787 403.52 485.98 591.13 
 788 303.52 483.07 591.13 
 789 231.23 480.91 591.13 
 790 444.10 479.96 591.13 
 791 410.73 482.18 591.13 
 792 409.45 482.35 591.13 
 793 440.86 480.50 591.13 
 794 443.36 480.51 591.13 
 795 425.74 478.61 591.13 
 796 329.11 478.52 591.13 
 797 397.45 477.38 591.13 
 798 319.16 479.22 591.13 
 799 254.32 479.38 591.13 
 800 247.30 479.59 591.13 
 801 310.59 479.02 591.13 
 802 426.27 479.77 591.13 
 803 278.42 480.16 591.13 
 804 287.87 482.24 591.13 
 805 385.65 484.62 591.13 
 806 408.15 484.79 591.13 
 807 306.60 484.09 591.13 
 808 334.60 485.27 591.13 
 809 422.98 483.90 591.13 
 810 312.74 483.83 591.13 
 811 394.15 484.84 591.13 
 812 328.21 484.35 591.13 
 813 309.99 488.06 591.13 
 814 411.78 485.40 591.13 
 815 447.52 484.13 591.13 
 816 285.15 487.81 591.13 
 817 293.73 488.20 591.13 
 818 395.15 487.31 591.13 
 819 383.08 488.24 591.13 
 820 397.31 489.16 591.13 
 821 330.62 490.15 591.13 
 822 447.26 490.41 591.13 
 823 281.81 488.57 591.13 
 824 281.74 489.39 591.13 
 825 301.42 489.97 591.13 
 826 282.51 489.26 591.13 
 827 288.05 490.61 591.13 
 828 364.61 489.30 591.13 
 829 327.40 488.66 591.13 
 830 419.38 487.96 591.13 
 831 352.72 487.30 591.13 
 832 393.83 488.16 591.13 
 833 309.58 487.15 591.13 
 834 366.64 486.07 591.13 
 835 323.11 488.95 591.13 
 836 439.91 488.58 591.13 
 837 391.80 487.70 591.13 
 838 371.68 485.42 591.13 
 839 350.70 483.03 591.13 
 840 319.79 482.39 591.13 
 841 271.49 484.25 591.13 
 842 445.72 483.75 591.13 
 843 293.34 483.71 591.13 
 844 341.90 480.83 591.13 
 845 340.87 483.31 591.13 
 846 394.09 486.78 591.13 
 847 422.27 481.62 591.13 
 848 222.48 483.13 591.13 
 849 330.26 478.35 591.13 
 850 345.59 479.56 591.13 
 851 281.83 478.48 591.13 
 852 366.46 476.87 591.13 
 853 335.82 471.55 591.13 
 854 245.51 472.93 591.13 
 855 342.22 470.07 591.13 
 856 314.37 457.99 591.13 
 857 342.47 466.85 591.13 
 858 355.99 454.45 591.13 
 859 376.53 449.68 591.13 
 860 317.38 469.23 591.13 
 861 334.58 466.46 591.13 
 862 301.72 468.44 591.13 
 863 280.28 462.75 591.13 
 864 366.78 462.23 591.13 
 865 421.87 441.81 591.13 
 866 279.25 433.47 591.13 
 867 320.05 410.57 591.13 
 868 425.92 419.01 591.13 
 869 331.48 420.40 591.13 
 870 425.35 428.46 591.13 
 871 291.52 433.85 591.13 
 872 391.95 430.12 591.13 
 873 279.93 436.50 591.13 
 874 274.71 430.82 591.13 
 875 383.13 430.17 591.13 
 876 338.83 443.77 591.13 
 877 340.43 437.41 591.13 
 878 315.32 429.02 591.13 
 879 299.50 441.08 591.13 
 880 229.42 449.56 591.13 
 881 394.85 450.90 591.13 
 882 369.24 450.36 591.13 
 883 322.95 453.08 591.13 
 884 436.38 454.92 591.13 
 885 417.92 450.12 591.13 
 886 328.47 452.26 591.13 
 887 262.21 438.33 591.13 
 888 244.12 444.80 591.13 
 889 315.69 451.84 591.13 
 890 447.36 449.24 591.13 
 891 392.88 457.02 591.13 
 892 289.05 454.41 591.13 
 893 393.96 450.13 591.13 
 894 341.79 448.49 591.13 
 895 355.90 458.07 591.13 
 896 380.50 458.34 591.13 
 897 323.59 462.24 591.13 
 898 433.22 465.26 591.13 
 899 322.86 464.86 591.13 
 900 364.45 461.92 591.13 
 901 266.12 468.31 591.13 
 902 355.43 468.36 591.13 
 903 251.09 466.59 591.13 
 904 416.77 469.90 591.13 
 905 372.77 471.00 591.13 
 906 346.79 470.65 591.13 
 907 381.87 473.16 591.13 
 908 394.23 471.62 591.13 
 909 398.44 469.78 591.13 
 910 384.46 469.67 591.13 
 911 332.20 472.34 591.13 
 912 389.53 473.36 591.13 
 913 420.45 471.79 591.13 
 914 379.96 469.43 591.13 
 915 478.38 473.05 591.13 
 916 398.01 477.05 591.13 
 917 378.69 475.96 591.13 
 918 386.22 478.27 591.13 
 919 356.89 479.59 591.13 
 920 420.36 482.51 591.13 
 921 224.69 483.58 591.13 
 922 321.40 483.63 591.13 
 923 380.32 481.03 591.13 
 924 342.07 480.00 591.13 
 925 404.66 477.95 591.13 
 926 316.19 481.25 591.13 
 927 373.27 480.19 591.13 
 928 358.23 481.83 591.13 
 929 331.37 482.94 591.13 
 930 389.12 482.67 591.13 
 931 351.79 481.90 591.13 
 932 343.93 483.89 591.13 
 933 297.56 482.37 591.13 
 934 201.32 481.62 591.13 
 935 250.56 480.30 591.13 
 936 294.53 483.15 591.13 
 937 208.98 483.18 591.13 
 938 374.23 484.53 591.13 
 939 478.33 483.56 591.13 
 940 286.39 484.40 591.13 
 941 336.13 484.86 591.13 
 942 429.49 483.36 591.13 
 943 391.26 486.66 591.13 
 944 343.18 490.22 591.13 
 945 351.34 489.68 591.13 
 946 345.25 489.14 591.13 
 947 325.13 490.63 591.13 
 948 369.98 491.96 591.13 
 949 319.21 490.92 591.13 
 950 372.54 490.95 591.13 
 951 308.91 489.89 591.13 
 952 395.10 489.66 591.13 
 953 323.15 490.94 591.13 
 954 399.54 492.19 591.13 
 955 439.61 490.14 591.13 
 956 386.28 490.88 591.13 
 957 439.74 492.16 591.13 
 958 324.15 492.72 591.13 
 959 377.27 492.18 591.13 
 960 373.52 489.89 591.13 
 961 419.54 488.87 591.13 
 962 358.42 488.37 591.13 
 963 344.85 488.06 591.13 
 964 357.42 490.05 591.13 
 965 405.63 490.84 591.13 
 966 297.68 490.54 591.13 
 967 431.60 488.75 591.13 
 968 392.95 486.96 591.13 
 969 228.83 489.27 591.13 
 970 420.68 486.67 591.13 
 971 362.14 487.95 591.13 
 972 374.59 487.80 591.13 
 973 346.15 487.23 591.13 
 974 421.24 486.13 591.13 
 975 351.99 484.59 591.13 
 976 299.51 486.71 591.13 
 977 420.03 483.56 591.13 
 978 472.22 483.64 591.13 
 979 337.42 482.07 591.13 
 980 316.50 483.63 591.13 
 981 390.79 482.18 591.13 
 982 334.08 483.29 591.13 
 983 382.39 482.76 591.13 
 984 259.47 481.05 591.13 
 985 324.24 479.50 591.13 
 986 397.38 479.22 591.13 
 987 339.96 479.49 591.13 
 988 411.79 477.35 591.13 
 989 455.25 476.83 591.13 
 990 386.17 475.81 591.13 
 991 376.20 477.08 591.13 
 992 389.88 478.10 591.13 
 993 343.67 478.10 591.13 
 994 359.04 477.85 591.13 
 995 353.55 479.48 591.13 
 996 369.89 477.98 591.13 
 997 445.50 477.94 591.13 
 998 387.60 476.69 591.13 
 999 299.55 474.35 591.13 
1000 340.79 476.20 591.13 
1001 413.84 474.92 591.13 
1002 396.96 477.51 591.13 
1003 310.80 476.46 591.13 
1004 407.58 481.04 591.13 
1005 301.59 480.31 591.13 
1006 473.05 482.89 591.13 
1007 384.92 483.40 591.13 
1008 306.74 482.85 591.13 
1009 329.98 483.14 591.13 
1010 357.18 486.49 591.13 
1011 308.99 485.95 591.13 
1012 466.16 485.69 591.13 
1013 282.16 485.94 591.13 
1014 292.46 485.98 591.13 
1015 386.83 484.69 591.13 
1016 354.25 483.95 591.13 
1017 307.89 485.51 591.13 
1018 480.53 486.01 591.13 
1019 319.90 486.83 591.13 
1020 417.62 486.83 591.13 
1021 377.64 485.76 591.13 
1022 299.45 486.78 591.13 
1023 378.84 486.57 591.13 
1024 394.23 489.12 591.13 
1025 370.00 489.86 591.13 
1026 328.27 491.40 591.13 
1027 359.23 491.41 591.13 
1028 299.74 492.09 591.13 
1029 405.26 490.30 591.13 
1030 351.46 491.31 591.13 
1031 394.50 491.82 591.13 
1032 417.60 491.83 591.13 
1033 393.74 490.12 591.13 
1034 432.44 488.79 591.13 
1035 337.69 489.05 591.13 
1036 326.80 486.27 591.13 
1037 413.93 487.25 591.13 
1038 289.71 490.55 591.13 
1039 425.55 489.01 591.13 
1040 230.10 488.01 591.13 
1041 323.25 492.04 591.13 
1042 290.45 493.84 591.13 
1043 365.87 491.33 591.13 
1044 294.66 491.86 591.13 
1045 432.04 491.85 591.13 
1046 342.79 491.33 591.13 
1047 378.23 491.34 591.13 
1048 334.24 490.59 591.13 
1049 262.19 489.82 591.13 
1050 382.43 489.79 591.13 
1051 369.14 490.53 591.13 
1052 393.53 491.05 591.13 
1053 354.77 490.06 591.13 
1054 346.19 488.33 591.13 
1055 371.79 490.11 591.13 
1056 404.55 487.59 591.13 
1057 483.24 485.86 591.13 
1058 300.84 486.62 591.13 
1059 376.42 486.34 591.13 
1060 311.47 485.34 591.13 
1061 363.37 486.59 591.13 
1062 496.04 486.82 591.13 
1063 377.80 487.49 591.13 
1064 352.17 488.25 591.13 
1065 223.60 487.25 591.13 
1066 327.87 488.01 591.13 
1067 342.79 488.26 591.13 
1068 425.79 485.22 591.13 
1069 401.67 483.92 591.13 
1070 413.14 482.12 591.13 
1071 358.73 484.58 591.13 
1072 477.69 484.82 591.13 
1073 325.03 481.48 591.13 
1074 363.21 477.14 591.13 
1075 369.28 475.30 591.13 
1076 379.66 476.70 591.13 
1077 406.70 480.22 591.13 
1078 331.31 474.33 591.13 
1079 319.25 477.35 591.13 
1080 278.39 475.41 591.13 
1081 445.74 478.18 591.13 
1082 420.70 479.73 591.13 
1083 415.47 481.19 591.13 
1084 560.07 481.22 591.13 
1085 325.29 482.96 591.13 
1086 307.14 481.77 591.13 
1087 278.91 481.11 591.13 
1088 284.82 478.24 591.13 
1089 369.13 479.88 591.13 
1090 342.74 479.62 591.13 
1091 288.63 479.66 591.13 
1092 281.69 479.96 591.13 
1093 308.06 482.70 591.13 
1094 239.39 480.02 591.13 
1095 328.41 480.04 591.13 
1096 377.62 480.66 591.13 
1097 294.94 480.02 591.13 
1098 290.34 479.32 591.13 
1099 286.74 478.29 591.13 
1100 352.80 478.50 591.13 
1101 308.80 475.78 591.13 
1102 238.14 478.53 591.13 
1103 353.28 478.08 591.13 
1104 360.25 470.81 591.13 
1105 415.73 467.73 591.13 
1106 389.39 469.89 591.13 
1107 330.06 471.30 591.13 
1108 420.10 473.07 591.13 
1109 461.99 480.06 591.13 
1110 376.57 479.60 591.13 
1111 279.59 475.97 591.13 
1112 338.65 473.08 591.13 
1113 466.15 476.62 591.13 
1114 328.39 479.57 591.13 
1115 379.34 479.89 591.13 
1116 361.49 481.81 591.13 
1117 286.84 481.68 591.13 
1118 226.56 480.44 591.13 
1119 298.41 480.04 591.13 
1120 274.96 476.81 591.13 
1121 431.24 475.98 591.13 
1122 393.23 477.00 591.13 
1123 310.08 474.75 591.13 
1124 318.25 473.80 591.13 
1125 412.11 475.79 591.13 
1126 449.99 477.83 591.13 
1127 300.02 476.05 591.13 
1128 252.74 473.53 591.13 
1129 267.24 473.79 591.13 
1130 375.64 473.83 591.13 
1131 369.09 472.58 591.13 
1132 358.85 474.95 591.13 
1133 337.36 473.62 591.13 
1134 317.20 469.63 591.13 
1135 342.94 471.36 591.13 
1136 338.94 470.08 591.13 
1137 396.44 470.12 591.13 
1138 242.41 469.67 591.13 
1139 287.07 468.46 591.13 
1140 450.21 468.47 591.13 
1141 241.96 469.01 591.13 
1142 284.76 468.78 591.13 
1143 343.11 469.85 591.13 
1144 361.06 471.89 591.13 
1145 253.10 470.59 591.13 
1146 434.10 468.56 591.13 
1147 376.71 469.02 591.13 
1148 348.81 466.68 591.13 
1149 370.82 463.57 591.13 
1150 280.32 464.35 591.13 
1151 299.09 466.41 591.13 
1152 344.81 466.21 591.13 
1153 313.53 470.06 591.13 
1154 338.67 470.26 591.13 
1155 405.09 472.76 591.13 
1156 271.23 471.99 591.13 
1157 373.40 473.70 591.13 
1158 371.61 476.53 591.13 
1159 309.54 477.28 591.13 
1160 241.39 477.56 591.13 
1161 445.00 477.34 591.13 
1162 406.85 476.06 591.13 
1163 301.29 474.10 591.13 
1164 447.83 475.08 591.13 
1165 367.24 475.49 591.13 
1166 343.63 477.51 591.13 
1167 418.97 476.90 591.13 
1168 241.30 478.77 591.13 
1169 363.26 479.10 591.13 
1170 322.30 479.90 591.13 
1171 433.84 481.90 591.13 
1172 399.68 482.16 591.13 
1173 269.51 482.23 591.13 
1174 435.91 482.47 591.13 
1175 325.06 483.22 591.13 
1176 447.66 484.79 591.13 
1177 327.18 483.74 591.13 
1178 430.11 485.24 591.13 
1179 227.92 485.27 591.13 
1180 339.86 485.05 591.13 
1181 324.75 482.98 591.13 
1182 318.77 482.46 591.13 
1183 352.91 480.94 591.13 
1184 325.39 482.00 591.13 
1185 266.39 481.99 591.13 
1186 268.17 484.21 591.13 
1187 357.34 483.19 591.13 
1188 355.91 480.93 591.13 
1189 297.71 481.10 591.13 
1190 345.47 481.33 591.13 
1191 419.18 480.81 591.13 
1192 298.30 481.45 591.13 
1193 435.90 480.63 591.13 
1194 335.02 479.58 591.13 
1195 290.80 480.87 591.13 
1196 331.45 479.13 591.13 
1197 276.63 478.17 591.13 
1198 450.50 477.47 591.13 
1199 364.57 477.68 591.13 
1200 179.87 479.73 591.13 
1201 360.84 481.25 591.13 
1202 493.22 480.73 591.13 
1203 350.59 481.74 591.13 
1204 416.74 482.58 591.13 
1205 377.41 481.85 591.13 
1206 369.06 481.33 591.13 
1207 365.42 480.70 591.13 
1208 334.01 482.38 591.13 
1209 288.45 482.24 591.13 
1210 296.04 483.85 591.13 
1211 529.46 483.73 591.13 
1212 354.83 480.17 591.13 
1213 396.42 480.94 591.13 
1214 268.07 480.10 591.13 
1215 418.51 480.00 591.13 
1216 370.73 482.06 591.13 
1217 305.78 483.88 591.13 
1218 469.79 489.44 591.13 
1219 377.43 488.71 591.13 
1220 382.97 490.68 591.13 
1221 378.92 491.20 591.13 
1222 442.83 492.68 591.13 
1223 334.03 492.88 591.13 
1224 439.72 493.95 591.13 
1225 465.91 492.91 591.13 
1226 299.85 490.54 591.13 
1227 468.19 489.11 591.13 
1228 353.90 489.28 591.13 
1229 381.28 489.56 591.13 
1230 435.73 489.22 591.13 
1231 393.21 490.73 591.13 
1232 329.32 488.72 591.13 
1233 375.77 487.33 591.13 
1234 516.24 488.15 591.13 
1235 312.98 489.14 591.13 
1236 346.41 488.64 591.13 
1237 317.41 488.96 591.13 
1238 425.40 489.45 591.13 
1239 386.25 488.68 591.13 
1240 377.94 486.87 591.13 
1241 365.24 486.35 591.13 
1242 314.66 484.82 591.13 
1243 316.14 483.65 591.13 
1244 292.35 485.16 591.13 
1245 308.93 480.51 591.13 
1246 243.04 483.05 591.13 
1247 345.03 483.83 591.13 
1248 480.26 481.97 591.13 
1249 380.57 484.29 591.13 
1250 355.54 482.56 591.13 
1251 334.97 485.09 591.13 
1252 295.55 484.31 591.13 
1253 424.05 482.25 591.13 
1254 369.88 483.31 591.13 
1255 324.01 483.14 591.13 
1256 292.51 484.16 591.13 
1257 311.84 483.14 591.13 
1258 401.52 484.53 591.13 
1259 402.06 482.19 591.13 
1260 390.67 481.38 591.13 
1261 411.01 479.88 591.13 
1262 432.36 481.34 591.13 
1263 313.57 480.84 591.13 
1264 322.31 481.68 591.13 
1265 426.55 481.19 591.13 
1266 398.31 481.51 591.13 
1267 330.78 482.54 591.13 
1268 402.56 482.31 591.13 
1269 336.49 480.49 591.13 
1270 245.35 480.69 591.13 
1271 364.27 479.42 591.13 
1272 429.49 477.90 591.13 
1273 417.48 478.64 591.13 
1274 262.37 476.85 591.13 
1275 366.12 472.03 591.13 
1276 499.47 470.96 591.13 
1277 399.80 468.71 591.13 
1278 404.79 471.77 591.13 
1279 352.86 470.20 591.13 
1280 402.52 471.21 591.13 
1281 352.41 473.50 591.13 
1282 277.49 474.06 591.13 
1283 410.07 473.32 591.13 
1284 291.11 473.26 591.13 
1285 308.03 477.05 591.13 
1286 290.15 478.29 591.13 
1287 390.70 480.30 591.13 
1288 306.23 480.00 591.13 
1289 355.78 479.30 591.13 
1290 485.50 481.83 591.13 
1291 435.64 482.02 591.13 
1292 317.05 484.49 591.13 
1293 290.63 485.26 591.13 
1294 342.73 485.78 591.13 
1295 351.40 486.78 591.13 
1296 232.75 487.04 591.13 
1297 231.36 488.60 591.13 
1298 288.03 489.96 591.13 
1299 351.73 490.67 591.13 
1300 372.19 490.26 591.13 
1301 460.67 489.52 591.13 
1302 258.56 488.70 591.13 
1303 416.85 487.72 591.13 
1304 442.27 487.72 591.13 
1305 342.25 489.17 591.13 
1306 264.03 489.43 591.13 
1307 404.32 489.96 591.13 
1308 391.22 488.17 591.13 
1309 445.69 488.67 591.13 
1310 419.55 487.23 591.13 
1311 443.52 487.98 591.13 
1312 345.61 486.10 591.13 
1313 411.68 485.58 591.13 
1314 405.09 488.09 591.13 
1315 301.51 485.68 591.13 
1316 349.76 487.24 591.13 
1317 385.61 487.96 591.13 
1318 322.24 485.86 591.13 
1319 318.85 486.05 591.13 
1320 410.72 485.92 591.13 
1321 386.23 485.22 591.13 
1322 335.98 485.68 591.13 
1323 381.42 487.23 591.13 
1324 474.47 487.14 591.13 
1325 326.09 487.16 591.13 
1326 241.78 488.40 591.13 
1327 298.57 488.65 591.13 
1328 291.92 486.34 591.13 
1329 350.21 489.02 591.13 
1330 315.90 489.31 591.13 
1331 349.84 488.52 591.13 
1332 358.70 489.55 591.13 
1333 393.13 491.78 591.13 
1334 326.77 492.86 591.13 
1335 288.98 492.56 591.13 
1336 404.96 493.05 591.13 
1337 319.13 493.54 591.13 
1338 234.49 491.74 591.13 
1339 351.42 493.26 591.13 
1340 387.92 495.34 591.13 
1341 310.87 494.92 591.13 
1342 360.91 494.69 591.13 
1343 296.68 493.84 591.13 
1344 285.50 494.65 591.13 
1345 372.15 494.04 591.13 
1346 271.36 493.09 591.13 
1347 438.93 492.80 591.13 
1348 369.17 493.10 591.13 
1349 323.72 493.22 591.13 
1350 255.19 494.99 591.13 
1351 380.48 494.78 591.13 
1352 318.73 493.35 591.13 
1353 352.00 492.71 591.13 
1354 326.55 490.76 591.13 
1355 422.19 491.46 591.13 
1356 311.65 490.11 591.13 
1357 346.57 490.34 591.13 
1358 270.54 491.27 591.13 
1359 363.95 489.99 591.13 
1360 326.95 491.54 591.13 
1361 429.30 489.81 591.13 
1362 425.92 488.86 591.13 
1363 368.99 490.07 591.13 
1364 309.84 488.99 591.13 
1365 330.03 486.89 591.13 
1366 349.18 484.60 591.13 
1367 357.85 484.55 591.13 
1368 327.35 486.05 591.13 
1369 315.05 486.86 591.13 
1370 409.99 488.95 591.13 
1371 390.37 489.49 591.13 
1372 344.21 490.25 591.13 
1373 288.90 489.97 591.13 
1374 319.15 490.46 591.13 
1375 323.49 488.54 591.13 
1376 281.65 487.47 591.13 
1377 379.66 487.70 591.13 
1378 256.56 489.69 591.13 
1379 389.45 490.42 591.13 
1380 386.17 491.17 591.13 
1381 283.29 491.15 591.13 
1382 369.35 492.76 591.13 
1383 341.66 493.79 591.13 
1384 366.55 493.07 591.13 
1385 374.32 493.09 591.13 
1386 385.26 492.36 591.13 
1387 465.35 490.81 591.13 
1388 287.01 493.28 591.13 
1389 399.83 492.76 591.13 
1390 273.78 490.64 591.13 
1391 332.43 488.11 591.13 
1392 368.96 486.52 591.13 
1393 407.69 486.06 591.13 
1394 311.67 486.57 591.13 
1395 261.48 487.06 591.13 
1396 317.21 485.99 591.13 
1397 370.60 486.72 591.13 
1398 391.11 486.63 591.13 
1399 363.47 487.51 591.13 
1400 388.81 488.81 591.13 
1401 349.55 488.85 591.13 
1402 307.62 489.66 591.13 
1403 378.85 489.67 591.13 
1404 339.61 490.14 591.13 
1405 418.16 490.88 591.13 
1406 215.53 489.54 591.13 
1407 462.52 489.54 591.13 
1408 429.70 490.52 591.13 
1409 351.33 488.78 591.13 
1410 370.23 489.04 591.13 
1411 299.03 489.63 591.13 
1412 367.05 489.29 591.13 
1413 216.72 489.84 591.13 
1414 296.48 487.90 591.13 
1415 320.78 488.09 591.13 
1416 350.18 486.08 591.13 
1417 419.00 486.60 591.13 
1418 340.75 488.14 591.13 
1419 336.67 486.83 591.13 
1420 307.67 487.35 591.13 
1421 302.00 487.40 591.13 
1422 314.17 489.96 591.13 
1423 332.60 487.71 591.13 
1424 366.43 488.53 591.13 
1425 284.22 488.54 591.13 
1426 337.74 488.29 591.13 
1427 211.44 489.49 591.13 
1428 398.47 489.44 591.13 
1429 316.26 489.92 591.13 
1430 314.39 490.47 591.13 
1431 306.52 491.03 591.13 
1432 363.63 491.81 591.13 
1433 362.26 491.77 591.13 
1434 248.44 491.05 591.13 
1435 421.82 489.04 591.13 
1436 369.00 489.00 591.13 
1437 435.15 489.33 591.13 
1438 280.17 488.32 591.13 
1439 389.17 488.79 591.13 
1440 302.65 489.37 591.13 
1441 274.28 488.82 591.13 
1442 247.15 488.67 591.13 
1443 265.17 489.16 591.13 
1444 299.07 488.98 591.13 
1445 397.94 490.01 591.13 
1446 287.37 490.77 591.13 
1447 384.56 489.02 591.13 
1448 405.53 489.51 591.13 
1449 302.59 490.75 591.13 
1450 427.13 490.06 591.13 
1451 297.27 489.59 591.13 
1452 398.84 489.63 591.13 
1453 387.62 489.63 591.13 
1454 269.45 490.39 591.13 
1455 272.70 489.90 591.13 
1456 367.82 489.39 591.13 
1457 439.62 487.91 591.13 
1458 335.53 488.89 591.13 
1459 425.66 489.44 591.13 
1460 562.09 489.44 591.13 
1461 385.07 489.66 591.13 
1462 323.99 488.33 591.13 
1463 343.66 488.57 591.13 
1464 328.84 489.78 591.13 
1465 386.45 490.33 591.13 
1466 406.79 487.29 591.13 
1467 381.59 488.31 591.13 
1468 347.14 488.32 591.13 
1469 333.49 489.81 591.13 
1470 272.77 489.36 591.13 
1471 261.16 487.36 591.13 
1472 284.12 487.89 591.13 
1473 327.21 488.36 591.13 
1474 293.42 488.87 591.13 
1475 381.54 489.37 591.13 
1476 425.06 487.37 591.13 
1477 190.33 485.64 591.13 
1478 322.59 490.68 591.13 
1479 434.85 490.15 591.13 
1480 361.68 490.63 591.13 
1481 356.89 491.23 591.13 
1482 386.77 491.93 591.13 
1483 363.80 491.72 591.13 
1484 376.93 491.47 591.13 
1485 433.45 491.77 591.13 
1486 441.61 491.80 591.13 
1487 383.03 492.08 591.13 
1488 433.30 491.81 591.13 
1489 393.25 491.29 591.13 
1490 467.47 490.56 591.13 
1491 401.51 490.08 591.13 
1492 257.42 489.33 591.13 
1493 360.28 490.35 591.13 
1494 345.02 490.13 591.13 
1495 361.94 489.39 591.13 
1496 300.22 489.38 591.13 
1497 350.55 488.64 591.13 
1498 373.16 489.61 591.13 
1499 553.93 489.38 591.13 
1500 311.22 488.65 591.13 
1501 289.02 488.58 591.13 
1502 377.33 490.13 591.13 
1503 350.57 490.88 591.13 
1504 385.15 489.12 591.13 
1505 271.96 488.64 591.13 
1506 412.94 487.89 591.13 
1507 362.29 486.15 591.13 
1508 316.38 484.38 591.13 
1509 383.81 485.39 591.13 
1510 398.26 485.13 591.13 
1511 372.71 487.39 591.13 
1512 325.91 486.39 591.13 
1513 283.78 486.14 591.13 
1514 318.36 484.89 591.13 
1515 308.88 485.64 591.13 
1516 388.54 485.37 591.13 
1517 372.89 484.12 591.13 
1518 399.62 487.60 591.13 
1519 372.94 486.85 591.13 
1520 325.30 489.13 591.13 
1521 470.41 486.86 591.13 
1522 380.12 486.11 591.13 
1523 351.87 488.11 591.13 
1524 349.95 488.86 591.13 
1525 314.22 486.35 591.13 
1526 405.31 488.56 591.13 
1527 478.88 491.29 591.13 
1528 298.51 494.07 591.13 
1529 278.44 493.13 591.13 
1530 338.43 494.13 591.13 
1531 399.37 492.96 591.13 
1532 288.66 492.99 591.13 
1533 435.35 494.22 591.13 
1534 463.79 495.69 591.13 
1535 436.15 493.93 591.13 
1536 341.51 492.94 591.13 
1537 439.26 494.21 591.13 
1538 378.29 491.21 591.13 
1539 340.75 490.14 591.13 
1540 479.81 486.11 591.13 
1541 391.87 490.85 591.13 
1542 326.35 490.31 591.13 
1543 369.86 490.33 591.13 
1544 291.86 491.10 591.13 
1545 367.25 491.81 591.13 
1546 278.42 490.99 591.13 
1547 345.89 492.22 591.13 
1548 366.01 490.23 591.13 
1549 423.36 492.98 591.13 
1550 369.98 493.98 591.13 
1551 407.52 491.90 591.13 
1552 379.22 490.88 591.13 
1553 283.41 491.34 591.13 
1554 344.40 491.09 591.13 
1555 412.76 490.57 591.13 
1556 362.32 487.58 591.13 
1557 273.28 486.37 591.13 
1558 361.66 485.91 591.13 
1559 300.71 487.14 591.13 
1560 436.74 484.91 591.13 
1561 271.01 486.70 591.13 
1562 414.42 486.94 591.13 
1563 332.01 488.49 591.13 
1564 331.88 488.75 591.13 
1565 308.95 488.78 591.13 
1566 364.61 490.29 591.13 
1567 375.73 488.75 591.13 
1568 301.03 487.22 591.13 
1569 341.11 486.94 591.13 
1570 282.85 488.21 591.13 
1571 407.81 489.77 591.13 
1572 431.51 489.02 591.13 
1573 342.71 489.80 591.13 
1574 302.05 490.29 591.13 
1575 298.71 494.03 591.13 
1576 355.76 491.79 591.13 
1577 367.75 493.53 591.13 
1578 386.85 492.20 591.13 
1579 456.77 494.76 591.13 
1580 327.20 496.26 591.13 
1581 321.02 496.52 591.13 
1582 413.74 499.26 591.13 
1583 375.96 498.04 591.13 
1584 406.76 494.23 591.13 
1585 348.28 492.50 591.13 
1586 339.23 490.19 591.13 
1587 432.87 491.71 591.13 
1588 341.94 493.23 591.13 
1589 357.85 491.93 591.13 
1590 321.66 489.14 591.13 
1591 428.25 487.59 591.13 
1592 285.66 485.55 591.13 
1593 425.58 483.55 591.13 
1594 288.27 483.31 591.13 
1595 303.12 482.80 591.13 
1596 427.74 479.79 591.13 
1597 441.75 482.91 591.13 
1598 324.46 485.34 591.13 
1599 399.48 476.51 591.13 
1600 351.13 486.34 591.13 
1601 441.02 485.56 591.13 
1602 494.35 489.38 591.13 
1603 378.14 489.93 591.13 
1604 331.25 490.71 591.13 
1605 339.42 493.83 591.13 
1606 342.17 493.33 591.13 
1607 355.57 492.09 591.13 
1608 333.73 493.55 591.13 
1609 296.68 492.52 591.13 
1610 421.57 491.99 591.13 
1611 408.78 489.99 591.13 
1612 427.86 490.72 591.13 
1613 413.68 490.71 591.13 
1614 306.08 488.98 591.13 
1615 325.05 492.30 591.13 
1616 413.25 492.85 591.13 
1617 462.69 494.59 591.13 
1618 405.14 493.54 591.13 
1619 295.90 494.59 591.13 
1620 414.56 495.87 591.13 
1621 408.56 495.40 591.13 
1622 291.00 494.70 591.13 
1623 286.51 494.89 591.13 
1624 262.92 494.41 591.13 
1625 257.49 492.35 591.13 
1626 373.58 491.83 591.13 
1627 451.51 490.12 591.13 
1628 395.05 489.33 591.13 
1629 366.55 488.25 591.13 
1630 351.32 486.48 591.13 
1631 363.38 488.01 591.13 
1632 412.58 484.02 591.13 
1633 383.08 482.24 591.13 
1634 418.48 481.21 591.13 
1635 368.02 481.69 591.13 
1636 406.43 484.21 591.13 
1637 431.67 482.68 591.13 
1638 369.45 484.44 591.13 
1639 220.91 486.23 591.13 
1640 288.35 483.71 591.13 
1641 468.79 482.73 591.13 
1642 275.60 480.24 591.13 
1643 386.82 483.77 591.13 
1644 409.25 482.34 591.13 
1645 347.70 481.85 591.13 
1646 390.65 482.60 591.13 
1647 353.44 483.88 591.13 
1648 304.13 484.15 591.13 
1649 327.73 485.11 591.13 
1650 289.24 488.67 591.13 
1651 421.30 488.18 591.13 
1652 282.45 488.66 591.13 
1653 239.80 487.17 591.13 
1654 451.27 482.81 591.13 
1655 381.64 481.98 591.13 
1656 398.11 481.95 591.13 
1657 321.95 478.66 591.13 
1658 374.96 477.90 591.13 
1659 398.93 482.47 591.13 
1660 384.16 487.03 591.13 
1661 254.29 489.57 591.13 
1662 475.83 488.55 591.13 
1663 451.29 487.28 591.13 
1664 208.51 482.51 591.13 
1665 310.23 482.50 591.13 
1666 314.99 487.25 591.13 
1667 383.98 481.70 591.13 
1668 249.52 480.38 591.13 
1669 344.83 479.83 591.13 
1670 390.25 478.50 591.13 
1671 227.09 479.48 591.13 
1672 261.56 480.77 591.13 
1673 431.52 480.81 591.13 
1674 267.14 487.62 591.13 
1675 469.83 488.66 591.13 
1676 510.69 488.95 591.13 
1677 296.61 490.19 591.13 
1678 314.56 488.63 591.13 
1679 395.09 489.62 591.13 
1680 352.92 489.84 591.13 
1681 314.80 488.81 591.13 
1682 370.77 490.62 591.13 
1683 331.86 488.28 591.13 
1684 374.99 489.34 591.13 
1685 332.76 487.75 591.13 
1686 431.15 486.76 591.13 
1687 211.55 486.25 591.13 
1688 414.77 484.73 591.13 
1689 414.88 483.49 591.13 
1690 313.10 483.74 591.13 
1691 321.26 480.48 591.13 
1692 426.47 479.18 591.13 
1693 351.82 480.17 591.13 
1694 394.02 478.15 591.13 
1695 355.07 478.08 591.13 
1696 237.46 481.84 591.13 
1697 368.60 483.93 591.13 
1698 459.85 483.95 591.13 
1699 367.09 480.62 591.13 
1700 441.86 481.12 591.13 
1701 347.82 479.16 591.13 
1702 343.27 475.38 591.13 
1703 454.53 474.79 591.13 
1704 374.01 475.82 591.13 
1705 412.12 474.29 591.13 
1706 495.80 471.21 591.13 
1707 343.18 469.40 591.13 
1708 343.29 471.68 591.13 
1709 291.73 470.68 591.13 
1710 426.73 473.20 591.13 
1711 327.19 474.19 591.13 
1712 277.50 477.00 591.13 
1713 369.66 477.07 591.13 
1714 374.82 475.80 591.13 
1715 333.85 474.23 591.13 
1716 407.23 477.73 591.13 
1717 390.59 479.05 591.13 
1718 313.18 479.31 591.13 
1719 410.69 481.60 591.13 
1720 329.02 479.82 591.13 
1721 278.13 483.68 591.13 
1722 391.91 483.42 591.13 
1723 392.85 483.11 591.13 
1724 443.33 481.81 591.13 
1725 381.29 483.34 591.13 
1726 390.49 483.38 591.13 
1727 307.81 484.34 591.13 
1728 346.04 483.50 591.13 
1729 342.92 481.42 591.13 
1730 419.73 479.08 591.13 
1731 331.63 480.06 591.13 
1732 253.79 478.77 591.13 
1733 438.34 479.78 591.13 
1734 403.53 478.75 591.13 
1735 336.12 476.64 591.13 
1736 279.39 480.49 591.13 
1737 402.85 479.78 591.13 
1738 425.64 482.05 591.13 
1739 373.92 481.24 591.13 
1740 289.27 480.20 591.13 
1741 353.57 480.50 591.13 
1742 382.49 480.26 591.13 
1743 266.96 478.46 591.13 
1744 397.13 479.02 591.13 
1745 414.71 476.50 591.13 
1746 358.43 480.05 591.13 
1747 262.66 477.76 591.13 
1748 274.89 476.82 591.13 
1749 345.44 476.05 591.13 
1750 328.11 470.96 591.13 
1751 267.24 468.39 591.13 
1752 391.16 470.70 591.13 
1753 396.93 477.81 591.13 
1754 330.90 480.62 591.13 
1755 368.02 481.46 591.13 
1756 355.32 482.16 591.13 
1757 354.05 481.06 591.13 
1758 409.62 481.36 591.13 
1759 283.24 480.19 591.13 
1760 331.59 478.15 591.13 
1761 247.21 478.46 591.13 
1762 270.78 477.94 591.13 
1763 327.50 474.13 591.13 
1764 372.95 478.18 591.13 
1765 289.06 477.15 591.13 
1766 449.70 475.00 591.13 
1767 397.12 478.51 591.13 
1768 373.58 478.23 591.13 
1769 316.99 479.01 591.13 
1770 376.00 481.06 591.13 
1771 334.78 483.34 591.13 
1772 336.40 475.04 591.13 
1773 283.03 475.57 591.13 
1774 299.34 476.93 591.13 
1775 240.43 477.84 591.13 
1776 382.69 476.53 591.13 
1777 224.63 476.65 591.13 
1778 481.68 475.90 591.13 
1779 302.72 475.39 591.13 
1780 408.79 471.58 591.13 
1781 445.50 471.85 591.13 
1782 487.81 467.21 591.13 
1783 400.37 464.84 591.13 
1784 444.56 465.03 591.13 
1785 334.53 466.04 591.13 
1786 392.43 464.72 591.13 
1787 408.52 464.90 591.13 
1788 405.22 466.45 591.13 
1789 331.33 465.96 591.13 
1790 205.97 466.68 591.13 
1791 329.62 467.62 591.13 
1792 282.67 468.39 591.13 
1793 404.27 467.71 591.13 
1794 264.82 467.58 591.13 
1795 412.37 467.31 591.13 
1796 404.22 467.49 591.13 
1797 383.67 467.28 591.13 
1798 295.99 468.26 591.13 
1799 371.91 469.28 591.13 
1800 439.83 469.07 591.13 
1801 456.40 472.14 591.13 
1802 278.06 471.41 591.13 
1803 409.38 469.67 591.13 
1804 389.25 470.23 591.13 
1805 356.62 470.79 591.13 
1806 412.35 474.50 591.13 
1807 383.44 472.99 591.13 
1808 367.36 468.48 591.13 
1809 340.30 469.26 591.13 
1810 408.94 470.29 591.13 
1811 333.53 472.58 591.13 
1812 337.91 474.42 591.13 
1813 299.02 475.69 591.13 
1814 328.70 466.74 591.13 
1815 336.04 468.79 591.13 
1816 408.53 469.58 591.13 
1817 297.61 470.52 591.13 
1818 308.66 469.50 591.13 
1819 396.55 472.90 591.13 
1820 411.98 478.39 591.13 
1821 283.14 478.34 591.13 
1822 422.66 478.36 591.13 
1823 345.97 479.63 591.13 
1824 417.03 477.18 591.13 
1825 341.47 477.90 591.13 
1826 453.72 476.71 591.13 
1827 405.42 483.65 591.13 
1828 322.97 473.96 591.13 
1829 473.73 476.64 591.13 
1830 447.40 475.71 591.13 
1831 408.22 472.27 591.13 
1832 317.27 473.04 591.13 
1833 397.36 471.26 591.13 
1834 339.06 470.49 591.13 
1835 333.96 472.75 591.13 
1836 304.51 470.22 591.13 
1837 299.40 475.90 591.13 
1838 419.66 479.52 591.13 
1839 339.18 478.50 591.13 
1840 324.54 477.21 591.13 
1841 323.65 476.45 591.13 
1842 373.23 469.40 591.13 
1843 396.71 472.74 591.13 
1844 426.79 472.35 591.13 
1845 463.93 473.67 591.13 
1846 306.87 473.77 591.13 
1847 340.56 462.92 591.13 
1848 345.73 463.87 591.13 
1849 440.13 464.41 591.13 
1850 341.55 474.41 591.13 
1851 360.24 476.16 591.13 
1852 370.64 475.94 591.13 
1853 333.84 474.39 591.13 
1854 421.51 476.73 591.13 
1855 329.53 478.79 591.13 
1856 309.59 476.15 591.13 
1857 422.85 474.88 591.13 
1858 259.86 472.75 591.13 
1859 332.78 471.19 591.13 
1860 447.29 474.43 591.13 
1861 363.75 473.44 591.13 
1862 366.47 471.56 591.13 
1863 333.07 471.03 591.13 
1864 364.72 468.78 591.13 
1865 353.59 466.15 591.13 
1866 394.19 468.42 591.13 
1867 235.15 469.43 591.13 
1868 374.07 470.71 591.13 
1869 313.53 470.47 591.13 
1870 326.94 472.52 591.13 
1871 448.82 472.08 591.13 
1872 340.21 471.27 591.13 
1873 347.25 470.14 591.13 
1874 238.25 467.69 591.13 
1875 329.83 467.73 591.13 
1876 359.68 472.06 591.13 
1877 292.47 470.22 591.13 
1878 457.52 472.46 591.13 
1879 405.76 471.41 591.13 
1880 450.19 471.40 591.13 
1881 294.79 472.60 591.13 
1882 431.65 474.65 591.13 
1883 405.58 475.60 591.13 
1884 360.29 475.82 591.13 
1885 484.10 477.13 591.13 
1886 402.78 476.65 591.13 
1887 382.71 474.35 591.13 
1888 363.49 472.80 591.13 
1889 327.80 477.59 591.13 
1890 380.88 480.69 591.13 
1891 390.92 480.02 591.13 
1892 419.15 480.50 591.13 
1893 256.57 484.53 591.13 
1894 237.67 490.61 591.13 
1895 368.93 489.79 591.13 
1896 356.85 490.26 591.13 
1897 433.51 488.96 591.13 
1898 417.13 489.23 591.13 
1899 312.94 487.72 591.13 
1900 419.95 487.58 591.13 
1901 398.21 484.36 591.13 
1902 266.24 485.67 591.13 
1903 315.51 488.27 591.13 
1904 473.70 485.63 591.13 
1905 290.66 489.57 591.13 
1906 254.47 489.60 591.13 
1907 325.83 488.57 591.13 
1908 281.36 482.38 591.13 
1909 367.73 482.16 591.13 
1910 366.37 482.06 591.13 
1911 420.65 484.84 591.13 
1912 405.32 485.31 591.13 
1913 454.84 481.61 591.13 
1914 422.71 484.73 591.13 
1915 391.60 485.20 591.13 
1916 347.00 483.14 591.13 
1917 387.01 484.18 591.13 
1918 308.41 480.89 591.13 
1919 368.59 477.10 591.13 
1920 415.99 476.78 591.13 
1921 298.61 476.27 591.13 
1922 413.99 475.76 591.13 
1923 364.89 474.99 591.13 
1924 365.33 474.22 591.13 
1925 400.82 476.31 591.13 
1926 446.27 474.86 591.13 
1927 256.62 478.05 591.13 
1928 383.89 478.03 591.13 
1929 398.01 475.23 591.13 
1930 357.15 472.68 591.13 
1931 268.26 468.85 591.13 
1932 372.69 465.59 591.13 
1933 361.13 461.89 591.13 
1934 342.75 461.12 591.13 
1935 368.79 463.90 591.13 
1936 380.20 460.89 591.13 
1937 395.35 459.84 591.13 
1938 473.17 460.33 591.13 
1939 329.58 464.42 591.13 
1940 367.86 464.62 591.13 
1941 458.62 462.93 591.13 
1942 410.28 471.96 591.13 
1943 326.13 465.62 591.13 
1944 255.35 470.92 591.13 
1945 355.56 464.70 591.13 
1946 362.88 471.75 591.13 
1947 359.83 459.42 591.13 
1948 396.71 461.43 591.13 
1949 429.59 463.66 591.13 
1950 357.65 469.97 591.13 
1951 331.61 462.16 591.13 
1952 313.83 462.13 591.13 
1953 401.60 464.17 591.13 
1954 356.91 463.47 591.13 
1955 373.35 464.22 591.13 
1956 353.77 466.26 591.13 
1957 281.13 483.33 591.13 
1958 310.65 481.81 591.13 
1959 337.71 484.29 591.13 
1960 283.65 478.74 591.13 
1961 454.98 484.01 591.13 
1962 394.50 487.33 591.13 
1963 313.41 488.40 591.13 
1964 425.15 487.91 591.13 
1965 398.06 490.69 591.13 
1966 393.52 492.50 591.13 
1967 309.02 493.07 591.13 
1968 392.17 492.32 591.13 
1969 265.70 492.02 591.13 
1970 382.55 491.59 591.13 
1971 344.62 489.51 591.13 
1972 369.14 491.85 591.13 
1973 368.99 492.67 591.13 
1974 350.87 494.52 591.13 
1975 363.21 496.25 591.13 
1976 411.36 497.96 591.13 
1977 268.07 496.92 591.13 
1978 445.12 498.21 591.13 
1979 392.94 498.52 591.13 
1980 347.54 502.08 591.13 
1981 296.44 502.35 591.13 
1982 341.25 502.40 591.13 
1983 317.06 502.14 591.13 
1984 278.13 503.09 591.13 
1985 261.55 502.78 591.13 
1986 405.40 503.11 591.13 
1987 398.01 503.89 591.13 
1988 388.63 504.18 591.13 
1989 364.71 502.90 591.13 
1990 269.95 503.22 591.13 
1991 372.75 503.38 591.13 
1992 355.27 502.08 591.13 
1993 347.98 501.07 591.13 
1994 430.72 501.54 591.13 
1995 251.54 500.80 591.13 
1996 408.98 501.04 591.13 
1997 426.19 498.17 591.13 
1998 395.16 497.90 591.13 
1999 339.35 498.41 591.13 
2000 371.49 498.40 591.13 
2001 371.45 498.58 591.13 
2002 392.00 498.72 591.13 
2003 338.92 498.66 591.13 
2004 351.91 499.23 591.13 
2005 389.30 498.98 591.13 
2006 363.73 499.60 591.13 
2007 308.98 500.40 591.13 
2008 377.14 500.36 591.13 
2009 333.09 500.36 591.13 
2010 356.10 500.64 591.13 
2011 354.29 500.57 591.13 
2012 308.91 499.85 591.13 
2013 399.33 500.37 591.13 
2014 353.86 500.87 591.13 
2015 399.72 499.56 591.13 
2016 357.74 499.25 591.13 
2017 328.78 498.97 591.13 
2018 329.59 499.71 591.13 
2019 515.76 499.46 591.13 
2020 436.25 499.47 591.13 
2021 363.19 499.44 591.13 
2022 431.23 499.95 591.13 
2023 340.53 500.47 591.13 
2024 274.12 500.41 591.13 
2025 340.17 499.02 591.13 
2026 293.14 499.02 591.13 
2027 276.37 499.34 591.13 
2028 363.73 498.83 591.13 
2029 365.38 500.42 591.13 
2030 349.60 500.93 591.13 
2031 391.63 501.20 591.13 
2032 270.15 500.12 591.13 
2033 375.17 501.36 591.13 
2034 366.39 498.83 591.13 
2035 400.58 497.52 591.13 
2036 446.21 494.78 591.13 
2037 286.28 494.50 591.13 
2038 311.85 494.26 591.13 
2039 364.44 493.24 591.13 
2040 355.41 492.78 591.13 
2041 379.73 493.55 591.13 
2042 373.35 491.46 591.13 
2043 312.56 489.92 591.13 
2044 283.14 490.34 591.13 
2045 465.63 490.90 591.13 
2046 504.03 491.41 591.13 
2047 448.02 491.31 591.13 
2048 450.30 491.00 591.13 
2049 327.33 490.75 591.13 
2050 325.77 491.31 591.13 
2051 303.99 493.38 591.13 
2052 413.50 493.20 591.13 
2053 364.07 493.78 591.13 
2054 401.60 493.57 591.13 
2055 328.24 493.80 591.13 
2056 360.62 495.21 591.13 
2057 386.59 494.30 591.13 
2058 305.98 494.25 591.13 
2059 390.23 495.47 591.13 
2060 379.91 493.40 591.13 
2061 314.69 492.89 591.13 
2062 384.57 493.38 591.13 
2063 391.34 491.79 591.13 
2064 429.58 491.25 591.13 
2065 286.89 491.55 591.13 
2066 320.60 492.38 591.13 
2067 450.64 493.12 591.13 
2068 334.04 494.63 591.13 
2069 364.75 493.90 591.13 
2070 292.18 493.65 591.13 
2071 459.81 493.16 591.13 
2072 422.01 497.71 591.13 
2073 317.54 495.96 591.13 
2074 473.69 495.92 591.13 
2075 391.48 496.46 591.13 
2076 283.88 498.94 591.13 
2077 278.58 499.74 591.13 
2078 437.16 499.50 591.13 
2079 452.28 501.34 591.13 
2080 342.65 501.59 591.13 
2081 308.30 500.86 591.13 
2082 396.60 501.63 591.13 
2083 462.14 502.92 591.13 
2084 331.92 502.45 591.13 
2085 380.57 502.15 591.13 
2086 432.33 501.86 591.13 
2087 209.59 502.11 591.13 
2088 265.31 502.15 591.13 
2089 302.25 502.43 591.13 
2090 303.37 502.42 591.13 
2091 282.52 503.72 591.13 
2092 372.87 502.89 591.13 
2093 320.93 502.16 591.13 
2094 338.33 502.11 591.13 
2095 399.66 501.91 591.13 
2096 317.05 501.20 591.13 
2097 274.89 502.03 591.13 
2098 355.17 500.54 591.13 
2099 319.97 499.54 591.13 
2100 380.15 498.80 591.13 
2101 255.03 498.51 591.13 
2102 234.94 499.06 591.13 
2103 327.82 498.79 591.13 
2104 332.88 499.10 591.13 
2105 340.36 500.88 591.13 
2106 367.16 500.05 591.13 
2107 426.30 499.26 591.13 
2108 346.08 502.07 591.13 
2109 306.04 501.88 591.13 
2110 349.43 501.65 591.13 
2111 347.01 501.97 591.13 
2112 344.70 501.73 591.13 
2113 443.47 501.70 591.13 
2114 396.79 501.92 591.13 
2115 371.15 501.45 591.13 
2116 475.67 501.49 591.13 
2117 362.86 500.98 591.13 
2118 446.97 501.21 591.13 
2119 487.97 500.65 591.13 
2120 394.79 500.64 591.13 
2121 395.62 500.65 591.13 
2122 409.74 500.75 591.13 
2123 378.97 500.44 591.13 
2124 334.29 500.63 591.13 
2125 310.68 499.76 591.13 
2126 374.60 501.07 591.13 
2127 390.71 500.85 591.13 
2128 380.68 500.89 591.13 
2129 315.47 500.72 591.13 
2130 420.46 501.23 591.13 
2131 352.56 501.01 591.13 
2132 340.09 501.01 591.13 
2133 345.64 500.53 591.13 
2134 402.71 500.33 591.13 
2135 335.28 500.05 591.13 
2136 434.19 500.80 591.13 
2137 339.19 500.57 591.13 
2138 457.78 500.60 591.13 
2139 319.73 499.77 591.13 
2140 475.03 499.78 591.13 
2141 400.06 499.75 591.13 
2142 365.25 499.47 591.13 
2143 415.87 497.52 591.13 
2144 438.79 498.01 591.13 
2145 354.38 497.75 591.13 
2146 307.73 498.32 591.13 
2147 366.68 498.06 591.13 
2148 419.06 497.84 591.13 
2149 290.45 498.12 591.13 
2150 430.37 497.84 591.13 
2151 429.60 498.72 591.13 
2152 467.53 499.25 591.13 
2153 316.42 498.89 591.13 
2154 404.98 498.11 591.13 
2155 287.35 497.84 591.13 
2156 313.33 498.41 591.13 
2157 369.07 498.20 591.13 
2158 316.25 497.61 591.13 
2159 350.69 497.64 591.13 
2160 285.53 496.63 591.13 
2161 476.75 497.41 591.13 
2162 279.14 498.23 591.13 
2163 446.74 497.68 591.13 
2164 250.75 498.22 591.13 
2165 411.98 497.20 591.13 
2166 294.74 497.13 591.13 
2167 358.12 497.46 591.13 
2168 337.61 497.47 591.13 
2169 286.10 496.48 591.13 
2170 413.14 497.56 591.13 
2171 371.01 497.29 591.13 
2172 309.27 497.26 591.13 
2173 323.76 498.03 591.13 
2174 294.91 498.29 591.13 
2175 408.25 497.79 591.13 
2176 391.74 495.78 591.13 
2177 258.45 496.73 591.13 
2178 433.19 497.46 591.13 
2179 320.83 496.87 591.13 
2180 510.74 497.07 591.13 
2181 372.64 497.10 591.13 
2182 306.29 497.96 591.13 
2183 340.66 497.94 591.13 
2184 315.50 496.93 591.13 
2185 306.43 497.37 591.13 
2186 454.67 497.42 591.13 
2187 399.88 497.11 591.13 
2188 324.20 496.62 591.13 
2189 350.97 496.30 591.13 
2190 387.06 496.10 591.13 
2191 322.77 496.54 591.13 
2192 391.94 496.71 591.13 
2193 431.26 497.06 591.13 
2194 213.90 496.33 591.13 
2195 326.55 495.77 591.13 
2196 490.35 496.07 591.13 
2197 387.49 496.35 591.13 
2198 297.18 495.57 591.13 
2199 318.69 494.96 591.13 
2200 337.37 494.38 591.13 
2201 375.35 494.36 591.13 
2202 403.33 493.51 591.13 
2203 403.13 493.46 591.13 
2204 466.93 494.26 591.13 
2205 390.75 494.23 591.13 
2206 390.23 493.28 591.13 
2207 306.60 493.10 591.13 
2208 399.18 494.13 591.13 
2209 436.27 493.28 591.13 
2210 275.43 493.17 591.13 
2211 386.50 493.36 591.13 
2212 368.58 494.99 591.13 
2213 282.01 493.63 591.13 
2214 389.37 492.53 591.13 
2215 311.41 493.94 591.13 
2216 459.04 492.80 591.13 
2217 367.66 494.10 591.13 
2218 380.80 494.05 591.13 
2219 379.46 493.84 591.13 
2220 350.89 493.58 591.13 
2221 389.05 493.51 591.13 
2222 366.28 493.50 591.13 
2223 446.18 496.13 591.13 
2224 335.65 494.81 591.13 
2225 371.53 495.00 591.13 
2226 369.79 495.29 591.13 
2227 300.64 495.52 591.13 
2228 494.74 496.80 591.13 
2229 414.09 498.18 591.13 
2230 296.61 497.95 591.13 
2231 350.75 498.98 591.13 
2232 433.76 500.33 591.13 
2233 253.04 499.58 591.13 
2234 406.24 500.62 591.13 
2235 408.42 499.84 591.13 
2236 309.68 499.80 591.13 
2237 285.65 498.43 591.13 
2238 340.43 498.02 591.13 
2239 319.31 498.06 591.13 
2240 429.45 498.57 591.13 
2241 315.03 498.26 591.13 
2242 363.64 498.34 591.13 
2243 397.11 498.64 591.13 
2244 407.95 500.01 591.13 
2245 455.26 499.69 591.13 
2246 326.36 499.99 591.13 
2247 370.48 500.50 591.13 
2248 445.59 501.05 591.13 
2249 322.27 500.28 591.13 
2250 278.03 500.02 591.13 
2251 478.77 499.79 591.13 
2252 438.40 500.17 591.13 
2253 384.80 500.44 591.13 
2254 327.05 499.88 591.13 
2255 389.41 499.33 591.13 
2256 307.39 498.75 591.13 
2257 230.18 498.00 591.13 
2258 315.11 499.35 591.13 
2259 251.25 499.37 591.13 
2260 315.43 498.63 591.13 
2261 382.65 499.20 591.13 
2262 409.61 499.15 591.13 
2263 406.27 499.17 591.13 
2264 382.40 499.23 591.13 
2265 373.30 499.46 591.13 
2266 414.10 499.17 591.13 
2267 457.21 499.68 591.13 
2268 445.19 499.16 591.13 
2269 306.36 498.90 591.13 
2270 441.22 499.11 591.13 
2271 355.09 498.64 591.13 
2272 364.50 498.64 591.13 
2273 318.65 498.38 591.13 
2274 419.47 498.62 591.13 
2275 362.44 498.58 591.13 
2276 374.32 499.34 591.13 
2277 385.50 498.63 591.13 
2278 432.98 498.89 591.13 
2279 265.11 499.87 591.13 
2280 295.46 498.57 591.13 
2281 445.00 498.79 591.13 
2282 449.50 499.27 591.13 
2283 400.65 498.75 591.13 
2284 380.57 497.73 591.13 
2285 360.23 497.20 591.13 
2286 331.19 496.08 591.13 
2287 274.13 494.82 591.13 
2288 358.01 495.65 591.13 
2289 441.96 493.81 591.13 
2290 360.29 494.86 591.13 
2291 328.16 494.87 591.13 
2292 320.47 495.66 591.13 
2293 354.43 496.13 591.13 
2294 304.15 496.17 591.13 
2295 377.41 496.43 591.13 
2296 357.79 496.58 591.13 
2297 403.11 495.54 591.13 
2298 300.01 494.68 591.13 
2299 314.80 495.68 591.13 
2300 419.15 495.59 591.13 
2301 364.03 495.05 591.13 
2302 349.68 495.27 591.13 
2303 381.90 495.79 591.13 
2304 420.41 495.73 591.13 
2305 357.58 496.28 591.13 
2306 402.01 496.04 591.13 
2307 373.50 495.26 591.13 
2308 350.18 496.10 591.13 
2309 437.79 496.17 591.13 
2310 321.03 495.65 591.13 
2311 388.71 495.16 591.13 
2312 257.70 496.22 591.13 
2313 400.50 496.97 591.13 
2314 385.25 496.25 591.13 
2315 399.63 497.01 591.13 
2316 476.56 497.50 591.13 
2317 395.92 497.78 591.13 
2318 394.50 498.53 591.13 
2319 383.77 498.79 591.13 
2320 384.05 498.80 591.13 
2321 247.50 498.33 591.13 
2322 265.60 498.29 591.13 
2323 327.72 498.56 591.13 
2324 410.52 498.06 591.13 
2325 356.09 498.08 591.13 
2326 268.88 498.58 591.13 
2327 390.84 500.05 591.13 
2328 406.60 499.64 591.13 
2329 411.67 499.65 591.13 
2330 358.25 499.70 591.13 
2331 304.05 500.47 591.13 
2332 329.95 500.25 591.13 
2333 436.54 500.00 591.13 
2334 411.46 499.77 591.13 
2335 450.95 498.27 591.13 
2336 522.31 499.55 591.13 
2337 323.98 498.06 591.13 
2338 274.56 497.54 591.13 
2339 362.84 498.32 591.13 
2340 423.76 499.85 591.13 
2341 292.10 499.59 591.13 
2342 263.49 500.34 591.13 
2343 298.52 499.55 591.13 
2344 431.12 499.25 591.13 
2345 349.47 498.95 591.13 
2346 323.96 498.45 591.13 
2347 256.66 497.95 591.13 
2348 338.90 495.17 591.13 
2349 379.27 494.43 591.13 
2350 401.86 494.48 591.13 
2351 372.30 492.94 591.13 
2352 381.38 494.22 591.13 
2353 397.18 495.44 591.13 
2354 398.92 498.39 591.13 
2355 313.65 496.34 591.13 
2356 324.43 497.30 591.13 
2357 309.00 498.29 591.13 
2358 430.98 498.82 591.13 
2359 385.77 498.33 591.13 
2360 335.43 498.06 591.13 
2361 261.24 498.30 591.13 
2362 236.35 498.03 591.13 
2363 461.98 498.27 591.13 
2364 288.20 498.75 591.13 
2365 263.76 497.99 591.13 
2366 320.72 498.54 591.13 
2367 293.31 498.85 591.13 
2368 312.97 498.80 591.13 
2369 440.38 498.77 591.13 
2370 379.94 498.50 591.13 
2371 372.79 497.72 591.13 
2372 288.28 497.48 591.13 
2373 366.40 497.46 591.13 
2374 368.96 496.91 591.13 
2375 382.38 497.18 591.13 
2376 344.67 497.41 591.13 
2377 488.78 496.13 591.13 
2378 187.39 496.38 591.13 
2379 385.81 496.59 591.13 
2380 338.02 496.58 591.13 
2381 388.00 496.86 591.13 
2382 362.98 496.37 591.13 
2383 366.86 496.11 591.13 
2384 407.69 495.31 591.13 
2385 422.50 493.76 591.13 
2386 262.55 494.77 591.13 
2387 325.06 493.69 591.13 
2388 403.21 493.98 591.13 
2389 322.65 494.23 591.13 
2390 278.21 493.18 591.13 
2391 309.78 493.85 591.13 
2392 370.41 493.48 591.13 
2393 556.97 493.02 591.13 
2394 482.74 492.74 591.13 
2395 425.68 492.96 591.13 
2396 457.73 492.97 591.13 
2397 352.67 492.72 591.13 
2398 333.47 491.73 591.13 
2399 384.20 491.27 591.13 
2400 292.80 493.24 591.13 
2401 326.76 493.22 591.13 
2402 351.89 492.71 591.13 
2403 381.96 492.95 591.13 
2404 316.56 493.26 591.13 
2405 430.68 493.27 591.13 
2406 364.97 493.27 591.13 
2407 306.16 494.30 591.13 
2408 302.94 493.24 591.13 
2409 412.14 493.01 591.13 
2410 454.88 493.76 591.13 
2411 422.57 492.98 591.13 
2412 411.70 493.49 591.13 
2413 333.68 494.29 591.13 
2414 363.08 493.98 591.13 
2415 315.60 493.99 591.13 
2416 271.31 494.53 591.13 
2417 244.36 494.51 591.13 
2418 305.18 494.51 591.13 
2419 390.80 494.48 591.13 
2420 304.50 493.69 591.13 
2421 455.99 493.95 591.13 
2422 266.05 494.44 591.13 
2423 412.85 493.93 591.13 
2424 338.86 493.93 591.13 
2425 307.78 493.44 591.13 
2426 299.43 492.39 591.13 
2427 215.88 491.83 591.13 
2428 406.82 491.56 591.13 
2429 348.35 490.77 591.13 
2430 340.57 490.27 591.13 
2431 300.99 490.89 591.13 
2432 301.83 490.51 591.13 
2433 347.52 490.69 591.13 
2434 373.86 491.12 591.13 
2435 323.71 489.30 591.13 
2436 373.96 490.57 591.13 
2437 299.84 490.08 591.13 
2438 365.84 490.88 591.13 
2439 358.55 490.48 591.13 
2440 431.56 491.50 591.13 
2441 282.36 491.20 591.13 
2442 431.33 491.24 591.13 
2443 374.40 491.00 591.13 
2444 300.58 490.52 591.13 
2445 391.84 488.83 591.13 
2446 404.37 488.95 591.13 
2447 344.87 489.44 591.13 
2448 214.95 488.24 591.13 
2449 388.09 489.49 591.13 
2450 405.44 490.03 591.13 
2451 315.80 490.79 591.13 
2452 352.33 490.79 591.13 
2453 396.43 490.55 591.13 
2454 356.79 490.05 591.13 
2455 418.78 488.76 591.13 
2456 381.66 488.50 591.13 
2457 278.39 487.74 591.13 
2458 340.39 489.53 591.13 
2459 494.38 490.28 591.13 
2460 307.04 489.88 591.13 
2461 298.60 489.46 591.13 
2462 481.86 489.95 591.13 
2463 374.95 489.60 591.13 
2464 326.31 490.22 591.13 
2465 337.40 489.00 591.13 
2466 331.16 488.22 591.13 
2467 370.35 490.55 591.13 
2468 353.08 491.03 591.13 
2469 364.57 490.02 591.13 
2470 513.72 490.28 591.13 
2471 328.28 491.54 591.13 
2472 379.01 492.48 591.13 
2473 365.01 491.54 591.13 
2474 345.02 490.66 591.13 
2475 292.72 490.68 591.13 
2476 294.91 490.28 591.13 
2477 333.90 492.00 591.13 
2478 362.78 491.51 591.13 
2479 435.65 490.35 591.13 
2480 331.61 488.35 591.13 
2481 439.17 488.64 591.13 
2482 288.44 489.61 591.13 
2483 513.13 488.85 591.13 
2484 317.30 487.81 591.13 
2485 529.21 487.62 591.13 
2486 287.99 488.90 591.13 
2487 247.22 487.41 591.13 
2488 296.42 486.16 591.13 
2489 349.21 485.43 591.13 
2490 338.95 485.64 591.13 
2491 402.22 485.63 591.13 
2492 224.02 486.91 591.13 
2493 429.39 485.59 591.13 
2494 327.92 485.67 591.13 
2495 349.63 485.93 591.13 
2496 264.57 487.75 591.13 
2497 484.02 487.26 591.13 
2498 350.00 488.62 591.13 
2499 333.70 489.89 591.13 
2500 303.11 490.93 591.13 
2501 411.36 491.93 591.13 
2502 353.92 491.16 591.13 
2503 420.85 492.20 591.13 
2504 329.63 490.88 591.13 
2505 335.47 489.79 591.13 
2506 389.85 488.01 591.13 
2507 306.49 487.71 591.13 
2508 305.28 488.67 591.13 
2509 346.84 487.47 591.13 
2510 337.81 487.89 591.13 
2511 350.31 487.60 591.13 
2512 350.09 487.87 591.13 
2513 279.62 486.69 591.13 
2514 366.12 482.58 591.13 
2515 350.96 479.43 591.13 
2516 238.75 481.00 591.13 
2517 482.82 484.49 591.13 
2518 277.12 483.49 591.13 
2519 398.88 485.01 591.13 
2520 391.23 481.54 591.13 
2521 405.78 479.78 591.13 
2522 382.43 483.91 591.13 
2523 245.60 484.66 591.13 
2524 413.61 482.21 591.13 
2525 315.00 480.19 591.13 
2526 288.88 480.97 591.13 
2527 463.38 478.85 591.13 
2528 408.42 480.68 591.13 
2529 302.29 480.41 591.13 
2530 379.94 480.44 591.13 
2531 365.70 486.28 591.13 
2532 268.19 484.71 591.13 
2533 450.95 485.99 591.13 
2534 326.65 485.15 591.13 
2535 336.57 488.33 591.13 
2536 339.56 489.99 591.13 
2537 315.71 490.66 591.13 
2538 375.42 490.80 591.13 
2539 384.67 491.90 591.13 
2540 491.01 491.72 591.13 
2541 288.55 491.48 591.13 
2542 334.59 491.15 591.13 
2543 410.56 493.21 591.13 
2544 439.74 494.24 591.13 
2545 429.62 493.72 591.13 
2546 288.21 494.24 591.13 
2547 317.35 493.07 591.13 
2548 383.92 493.10 591.13 
2549 360.81 493.60 591.13 
2550 417.72 494.38 591.13 
2551 320.68 494.37 591.13 
2552 336.41 493.04 591.13 
2553 298.09 494.05 591.13 
2554 394.21 494.81 591.13 
2555 366.63 494.55 591.13 
2556 420.19 494.58 591.13 
2557 370.42 495.04 591.13 
2558 253.01 494.46 591.13 
2559 308.01 494.69 591.13 
2560 302.83 494.65 591.13 
2561 321.39 494.71 591.13 
2562 300.72 494.47 591.13 
2563 341.65 495.51 591.13 
2564 412.21 495.79 591.13 
2565 330.63 496.64 591.13 
2566 418.51 497.42 591.13 
2567 391.09 497.66 591.13 
2568 381.36 497.54 591.13 
2569 381.93 496.59 591.13 
2570 345.84 495.78 591.13 
2571 270.16 496.08 591.13 
2572 308.24 496.02 591.13 
2573 336.35 494.74 591.13 
2574 420.34 496.53 591.13 
2575 321.85 495.73 591.13 
2576 367.31 494.98 591.13 
2577 330.26 494.95 591.13 
2578 395.13 494.45 591.13 
2579 294.71 493.93 591.13 
2580 385.97 493.10 591.13 
2581 403.84 493.40 591.13 
2582 371.63 493.41 591.13 
2583 371.56 491.48 591.13 
2584 389.57 492.62 591.13 
2585 292.04 492.61 591.13 
2586 303.96 493.07 591.13 
2587 437.65 493.07 591.13 
2588 360.88 493.56 591.13 
2589 308.77 493.07 591.13 
2590 343.83 494.41 591.13 
2591 359.51 495.66 591.13 
2592 375.61 493.88 591.13 
2593 324.28 494.14 591.13 
2594 333.86 496.72 591.13 
2595 339.17 496.20 591.13 
2596 327.61 496.21 591.13 
2597 375.04 496.42 591.13 
2598 314.93 496.45 591.13 
2599 305.34 496.72 591.13 
2600 439.10 497.00 591.13 
2601 347.06 496.50 591.13 
2602 262.73 496.21 591.13 
2603 282.97 496.20 591.13 
2604 336.16 496.46 591.13 
2605 378.79 495.67 591.13 
2606 297.66 494.97 591.13 
2607 412.77 495.44 591.13 
2608 313.76 495.15 591.13 
2609 523.59 495.14 591.13 
2610 240.62 496.21 591.13 
2611 428.02 496.17 591.13 
2612 378.97 496.47 591.13 
2613 340.75 495.59 591.13 
2614 257.76 494.74 591.13 
2615 330.13 493.43 591.13 
2616 387.34 493.88 591.13 
2617 366.60 495.28 591.13 
2618 330.37 496.32 591.13 
2619 276.22 496.08 591.13 
2620 417.47 496.92 591.13 
2621 360.07 496.11 591.13 
2622 314.83 496.65 591.13 
2623 360.50 496.14 591.13 
2624 334.14 496.91 591.13 
2625 224.94 495.92 591.13 
2626 360.78 495.65 591.13 
2627 392.84 497.41 591.13 
2628 312.86 497.72 591.13 
2629 272.64 498.25 591.13 
2630 366.87 498.01 591.13 
2631 474.09 495.72 591.13 
2632 430.50 498.28 591.13 
2633 492.46 495.30 591.13 
2634 356.71 497.55 591.13 
2635 338.72 497.09 591.13 
2636 380.84 495.31 591.13 
2637 291.23 497.13 591.13 
2638 398.85 498.88 591.13 
2639 369.25 499.34 591.13 
2640 371.86 499.97 591.13 
2641 456.35 499.03 591.13 
2642 358.72 498.25 591.13 
2643 406.83 496.99 591.13 
2644 406.09 498.28 591.13 
2645 361.14 495.79 591.13 
2646 414.90 494.99 591.13 
2647 381.44 495.51 591.13 
2648 314.97 495.47 591.13 
2649 429.19 495.73 591.13 
2650 390.76 495.26 591.13 
2651 374.79 495.74 591.13 
2652 264.09 494.93 591.13 
2653 265.92 494.67 591.13 
2654 345.79 494.39 591.13 
2655 296.75 494.59 591.13 
2656 345.10 495.67 591.13 
2657 344.08 494.90 591.13 
2658 409.53 495.65 591.13 
2659 271.51 494.69 591.13 
2660 322.94 495.46 591.13 
2661 386.97 495.99 591.13 
2662 447.39 496.24 591.13 
2663 276.06 496.74 591.13 
2664 457.66 497.27 591.13 
2665 383.83 496.77 591.13 
2666 363.01 496.44 591.13 
2667 417.98 496.95 591.13 
2668 296.67 497.00 591.13 
2669 410.45 496.46 591.13 
2670 348.04 496.46 591.13 
2671 286.12 495.97 591.13 
2672 260.80 494.40 591.13 
2673 382.41 494.66 591.13 
2674 281.43 495.46 591.13 
2675 296.34 495.98 591.13 
2676 346.65 497.01 591.13 
2677 298.46 495.81 591.13 
2678 483.39 496.79 591.13 
2679 307.80 496.47 591.13 
2680 375.74 495.64 591.13 
2681 326.16 495.45 591.13 
2682 359.78 495.14 591.13 
2683 357.36 494.67 591.13 
2684 296.00 495.45 591.13 
2685 378.60 495.40 591.13 
2686 443.32 494.32 591.13 
2687 335.60 493.57 591.13 
2688 407.28 494.82 591.13 
2689 444.21 496.36 591.13 
2690 315.34 496.81 591.13 
2691 432.17 496.30 591.13 
2692 310.97 496.55 591.13 
2693 415.55 495.80 591.13 
2694 431.04 497.08 591.13 
2695 428.49 496.81 591.13 
2696 377.86 499.11 591.13 
2697 305.51 499.66 591.13 
2698 375.93 499.39 591.13 
2699 244.05 498.90 591.13 
2700 342.34 499.39 591.13 
2701 344.82 500.44 591.13 
2702 295.76 499.39 591.13 
2703 296.88 499.41 591.13 
2704 493.81 499.64 591.13 
2705 299.74 499.45 591.13 
2706 433.12 498.49 591.13 
2707 374.50 498.74 591.13 
2708 312.36 499.47 591.13 
2709 322.22 498.96 591.13 
2710 322.92 499.23 591.13 
2711 397.34 498.74 591.13 
2712 418.93 499.23 591.13 
2713 341.19 498.49 591.13 
2714 395.90 497.71 591.13 
2715 323.72 497.96 591.13 
2716 357.71 497.60 591.13 
2717 456.93 495.01 591.13 
2718 199.12 496.24 591.13 
2719 329.08 498.01 591.13 
2720 316.96 498.50 591.13 
2721 356.44 498.23 591.13 
2722 313.74 498.51 591.13 
2723 460.77 495.74 591.13 
2724 271.22 495.87 591.13 
2725 327.98 496.81 591.13 
2726 350.86 497.26 591.13 
2727 270.70 498.00 591.13 
2728 371.56 498.49 591.13 
2729 388.90 497.47 591.13 
2730 389.66 496.19 591.13 
2731 357.60 492.92 591.13 
2732 273.18 491.65 591.13 
2733 347.31 491.60 591.13 
2734 244.99 491.84 591.13 
2735 394.80 493.06 591.13 
2736 479.50 489.74 591.13 
2737 408.56 488.70 591.13 
2738 376.07 489.48 591.13 
2739 346.91 489.48 591.13 
2740 392.61 490.00 591.13 
2741 519.04 489.49 591.13 
2742 275.27 487.63 591.13 
2743 285.44 486.86 591.13 
2744 397.85 488.41 591.13 
2745 437.92 489.65 591.13 
2746 321.31 488.38 591.13 
2747 339.50 490.45 591.13 
2748 349.90 490.45 591.13 
2749 439.21 490.00 591.13 
2750 296.16 489.74 591.13 
2751 327.81 490.23 591.13 
2752 361.63 491.27 591.13 
2753 328.18 493.21 591.13 
2754 384.13 495.28 591.13 
2755 437.57 495.29 591.13 
2756 382.14 495.30 591.13 
2757 324.55 495.27 591.13 
2758 323.61 497.58 591.13 
2759 470.12 496.76 591.13 
2760 313.36 497.49 591.13 
2761 371.54 497.25 591.13 
2762 521.75 498.78 591.13 
2763 376.52 498.07 591.13 
2764 388.31 499.10 591.13 
2765 206.43 497.35 591.13 
2766 379.96 498.98 591.13 
2767 358.08 499.21 591.13 
2768 533.96 500.01 591.13 
2769 391.03 499.04 591.13 
2770 277.82 500.05 591.13 
2771 300.31 499.03 591.13 
2772 268.49 501.07 591.13 
2773 306.09 501.61 591.13 
2774 275.88 503.40 591.13 
2775 351.08 503.51 591.13 
2776 421.32 503.17 591.13 
2777 345.59 501.85 591.13 
2778 233.06 501.59 591.13 
2779 425.06 501.91 591.13 
2780 357.41 502.40 591.13 
2781 391.47 502.56 591.13 
2782 326.74 503.78 591.13 
2783 359.82 503.74 591.13 
2784 386.83 504.01 591.13 
2785 415.76 504.25 591.13 
2786 332.07 503.98 591.13 
2787 308.93 504.26 591.13 
2788 315.95 502.94 591.13 
2789 382.66 503.64 591.13 
2790 415.37 503.97 591.13 
2791 354.33 503.73 591.13 
2792 383.98 503.97 591.13 
2793 326.64 503.96 591.13 
2794 385.35 503.74 591.13 
2795 309.04 503.71 591.13 
2796 385.93 504.06 591.13 
2797 285.13 503.66 591.13 
2798 391.44 504.32 591.13 
2799 313.54 503.68 591.13 
2800 415.67 501.41 591.13 
2801 300.19 499.86 591.13 
2802 307.43 500.63 591.13 
2803 298.76 502.69 591.13 
2804 321.25 499.13 591.13 
2805 493.20 503.12 591.13 
2806 411.29 502.64 591.13 
2807 368.99 502.87 591.13 
2808 306.48 502.37 591.13 
2809 358.97 501.57 591.13 
2810 346.59 502.37 591.13 
2811 372.96 501.81 591.13 
2812 412.90 502.31 591.13 
2813 411.68 502.31 591.13 
2814 342.55 502.16 591.13 
2815 319.96 503.26 591.13 
2816 436.64 503.24 591.13 
2817 261.84 502.68 591.13 
2818 408.26 501.65 591.13 
2819 442.55 502.41 591.13 
2820 371.48 502.41 591.13 
2821 504.35 502.15 591.13 
2822 372.41 502.39 591.13 
2823 474.54 502.96 591.13 
2824 365.91 502.65 591.13 
2825 519.77 502.34 591.13 
2826 385.45 501.67 591.13 
2827 449.50 501.42 591.13 
2828 374.27 502.24 591.13 
2829 309.56 501.41 591.13 
2830 349.78 501.63 591.13 
2831 350.23 501.94 591.13 
2832 377.26 501.13 591.13 
2833 384.28 502.08 591.13 
2834 402.78 497.38 591.13 
2835 362.07 496.77 591.13 
2836 282.24 497.60 591.13 
2837 278.78 497.60 591.13 
2838 407.82 496.64 591.13 
2839 354.80 495.54 591.13 
2840 330.25 496.79 591.13 
2841 315.07 494.75 591.13 
2842 453.25 493.88 591.13 
2843 388.40 492.57 591.13 
2844 458.40 492.07 591.13 
2845 320.36 491.55 591.13 
2846 370.55 490.70 591.13 
2847 202.80 492.54 591.13 
2848 405.21 492.83 591.13 
2849 309.07 495.18 591.13 
2850 338.34 496.16 591.13 
2851 391.15 496.06 591.13 
2852 353.16 501.71 591.13 
2853 445.17 502.00 591.13 
2854 369.34 501.43 591.13 
2855 326.08 501.68 591.13 
2856 389.36 501.64 591.13 
2857 420.02 497.03 591.13 
2858 372.51 496.28 591.13 
2859 349.68 498.17 591.13 
2860 435.77 498.07 591.13 
2861 463.35 498.43 591.13 
2862 334.68 498.60 591.13 
2863 279.41 500.41 591.13 
2864 359.09 500.70 591.13 
2865 483.89 499.14 591.13 
2866 389.21 499.51 591.13 
2867 330.30 500.48 591.13 
2868 453.45 500.16 591.13 
2869 446.76 499.20 591.13 
2870 439.48 498.80 591.13 
2871 260.40 499.01 591.13 
2872 260.95 499.26 591.13 
2873 253.65 498.83 591.13 
2874 369.49 500.40 591.13 
2875 391.31 499.85 591.13 
2876 344.63 499.30 591.13 
2877 377.75 498.83 591.13 
2878 357.95 497.73 591.13 
2879 264.15 497.92 591.13 
2880 301.74 498.50 591.13 
2881 294.42 496.94 591.13 
2882 273.90 497.45 591.13 
2883 316.19 496.94 591.13 
2884 392.52 496.38 591.13 
2885 362.81 497.97 591.13 
2886 370.66 496.86 591.13 
2887 231.64 496.96 591.13 
2888 428.28 496.30 591.13 
2889 295.04 494.83 591.13 
2890 290.53 493.56 591.13 
2891 371.42 491.26 591.13 
2892 328.26 487.96 591.13 
2893 337.39 487.73 591.13 
2894 401.79 488.86 591.13 
2895 241.24 488.61 591.13 
2896 255.07 487.78 591.13 
2897 403.31 491.35 591.13 
2898 457.83 492.38 591.13 
2899 510.49 493.41 591.13 
2900 311.31 493.93 591.13 
2901 322.71 494.23 591.13 
2902 317.15 491.18 591.13 
2903 284.76 489.87 591.13 
2904 411.27 491.43 591.13 
2905 381.08 491.73 591.13 
2906 387.53 492.00 591.13 
2907 405.98 494.88 591.13 
2908 283.28 492.62 591.13 
2909 379.84 491.35 591.13 
2910 308.87 494.91 591.13 
2911 396.38 494.93 591.13 
2912 315.45 494.44 591.13 
2913 404.31 494.15 591.13 
2914 402.20 492.56 591.13 
2915 229.51 492.59 591.13 
2916 311.47 488.94 591.13 
2917 369.44 488.44 591.13 
2918 363.73 488.46 591.13 
2919 486.67 488.45 591.13 
2920 319.15 487.91 591.13 
2921 384.47 489.51 591.13 
2922 424.61 493.87 591.13 
2923 500.24 491.80 591.13 
2924 401.11 489.73 591.13 
2925 413.62 487.89 591.13 
2926 370.43 488.90 591.13 
2927 420.54 486.56 591.13 
2928 395.83 486.34 591.13 
2929 298.92 487.41 591.13 
2930 393.40 487.41 591.13 
2931 282.54 486.37 591.13 
2932 388.66 485.36 591.13 
2933 417.78 487.22 591.13 
2934 392.60 487.95 591.13 
2935 364.42 486.50 591.13 
2936 336.52 484.66 591.13 
2937 368.89 485.03 591.13 
2938 251.82 486.58 591.13 
2939 309.11 486.27 591.13 
2940 459.06 489.67 591.13 
2941 370.59 488.62 591.13 
2942 343.77 489.13 591.13 
2943 404.49 487.37 591.13 
2944 393.67 488.38 591.13 
2945 349.99 487.33 591.13 
2946 441.91 487.37 591.13 
2947 364.53 489.14 591.13 
2948 366.90 488.11 591.13 
2949 302.89 487.64 591.13 
2950 442.73 488.94 591.13 
2951 424.52 489.65 591.13 
2952 342.62 490.25 591.13 
2953 413.20 488.43 591.13 
2954 460.98 490.51 591.13 
2955 344.28 490.46 591.13 
2956 399.66 488.18 591.13 
2957 444.12 489.30 591.13 
2958 303.49 490.07 591.13 
2959 371.36 488.75 591.13 
2960 416.84 490.31 591.13 
2961 218.28 490.88 591.13 
2962 359.04 491.12 591.13 
2963 390.49 491.08 591.13 
2964 392.93 491.88 591.13 
2965 390.17 490.62 591.13 
2966 369.78 490.93 591.13 
2967 317.32 491.49 591.13 
2968 421.27 491.23 591.13 
2969 276.60 490.19 591.13 
2970 438.11 487.86 591.13 
2971 363.34 489.38 591.13 
2972 402.98 489.38 591.13 
2973 333.74 488.62 591.13 
2974 432.62 490.82 591.13 
2975 406.22 492.07 591.13 
2976 298.15 493.13 591.13 
2977 279.78 492.87 591.13 
2978 369.43 492.14 591.13 
2979 424.33 493.09 591.13 
2980 393.93 493.08 591.13 
2981 279.50 493.12 591.13 
2982 339.01 491.83 591.13 
2983 299.46 493.83 591.13 
2984 265.00 493.30 591.13 
2985 397.56 493.59 591.13 
2986 346.14 493.89 591.13 
2987 394.94 493.09 591.13 
2988 298.83 493.34 591.13 
2989 388.52 493.57 591.13 
2990 332.52 493.32 591.13 
2991 441.30 493.02 591.13 
2992 461.09 493.30 591.13 
2993 281.19 493.03 591.13 
2994 330.20 493.77 591.13 
2995 485.21 492.84 591.13 
2996 338.95 492.88 591.13 
2997 432.21 493.42 591.13 
2998 372.92 495.46 591.13 
2999 329.83 496.98 591.13 
3000 368.88 495.48 591.13 
3001 269.86 496.20 591.13 
3002 359.37 496.20 591.13 
3003 413.11 496.46 591.13 
3004 304.98 495.72 591.13 
3005 363.65 494.92 591.13 
3006 281.11 494.85 591.13 
3007 317.70 494.62 591.13 
3008 351.14 493.85 591.13 
3009 407.12 491.38 591.13 
3010 429.23 491.81 591.13 
3011 427.91 490.79 591.13 
3012 245.61 490.29 591.13 
3013 380.72 490.79 591.13 
3014 406.18 490.29 591.13 
3015 252.12 492.56 591.13 
3016 410.62 492.06 591.13 
3017 398.86 490.27 591.13 
3018 406.46 489.79 591.13 
3019 347.06 491.27 591.13 
3020 379.36 489.28 591.13 
3021 296.45 488.24 591.13 
3022 335.01 485.18 591.13 
3023 354.87 485.95 591.13 
3024 319.14 488.49 591.13 
3025 365.39 489.74 591.13 
3026 251.43 491.73 591.13 
3027 370.60 489.22 591.13 
3028 400.43 491.29 591.13 
3029 447.33 489.25 591.13 
3030 385.77 488.74 591.13 
3031 379.58 489.50 591.13 
3032 397.12 490.00 591.13 
3033 385.98 490.50 591.13 
3034 381.12 490.15 591.13 
3035 371.28 489.91 591.13 
3036 303.89 490.68 591.13 
3037 278.25 491.14 591.13 
3038 377.36 492.11 591.13 
3039 376.66 490.38 591.13 
3040 264.35 491.96 591.13 
3041 343.84 492.44 591.13 
3042 242.53 492.49 591.13 
3043 419.70 493.73 591.13 
3044 260.45 491.50 591.13 
3045 338.96 491.20 591.13 
3046 288.30 490.97 591.13 
3047 437.19 488.58 591.13 
3048 410.47 488.07 591.13 
3049 337.44 489.61 591.13 
3050 328.63 490.17 591.13 
3051 335.56 489.14 591.13 
3052 286.86 487.87 591.13 
3053 319.37 488.12 591.13 
3054 363.63 488.63 591.13 
3055 313.89 488.60 591.13 
3056 398.96 489.35 591.13 
3057 422.68 489.33 591.13 
3058 296.56 489.81 591.13 
3059 393.25 490.08 591.13 
3060 386.45 488.56 591.13 
3061 369.46 488.55 591.13 
3062 419.36 489.59 591.13 
3063 447.76 487.84 591.13 
3064 346.71 487.10 591.13 
3065 332.74 487.13 591.13 
3066 309.15 486.65 591.13 
3067 393.13 486.43 591.13 
3068 370.40 484.94 591.13 
3069 333.19 486.95 591.13 
3070 408.76 486.98 591.13 
3071 303.61 488.01 591.13 
3072 349.45 490.50 591.13 
3073 387.41 489.97 591.13 
3074 341.81 488.98 591.13 
3075 382.97 488.99 591.13 
3076 331.48 490.50 591.13 
3077 301.26 492.06 591.13 
3078 380.67 491.86 591.13 
3079 289.85 491.87 591.13 
3080 413.57 493.14 591.13 
3081 336.82 491.10 591.13 
3082 451.76 491.82 591.13 
3083 437.59 492.32 591.13 
3084 404.79 493.36 591.13 
3085 330.37 492.87 591.13 
3086 376.26 494.39 591.13 
3087 360.55 492.89 591.13 
3088 309.29 492.60 591.13 
3089 362.12 491.85 591.13 
3090 330.15 490.61 591.13 
3091 316.19 491.90 591.13 
3092 377.29 493.96 591.13 
3093 405.41 494.50 591.13 
3094 346.94 493.48 591.13 
3095 335.94 492.73 591.13 
3096 325.53 491.97 591.13 
3097 369.50 492.26 591.13 
3098 317.55 491.49 591.13 
3099 368.01 489.95 591.13 
3100 425.65 490.48 591.13 
3101 348.58 490.71 591.13 
3102 334.31 490.70 591.13 
3103 289.69 491.18 591.13 
3104 361.60 491.96 591.13 
3105 304.75 491.43 591.13 
3106 380.36 490.46 591.13 
3107 355.36 490.25 591.13 
3108 285.33 491.28 591.13 
3109 381.04 490.01 591.13 
3110 203.57 489.01 591.13 
3111 294.97 488.79 591.13 
3112 304.91 490.81 591.13 
3113 505.75 489.82 591.13 
3114 378.97 491.11 591.13 
3115 349.01 488.10 591.13 
3116 284.61 488.64 591.13 
3117 326.12 489.66 591.13 
3118 358.27 491.17 591.13 
3119 334.07 492.89 591.13 
3120 430.34 492.63 591.13 
3121 465.06 491.63 591.13 
3122 405.54 492.86 591.13 
3123 377.98 492.86 591.13 
3124 250.99 492.65 591.13 
3125 396.02 492.40 591.13 
3126 308.67 493.91 591.13 
3127 337.55 493.67 591.13 
3128 316.35 495.70 591.13 
3129 357.19 495.42 591.13 
3130 385.78 495.18 591.13 
3131 336.55 493.91 591.13 
3132 353.02 494.39 591.13 
3133 347.50 493.12 591.13 
3134 437.17 494.88 591.13 
3135 363.16 494.62 591.13 
3136 282.13 493.57 591.13 
3137 282.31 493.28 591.13 
3138 333.77 492.73 591.13 
3139 404.73 493.46 591.13 
3140 301.23 493.79 591.13 
3141 328.79 494.56 591.13 
3142 345.89 494.54 591.13 
3143 308.53 493.27 591.13 
3144 279.28 493.53 591.13 
3145 338.19 493.53 591.13 
3146 355.95 492.29 591.13 
3147 345.22 493.55 591.13 
3148 373.75 494.28 591.13 
3149 318.29 494.03 591.13 
3150 279.15 493.26 591.13 
3151 418.25 494.27 591.13 
3152 362.09 495.29 591.13 
3153 302.81 494.01 591.13 
3154 334.50 494.02 591.13 
3155 493.74 494.54 591.13 
3156 411.39 495.07 591.13 
3157 302.28 495.06 591.13 
3158 347.62 490.55 591.13 
3159 361.77 488.29 591.13 
3160 417.82 487.04 591.13 
3161 500.14 491.80 591.13 
3162 374.05 490.55 591.13 
3163 470.43 491.03 591.13 
3164 372.92 485.82 591.13 
3165 388.10 492.07 591.13 
3166 332.80 492.56 591.13 
3167 333.23 490.92 591.13 
3168 299.76 493.89 591.13 
3169 329.64 496.78 591.13 
3170 267.51 496.60 591.13 
3171 411.98 495.78 591.13 
3172 356.68 490.17 591.13 
3173 270.38 491.98 591.13 
3174 326.24 495.55 591.13 
3175 283.70 495.52 591.13 
3176 394.38 494.74 591.13 
3177 457.69 494.95 591.13 
3178 356.89 495.17 591.13 
3179 413.48 495.16 591.13 
3180 453.97 494.88 591.13 
3181 429.91 495.37 591.13 
3182 403.30 496.12 591.13 
3183 285.92 496.41 591.13 
3184 329.18 495.37 591.13 
3185 371.23 495.40 591.13 
3186 373.29 496.20 591.13 
3187 339.57 495.71 591.13 
3188 369.02 494.78 591.13 
3189 366.80 494.71 591.13 
3190 365.91 494.76 591.13 
3191 479.09 494.66 591.13 
3192 436.13 494.63 591.13 
3193 401.53 494.23 591.13 
3194 400.93 490.76 591.13 
3195 220.45 492.35 591.13 
3196 348.64 493.28 591.13 
3197 487.78 490.82 591.13 
3198 375.68 490.05 591.13 
3199 309.76 489.86 591.13 
3200 408.59 487.86 591.13 
3201 294.17 484.53 591.13 
3202 357.37 486.81 591.13 
3203 283.92 485.56 591.13 
3204 331.82 484.98 591.13 
3205 287.70 490.50 591.13 
3206 246.49 492.76 591.13 
3207 413.61 494.51 591.13 
3208 465.26 495.61 591.13 
3209 397.42 496.03 591.13 
3210 335.24 496.01 591.13 
3211 318.21 495.37 591.13 
3212 368.18 494.28 591.13 
3213 413.07 493.67 591.13 
3214 396.85 494.22 591.13 
3215 336.12 494.41 591.13 
3216 426.64 494.35 591.13 
3217 292.93 494.89 591.13 
3218 471.00 494.60 591.13 
3219 339.05 494.81 591.13 
3220 361.60 494.27 591.13 
3221 444.47 493.50 591.13 
3222 287.92 493.10 591.13 
3223 344.64 493.61 591.13 
3224 387.36 491.77 591.13 
3225 216.51 492.52 591.13 
3226 409.27 493.01 591.13 
3227 255.59 493.18 591.13 
3228 344.99 492.45 591.13 
3229 367.71 489.98 591.13 
3230 508.98 488.20 591.13 
3231 365.37 486.46 591.13 
3232 353.51 489.06 591.13 
3233 445.35 490.59 591.13 
3234 355.82 494.66 591.13 
3235 421.44 495.95 591.13 
3236 266.02 495.41 591.13 
3237 363.54 490.28 591.13 
3238 427.86 490.72 591.13 
3239 475.94 489.11 591.13 
3240 445.86 487.56 591.13 
3241 420.34 488.41 591.13 
3242 314.24 488.33 591.13 
3243 268.22 487.20 591.13 
3244 491.94 487.97 591.13 
3245 422.74 486.49 591.13 
3246 365.03 487.01 591.13 
3247 463.50 492.56 591.13 
3248 346.36 491.59 591.13 
3249 373.83 488.62 591.13 
3250 413.17 486.80 591.13 
3251 312.20 486.91 591.13 
3252 481.02 486.93 591.13 
3253 372.37 487.34 591.13 
3254 289.54 488.34 591.13 
3255 487.28 487.53 591.13 
3256 337.66 487.54 591.13 
3257 396.73 487.89 591.13 
3258 410.65 490.20 591.13 
3259 279.29 491.93 591.13 
3260 316.06 491.69 591.13 
3261 475.57 490.47 591.13 
3262 300.02 490.29 591.13 
3263 322.37 491.83 591.13 
3264 355.01 492.31 591.13 
3265 336.16 494.04 591.13 
3266 401.66 493.77 591.13 
3267 360.60 494.52 591.13 
3268 358.18 495.30 591.13 
3269 348.26 495.27 591.13 
3270 436.10 496.68 591.13 
3271 293.84 495.97 591.13 
3272 326.29 494.34 591.13 
3273 381.18 494.38 591.13 
3274 334.11 493.69 591.13 
3275 399.27 492.33 591.13 
3276 289.24 494.20 591.13 
3277 415.25 494.01 591.13 
3278 228.08 495.56 591.13 
3279 361.15 497.72 591.13 
3280 403.47 497.01 591.13 
3281 467.72 496.59 591.13 
3282 413.63 496.03 591.13 
3283 302.89 496.04 591.13 
3284 297.55 495.53 591.13 
3285 339.75 496.27 591.13 
3286 381.65 496.05 591.13 
3287 294.61 496.02 591.13 
3288 358.18 496.27 591.13 
3289 326.25 496.52 591.13 
3290 355.53 497.05 591.13 
3291 314.52 496.59 591.13 
3292 505.83 495.54 591.13 
3293 382.82 495.78 591.13 
3294 431.49 495.00 591.13 
3295 379.68 495.55 591.13 
3296 405.66 496.31 591.13 
3297 312.34 496.25 591.13 
3298 346.25 495.71 591.13 
3299 405.58 497.48 591.13 
3300 242.25 497.49 591.13 
3301 361.33 496.63 591.13 
3302 316.85 496.10 591.13 
3303 428.00 495.60 591.13 
3304 369.72 495.08 591.13 
3305 330.96 495.06 591.13 
3306 343.53 496.02 591.13 
3307 382.17 496.08 591.13 
3308 332.42 495.56 591.13 
3309 358.90 495.59 591.13 
3310 265.86 494.85 591.13 
3311 303.76 494.61 591.13 
3312 400.79 494.32 591.13 
3313 432.33 494.59 591.13 
3314 453.76 493.85 591.13 
3315 332.96 493.86 591.13 
3316 472.08 495.37 591.13 
3317 274.88 494.31 591.13 
3318 371.08 495.03 591.13 
3319 317.30 493.70 591.13 
3320 350.92 494.04 591.13 
3321 271.74 495.80 591.13 
3322 383.02 495.28 591.13 
3323 312.72 495.42 591.13 
3324 350.42 495.64 591.13 
3325 436.91 495.16 591.13 
3326 335.32 491.63 591.13 
3327 290.72 493.43 591.13 
3328 289.63 493.81 591.13 
3329 346.43 491.30 591.13 
3330 397.19 486.32 591.13 
3331 357.23 487.31 591.13 
3332 415.22 488.34 591.13 
3333 360.28 487.83 591.13 
3334 378.30 487.11 591.13 
3335 454.39 488.92 591.13 
3336 438.77 491.00 591.13 
3337 283.26 489.48 591.13 
3338 385.47 489.53 591.13 
3339 381.41 487.55 591.13 
3340 367.43 489.05 591.13 
3341 336.72 490.01 591.13 
3342 513.76 486.97 591.13 
3343 361.13 489.75 591.13 
3344 308.86 488.45 591.13 
3345 354.00 487.93 591.13 
3346 329.45 483.64 591.13 
3347 335.65 481.66 591.13 
3348 338.70 487.44 591.13 
3349 356.70 488.42 591.13 
3350 464.71 492.47 591.13 
3351 318.75 493.02 591.13 
3352 439.57 494.06 591.13 
3353 386.65 491.97 591.13 
3354 346.56 493.52 591.13 
3355 278.78 494.03 591.13 
3356 325.17 493.04 591.13 
3357 252.47 489.28 591.13 
3358 296.96 490.28 591.13 
3359 325.17 488.66 591.13 
3360 326.31 487.81 591.13 
3361 386.48 491.07 591.13 
3362 387.66 489.08 591.13 
3363 383.51 487.79 591.13 
3364 434.16 490.58 591.13 
3365 372.67 492.32 591.13 
3366 303.01 493.31 591.13 
3367 380.64 494.57 591.13 
3368 429.91 495.58 591.13 
3369 275.97 496.56 591.13 
3370 478.80 497.84 591.13 
3371 440.58 497.09 591.13 
3372 356.76 497.61 591.13 
3373 383.33 497.95 591.13 
3374 381.88 496.79 591.13 
3375 481.83 497.60 591.13 
3376 365.26 499.87 591.13 
3377 237.13 501.17 591.13 
3378 343.36 500.68 591.13 
3379 326.59 498.90 591.13 
3380 307.35 497.88 591.13 
3381 311.54 498.11 591.13 
3382 319.52 498.02 591.13 
3383 329.03 499.05 591.13 
3384 414.36 499.85 591.13 
3385 424.35 499.65 591.13 
3386 399.51 501.92 591.13 
3387 437.31 500.63 591.13 
3388 354.01 500.36 591.13 
3389 341.02 501.88 591.13 
3390 398.46 499.36 591.13 
3391 366.61 501.39 591.13 
3392 340.27 502.90 591.13 
3393 266.01 503.60 591.13 
3394 319.91 500.57 591.13 
3395 312.25 502.56 591.13 
3396 418.67 502.32 591.13 
3397 287.77 503.57 591.13 
3398 473.98 503.53 591.13 
3399 412.67 504.60 591.13 
3400 295.56 504.06 591.13 
3401 411.45 503.81 591.13 
3402 332.23 503.50 591.13 
3403 319.90 503.54 591.13 
3404 445.09 500.02 591.13 
3405 380.35 500.30 591.13 
3406 417.30 500.27 591.13 
3407 526.21 497.76 591.13 
3408 497.66 496.98 591.13 
3409 387.06 497.25 591.13 
3410 342.46 496.94 591.13 
3411 434.00 497.44 591.13 
3412 368.17 498.23 591.13 
3413 382.25 497.13 591.13 
3414 258.88 496.10 591.13 
3415 311.90 496.09 591.13 
3416 374.77 496.39 591.13 
3417 391.73 496.40 591.13 
3418 400.99 496.64 591.13 
3419 389.05 496.93 591.13 
3420 372.62 496.70 591.13 
3421 468.67 496.94 591.13 
3422 353.11 497.42 591.13 
3423 391.61 498.94 591.13 
3424 401.83 499.69 591.13 
3425 477.63 502.94 591.13 
3426 364.65 502.97 591.13 
3427 316.20 502.95 591.13 
3428 478.89 502.42 591.13 
3429 431.72 502.63 591.13 
3430 279.07 502.08 591.13 
3431 317.04 501.82 591.13 
3432 432.98 499.80 591.13 
3433 467.64 501.11 591.13 
3434 337.32 500.77 591.13 
3435 399.00 500.23 591.13 
3436 323.65 500.71 591.13 
3437 343.40 500.48 591.13 
3438 449.47 500.47 591.13 
3439 339.68 500.77 591.13 
3440 419.19 500.78 591.13 
3441 420.50 501.54 591.13 
3442 474.30 501.31 591.13 
3443 397.11 501.81 591.13 
3444 334.03 501.28 591.13 
3445 383.20 500.48 591.13 
3446 378.78 500.74 591.13 
3447 431.62 500.71 591.13 
3448 277.83 500.17 591.13 
3449 351.11 498.66 591.13 
3450 385.24 499.16 591.13 
3451 370.91 497.86 591.13 
3452 237.48 500.39 591.13 
3453 422.88 497.60 591.13 
3454 345.14 497.56 591.13 
3455 313.38 496.03 591.13 
3456 436.63 493.26 591.13 
3457 386.87 493.22 591.13 
3458 354.07 492.73 591.13 
3459 405.83 494.07 591.13 
3460 309.45 494.33 591.13 
3461 292.79 494.80 591.13 
3462 265.28 493.52 591.13 
3463 388.75 494.50 591.13 
3464 347.52 493.26 591.13 
3465 356.12 493.58 591.13 
3466 432.28 491.76 591.13 
3467 390.85 492.53 591.13 
3468 398.79 491.75 591.13 
3469 167.08 491.69 591.13 
3470 341.57 491.15 591.13 
3471 394.20 490.37 591.13 
3472 481.26 490.62 591.13 
3473 365.55 490.90 591.13 
3474 294.12 490.07 591.13 
3475 286.33 489.82 591.13 
3476 451.56 491.13 591.13 
3477 256.42 490.86 591.13 
3478 348.72 489.83 591.13 
3479 407.68 487.24 591.13 
3480 416.74 485.97 591.13 
3481 335.91 485.47 591.13 
3482 402.79 485.71 591.13 
3483 355.87 485.76 591.13 
3484 370.84 485.24 591.13 
3485 437.95 486.22 591.13 
3486 370.21 486.23 591.13 
3487 342.08 484.95 591.13 
3488 444.55 485.21 591.13 
3489 341.79 484.72 591.13 
3490 296.14 483.69 591.13 
3491 381.27 484.45 591.13 
3492 353.17 484.72 591.13 
3493 438.66 482.93 591.13 
3494 257.40 482.22 591.13 
3495 501.39 480.46 591.13 
3496 373.96 483.73 591.13 
3497 381.79 482.75 591.13 
3498 457.47 483.03 591.13 
3499 258.32 478.79 591.13 
3500 569.93 477.26 591.13 
3501 350.14 477.01 591.13 
3502 359.26 475.71 591.13 
3503 393.82 475.72 591.13 
3504 304.36 476.44 591.13 
3505 312.22 473.10 591.13 
3506 271.29 471.36 591.13 
3507 388.71 472.40 591.13 
3508 354.53 473.16 591.13 
3509 359.89 475.46 591.13 
3510 407.48 475.49 591.13 
3511 419.48 474.48 591.13 
3512 479.65 474.49 591.13 
3513 325.08 476.55 591.13 
3514 405.01 477.61 591.13 
3515 353.19 476.06 591.13 
3516 364.07 478.10 591.13 
3517 368.66 478.37 591.13 
3518 465.40 478.85 591.13 
3519 327.05 479.66 591.13 
3520 320.95 479.40 591.13 
3521 423.69 480.18 591.13 
3522 291.54 480.21 591.13 
3523 314.66 480.97 591.13 
3524 331.07 482.23 591.13 
3525 374.35 482.48 591.13 
3526 357.90 483.00 591.13 
3527 449.21 483.49 591.13 
3528 298.37 483.49 591.13 
3529 461.24 483.27 591.13 
3530 478.49 481.99 591.13 
3531 272.34 481.72 591.13 
3532 333.29 478.88 591.13 
3533 424.68 477.81 591.13 
3534 357.68 478.31 591.13 
3535 281.54 479.84 591.13 
3536 319.32 480.41 591.13 
3537 304.97 478.69 591.13 
3538 384.38 477.63 591.13 
3539 287.18 477.94 591.13 
3540 340.81 478.66 591.13 
3541 345.30 480.22 591.13 
3542 272.17 479.97 591.13 
3543 363.37 478.66 591.13 
3544 430.46 479.18 591.13 
3545 377.80 479.73 591.13 
3546 331.88 480.02 591.13 
3547 421.11 481.58 591.13 
3548 359.66 480.83 591.13 
3549 374.75 479.80 591.13 
3550 345.88 480.06 591.13 
3551 396.02 479.51 591.13 
3552 295.92 479.26 591.13 
3553 347.97 477.96 591.13 
3554 510.65 478.77 591.13 
3555 415.02 478.01 591.13 
3556 305.59 479.03 591.13 
3557 341.79 479.04 591.13 
3558 322.37 480.30 591.13 
3559 282.78 481.84 591.13 
3560 268.45 481.81 591.13 
3561 302.01 481.32 591.13 
3562 408.04 480.07 591.13 
3563 300.00 480.56 591.13 
3564 342.56 480.03 591.13 
3565 399.46 479.53 591.13 
3566 303.84 480.56 591.13 
3567 423.08 481.10 591.13 
3568 503.99 481.58 591.13 
3569 375.56 481.81 591.13 
3570 315.64 481.00 591.13 
3571 323.66 480.97 591.13 
3572 350.08 481.23 591.13 
3573 459.60 481.18 591.13 
3574 393.94 480.21 591.13 
3575 319.66 479.46 591.13 
3576 314.07 479.21 591.13 
3577 421.78 479.50 591.13 
3578 390.26 480.79 591.13 
3579 445.14 480.77 591.13 
3580 371.83 480.46 591.13 
3581 406.79 481.24 591.13 
3582 309.47 481.50 591.13 
3583 288.38 482.46 591.13 
3584 422.91 480.94 591.13 
3585 367.48 479.38 591.13 
3586 369.83 479.42 591.13 
3587 431.80 479.71 591.13 
3588 216.47 480.22 591.13 
3589 404.41 480.69 591.13 
3590 336.85 480.98 591.13 
3591 340.45 479.70 591.13 
3592 343.63 479.19 591.13 
3593 434.35 480.18 591.13 
3594 304.33 478.89 591.13 
3595 364.74 478.88 591.13 
3596 356.26 477.61 591.13 
3597 361.38 478.36 591.13 
3598 450.43 478.16 591.13 
3599 218.12 478.40 591.13 
3600 411.64 478.91 591.13 
3601 341.46 478.70 591.13 
3602 259.79 480.18 591.13 
3603 386.87 479.43 591.13 
3604 277.63 480.19 591.13 
3605 322.43 480.21 591.13 
3606 448.40 478.93 591.13 
3607 364.98 478.43 591.13 
3608 364.66 475.84 591.13 
3609 345.56 474.79 591.13 
3610 370.29 474.55 591.13 
3611 364.89 476.16 591.13 
3612 416.37 477.72 591.13 
3613 407.36 476.15 591.13 
3614 365.45 477.94 591.13 
3615 340.53 477.91 591.13 
3616 322.67 479.25 591.13 
3617 402.35 481.01 591.13 
3618 337.88 481.28 591.13 
3619 362.16 480.55 591.13 
3620 402.14 481.05 591.13 
3621 439.68 480.50 591.13 
3622 422.51 479.98 591.13 
3623 449.08 479.95 591.13 
3624 378.77 480.95 591.13 
3625 286.06 481.47 591.13 
3626 433.22 481.97 591.13 
3627 223.50 481.29 591.13 
3628 334.47 481.26 591.13 
3629 302.39 481.83 591.13 
3630 399.27 482.11 591.13 
3631 413.97 482.81 591.13 
3632 320.35 481.82 591.13 
3633 395.45 481.79 591.13 
3634 423.61 481.31 591.13 
3635 313.98 479.50 591.13 
3636 355.61 478.95 591.13 
3637 464.58 478.22 591.13 
3638 346.41 477.95 591.13 
3639 377.42 479.21 591.13 
3640 309.06 478.45 591.13 
3641 370.24 478.22 591.13 
3642 349.55 479.25 591.13 
3643 408.89 479.24 591.13 
3644 407.46 479.51 591.13 
3645 404.04 478.48 591.13 
3646 452.03 479.01 591.13 
3647 343.04 478.25 591.13 
3648 402.70 479.05 591.13 
3649 418.99 479.04 591.13 
3650 372.00 478.23 591.13 
3651 358.85 478.98 591.13 
3652 278.64 478.75 591.13 
3653 311.75 477.92 591.13 
3654 262.00 477.99 591.13 
3655 315.09 476.92 591.13 
3656 242.50 477.15 591.13 
3657 398.19 478.22 591.13 
3658 385.15 477.74 591.13 
3659 421.02 477.50 591.13 
3660 287.64 477.81 591.13 
3661 361.82 477.02 591.13 
3662 306.73 476.72 591.13 
3663 373.91 476.94 591.13 
3664 401.47 477.21 591.13 
3665 398.04 478.23 591.13 
3666 281.75 477.93 591.13 
3667 318.69 479.19 591.13 
3668 333.22 481.48 591.13 
3669 375.70 482.57 591.13 
3670 373.87 483.63 591.13 
3671 317.85 485.20 591.13 
3672 465.15 485.74 591.13 
3673 349.27 487.83 591.13 
3674 354.77 487.28 591.13 
3675 425.40 486.49 591.13 
3676 296.08 486.24 591.13 
3677 370.98 486.24 591.13 
3678 355.99 487.03 591.13 
3679 372.66 488.54 591.13 
3680 445.29 489.29 591.13 
3681 400.83 490.72 591.13 
3682 361.88 487.95 591.13 
3683 330.64 492.50 591.13 
3684 368.93 492.77 591.13 
3685 364.81 492.28 591.13 
3686 264.96 494.06 591.13 
3687 370.93 493.56 591.13 
3688 512.19 493.30 591.13 
3689 362.26 493.84 591.13 
3690 249.76 493.29 591.13 
3691 318.44 494.11 591.13 
3692 317.61 494.64 591.13 
3693 324.35 496.25 591.13 
3694 419.50 497.78 591.13 
3695 339.61 496.76 591.13 
3696 350.22 497.26 591.13 
3697 357.22 496.74 591.13 
3698 310.05 497.57 591.13 
3699 284.97 497.35 591.13 
3700 235.58 496.86 591.13 
3701 336.53 497.62 591.13 
3702 312.67 496.22 591.13 
3703 187.64 496.59 591.13 
3704 363.32 495.86 591.13 
3705 259.72 495.58 591.13 
3706 262.79 492.25 591.13 
3707 289.62 495.23 591.13 
3708 266.57 495.94 591.13 
3709 395.14 495.41 591.13 
3710 351.12 494.86 591.13 
3711 436.91 497.40 591.13 
3712 273.86 496.88 591.13 
3713 360.84 495.93 591.13 
3714 379.08 496.17 591.13 
3715 396.75 496.43 591.13 
3716 434.18 496.62 591.13 
3717 445.86 497.65 591.13 
3718 515.92 497.36 591.13 
3719 392.61 500.60 591.13 
3720 422.03 499.86 591.13 
3721 384.55 500.95 591.13 
3722 309.97 501.23 591.13 
3723 308.38 500.90 591.13 
3724 347.60 500.65 591.13 
3725 189.09 500.61 591.13 
3726 369.43 501.14 591.13 
3727 380.77 501.44 591.13 
3728 386.15 501.50 591.13 
3729 344.81 501.26 591.13 
3730 361.80 502.04 591.13 
3731 327.84 501.07 591.13 
3732 379.72 502.34 591.13 
3733 244.52 502.60 591.13 
3734 387.24 501.82 591.13 
3735 297.01 500.34 591.13 
3736 306.25 499.86 591.13 
3737 318.82 496.16 591.13 
3738 350.67 498.42 591.13 
3739 259.96 497.96 591.13 
3740 429.11 499.43 591.13 
3741 323.57 498.15 591.13 
3742 311.82 496.64 591.13 
3743 331.75 496.90 591.13 
3744 365.66 497.62 591.13 
3745 293.91 496.87 591.13 
3746 412.53 496.59 591.13 
3747 409.94 498.82 591.13 
3748 318.43 498.63 591.13 
3749 351.83 497.13 591.13 
3750 410.93 496.09 591.13 
3751 415.71 497.85 591.13 
3752 508.39 498.11 591.13 
3753 446.37 498.33 591.13 
3754 390.77 498.59 591.13 
3755 502.88 498.80 591.13 
3756 259.97 499.57 591.13 
3757 397.72 500.30 591.13 
3758 359.90 499.84 591.13 
3759 361.71 500.29 591.13 
3760 393.33 499.05 591.13 
3761 309.86 499.33 591.13 
3762 480.71 498.57 591.13 
3763 342.05 497.53 591.13 
3764 361.87 498.50 591.13 
3765 372.68 498.95 591.13 
3766 355.10 498.69 591.13 
3767 252.87 499.21 591.13 
3768 323.79 497.72 591.13 
3769 358.62 498.70 591.13 
3770 330.83 499.93 591.13 
3771 448.34 498.68 591.13 
3772 403.18 498.97 591.13 
3773 356.34 498.24 591.13 
3774 381.22 496.19 591.13 
3775 334.86 496.71 591.13 
3776 358.17 497.51 591.13 
3777 344.62 497.01 591.13 
3778 407.43 497.47 591.13 
3779 312.60 497.48 591.13 
3780 280.86 496.96 591.13 
3781 394.04 498.18 591.13 
3782 403.11 497.67 591.13 
3783 285.08 498.97 591.13 
3784 336.94 499.45 591.13 
3785 330.65 499.69 591.13 
3786 349.85 498.17 591.13 
3787 393.04 498.42 591.13 
3788 361.75 499.40 591.13 
3789 332.23 500.63 591.13 
3790 214.68 500.15 591.13 
3791 325.79 500.64 591.13 
3792 381.22 500.10 591.13 
3793 357.61 499.34 591.13 
3794 519.39 500.60 591.13 
3795 477.30 499.15 591.13 
3796 266.54 499.14 591.13 
3797 381.10 500.91 591.13 
3798 376.58 499.63 591.13 
3799 393.85 500.39 591.13 
3800 409.78 501.36 591.13 
3801 308.41 501.13 591.13 
3802 339.67 501.38 591.13 
3803 370.08 501.08 591.13 
3804 362.95 501.31 591.13 
3805 329.47 501.34 591.13 
3806 350.33 501.07 591.13 
3807 285.91 500.84 591.13 
3808 274.36 500.59 591.13 
3809 338.46 500.58 591.13 
3810 565.76 500.56 591.13 
3811 294.07 500.58 591.13 
3812 346.94 500.83 591.13 
3813 387.38 500.56 591.13 
3814 310.05 500.84 591.13 
3815 274.34 500.33 591.13 
3816 322.32 500.07 591.13 
3817 352.47 499.89 591.13 
3818 383.06 499.85 591.13 
3819 466.18 500.17 591.13 
3820 315.41 499.92 591.13 
3821 376.27 500.22 591.13 
3822 382.41 500.50 591.13 
3823 405.14 500.47 591.13 
3824 404.18 498.48 591.13 
3825 330.45 499.38 591.13 
3826 388.87 499.80 591.13 
3827 368.85 499.75 591.13 
3828 474.29 497.99 591.13 
3829 326.56 495.45 591.13 
3830 541.92 496.18 591.13 
3831 511.99 496.47 591.13 
3832 365.91 494.72 591.13 
3833 327.15 494.41 591.13 
3834 393.93 495.17 591.13 
3835 422.50 495.40 591.13 
3836 451.40 496.93 591.13 
3837 290.32 495.69 591.13 
3838 317.78 494.90 591.13 
3839 377.92 494.87 591.13 
3840 457.43 494.87 591.13 
3841 360.24 495.61 591.13 
3842 188.85 495.70 591.13 
3843 335.16 495.18 591.13 
3844 401.09 496.19 591.13 
3845 374.92 495.62 591.13 
3846 499.54 492.64 591.13 
3847 381.44 494.09 591.13 
3848 443.40 493.33 591.13 
3849 366.32 488.62 591.13 
3850 413.92 489.14 591.13 
3851 361.07 489.60 591.13 
3852 294.73 488.36 591.13 
3853 410.93 488.82 591.13 
3854 418.87 488.20 591.13 
3855 362.21 488.42 591.13 
3856 302.81 490.99 591.13 
3857 299.12 493.43 591.13 
3858 279.99 491.87 591.13 
3859 310.67 486.77 591.13 
3860 315.94 486.18 591.13 
3861 276.88 493.03 591.13 
3862 315.33 489.13 591.13 
3863 400.09 492.18 591.13 
3864 411.67 497.37 591.13 
3865 351.89 496.35 591.13 
3866 354.88 495.80 591.13 
3867 346.70 494.46 591.13 
3868 398.56 494.02 591.13 
3869 319.94 492.79 591.13 
3870 253.58 491.35 591.13 
3871 369.54 490.58 591.13 
3872 281.38 490.48 591.13 
3873 489.63 490.43 591.13 
3874 427.40 489.77 591.13 
3875 386.10 490.59 591.13 
3876 339.30 490.72 591.13 
3877 377.99 490.91 591.13 
3878 328.81 489.15 591.13 
3879 245.15 486.40 591.13 
3880 420.91 486.66 591.13 
3881 434.12 487.61 591.13 
3882 434.69 484.92 591.13 
3883 271.07 487.05 591.13 
3884 375.56 485.91 591.13 
3885 378.72 484.64 591.13 
3886 345.61 484.35 591.13 
3887 416.59 483.79 591.13 
3888 190.30 484.01 591.13 
3889 313.41 483.71 591.13 
3890 371.17 484.42 591.13 
3891 231.89 484.16 591.13 
3892 333.57 485.40 591.13 
3893 262.42 486.16 591.13 
3894 408.04 485.90 591.13 
3895 348.35 485.68 591.13 
3896 401.82 483.91 591.13 
3897 330.77 483.69 591.13 
3898 317.26 484.28 591.13 
3899 292.18 485.83 591.13 
3900 297.48 485.92 591.13 
3901 346.22 485.96 591.13 
3902 332.82 487.03 591.13 
3903 379.38 488.04 591.13 
3904 456.27 487.28 591.13 
3905 337.90 487.55 591.13 
3906 279.89 487.24 591.13 
3907 406.62 486.96 591.13 
3908 319.13 486.40 591.13 
3909 348.89 487.63 591.13 
3910 387.67 487.98 591.13 
3911 404.28 487.20 591.13 
3912 338.00 487.73 591.13 
3913 358.94 487.81 591.13 
3914 403.79 487.60 591.13 
3915 402.03 488.08 591.13 
3916 247.86 487.26 591.13 
3917 350.40 486.56 591.13 
3918 293.05 486.83 591.13 
3919 322.59 486.05 591.13 
3920 347.85 488.60 591.13 
3921 469.68 489.19 591.13 
3922 333.66 489.93 591.13 
3923 348.67 490.47 591.13 
3924 356.60 491.00 591.13 
3925 322.73 489.77 591.13 
3926 307.75 491.23 591.13 
3927 297.40 491.42 591.13 
3928 352.62 490.72 591.13 
3929 365.86 491.48 591.13 
3930 309.89 491.99 591.13 
3931 339.03 491.04 591.13 
3932 333.31 489.57 591.13 
3933 327.87 489.02 591.13 
3934 350.55 488.52 591.13 
3935 389.12 489.23 591.13 
3936 351.17 488.92 591.13 
3937 363.81 490.47 591.13 
3938 323.96 491.42 591.13 
3939 322.60 491.43 591.13 
3940 424.30 491.18 591.13 
3941 166.75 489.68 591.13 
3942 338.73 490.22 591.13 
3943 392.95 491.48 591.13 
3944 445.47 492.00 591.13 
3945 375.25 493.18 591.13 
3946 423.52 493.92 591.13 
3947 439.46 493.14 591.13 
3948 380.60 494.31 591.13 
3949 508.74 493.40 591.13 
3950 400.22 495.85 591.13 
3951 339.12 497.82 591.13 
3952 369.78 495.80 591.13 
3953 325.26 495.98 591.13 
3954 372.27 495.51 591.13 
3955 311.60 495.50 591.13 
3956 289.44 496.30 591.13 
3957 403.96 495.53 591.13 
3958 318.37 496.81 591.13 
3959 405.17 497.78 591.13 
3960 346.60 497.11 591.13 
3961 379.32 497.42 591.13 
3962 401.98 497.47 591.13 
3963 423.30 497.73 591.13 
3964 399.72 495.23 591.13 
3965 404.78 493.43 591.13 
3966 389.41 495.17 591.13 
3967 416.90 494.23 591.13 
3968 231.00 497.01 591.13 
3969 311.60 497.48 591.13 
3970 365.30 496.98 591.13 
3971 342.08 497.47 591.13 
3972 366.05 497.38 591.13 
3973 409.04 497.46 591.13 
3974 347.15 496.90 591.13 
3975 407.97 493.93 591.13 
3976 422.59 493.91 591.13 
3977 344.88 493.88 591.13 
3978 398.04 498.13 591.13 
3979 364.31 498.38 591.13 
3980 391.49 497.63 591.13 
3981 410.72 496.62 591.13 
3982 428.04 496.01 591.13 
3983 408.12 496.79 591.13 
3984 311.92 497.49 591.13 
3985 294.42 497.43 591.13 
3986 531.33 498.14 591.13 
3987 388.07 498.57 591.13 
3988 325.42 498.49 591.13 
3989 392.92 498.86 591.13 
3990 335.90 499.12 591.13 
3991 385.96 498.71 591.13 
3992 297.94 499.19 591.13 
3993 327.02 498.82 591.13 
3994 185.66 499.35 591.13 
3995 286.53 499.33 591.13 
3996 329.24 498.84 591.13 
3997 325.35 499.88 591.13 
3998 429.09 500.40 591.13 
3999 328.55 500.62 591.13 
4000 340.30 499.88 591.13 
4001 437.12 500.29 591.13 
4002 326.36 499.85 591.13 
4003 417.40 499.75 591.13 
4004 388.14 499.09 591.13 
4005 398.67 500.13 591.13 
4006 440.47 500.35 591.13 
4007 399.71 500.90 591.13 
4008 284.69 500.41 591.13 
4009 347.48 501.35 591.13 
4010 333.74 500.85 591.13 
4011 382.28 500.63 591.13 
4012 429.37 500.62 591.13 
4013 384.49 501.36 591.13 
4014 382.32 501.63 591.13 
4015 375.08 501.38 591.13 
4016 410.58 500.91 591.13 
4017 378.92 501.14 591.13 
4018 367.31 500.66 591.13 
4019 373.09 500.94 591.13 
4020 299.50 501.13 591.13 
4021 292.83 500.61 591.13 
4022 281.46 500.42 591.13 
4023 293.27 499.68 591.13 
4024 257.44 499.62 591.13 
4025 421.05 499.86 591.13 
4026 413.46 500.09 591.13 
4027 342.19 500.08 591.13 
4028 448.59 500.58 591.13 
4029 360.69 501.30 591.13 
4030 252.02 501.66 591.13 
4031 366.98 501.37 591.13 
4032 260.84 500.56 591.13 
4033 319.32 500.31 591.13 
4034 369.42 500.60 591.13 
4035 373.91 499.65 591.13 
4036 322.23 499.89 591.13 
4037 213.89 499.78 591.13 
4038 317.02 500.84 591.13 
4039 391.67 500.59 591.13 
4040 420.53 501.38 591.13 
4041 403.58 501.38 591.13 
4042 383.88 502.14 591.13 
4043 275.29 502.41 591.13 
4044 435.36 502.39 591.13 
4045 376.03 502.61 591.13 
4046 319.89 502.05 591.13 
4047 364.37 503.30 591.13 
4048 280.68 502.01 591.13 
4049 379.24 501.56 591.13 
4050 333.99 501.02 591.13 
4051 425.13 500.72 591.13 
4052 330.17 500.51 591.13 
4053 372.20 499.94 591.13 
4054 377.59 499.94 591.13 
4055 409.11 499.40 591.13 
4056 338.42 499.16 591.13 
4057 469.48 498.87 591.13 
4058 401.44 497.40 591.13 
4059 257.16 496.91 591.13 
4060 364.13 497.97 591.13 
4061 374.68 497.91 591.13 
4062 321.66 498.35 591.13 
4063 255.96 498.30 591.13 
4064 261.14 498.57 591.13 
4065 272.21 498.33 591.13 
4066 291.97 499.64 591.13 
4067 392.30 499.86 591.13 
4068 454.41 499.37 591.13 
4069 349.43 500.29 591.13 
4070 333.37 501.26 591.13 
4071 405.33 501.08 591.13 
4072 338.09 501.35 591.13 
4073 298.19 501.60 591.13 
4074 281.40 500.34 591.13 
4075 441.19 501.40 591.13 
4076 428.72 501.57 591.13 
4077 334.63 500.58 591.13 
4078 307.53 501.53 591.13 
4079 377.35 500.11 591.13 
4080 316.67 500.68 591.13 
4081 370.39 500.89 591.13 
4082 323.04 501.29 591.13 
4083 330.50 501.55 591.13 
4084 373.39 502.03 591.13 
4085 468.75 501.00 591.13 
4086 346.17 500.81 591.13 
4087 325.01 499.76 591.13 
4088 424.33 499.10 591.13 
4089 430.05 498.87 591.13 
4090 417.30 499.50 591.13 
4091 367.66 499.84 591.13 
4092 409.87 500.04 591.13 
4093 291.92 500.12 591.13 
4094 308.23 499.45 591.13 
4095 373.84 499.94 591.13 
4096 391.10 500.83 591.13 
4097 346.12 502.33 591.13 
4098 378.90 502.61 591.13 
4099 301.10 502.36 591.13 
4100 416.28 506.34 591.13 
4101 412.36 506.07 591.13 
4102 281.15 505.77 591.13 
4103 331.54 505.52 591.13 
4104 310.31 502.06 591.13 
4105 172.05 501.80 591.13 
4106 261.70 501.84 591.13 
4107 336.16 502.82 591.13 
4108 281.44 503.06 591.13 
4109 403.13 502.55 591.13 
4110 448.82 502.52 591.13 
4111 352.60 501.24 591.13 
4112 342.12 500.62 591.13 
4113 333.16 500.93 591.13 
4114 356.92 500.76 591.13 
4115 337.02 503.77 591.13 
4116 406.09 501.05 591.13 
4117 281.73 501.01 591.13 
4118 409.01 498.77 591.13 
4119 262.42 499.34 591.13 
4120 336.16 498.93 591.13 
4121 317.71 500.08 591.13 
4122 350.33 498.66 591.13 
4123 408.25 498.85 591.13 
4124 395.42 498.54 591.13 
4125 381.15 499.15 591.13 
4126 264.43 499.28 591.13 
4127 364.76 501.20 591.13 
4128 434.28 500.44 591.13 
4129 383.52 500.17 591.13 
4130 349.20 498.06 591.13 
4131 282.77 497.32 591.13 
4132 423.10 497.27 591.13 
4133 387.84 497.66 591.13 
4134 434.17 496.95 591.13 
4135 262.44 497.07 591.13 
4136 347.22 497.17 591.13 
4137 250.83 497.41 591.13 
4138 354.69 496.33 591.13 
4139 344.66 496.91 591.13 
4140 286.60 496.69 591.13 
4141 383.12 496.94 591.13 
4142 306.54 496.38 591.13 
4143 420.52 496.89 591.13 
4144 383.73 497.21 591.13 
4145 361.48 497.89 591.13 
4146 316.74 496.93 591.13 
4147 387.17 495.41 591.13 
4148 375.19 495.45 591.13 
4149 375.94 494.58 591.13 
4150 418.82 495.42 591.13 
4151 393.92 494.90 591.13 
4152 429.63 495.88 591.13 
4153 389.06 497.73 591.13 
4154 365.78 498.51 591.13 
4155 271.43 498.60 591.13 
4156 371.24 497.88 591.13 
4157 397.06 497.84 591.13 
4158 329.10 498.24 591.13 
4159 287.78 497.68 591.13 
4160 355.75 497.58 591.13 
4161 312.24 498.65 591.13 
4162 495.97 498.30 591.13 
4163 381.69 498.02 591.13 
4164 307.91 496.85 591.13 
4165 354.93 497.08 591.13 
4166 206.77 497.07 591.13 
4167 422.94 497.31 591.13 
4168 261.04 496.22 591.13 
4169 345.86 496.48 591.13 
4170 421.78 496.21 591.13 
4171 359.53 496.17 591.13 
4172 453.07 496.33 591.13 
4173 421.63 496.00 591.13 
4174 409.17 496.36 591.13 
4175 325.10 496.95 591.13 
4176 511.08 497.46 591.13 
4177 450.82 496.84 591.13 
4178 351.18 494.27 591.13 
4179 399.51 493.74 591.13 
4180 430.72 494.10 591.13 
4181 358.89 492.81 591.13 
4182 301.70 491.28 591.13 
4183 319.95 491.32 591.13 
4184 433.31 491.06 591.13 
4185 341.56 489.56 591.13 
4186 248.65 489.04 591.13 
4187 408.23 489.06 591.13 
4188 358.41 487.84 591.13 
4189 381.06 488.62 591.13 
4190 384.74 488.04 591.13 
4191 386.43 487.73 591.13 
4192 395.31 488.27 591.13 
4193 234.64 488.26 591.13 
4194 305.79 488.31 591.13 
4195 425.27 488.57 591.13 
4196 297.14 487.01 591.13 
4197 528.91 487.54 591.13 
4198 264.49 488.31 591.13 
4199 369.34 488.11 591.13 
4200 340.70 487.81 591.13 
4201 278.89 488.37 591.13 
4202 379.87 488.38 591.13 
4203 444.43 487.63 591.13 
4204 446.58 488.15 591.13 
4205 342.80 486.61 591.13 
4206 392.94 488.13 591.13 
4207 307.14 489.92 591.13 
4208 370.10 490.48 591.13 
4209 535.23 489.91 591.13 
4210 346.18 490.45 591.13 
4211 444.18 490.73 591.13 
4212 330.15 490.94 591.13 
4213 388.49 491.45 591.13 
4214 471.74 492.20 591.13 
4215 363.88 491.65 591.13 
4216 274.93 491.67 591.13 
4217 404.16 492.20 591.13 
4218 382.36 492.71 591.13 
4219 385.84 492.94 591.13 
4220 441.95 492.16 591.13 
4221 359.55 492.93 591.13 
4222 527.25 493.52 591.13 
4223 399.61 494.29 591.13 
4224 381.14 495.09 591.13 
4225 520.51 495.59 591.13 
4226 414.37 496.33 591.13 
4227 300.67 496.81 591.13 
4228 282.64 495.81 591.13 
4229 438.96 495.60 591.13 
4230 598.12 496.12 591.13 
4231 340.55 495.08 598.12 
4232 398.93 495.37 598.12 
4233 368.09 495.35 598.12 
4234 322.99 495.39 598.12 
4235 346.34 496.17 598.12 
4236 453.78 495.90 598.12 
4237 400.44 495.38 598.12 
4238 295.93 495.67 598.12 
4239 263.93 495.61 598.12 
4240 310.46 495.09 598.12 
4241 342.54 495.39 598.12 
4242 253.95 495.16 598.12 
4243 410.05 494.36 598.12 
4244 309.61 495.66 598.12 
4245 457.44 494.88 598.12 
4246 286.57 495.90 598.12 
4247 408.67 495.35 598.12 
4248 484.84 495.60 598.12 
4249 513.12 496.86 598.12 
4250 466.54 496.87 598.12 
4251 377.72 496.60 598.12 
4252 337.99 497.30 598.12 
4253 386.85 497.24 598.12 
4254 397.25 496.88 598.12 
4255 469.71 497.31 598.12 
4256 420.83 496.37 598.12 
4257 521.33 495.68 598.12 
4258 372.03 495.75 598.12 
4259 427.01 496.00 598.12 
4260 348.96 495.52 598.12 
4261 343.17 495.29 598.12 
4262 380.19 494.99 598.12 
4263 387.99 495.78 598.12 
4264 348.62 496.82 598.12 
4265 452.60 496.59 598.12 
4266 375.08 497.33 598.12 
4267 243.25 497.52 598.12 
4268 357.65 497.72 598.12 
4269 413.84 497.77 598.12 
4270 240.03 497.28 598.12 
4271 341.66 497.28 598.12 
4272 313.07 496.80 598.12 
4273 400.37 497.28 598.12 
4274 313.88 497.72 598.12 
4275 311.73 497.22 598.12 
4276 382.09 496.47 598.12 
4277 446.19 496.73 598.12 
4278 412.96 496.48 598.12 
4279 353.74 496.51 598.12 
4280 427.33 496.26 598.12 
4281 357.31 496.76 598.12 
4282 303.62 496.59 598.12 
4283 423.93 496.11 598.12 
4284 304.93 496.35 598.12 
4285 418.08 496.65 598.12 
4286 214.81 496.41 598.12 
4287 353.99 496.94 598.12 
4288 308.15 496.94 598.12 
4289 402.44 497.91 598.12 
4290 359.42 498.19 598.12 
4291 434.29 498.45 598.12 
4292 321.04 498.38 598.12 
4293 360.85 497.58 598.12 
4294 401.97 497.57 598.12 
4295 242.37 496.82 598.12 
4296 396.36 497.56 598.12 
4297 333.08 496.63 598.12 
4298 325.69 497.14 598.12 
4299 350.75 496.14 598.12 
4300 321.02 496.17 598.12 
4301 328.00 496.24 598.12 
4302 306.46 496.37 598.12 
4303 377.41 497.50 598.12 
4304 338.11 497.52 598.12 
4305 339.35 498.04 598.12 
4306 397.19 498.27 598.12 
4307 371.01 498.02 598.12 
4308 322.57 498.79 598.12 
4309 464.35 498.50 598.12 
4310 303.67 498.26 598.12 
4311 386.94 498.80 598.12 
4312 417.23 498.83 598.12 
4313 534.91 499.10 598.12 
4314 232.90 499.09 598.12 
4315 348.37 499.13 598.12 
4316 335.03 499.40 598.12 
4317 329.41 499.66 598.12 
4318 264.10 499.40 598.12 
4319 422.92 499.17 598.12 
4320 583.63 499.45 598.12 
4321 281.42 499.91 598.12 
4322 382.75 499.41 598.12 
4323 411.76 499.65 598.12 
4324 353.09 499.37 598.12 
4325 278.60 498.85 598.12 
4326 304.46 498.64 598.12 
4327 391.28 499.63 598.12 
4328 421.59 498.84 598.12 
4329 432.91 498.19 598.12 
4330 275.79 498.39 598.12 
4331 377.54 498.28 598.12 
4332 323.26 497.31 598.12 
4333 344.61 497.60 598.12 
4334 324.26 498.61 598.12 
4335 383.25 498.20 598.12 
4336 337.33 498.66 598.12 
4337 325.17 498.42 598.12 
4338 282.30 499.46 598.12 
4339 497.19 499.14 598.12 
4340 328.14 499.07 598.12 
4341 326.63 498.14 598.12 
4342 395.24 498.59 598.12 
4343 325.70 499.30 598.12 
4344 361.08 499.82 598.12 
4345 425.01 499.30 598.12 
4346 442.97 499.28 598.12 
4347 476.49 499.80 598.12 
4348 316.92 499.17 598.12 
4349 459.81 499.68 598.12 
4350 420.87 499.66 598.12 
4351 386.46 499.70 598.12 
4352 441.00 500.00 598.12 
4353 353.67 500.57 598.12 
4354 312.80 501.17 598.12 
4355 294.89 500.68 598.12 
4356 425.83 499.89 598.12 
4357 359.65 500.37 598.12 
4358 318.23 500.67 598.12 
4359 540.89 500.43 598.12 
4360 406.00 500.44 598.12 
4361 250.41 500.42 598.12 
4362 294.53 499.97 598.12 
4363 339.57 499.98 598.12 
4364 427.54 500.00 598.12 
4365 319.70 499.76 598.12 
4366 410.30 499.77 598.12 
4367 291.34 499.51 598.12 
4368 509.03 500.29 598.12 
4369 473.02 500.56 598.12 
4370 379.64 499.97 598.12 
4371 416.48 499.37 598.12 
4372 460.93 499.73 598.12 
4373 297.28 499.73 598.12 
4374 384.40 500.44 598.12 
4375 455.49 499.93 598.12 
4376 399.68 499.90 598.12 
4377 400.92 500.63 598.12 
4378 401.39 500.73 598.12 
4379 378.27 500.21 598.12 
4380 396.43 499.93 598.12 
4381 377.00 499.75 598.12 
4382 308.92 499.24 598.12 
4383 321.96 498.94 598.12 
4384 329.58 498.94 598.12 
4385 381.74 498.68 598.12 
4386 384.17 498.41 598.12 
4387 330.13 498.38 598.12 
4388 391.43 498.65 598.12 
4389 447.09 498.68 598.12 
4390 400.63 498.39 598.12 
4391 394.95 498.40 598.12 
4392 322.21 498.36 598.12 
4393 309.60 498.85 598.12 
4394 250.16 499.14 598.12 
4395 421.92 499.06 598.12 
4396 407.34 499.07 598.12 
4397 404.41 498.80 598.12 
4398 298.04 498.79 598.12 
4399 367.87 499.02 598.12 
4400 489.17 500.01 598.12 
4401 352.95 500.26 598.12 
4402 403.31 500.21 598.12 
4403 413.08 498.90 598.12 
4404 272.18 499.51 598.12 
4405 312.52 498.77 598.12 
4406 381.73 498.76 598.12 
4407 275.48 498.82 598.12 
4408 335.01 499.09 598.12 
4409 360.05 499.84 598.12 
4410 444.64 500.13 598.12 
4411 370.38 499.35 598.12 
4412 412.13 500.41 598.12 
4413 338.82 500.74 598.12 
4414 371.91 500.79 598.12 
4415 461.33 500.30 598.12 
4416 460.52 500.05 598.12 
4417 361.30 499.78 598.12 
4418 269.78 500.02 598.12 
4419 338.77 500.29 598.12 
4420 300.06 499.74 598.12 
4421 378.90 500.02 598.12 
4422 377.96 500.22 598.12 
4423 408.47 499.46 598.12 
4424 343.95 499.71 598.12 
4425 376.33 500.00 598.12 
4426 412.50 498.73 598.12 
4427 231.22 498.19 598.12 
4428 406.96 497.46 598.12 
4429 409.39 498.26 598.12 
4430 383.98 498.57 598.12 
4431 337.07 498.81 598.12 
4432 278.82 498.88 598.12 
4433 260.09 499.86 598.12 
4434 361.52 499.09 598.12 
4435 385.68 499.63 598.12 
4436 432.22 499.86 598.12 
4437 365.19 499.41 598.12 
4438 349.13 500.04 598.12 
4439 460.06 499.58 598.12 
4440 402.33 501.90 598.12 
4441 262.44 502.95 598.12 
4442 372.04 502.92 598.12 
