Iter | Sampling Pol | Evaluation Pol | Best (Sampled) 
   0 -24.28 -10.95 -100000000.00 
   1 -22.43 -13.80 -24.28 
   2 -10.18 -13.86 -22.43 
   3 -10.66 -5.42 -10.18 
   4 -9.75 -19.39 -10.18 
   5 -9.03 -15.03 -9.75 
   6 -9.15 -4.30 -9.03 
   7 -7.45 -6.61 -9.03 
   8 -6.43 -10.65 -7.45 
   9 -6.05 -25.21 -6.43 
  10 -7.09 -11.20 -6.05 
  11  4.03 -9.56 -6.05 
  12 -8.24 -10.94  4.03 
  13 -9.52 -9.71  4.03 
  14 -7.39 -8.47  4.03 
  15 -5.97 -6.89  4.03 
  16 -1.97 -6.81  4.03 
  17 -2.00 -7.49  4.03 
  18 -3.91 22.30  4.03 
  19 -3.55  3.97  4.03 
  20  4.16 -7.03  4.03 
  21 -6.51 -7.94  4.16 
  22 -4.02  5.65  4.16 
  23 -2.12 12.94  4.16 
  24 -2.32  7.83  4.16 
  25 -5.82 -6.97  4.16 
  26  4.84 13.31  4.16 
  27 -2.16 -6.45  4.84 
  28  0.18 -3.13  4.84 
  29  1.30 -2.06  4.84 
  30 -0.79 -5.68  4.84 
  31  3.85 -6.11  4.84 
  32 11.88 13.37  4.84 
  33  3.46 -3.33 11.88 
  34  1.35 12.71 11.88 
  35  6.88 12.24 11.88 
  36 12.07 14.16 11.88 
  37  2.15 11.84 12.07 
  38  1.03 16.33 12.07 
  39 10.47 14.02 12.07 
  40 12.07 14.43 12.07 
  41  1.22 12.72 12.07 
  42  7.40 10.29 12.07 
  43  4.18 12.58 12.07 
  44  3.56 12.57 12.07 
  45  6.90 18.89 12.07 
  46 -0.43 16.43 12.07 
  47  3.15  9.91 12.07 
  48 16.64  9.33 12.07 
  49 10.31 -2.60 16.64 
  50 -0.90  9.31 16.64 
  51  4.90 -2.32 16.64 
  52  9.34 -7.32 16.64 
  53 12.35 -4.86 16.64 
  54 12.65 -2.37 16.64 
  55 16.67 -2.69 16.64 
  56  7.75 -8.44 16.67 
  57 14.10 -9.56 16.67 
  58 12.70 -9.65 16.67 
  59 19.79 -7.98 16.67 
  60 16.13 -7.65 19.79 
  61 20.04 -7.25 19.79 
  62 15.43 -8.68 20.04 
  63 12.31 -10.94 20.04 
  64 25.63 -7.49 20.04 
  65 13.70 -7.17 25.63 
  66 26.86 -8.59 25.63 
  67 28.14 -8.38 26.86 
  68 27.16 -10.85 28.14 
  69 17.01 -8.57 28.14 
  70 17.80 -7.34 28.14 
  71 19.96 -8.79 28.14 
  72 17.24 -6.72 28.14 
  73 22.54 -5.36 28.14 
  74 29.22 -2.41 28.14 
  75 12.22 -1.60 29.22 
  76 30.37 -6.33 29.22 
  77 29.55 -5.21 30.37 
  78 20.75 -5.11 30.37 
  79 25.31 -6.01 30.37 
  80 18.68 -5.26 30.37 
  81 19.01 -6.15 30.37 
  82 29.25 -5.75 30.37 
  83 35.38 -4.23 30.37 
  84 32.93 -2.59 35.38 
  85 27.60 -4.50 35.38 
  86 37.90 -4.44 35.38 
  87 45.79 -3.92 37.90 
  88 46.00 -2.83 45.79 
  89 44.87 -3.42 46.00 
  90 51.96 -5.68 46.00 
  91 35.05 -4.17 51.96 
  92 41.22 -4.12 51.96 
  93 51.47 -2.79 51.96 
  94 32.37  1.15 51.96 
  95 35.72 -4.59 51.96 
  96 55.19 -3.88 51.96 
  97 36.35 -5.16 55.19 
  98 28.52 -5.33 55.19 
  99 39.84 -3.56 55.19 
 100 55.99 -4.63 55.19 
 101 26.61 -2.82 55.99 
 102 29.12 -2.50 55.99 
 103 39.28 -2.90 55.99 
 104 33.76 -1.81 55.99 
 105 56.31 -2.05 55.99 
 106 27.05 -1.27 56.31 
 107 36.35  1.87 56.31 
 108 29.99  2.90 56.31 
 109 56.40 -0.20 56.31 
 110 63.04 -0.40 56.40 
 111 47.47 -1.02 63.04 
 112 67.63 -0.06 63.04 
 113 60.36 -2.04 67.63 
 114 51.77  3.56 67.63 
 115 53.47  3.40 67.63 
 116 49.82 -0.29 67.63 
 117 71.70  1.03 67.63 
 118 33.02  0.23 71.70 
 119 48.09  0.95 71.70 
 120 32.80  7.58 71.70 
 121 47.10  0.97 71.70 
 122 69.71  0.54 71.70 
 123 58.52 10.00 71.70 
 124 48.51  9.92 71.70 
 125 34.77 13.20 71.70 
 126 46.40 14.13 71.70 
 127 61.86  7.53 71.70 
 128 42.43 13.53 71.70 
 129 48.74 11.01 71.70 
 130 43.49  6.93 71.70 
 131 50.46  8.08 71.70 
 132 48.69 10.62 71.70 
 133 71.39  8.83 71.70 
 134 51.23 14.54 71.70 
 135 52.63  6.22 71.70 
 136 51.16  9.78 71.70 
 137 57.50 12.76 71.70 
 138 59.30 11.51 71.70 
 139 68.77 12.90 71.70 
 140 54.26 22.89 71.70 
 141 32.39  9.12 71.70 
 142 72.95 31.41 71.70 
 143 62.79 24.80 72.95 
 144 49.89 37.25 72.95 
 145 61.79 28.79 72.95 
 146 59.78 47.76 72.95 
 147 47.47 27.19 72.95 
 148 68.88 66.34 72.95 
 149 61.32 47.92 72.95 
 150 41.47 66.25 72.95 
 151 62.04 49.79 72.95 
 152 70.82 64.74 72.95 
 153 48.62 45.92 72.95 
 154 63.69 65.66 72.95 
 155 80.19 49.24 72.95 
 156 59.82 45.87 80.19 
 157 71.06 38.58 80.19 
 158 38.88  4.96 80.19 
 159 59.62 -1.29 80.19 
 160 59.86  8.81 80.19 
 161 73.73 38.73 80.19 
 162 78.20 30.81 80.19 
 163 35.01  8.71 80.19 
 164 81.90 24.14 80.19 
 165 70.66  8.07 81.90 
 166 63.98 30.84 81.90 
 167 79.79 20.08 81.90 
 168 63.37 21.68 81.90 
 169 105.28 23.97 81.90 
 170 60.13 21.41 105.28 
 171 67.63 24.96 105.28 
 172 44.60 44.50 105.28 
 173 69.51 47.15 105.28 
 174 80.94 38.21 105.28 
 175 88.38 49.85 105.28 
 176 72.68 38.30 105.28 
 177 74.87 32.52 105.28 
 178 67.42 15.10 105.28 
 179 50.18 53.55 105.28 
 180 99.97 64.36 105.28 
 181 77.33 80.44 105.28 
 182 81.33 46.23 105.28 
 183 99.49 55.25 105.28 
 184 50.82 55.61 105.28 
 185 46.19 60.08 105.28 
 186 96.97 40.07 105.28 
 187 75.28 61.52 105.28 
 188 59.50 50.50 105.28 
 189 100.30 53.43 105.28 
 190 90.02 70.61 105.28 
 191 56.50 73.12 105.28 
 192 87.48 81.92 105.28 
 193 71.23 51.39 105.28 
 194 81.98 48.53 105.28 
 195 80.33 62.31 105.28 
 196 78.74 60.26 105.28 
 197 71.37 61.58 105.28 
 198 62.97 67.58 105.28 
 199 51.28 57.60 105.28 
 200 67.31 34.72 105.28 
 201 60.78 47.14 105.28 
 202 88.04 51.89 105.28 
 203 63.84 54.97 105.28 
 204 63.04 70.13 105.28 
 205 79.77 69.52 105.28 
 206 72.05 65.62 105.28 
 207 59.02 89.41 105.28 
 208 45.04 110.66 105.28 
 209 59.67 103.39 105.28 
 210 81.93 102.84 105.28 
 211 97.77 99.59 105.28 
 212 42.02 95.02 105.28 
 213 95.85 76.12 105.28 
 214 84.26 80.56 105.28 
 215 94.17 87.03 105.28 
 216 85.50 91.13 105.28 
 217 44.64 104.77 105.28 
 218 53.61 99.45 105.28 
 219 53.31 104.26 105.28 
 220 67.78 78.35 105.28 
 221 83.03 54.21 105.28 
 222 75.72 90.93 105.28 
 223 70.85 120.41 105.28 
 224 55.28 108.06 105.28 
 225 84.68 124.69 105.28 
 226 74.08 109.32 105.28 
 227 57.12 100.03 105.28 
 228 59.23 119.40 105.28 
 229 84.16 120.16 105.28 
 230 41.13 114.72 105.28 
 231 88.23 115.60 105.28 
 232 70.56 128.04 105.28 
 233 64.12 134.89 105.28 
 234 55.13 156.13 105.28 
 235 92.63 148.44 105.28 
 236 69.93 137.14 105.28 
 237 95.95 138.43 105.28 
 238 83.52 127.59 105.28 
 239 95.94 126.38 105.28 
 240 111.26 131.58 105.28 
 241 61.44 164.63 111.26 
 242 75.54 140.58 111.26 
 243 77.11 125.30 111.26 
 244 81.07 129.08 111.26 
 245 92.68 117.58 111.26 
 246 89.47 123.37 111.26 
 247 56.66 121.71 111.26 
 248 64.20 127.09 111.26 
 249 78.48 142.17 111.26 
 250 105.07 135.47 111.26 
 251 99.02 141.95 111.26 
 252 66.17 149.73 111.26 
 253 115.49 138.72 111.26 
 254 51.74 136.16 115.49 
 255 77.92 139.70 115.49 
 256 92.43 136.21 115.49 
 257 60.88 136.13 115.49 
 258 74.16 150.58 115.49 
 259 93.95 136.25 115.49 
 260 116.90 135.73 115.49 
 261 78.63 139.48 116.90 
 262 85.87 127.64 116.90 
 263 75.52 136.94 116.90 
 264 76.23 125.99 116.90 
 265 79.09 120.16 116.90 
 266 81.39 133.70 116.90 
 267 120.59 133.74 116.90 
 268 110.05 139.47 120.59 
 269 65.72 133.71 120.59 
 270 88.74 129.46 120.59 
 271 71.76 144.00 120.59 
 272 68.07 144.78 120.59 
 273 58.33 139.26 120.59 
 274 93.88 141.25 120.59 
 275 86.57 152.25 120.59 
 276 66.01 147.26 120.59 
 277 112.64 144.76 120.59 
 278 69.15 142.54 120.59 
 279 69.14 152.82 120.59 
 280 99.98 152.87 120.59 
 281 86.79 154.08 120.59 
 282 68.19 154.21 120.59 
 283 92.73 146.78 120.59 
 284 89.44 145.05 120.59 
 285 69.05 150.58 120.59 
 286 77.32 140.81 120.59 
 287 98.78 109.25 120.59 
 288 109.42 132.82 120.59 
 289 83.75 123.27 120.59 
 290 100.77 128.54 120.59 
 291 64.96 115.51 120.59 
 292 82.68 115.21 120.59 
 293 89.69 124.22 120.59 
 294 80.98 124.75 120.59 
 295 70.78 123.99 120.59 
 296 83.63 132.25 120.59 
 297 68.87 130.77 120.59 
 298 84.35 121.25 120.59 
 299 79.37 122.24 120.59 
 300 81.71 136.99 120.59 
 301 101.01 126.25 120.59 
 302 77.36 131.76 120.59 
 303 72.97 127.68 120.59 
 304 89.12 126.17 120.59 
 305 104.17 135.73 120.59 
 306 94.58 139.77 120.59 
 307 64.89 141.02 120.59 
 308 69.89 139.33 120.59 
 309 96.46 145.08 120.59 
 310 116.02 142.30 120.59 
 311 67.74 153.61 120.59 
 312 58.06 156.15 120.59 
 313 96.43 146.65 120.59 
 314 72.01 147.10 120.59 
 315 108.88 146.37 120.59 
 316 58.41 153.57 120.59 
 317 86.11 137.73 120.59 
 318 79.66 139.51 120.59 
 319 87.25 143.29 120.59 
 320 96.17 140.78 120.59 
 321 76.24 142.08 120.59 
 322 89.33 144.09 120.59 
 323 72.05 137.55 120.59 
 324 76.88 140.81 120.59 
 325 75.04 141.42 120.59 
 326 102.45 140.76 120.59 
 327 115.67 138.52 120.59 
 328 75.58 139.57 120.59 
 329 73.11 137.26 120.59 
 330 50.86 133.00 120.59 
 331 83.34 137.07 120.59 
 332 67.92 131.12 120.59 
 333 93.89 125.20 120.59 
 334 96.58 137.02 120.59 
 335 79.77 135.55 120.59 
 336 52.39 145.81 120.59 
 337 76.15 142.55 120.59 
 338 80.92 143.31 120.59 
 339 56.92 140.55 120.59 
 340 78.16 142.28 120.59 
 341 76.76 140.51 120.59 
 342 91.51 133.28 120.59 
 343 73.67 142.30 120.59 
 344 80.37 137.03 120.59 
 345 91.88 125.73 120.59 
 346 107.08 137.56 120.59 
 347 93.95 133.00 120.59 
 348 94.37 130.66 120.59 
 349 99.80 140.24 120.59 
 350 77.38 129.70 120.59 
 351 70.67 141.75 120.59 
 352 93.90 140.09 120.59 
 353 121.34 143.06 120.59 
 354 107.84 135.79 121.34 
 355 75.16 147.08 121.34 
 356 76.73 132.49 121.34 
 357 80.06 136.22 121.34 
 358 70.76 147.07 121.34 
 359 54.28 144.28 121.34 
 360 66.58 161.82 121.34 
 361 89.83 148.05 121.34 
 362 104.53 150.81 121.34 
 363 108.38 145.56 121.34 
 364 117.09 139.00 121.34 
 365 82.67 138.30 121.34 
 366 62.69 141.57 121.34 
 367 70.89 147.58 121.34 
 368 107.97 144.04 121.34 
 369 87.34 152.83 121.34 
 370 85.81 144.54 121.34 
 371 83.57 163.87 121.34 
 372 117.79 145.09 121.34 
 373 97.11 147.90 121.34 
 374 84.11 145.66 121.34 
 375 78.54 139.35 121.34 
 376 83.49 135.10 121.34 
 377 79.84 143.85 121.34 
 378 75.97 149.86 121.34 
 379 105.57 149.13 121.34 
 380 59.31 147.12 121.34 
 381 79.88 135.60 121.34 
 382 99.39 146.63 121.34 
 383 92.97 141.11 121.34 
 384 65.48 132.05 121.34 
 385 91.78 135.07 121.34 
 386 93.99 138.38 121.34 
 387 96.82 129.30 121.34 
 388 81.68 147.86 121.34 
 389 104.34 141.90 121.34 
 390 102.68 137.35 121.34 
 391 102.57 150.39 121.34 
 392 102.76 141.37 121.34 
 393 107.52 143.62 121.34 
 394 108.90 144.93 121.34 
 395 125.31 142.38 121.34 
 396 96.81 153.19 125.31 
 397 111.65 144.65 125.31 
 398 90.16 148.14 125.31 
 399 55.60 144.66 125.31 
 400 71.60 153.98 125.31 
 401 63.43 142.70 125.31 
 402 118.75 146.76 125.31 
 403 93.85 143.50 125.31 
 404 84.29 145.77 125.31 
 405 91.16 139.75 125.31 
 406 73.61 144.77 125.31 
 407 71.71 137.00 125.31 
 408 82.55 130.73 125.31 
 409 110.78 149.55 125.31 
 410 72.17 141.51 125.31 
 411 61.20 124.98 125.31 
 412 81.88 130.51 125.31 
 413 79.02 123.22 125.31 
 414 72.16 134.72 125.31 
 415 86.29 142.52 125.31 
 416 68.48 147.55 125.31 
 417 85.92 149.85 125.31 
 418 167.00 132.26 125.31 
 419 89.65 144.07 167.00 
 420 69.12 139.04 167.00 
 421 50.00 144.80 167.00 
 422 71.48 145.04 167.00 
 423 96.40 137.53 167.00 
 424 95.06 136.51 167.00 
 425 92.66 147.09 167.00 
 426 75.74 153.06 167.00 
 427 70.76 151.09 167.00 
 428 115.30 150.56 167.00 
 429 71.07 141.49 167.00 
 430 68.17 144.71 167.00 
 431 74.08 151.23 167.00 
 432 92.24 157.99 167.00 
 433 60.80 160.56 167.00 
 434 88.46 161.77 167.00 
 435 91.05 165.30 167.00 
 436 69.50 154.25 167.00 
 437 82.81 151.51 167.00 
 438 64.44 145.19 167.00 
 439 62.09 142.22 167.00 
 440 84.20 136.39 167.00 
 441 82.45 138.67 167.00 
 442 65.33 139.88 167.00 
 443 86.10 135.19 167.00 
 444 106.19 140.00 167.00 
 445 107.30 140.79 167.00 
 446 85.05 141.76 167.00 
 447 84.46 142.01 167.00 
 448 90.87 148.06 167.00 
 449 93.83 146.79 167.00 
 450 100.29 144.53 167.00 
 451 89.58 141.53 167.00 
 452 50.57 149.82 167.00 
 453 98.84 149.50 167.00 
 454 90.22 149.27 167.00 
 455 101.17 151.53 167.00 
 456 73.82 146.00 167.00 
 457 101.86 143.00 167.00 
 458 108.20 143.97 167.00 
 459 76.87 141.01 167.00 
 460 52.73 134.24 167.00 
 461 90.82 134.94 167.00 
 462 95.77 143.46 167.00 
 463 82.83 141.26 167.00 
 464 101.46 153.06 167.00 
 465 85.84 149.03 167.00 
 466 61.20 146.26 167.00 
 467 89.61 140.27 167.00 
 468 76.15 141.78 167.00 
 469 82.80 136.26 167.00 
 470 85.69 140.51 167.00 
 471 104.98 139.01 167.00 
 472 85.99 153.56 167.00 
 473 75.83 157.57 167.00 
 474 122.34 149.08 167.00 
 475 98.63 152.34 167.00 
 476 82.47 158.86 167.00 
 477 76.15 159.11 167.00 
 478 104.15 149.08 167.00 
 479 102.01 151.06 167.00 
 480 73.03 144.76 167.00 
 481 96.08 146.27 167.00 
 482 83.74 154.29 167.00 
 483 56.59 142.99 167.00 
 484 88.23 136.46 167.00 
 485 71.80 146.02 167.00 
 486 108.88 146.52 167.00 
 487 81.65 148.28 167.00 
 488 91.75 149.76 167.00 
 489 123.40 149.51 167.00 
 490 56.86 161.57 167.00 
 491 101.21 148.29 167.00 
 492 64.73 157.57 167.00 
 493 71.01 160.40 167.00 
 494 117.28 161.10 167.00 
 495 108.75 160.85 167.00 
 496 100.25 157.06 167.00 
 497 93.13 158.07 167.00 
 498 97.02 169.43 167.00 
 499 76.48 156.61 167.00 
 500 117.30 145.33 167.00 
 501 50.00 151.61 167.00 
 502 94.99 153.84 167.00 
 503 60.28 155.10 167.00 
 504 101.64 151.57 167.00 
 505 121.67 138.58 167.00 
 506 76.23 123.51 167.00 
 507 66.60 128.76 167.00 
 508 102.95 145.32 167.00 
 509 93.33 145.81 167.00 
 510 91.38 153.84 167.00 
 511 71.39 152.33 167.00 
 512 66.12 152.12 167.00 
 513 90.33 158.82 167.00 
 514 79.97 161.37 167.00 
 515 127.63 152.37 167.00 
 516 72.27 155.36 167.00 
 517 103.38 149.85 167.00 
 518 101.40 154.12 167.00 
 519 82.76 157.39 167.00 
 520 107.26 152.57 167.00 
 521 98.36 146.81 167.00 
 522 81.59 146.79 167.00 
 523 82.15 159.31 167.00 
 524 84.53 154.86 167.00 
 525 107.52 154.66 167.00 
 526 83.67 148.62 167.00 
 527 61.28 154.40 167.00 
 528 86.30 156.95 167.00 
 529 57.84 163.52 167.00 
 530 83.04 157.97 167.00 
 531 100.81 164.15 167.00 
 532 91.00 158.41 167.00 
 533 94.76 163.13 167.00 
 534 72.37 155.88 167.00 
 535 125.71 154.47 167.00 
 536 101.49 157.99 167.00 
 537 124.26 163.75 167.00 
 538 59.93 134.69 167.00 
 539 92.96 149.69 167.00 
 540 94.59 149.18 167.00 
 541 109.95 144.69 167.00 
 542 56.95 160.47 167.00 
 543 86.12 155.49 167.00 
 544 120.81 145.96 167.00 
 545 112.71 160.38 167.00 
 546 95.19 156.39 167.00 
 547 96.60 159.39 167.00 
 548 99.07 161.75 167.00 
 549 77.87 146.99 167.00 
 550 92.07 156.42 167.00 
 551 86.30 150.66 167.00 
 552 109.20 149.95 167.00 
 553 92.40 155.73 167.00 
 554 103.03 145.97 167.00 
 555 100.20 154.47 167.00 
 556 89.93 152.51 167.00 
 557 94.18 159.99 167.00 
 558 83.65 164.27 167.00 
 559 83.36 169.31 167.00 
 560 97.67 166.26 167.00 
 561 98.54 162.78 167.00 
 562 118.90 168.81 167.00 
 563 74.10 165.05 167.00 
 564 73.70 157.05 167.00 
 565 97.55 158.84 167.00 
 566 74.63 156.82 167.00 
 567 74.57 161.32 167.00 
 568 89.17 158.32 167.00 
 569 109.28 159.85 167.00 
 570 100.14 152.55 167.00 
 571 89.82 158.54 167.00 
 572 87.03 158.32 167.00 
 573 128.92 159.10 167.00 
 574 84.11 155.81 167.00 
 575 80.84 158.83 167.00 
 576 107.20 162.33 167.00 
 577 115.27 164.57 167.00 
 578 103.96 161.83 167.00 
 579 101.93 163.85 167.00 
 580 77.34 163.83 167.00 
 581 112.80 167.04 167.00 
 582 92.45 167.06 167.00 
 583 130.56 168.33 167.00 
 584 85.01 168.03 167.00 
 585 102.71 158.01 167.00 
 586 124.26 158.51 167.00 
 587 109.47 158.26 167.00 
 588 97.20 162.56 167.00 
 589 80.16 161.59 167.00 
 590 111.92 161.80 167.00 
 591 119.08 163.55 167.00 
 592 80.20 163.07 167.00 
 593 81.34 139.51 167.00 
 594 76.53 158.54 167.00 
 595 104.00 163.88 167.00 
 596 120.18 164.33 167.00 
 597 83.27 159.11 167.00 
 598 106.65 161.58 167.00 
 599 108.20 159.29 167.00 
 600 106.07 160.57 167.00 
 601 108.43 160.52 167.00 
 602 94.71 140.47 167.00 
 603 91.33 142.76 167.00 
 604 99.13 159.03 167.00 
 605 64.04 141.74 167.00 
 606 118.61 160.25 167.00 
 607 64.33 164.49 167.00 
 608 66.70 158.25 167.00 
 609 101.96 167.06 167.00 
 610 90.06 164.56 167.00 
 611 83.05 164.55 167.00 
 612 115.31 162.78 167.00 
 613 108.14 160.76 167.00 
 614 117.36 166.04 167.00 
 615 130.47 171.60 167.00 
 616 95.42 169.32 167.00 
 617 148.81 163.00 167.00 
 618 106.73 165.49 167.00 
 619 119.46 161.24 167.00 
 620 106.67 162.25 167.00 
 621 124.45 173.03 167.00 
 622 88.32 174.82 167.00 
 623 75.10 166.29 167.00 
 624 93.27 175.82 167.00 
 625 90.55 160.31 167.00 
 626 87.11 176.60 167.00 
 627 119.44 168.84 167.00 
 628 118.82 178.60 167.00 
 629 103.28 173.57 167.00 
 630 116.15 172.29 167.00 
 631 103.30 163.79 167.00 
 632 72.78 185.12 167.00 
 633 103.45 173.58 167.00 
 634 125.30 158.57 167.00 
 635 84.42 136.01 167.00 
 636 81.77 180.85 167.00 
 637 111.39 143.74 167.00 
 638 125.30 134.22 167.00 
 639 95.79 161.79 167.00 
 640 101.94 120.97 167.00 
 641 103.49 169.00 167.00 
 642 123.35 164.30 167.00 
 643 87.44 155.76 167.00 
 644 138.26 149.02 167.00 
 645 121.97 130.70 167.00 
 646 81.01 131.21 167.00 
 647 92.67 135.99 167.00 
 648 116.39 142.76 167.00 
 649 125.79 159.81 167.00 
 650 110.01 151.03 167.00 
 651 103.40 153.56 167.00 
 652 96.44 167.85 167.00 
 653 85.65 160.09 167.00 
 654 89.29 164.37 167.00 
 655 103.52 164.87 167.00 
 656 70.99 164.40 167.00 
 657 73.66 160.10 167.00 
 658 116.48 166.63 167.00 
 659 119.96 162.37 167.00 
 660 89.88 162.15 167.00 
 661 114.87 177.12 167.00 
 662 121.14 172.64 167.00 
 663 88.04 167.86 167.00 
 664 154.64 167.60 167.00 
 665 112.04 160.54 167.00 
 666 105.36 160.34 167.00 
 667 68.44 150.80 167.00 
 668 74.19 151.32 167.00 
 669 86.60 139.99 167.00 
 670 88.43 125.19 167.00 
 671 124.10 126.42 167.00 
 672 94.17 125.39 167.00 
 673 87.15 128.17 167.00 
 674 94.88 133.67 167.00 
 675 104.08 130.42 167.00 
 676 107.71 142.49 167.00 
 677 151.67 152.30 167.00 
 678 116.95 158.30 167.00 
 679 110.88 164.10 167.00 
 680 119.25 157.85 167.00 
 681 114.94 158.34 167.00 
 682 93.00 146.06 167.00 
 683 104.99 150.78 167.00 
 684 59.00 150.53 167.00 
 685 87.18 148.27 167.00 
 686 101.71 156.03 167.00 
 687 124.72 158.26 167.00 
 688 112.31 154.99 167.00 
 689 95.18 154.75 167.00 
 690 104.03 143.25 167.00 
 691 86.04 155.27 167.00 
 692 98.82 154.01 167.00 
 693 102.66 148.25 167.00 
 694 84.44 130.69 167.00 
 695 81.74 138.21 167.00 
 696 105.19 151.50 167.00 
 697 96.21 159.84 167.00 
 698 80.09 158.83 167.00 
 699 118.68 164.87 167.00 
 700 114.93 161.34 167.00 
 701 74.27 163.83 167.00 
 702 108.10 159.36 167.00 
 703 117.21 160.58 167.00 
 704 131.03 165.36 167.00 
 705 104.66 155.06 167.00 
 706 79.52 159.55 167.00 
 707 108.21 160.56 167.00 
 708 100.51 158.57 167.00 
 709 100.61 156.79 167.00 
 710 113.11 153.49 167.00 
 711 101.23 160.27 167.00 
 712 70.37 158.03 167.00 
 713 87.13 156.01 167.00 
 714 103.19 159.31 167.00 
 715 109.48 165.56 167.00 
 716 111.07 160.77 167.00 
 717 118.64 157.22 167.00 
 718 108.94 156.46 167.00 
 719 85.06 159.76 167.00 
 720 143.53 162.27 167.00 
 721 120.80 163.26 167.00 
 722 127.56 165.81 167.00 
 723 114.65 162.31 167.00 
 724 63.09 164.55 167.00 
 725 114.83 163.52 167.00 
 726 100.26 163.80 167.00 
 727 66.07 161.06 167.00 
 728 89.74 161.82 167.00 
 729 110.89 162.79 167.00 
 730 120.08 162.02 167.00 
 731 79.06 163.80 167.00 
 732 110.81 162.31 167.00 
 733 92.20 165.07 167.00 
 734 117.91 167.61 167.00 
 735 105.08 165.84 167.00 
 736 102.36 162.11 167.00 
 737 88.18 163.33 167.00 
 738 109.89 162.11 167.00 
 739 99.93 166.36 167.00 
 740 110.99 167.60 167.00 
 741 112.45 167.88 167.00 
 742 127.30 163.62 167.00 
 743 97.96 162.61 167.00 
 744 109.51 163.87 167.00 
 745 97.37 164.64 167.00 
 746 82.39 163.87 167.00 
 747 95.07 164.36 167.00 
 748 103.41 167.93 167.00 
 749 93.45 159.62 167.00 
 750 76.38 164.13 167.00 
 751 97.76 164.63 167.00 
 752 98.08 161.35 167.00 
 753 120.39 162.90 167.00 
 754 77.80 162.60 167.00 
 755 89.88 161.10 167.00 
 756 129.94 157.57 167.00 
 757 108.67 160.07 167.00 
 758 93.42 155.55 167.00 
 759 98.75 160.29 167.00 
 760 94.26 158.57 167.00 
 761 117.53 163.33 167.00 
 762 142.53 159.03 167.00 
 763 88.23 158.05 167.00 
 764 130.67 161.03 167.00 
 765 123.23 161.54 167.00 
 766 137.54 163.30 167.00 
 767 98.60 160.52 167.00 
 768 76.19 166.07 167.00 
 769 121.70 170.35 167.00 
 770 114.58 169.10 167.00 
 771 87.25 165.08 167.00 
 772 127.53 163.07 167.00 
 773 114.50 159.83 167.00 
 774 110.91 159.83 167.00 
 775 66.15 160.81 167.00 
 776 122.02 163.32 167.00 
 777 141.81 163.31 167.00 
 778 129.00 166.85 167.00 
 779 124.33 163.36 167.00 
 780 100.27 159.59 167.00 
 781 126.29 163.83 167.00 
 782 91.89 159.32 167.00 
 783 133.72 162.32 167.00 
 784 132.00 163.10 167.00 
 785 94.47 164.08 167.00 
 786 116.16 159.53 167.00 
 787 114.13 162.60 167.00 
 788 84.53 163.14 167.00 
 789 105.40 163.91 167.00 
 790 83.21 163.65 167.00 
 791 94.09 165.69 167.00 
 792 115.16 164.90 167.00 
 793 110.94 165.43 167.00 
 794 81.00 163.91 167.00 
 795 149.58 163.39 167.00 
 796 121.04 161.12 167.00 
 797 92.99 162.32 167.00 
 798 98.38 162.53 167.00 
 799 97.37 161.29 167.00 
 800 105.54 160.52 167.00 
 801 87.63 161.53 167.00 
 802 76.52 157.26 167.00 
 803 128.02 154.98 167.00 
 804 133.79 156.49 167.00 
 805 122.83 160.03 167.00 
 806 69.69 163.36 167.00 
 807 87.48 158.30 167.00 
 808 117.15 155.02 167.00 
 809 139.70 158.58 167.00 
 810 106.38 158.04 167.00 
 811 110.31 158.81 167.00 
 812 112.12 158.50 167.00 
 813 112.13 158.25 167.00 
 814 126.18 160.27 167.00 
 815 88.80 163.01 167.00 
 816 98.86 162.76 167.00 
 817 100.69 161.29 167.00 
 818 135.41 158.03 167.00 
 819 117.11 157.46 167.00 
 820 111.62 160.22 167.00 
 821 105.58 159.74 167.00 
 822 54.36 160.01 167.00 
 823 116.37 163.31 167.00 
 824 132.21 158.04 167.00 
 825 124.47 161.83 167.00 
 826 50.53 159.53 167.00 
 827 70.88 156.01 167.00 
 828 102.57 157.52 167.00 
 829 117.42 162.79 167.00 
 830 78.82 166.81 167.00 
 831 110.94 162.78 167.00 
 832 110.12 158.50 167.00 
 833 100.64 161.00 167.00 
 834 77.45 162.28 167.00 
 835 68.17 160.75 167.00 
 836 98.59 157.23 167.00 
 837 103.07 164.24 167.00 
 838 118.21 167.23 167.00 
 839 118.47 164.00 167.00 
 840 122.62 157.74 167.00 
 841 131.13 165.50 167.00 
 842 132.60 166.25 167.00 
 843 92.71 160.74 167.00 
 844 128.53 167.51 167.00 
 845 121.28 167.25 167.00 
 846 109.83 164.47 167.00 
 847 113.20 161.98 167.00 
 848 127.68 158.99 167.00 
 849 100.18 158.52 167.00 
 850 138.56 153.98 167.00 
 851 108.00 157.23 167.00 
 852 92.05 156.49 167.00 
 853 93.85 154.01 167.00 
 854 118.58 164.54 167.00 
 855 73.24 160.82 167.00 
 856 116.16 162.30 167.00 
 857 121.58 165.28 167.00 
 858 97.61 171.79 167.00 
 859 91.21 166.07 167.00 
 860 102.65 161.05 167.00 
 861 103.59 162.31 167.00 
 862 87.02 152.79 167.00 
 863 101.00 163.33 167.00 
 864 113.08 158.81 167.00 
 865 81.82 161.28 167.00 
 866 98.42 159.30 167.00 
 867 121.40 161.53 167.00 
 868 119.63 163.53 167.00 
 869 85.96 166.54 167.00 
 870 100.34 163.58 167.00 
 871 70.64 168.31 167.00 
 872 73.57 167.83 167.00 
 873 128.91 168.57 167.00 
 874 130.24 163.77 167.00 
 875 136.45 167.80 167.00 
 876 83.94 162.74 167.00 
 877 113.43 154.68 167.00 
 878 134.69 165.24 167.00 
 879 144.92 173.52 167.00 
 880 91.94 180.53 167.00 
 881 102.38 179.52 167.00 
 882 115.05 186.27 167.00 
 883 89.27 182.08 167.00 
 884 96.30 176.01 167.00 
 885 62.72 183.07 167.00 
 886 88.56 178.84 167.00 
 887 106.69 181.31 167.00 
 888 87.18 181.08 167.00 
 889 123.48 176.79 167.00 
 890 103.31 182.77 167.00 
 891 126.82 175.28 167.00 
 892 137.00 177.26 167.00 
 893 112.53 168.50 167.00 
 894 115.17 169.52 167.00 
 895 91.44 179.79 167.00 
 896 101.81 172.52 167.00 
 897 101.46 170.99 167.00 
 898 70.74 177.04 167.00 
 899 110.97 165.51 167.00 
 900 94.01 181.81 167.00 
 901 100.36 168.75 167.00 
 902 97.80 182.02 167.00 
 903 100.97 177.72 167.00 
 904 122.13 182.75 167.00 
 905 109.26 181.99 167.00 
 906 121.02 180.77 167.00 
 907 102.37 187.27 167.00 
 908 125.33 185.03 167.00 
 909 130.24 186.34 167.00 
 910 136.02 178.80 167.00 
 911 87.11 182.82 167.00 
 912 107.38 186.33 167.00 
 913 112.76 189.61 167.00 
 914 101.04 192.11 167.00 
 915 107.04 190.86 167.00 
 916 88.19 187.38 167.00 
 917 163.54 198.64 167.00 
 918 115.96 197.89 167.00 
 919 118.07 191.63 167.00 
 920 146.43 189.15 167.00 
 921 129.20 192.13 167.00 
 922 78.52 197.89 167.00 
 923 106.52 187.60 167.00 
 924 119.70 188.88 167.00 
 925 60.81 184.82 167.00 
 926 137.41 177.80 167.00 
 927 154.86 176.09 167.00 
 928 107.87 177.53 167.00 
 929 113.48 169.50 167.00 
 930 103.98 182.79 167.00 
 931 150.40 179.79 167.00 
 932 106.51 187.03 167.00 
 933 138.48 184.26 167.00 
 934 104.21 181.78 167.00 
 935 110.36 189.29 167.00 
 936 100.03 187.49 167.00 
 937 103.55 186.00 167.00 
 938 126.14 179.27 167.00 
 939 101.57 183.00 167.00 
 940 97.09 178.98 167.00 
 941 126.84 176.96 167.00 
 942 109.21 165.48 167.00 
 943 140.41 157.95 167.00 
 944 127.43 157.70 167.00 
 945 141.74 156.41 167.00 
 946 136.49 158.44 167.00 
 947 128.20 161.74 167.00 
 948 110.41 161.95 167.00 
 949 122.83 178.74 167.00 
 950 105.24 162.44 167.00 
 951 135.18 168.45 167.00 
 952 94.29 160.68 167.00 
 953 126.01 159.68 167.00 
 954 85.90 160.45 167.00 
 955 93.22 169.47 167.00 
 956 144.76 174.20 167.00 
 957 108.00 172.69 167.00 
 958 92.43 168.94 167.00 
 959 94.89 174.19 167.00 
 960 124.93 180.71 167.00 
 961 118.16 167.72 167.00 
 962 85.78 170.44 167.00 
 963 96.15 162.42 167.00 
 964 144.70 156.94 167.00 
 965 142.27 161.92 167.00 
 966 111.24 163.16 167.00 
 967 97.81 163.18 167.00 
 968 114.00 159.41 167.00 
 969 86.45 153.64 167.00 
 970 104.46 152.89 167.00 
 971 127.05 157.40 167.00 
 972 126.07 163.17 167.00 
 973 97.06 169.18 167.00 
 974 75.38 166.18 167.00 
 975 83.84 171.95 167.00 
 976 81.53 164.93 167.00 
 977 134.21 171.92 167.00 
 978 95.59 174.14 167.00 
 979 97.27 160.12 167.00 
 980 98.07 156.37 167.00 
 981 92.99 162.87 167.00 
 982 120.49 159.90 167.00 
 983 127.67 164.66 167.00 
 984 140.13 169.16 167.00 
 985 86.27 176.18 167.00 
 986 121.95 174.67 167.00 
 987 136.23 165.67 167.00 
 988 116.48 169.65 167.00 
 989 102.85 177.66 167.00 
 990 93.48 164.16 167.00 
 991 75.64 170.70 167.00 
 992 117.30 156.66 167.00 
 993 103.72 164.69 167.00 
 994 108.78 157.18 167.00 
 995 79.57 166.20 167.00 
 996 101.57 161.71 167.00 
 997 94.51 158.46 167.00 
 998 90.62 159.70 167.00 
 999 115.07 165.45 167.00 
1000 126.80 163.43 167.00 
1001 94.59 164.45 167.00 
1002 109.14 166.68 167.00 
1003 79.23 163.93 167.00 
1004 93.95 141.61 167.00 
1005 75.38 130.78 167.00 
1006 101.73 155.35 167.00 
1007 82.02 153.59 167.00 
1008 146.22 173.68 167.00 
1009 94.67 168.90 167.00 
1010 77.18 163.37 167.00 
1011 69.31 160.88 167.00 
1012 113.20 143.08 167.00 
1013 77.95 179.95 167.00 
1014 83.57 176.99 167.00 
1015 65.07 179.48 167.00 
1016 100.62 176.23 167.00 
1017 123.51 177.24 167.00 
1018 81.63 180.52 167.00 
1019 90.92 187.77 167.00 
1020 112.56 181.05 167.00 
1021 127.07 184.55 167.00 
1022 69.99 190.29 167.00 
1023 77.08 189.25 167.00 
1024 149.82 180.73 167.00 
1025 120.38 185.02 167.00 
1026 93.55 184.00 167.00 
1027 107.10 180.49 167.00 
1028 95.80 179.27 167.00 
1029 105.19 189.27 167.00 
1030 106.96 193.28 167.00 
1031 77.03 200.31 167.00 
1032 77.34 190.05 167.00 
1033 100.89 181.02 167.00 
1034 97.61 192.52 167.00 
1035 82.32 176.50 167.00 
1036 119.28 161.75 167.00 
1037 123.79 166.99 167.00 
1038 136.66 165.00 167.00 
1039 125.23 172.24 167.00 
1040 127.34 168.75 167.00 
1041 128.39 174.76 167.00 
1042 86.00 165.21 167.00 
1043 94.77 158.95 167.00 
1044 118.56 188.97 167.00 
1045 82.93 171.97 167.00 
1046 173.39 165.21 167.00 
1047 135.83 165.72 173.39 
1048 94.85 179.74 173.39 
1049 113.81 178.21 173.39 
1050 101.94 176.27 173.39 
1051 94.10 185.49 173.39 
1052 111.53 185.52 173.39 
1053 121.62 190.50 173.39 
1054 86.76 187.51 173.39 
1055 136.09 182.22 173.39 
1056 114.76 182.97 173.39 
1057 76.25 183.20 173.39 
1058 121.68 181.96 173.39 
1059 99.78 173.66 173.39 
1060 99.97 184.18 173.39 
1061 122.15 186.69 173.39 
1062 117.56 186.72 173.39 
1063 110.58 178.73 173.39 
1064 113.36 176.70 173.39 
1065 97.09 179.51 173.39 
1066 95.94 177.24 173.39 
1067 135.28 180.48 173.39 
1068 79.82 173.94 173.39 
1069 97.50 176.98 173.39 
1070 92.12 177.98 173.39 
1071 116.42 177.22 173.39 
1072 90.56 171.19 173.39 
1073 93.86 159.91 173.39 
1074 82.80 167.64 173.39 
1075 61.30 163.14 173.39 
1076 81.86 165.17 173.39 
1077 114.65 157.69 173.39 
1078 105.93 167.97 173.39 
1079 63.97 170.20 173.39 
1080 113.40 171.44 173.39 
1081 77.81 167.20 173.39 
1082 82.37 166.94 173.39 
1083 130.49 171.19 173.39 
1084 104.35 173.70 173.39 
1085 99.49 170.70 173.39 
1086 90.04 171.64 173.39 
1087 75.80 163.95 173.39 
1088 73.47 169.94 173.39 
1089 101.17 174.75 173.39 
1090 118.67 181.02 173.39 
1091 148.76 174.75 173.39 
1092 75.96 187.25 173.39 
1093 98.15 186.50 173.39 
1094 97.20 188.52 173.39 
1095 83.60 174.25 173.39 
1096 108.52 172.49 173.39 
1097 96.99 163.94 173.39 
1098 122.48 154.66 173.39 
1099 148.89 154.15 173.39 
1100 108.03 160.93 173.39 
1101 141.84 156.39 173.39 
1102 125.36 162.93 173.39 
1103 114.85 173.96 173.39 
1104 126.53 182.72 173.39 
1105 84.72 192.01 173.39 
1106 105.44 193.21 173.39 
1107 138.30 182.25 173.39 
1108 118.73 179.96 173.39 
1109 104.80 186.98 173.39 
1110 98.16 187.19 173.39 
1111 110.66 182.47 173.39 
1112 126.38 172.66 173.39 
1113 118.45 166.93 173.39 
1114 127.66 179.43 173.39 
1115 124.37 183.95 173.39 
1116 122.98 173.93 173.39 
1117 94.52 179.91 173.39 
1118 130.42 186.95 173.39 
1119 116.38 181.43 173.39 
1120 120.67 170.90 173.39 
1121 108.45 176.20 173.39 
1122 106.88 175.91 173.39 
1123 110.22 174.44 173.39 
1124 114.70 179.93 173.39 
1125 103.98 167.92 173.39 
1126 101.17 172.17 173.39 
1127 93.76 168.93 173.39 
1128 104.94 172.18 173.39 
1129 133.83 156.46 173.39 
1130 75.06 171.22 173.39 
1131 106.32 167.23 173.39 
1132 134.84 170.48 173.39 
1133 121.36 184.49 173.39 
1134 100.78 182.48 173.39 
1135 152.09 166.47 173.39 
1136 118.69 181.19 173.39 
1137 104.49 184.22 173.39 
1138 114.28 191.24 173.39 
1139 140.30 190.00 173.39 
1140 124.18 194.24 173.39 
1141 141.21 187.99 173.39 
1142 103.96 173.22 173.39 
1143 107.26 173.72 173.39 
1144 99.01 182.72 173.39 
1145 111.13 160.69 173.39 
1146 77.11 170.73 173.39 
1147 148.94 173.96 173.39 
1148 103.72 174.52 173.39 
1149 92.16 170.26 173.39 
1150 156.28 175.05 173.39 
1151 119.78 161.01 173.39 
1152 120.03 173.50 173.39 
1153 116.88 158.72 173.39 
1154 116.72 159.22 173.39 
1155 119.65 157.47 173.39 
1156 143.77 158.49 173.39 
1157 95.86 160.23 173.39 
1158 122.54 167.01 173.39 
1159 133.18 159.76 173.39 
1160 147.55 172.04 173.39 
1161 127.29 174.02 173.39 
1162 121.63 183.28 173.39 
1163 103.89 178.28 173.39 
1164 123.26 179.29 173.39 
1165 104.92 176.80 173.39 
1166 102.75 162.76 173.39 
1167 123.39 173.53 173.39 
1168 128.13 171.27 173.39 
1169 89.21 174.53 173.39 
1170 115.93 172.51 173.39 
1171 70.40 155.95 173.39 
1172 132.89 156.93 173.39 
1173 74.13 150.22 173.39 
1174 107.61 165.25 173.39 
1175 146.63 169.01 173.39 
1176 91.90 168.02 173.39 
1177 64.15 173.53 173.39 
1178 102.79 175.29 173.39 
1179 93.90 173.27 173.39 
1180 130.91 166.76 173.39 
1181 92.32 169.02 173.39 
1182 122.21 167.24 173.39 
1183 138.51 166.75 173.39 
1184 135.46 178.77 173.39 
1185 121.06 175.53 173.39 
1186 190.43 172.27 173.39 
1187 91.40 166.00 190.43 
1188 98.11 167.72 190.43 
1189 132.00 150.72 190.43 
1190 121.28 150.92 190.43 
1191 111.48 152.67 190.43 
1192 88.12 156.20 190.43 
1193 112.49 149.68 190.43 
1194 125.08 153.16 190.43 
1195 130.30 164.68 190.43 
1196 122.78 154.93 190.43 
1197 93.44 146.16 190.43 
1198 90.19 148.18 190.43 
1199 124.68 151.93 190.43 
1200 98.15 152.68 190.43 
1201 138.45 164.44 190.43 
1202 109.89 172.22 190.43 
1203 104.12 168.42 190.43 
1204 127.44 167.71 190.43 
1205 111.42 169.23 190.43 
1206 86.37 165.25 190.43 
1207 61.82 160.98 190.43 
1208 100.74 167.49 190.43 
1209 131.68 168.96 190.43 
1210 135.89 166.91 190.43 
1211 95.41 162.19 190.43 
1212 113.60 163.95 190.43 
1213 109.65 171.19 190.43 
1214 65.21 178.73 190.43 
1215 133.42 165.19 190.43 
1216 104.86 166.45 190.43 
1217 107.52 173.68 190.43 
1218 115.12 168.94 190.43 
1219 143.63 175.72 190.43 
1220 110.03 179.76 190.43 
1221 82.36 186.79 190.43 
1222 101.91 186.55 190.43 
1223 103.25 184.57 190.43 
1224 105.10 186.12 190.43 
1225 127.73 184.09 190.43 
1226 105.66 185.33 190.43 
1227 107.41 181.78 190.43 
1228 128.88 180.79 190.43 
1229 88.34 181.29 190.43 
1230 87.65 187.05 190.43 
1231 131.03 182.31 190.43 
1232 97.89 179.04 190.43 
1233 104.19 181.55 190.43 
1234 81.64 178.31 190.43 
1235 111.24 179.57 190.43 
1236 151.63 183.35 190.43 
1237 73.09 179.80 190.43 
1238 120.06 178.07 190.43 
1239 127.77 182.31 190.43 
1240 85.19 179.29 190.43 
1241 140.76 180.01 190.43 
1242 104.57 179.00 190.43 
1243 139.73 179.25 190.43 
1244 105.17 174.49 190.43 
1245 102.33 171.24 190.43 
1246 157.23 174.25 190.43 
1247 127.07 178.25 190.43 
1248 129.91 190.03 190.43 
1249 140.40 186.25 190.43 
1250 140.84 181.26 190.43 
1251 110.01 184.25 190.43 
1252 110.39 193.99 190.43 
1253 155.56 198.75 190.43 
1254 83.83 200.50 190.43 
1255 112.60 191.77 190.43 
1256 112.90 173.74 190.43 
1257 52.32 190.75 190.43 
1258 105.33 181.78 190.43 
1259 100.07 187.77 190.43 
1260 137.09 178.26 190.43 
1261 120.79 185.03 190.43 
1262 126.98 180.53 190.43 
1263 132.77 179.71 190.43 
1264 98.63 195.01 190.43 
1265 108.42 191.30 190.43 
1266 107.48 176.78 190.43 
1267 142.48 195.59 190.43 
1268 145.22 189.32 190.43 
1269 107.91 182.31 190.43 
1270 86.44 173.80 190.43 
1271 154.72 175.28 190.43 
1272 120.38 173.77 190.43 
1273 104.94 170.47 190.43 
1274 134.41 172.22 190.43 
1275 144.09 170.74 190.43 
1276 93.72 169.23 190.43 
1277 90.08 165.26 190.43 
1278 100.23 170.29 190.43 
1279 145.81 168.75 190.43 
1280 124.15 172.29 190.43 
1281 68.15 171.80 190.43 
1282 92.76 171.80 190.43 
1283 108.15 170.30 190.43 
1284 153.58 169.80 190.43 
1285 147.94 169.79 190.43 
1286 87.12 169.76 190.43 
1287 133.56 168.55 190.43 
1288 104.07 171.56 190.43 
1289 133.33 171.80 190.43 
1290 124.33 169.03 190.43 
1291 102.07 163.79 190.43 
1292 151.62 161.03 190.43 
1293 145.02 162.03 190.43 
1294 120.55 166.83 190.43 
1295 130.85 161.30 190.43 
1296 122.95 164.81 190.43 
1297 99.74 163.33 190.43 
1298 115.93 170.07 190.43 
1299 120.90 172.86 190.43 
1300 121.96 174.34 190.43 
1301 115.35 177.85 190.43 
1302 119.68 177.60 190.43 
1303 125.14 173.54 190.43 
1304 117.21 175.07 190.43 
1305 86.64 175.06 190.43 
1306 114.16 175.83 190.43 
1307 127.00 174.03 190.43 
1308 132.75 175.03 190.43 
1309 121.59 174.03 190.43 
1310 99.65 169.77 190.43 
1311 130.25 167.02 190.43 
1312 146.54 160.23 190.43 
1313 89.52 169.01 190.43 
1314 144.78 167.26 190.43 
1315 103.20 172.78 190.43 
1316 140.08 174.02 190.43 
1317 109.86 175.77 190.43 
1318 133.44 170.24 190.43 
1319 127.34 169.99 190.43 
1320 108.73 172.28 190.43 
1321 98.23 177.03 190.43 
1322 124.34 169.27 190.43 
1323 73.77 165.03 190.43 
1324 95.48 159.75 190.43 
1325 115.63 166.79 190.43 
1326 124.64 174.30 190.43 
1327 143.24 174.53 190.43 
1328 160.48 170.26 190.43 
1329 156.19 175.56 190.43 
1330 101.72 174.56 190.43 
1331 120.77 169.57 190.43 
1332 81.65 168.53 190.43 
1333 96.26 176.32 190.43 
1334 101.23 178.09 190.43 
1335 100.40 180.05 190.43 
1336 114.14 180.58 190.43 
1337 128.67 169.78 190.43 
1338 150.68 175.28 190.43 
1339 93.36 176.54 190.43 
1340 140.37 174.54 190.43 
1341 102.41 180.54 190.43 
1342 93.24 176.78 190.43 
1343 116.75 177.28 190.43 
1344 108.23 178.54 190.43 
1345 115.69 175.52 190.43 
1346 115.52 175.02 190.43 
1347 126.09 175.49 190.43 
1348 125.96 173.75 190.43 
1349 127.43 172.77 190.43 
1350 114.82 178.53 190.43 
1351 116.74 177.78 190.43 
1352 124.51 169.78 190.43 
1353 97.69 173.58 190.43 
1354 102.13 161.54 190.43 
1355 65.99 178.34 190.43 
1356 157.33 170.28 190.43 
1357 81.26 164.77 190.43 
1358 122.51 167.76 190.43 
1359 132.31 164.29 190.43 
1360 167.24 161.53 190.43 
1361 145.68 162.52 190.43 
1362 181.59 158.49 190.43 
1363 105.41 156.99 190.43 
1364 141.56 158.00 190.43 
1365 123.80 154.98 190.43 
1366 120.95 154.49 190.43 
1367 87.24 153.72 190.43 
1368 142.92 159.73 190.43 
1369 135.04 149.19 190.43 
1370 81.00 147.42 190.43 
1371 68.96 147.18 190.43 
1372 111.66 149.18 190.43 
1373 105.28 152.21 190.43 
1374 83.90 160.00 190.43 
1375 125.80 162.48 190.43 
1376 94.46 164.21 190.43 
1377 137.20 174.27 190.43 
1378 105.27 174.25 190.43 
1379 72.29 175.00 190.43 
1380 107.80 176.02 190.43 
1381 113.73 179.03 190.43 
1382 109.18 182.04 190.43 
1383 79.78 178.74 190.43 
1384 153.49 176.25 190.43 
1385 121.06 173.73 190.43 
1386 151.57 175.74 190.43 
1387 112.86 173.49 190.43 
1388 78.36 181.48 190.43 
1389 79.66 177.74 190.43 
1390 118.63 174.00 190.43 
1391 114.73 177.48 190.43 
1392 88.38 176.49 190.43 
1393 99.79 176.49 190.43 
1394 126.56 173.72 190.43 
1395 82.34 170.70 190.43 
1396 127.58 169.71 190.43 
1397 113.91 174.21 190.43 
1398 129.85 164.41 190.43 
1399 120.29 176.00 190.43 
1400 108.28 173.72 190.43 
1401 151.00 169.93 190.43 
1402 130.46 171.46 190.43 
1403 124.21 178.73 190.43 
1404 125.89 178.75 190.43 
1405 119.03 175.52 190.43 
1406 122.58 177.00 190.43 
1407 105.10 175.24 190.43 
1408 73.72 174.98 190.43 
1409 130.05 171.96 190.43 
1410 118.64 175.19 190.43 
1411 98.49 170.18 190.43 
1412 99.72 175.47 190.43 
1413 106.91 168.45 190.43 
1414 113.33 167.45 190.43 
1415 133.53 169.44 190.43 
1416 111.62 172.22 190.43 
1417 82.91 171.73 190.43 
1418 112.03 174.49 190.43 
1419 74.00 175.25 190.43 
1420 122.96 178.00 190.43 
1421 96.78 176.47 190.43 
1422 135.91 175.47 190.43 
1423 70.44 182.80 190.43 
1424 96.20 187.79 190.43 
1425 142.71 189.29 190.43 
1426 134.45 193.00 190.43 
1427 117.94 196.28 190.43 
1428 113.49 197.01 190.43 
1429 97.43 195.28 190.43 
1430 149.99 186.21 190.43 
1431 92.98 186.75 190.43 
1432 121.02 189.53 190.43 
1433 126.06 187.52 190.43 
1434 106.38 187.01 190.43 
1435 164.91 183.45 190.43 
1436 132.48 183.24 190.43 
1437 86.83 185.73 190.43 
1438 91.67 185.71 190.43 
1439 85.47 189.20 190.43 
1440 120.70 188.18 190.43 
1441 126.24 178.67 190.43 
1442 93.67 180.71 190.43 
1443 116.67 176.42 190.43 
1444 124.69 176.18 190.43 
1445 128.09 184.71 190.43 
1446 117.90 185.45 190.43 
1447 87.87 185.70 190.43 
1448 133.66 179.19 190.43 
1449 119.94 174.43 190.43 
1450 126.73 181.95 190.43 
1451 122.27 170.66 190.43 
1452 105.44 173.64 190.43 
1453 128.33 168.89 190.43 
1454 128.49 163.36 190.43 
1455 91.62 175.63 190.43 
1456 126.28 174.16 190.43 
1457 109.77 170.16 190.43 
1458 82.57 175.17 190.43 
1459 110.76 169.86 190.43 
1460 151.20 168.37 190.43 
1461 126.65 169.88 190.43 
1462 167.47 173.88 190.43 
1463 154.95 180.40 190.43 
1464 139.09 176.17 190.43 
1465 91.57 176.93 190.43 
1466 108.06 179.46 190.43 
1467 132.47 179.43 190.43 
1468 149.07 179.18 190.43 
1469 127.60 178.48 190.43 
1470 125.94 178.18 190.43 
1471 126.13 177.47 190.43 
1472 125.01 183.72 190.43 
1473 155.04 177.74 190.43 
1474 139.67 178.00 190.43 
1475 117.31 177.25 190.43 
1476 116.92 181.29 190.43 
1477 124.45 187.32 190.43 
1478 93.18 187.36 190.43 
1479 100.38 186.36 190.43 
1480 115.41 195.38 190.43 
1481 82.40 191.35 190.43 
1482 164.96 187.12 190.43 
1483 128.74 181.11 190.43 
1484 127.76 187.87 190.43 
1485 130.61 186.62 190.43 
1486 105.21 181.85 190.43 
1487 84.27 179.34 190.43 
1488 129.79 178.08 190.43 
1489 138.93 182.85 190.43 
1490 133.12 173.04 190.43 
1491 94.48 184.07 190.43 
1492 129.64 181.07 190.43 
1493 102.11 179.08 190.43 
1494 102.36 185.12 190.43 
1495 134.20 190.86 190.43 
1496 143.53 185.39 190.43 
1497 115.71 186.87 190.43 
1498 102.17 176.08 190.43 
1499 114.69 180.86 190.43 
1500 141.27 181.36 190.43 
1501 94.19 188.13 190.43 
1502 117.32 175.56 190.43 
1503 106.84 183.63 190.43 
1504 110.55 187.15 190.43 
1505 121.04 181.67 190.43 
1506 95.45 189.95 190.43 
1507 113.74 195.44 190.43 
1508 128.95 178.16 190.43 
1509 102.16 181.37 190.43 
1510 93.96 180.88 190.43 
1511 128.38 179.90 190.43 
1512 123.24 178.89 190.43 
1513 112.69 180.14 190.43 
1514 111.89 173.62 190.43 
1515 133.60 175.91 190.43 
1516 100.98 179.65 190.43 
1517 148.15 175.12 190.43 
1518 130.00 176.64 190.43 
1519 160.28 172.64 190.43 
1520 112.74 162.37 190.43 
1521 100.34 170.63 190.43 
1522 131.84 170.13 190.43 
1523 136.45 170.37 190.43 
1524 149.34 169.63 190.43 
1525 130.00 169.12 190.43 
1526 97.63 170.62 190.43 
1527 87.23 172.09 190.43 
1528 115.54 174.13 190.43 
1529 107.48 161.58 190.43 
1530 94.63 169.34 190.43 
1531 85.70 164.59 190.43 
1532 93.97 172.13 190.43 
1533 121.79 163.60 190.43 
1534 100.59 158.07 190.43 
1535 133.95 156.81 190.43 
1536 114.54 162.85 190.43 
1537 107.44 173.61 190.43 
1538 134.51 170.85 190.43 
1539 99.82 173.35 190.43 
1540 99.30 176.60 190.43 
1541 93.05 176.10 190.43 
1542 102.25 181.36 190.43 
1543 110.41 180.85 190.43 
1544 91.61 180.85 190.43 
1545 139.03 161.05 190.43 
1546 126.16 158.02 190.43 
1547 143.31 159.47 190.43 
1548 127.62 159.76 190.43 
1549 124.28 154.29 190.43 
1550 105.68 166.56 190.43 
1551 109.66 159.29 190.43 
1552 101.57 158.78 190.43 
1553 159.88 158.31 190.43 
1554 117.30 157.30 190.43 
1555 116.13 171.81 190.43 
1556 87.04 173.85 190.43 
1557 94.15 180.34 190.43 
1558 122.63 180.81 190.43 
1559 106.47 172.54 190.43 
1560 137.77 179.83 190.43 
1561 125.61 170.52 190.43 
1562 77.17 160.04 190.43 
1563 88.40 156.05 190.43 
1564 110.79 157.29 190.43 
1565 101.62 151.53 190.43 
1566 124.78 153.80 190.43 
1567 62.60 158.03 190.43 
1568 136.38 152.78 190.43 
1569 102.55 170.53 190.43 
1570 108.16 173.04 190.43 
1571 110.53 172.57 190.43 
1572 135.36 164.53 190.43 
1573 83.29 164.76 190.43 
1574 172.19 163.29 190.43 
1575 124.87 167.03 190.43 
1576 123.23 168.30 190.43 
1577 101.06 161.54 190.43 
1578 118.42 171.03 190.43 
1579 103.53 166.08 190.43 
1580 103.40 167.78 190.43 
1581 109.63 168.32 190.43 
1582 125.62 169.08 190.43 
1583 115.07 171.57 190.43 
1584 99.23 170.32 190.43 
1585 112.43 178.31 190.43 
1586 152.24 174.33 190.43 
1587 122.18 173.78 190.43 
1588 117.30 178.27 190.43 
1589 140.38 174.06 190.43 
1590 119.28 171.54 190.43 
1591 152.37 167.55 190.43 
1592 133.20 168.04 190.43 
1593 123.89 175.01 190.43 
1594 86.17 173.27 190.43 
1595 132.89 174.31 190.43 
1596 95.65 179.05 190.43 
1597 169.88 167.05 190.43 
1598 95.83 174.80 190.43 
1599 117.93 174.29 190.43 
1600 115.94 174.30 190.43 
1601 89.08 166.56 190.43 
1602 130.73 164.30 190.43 
1603 147.66 164.54 190.43 
1604 91.00 159.51 190.43 
1605 133.40 161.21 190.43 
1606 109.62 152.18 190.43 
1607 103.73 157.72 190.43 
1608 123.13 159.29 190.43 
1609 83.65 165.50 190.43 
1610 147.92 166.73 190.43 
1611 133.08 165.75 190.43 
1612 137.27 173.53 190.43 
1613 143.56 160.04 190.43 
1614 127.70 165.05 190.43 
1615 91.69 166.55 190.43 
1616 126.80 168.31 190.43 
1617 106.13 166.06 190.43 
1618 112.89 163.56 190.43 
1619 140.61 157.53 190.43 
1620 107.84 160.81 190.43 
1621 108.31 168.07 190.43 
1622 130.91 176.84 190.43 
1623 104.71 165.54 190.43 
1624 118.40 163.32 190.43 
1625 141.84 173.85 190.43 
1626 74.24 174.84 190.43 
1627 121.23 184.11 190.43 
1628 125.96 180.59 190.43 
1629 135.33 189.87 190.43 
1630 104.13 183.61 190.43 
1631 114.77 176.60 190.43 
1632 145.77 188.35 190.43 
1633 145.61 182.84 190.43 
1634 127.71 172.07 190.43 
1635 134.03 173.08 190.43 
1636 119.06 174.56 190.43 
1637 131.97 172.06 190.43 
1638 108.52 169.02 190.43 
1639 119.42 178.57 190.43 
1640 119.19 177.79 190.43 
1641 136.91 173.76 190.43 
1642 154.47 175.54 190.43 
1643 115.33 160.01 190.43 
1644 103.71 166.00 190.43 
1645 130.50 175.54 190.43 
1646 109.11 173.53 190.43 
1647 113.87 179.05 190.43 
1648 96.00 182.82 190.43 
1649 123.56 181.59 190.43 
1650 122.51 182.31 190.43 
1651 113.40 177.01 190.43 
1652 116.20 181.30 190.43 
1653 97.22 179.59 190.43 
1654 126.37 180.07 190.43 
1655 137.24 173.53 190.43 
1656 84.67 176.78 190.43 
1657 114.15 174.78 190.43 
1658 131.44 183.55 190.43 
1659 163.95 183.30 190.43 
1660 111.04 179.32 190.43 
1661 115.37 180.05 190.43 
1662 79.00 181.06 190.43 
1663 78.93 177.81 190.43 
1664 116.63 174.80 190.43 
1665 103.02 168.01 190.43 
1666 142.14 164.76 190.43 
1667 140.27 164.23 190.43 
1668 79.04 168.00 190.43 
1669 139.31 168.27 190.43 
1670 90.11 164.51 190.43 
1671 95.86 168.25 190.43 
1672 88.60 167.99 190.43 
1673 148.56 158.46 190.43 
1674 129.81 165.22 190.43 
1675 139.18 167.72 190.43 
1676 135.92 172.24 190.43 
1677 120.10 157.21 190.43 
1678 98.78 166.47 190.43 
1679 90.02 167.25 190.43 
1680 108.42 171.26 190.43 
1681 66.81 170.74 190.43 
1682 99.61 170.76 190.43 
1683 150.57 167.76 190.43 
1684 120.75 174.76 190.43 
1685 103.40 170.74 190.43 
1686 149.18 167.98 190.43 
1687 89.20 169.00 190.43 
1688 103.37 168.75 190.43 
1689 120.12 169.26 190.43 
1690 104.85 166.49 190.43 
1691 139.56 170.28 190.43 
1692 102.15 174.28 190.43 
1693 111.53 166.99 190.43 
1694 103.94 168.01 190.43 
1695 116.86 172.50 190.43 
1696 117.86 166.23 190.43 
1697 131.08 159.97 190.43 
1698 101.19 167.24 190.43 
1699 95.29 165.97 190.43 
1700 109.35 162.48 190.43 
1701 120.05 154.96 190.43 
1702 137.60 156.97 190.43 
1703 104.77 148.91 190.43 
1704 117.14 142.19 190.43 
1705 170.25 157.23 190.43 
1706 110.86 167.98 190.43 
1707 122.21 168.46 190.43 
1708 100.98 166.72 190.43 
1709 124.71 166.00 190.43 
1710 76.12 166.28 190.43 
1711 160.47 162.78 190.43 
1712 139.18 172.05 190.43 
1713 160.30 171.31 190.43 
1714 116.40 170.80 190.43 
1715 89.94 175.31 190.43 
1716 112.28 175.08 190.43 
1717 109.46 171.80 190.43 
1718 108.51 167.58 190.43 
1719 132.56 177.55 190.43 
1720 123.26 172.30 190.43 
1721 120.39 175.85 190.43 
1722 110.91 178.59 190.43 
1723 122.02 168.28 190.43 
1724 124.04 178.33 190.43 
1725 138.92 171.52 190.43 
1726 138.66 173.54 190.43 
1727 105.61 174.08 190.43 
1728 134.22 183.08 190.43 
1729 132.96 173.81 190.43 
1730 131.38 162.55 190.43 
1731 137.14 176.82 190.43 
1732 103.87 176.08 190.43 
1733 144.66 189.33 190.43 
1734 111.43 179.35 190.43 
1735 93.15 186.36 190.43 
1736 119.40 187.60 190.43 
1737 111.25 186.84 190.43 
1738 74.96 189.35 190.43 
1739 140.45 193.84 190.43 
1740 124.61 194.33 190.43 
1741 137.99 189.58 190.43 
1742 101.30 191.36 190.43 
1743 104.68 183.33 190.43 
1744 128.15 182.06 190.43 
1745 123.07 198.86 190.43 
1746 124.02 196.37 190.43 
1747 130.50 189.34 190.43 
1748 124.04 194.31 190.43 
1749 156.22 190.81 190.43 
1750 92.18 190.80 190.43 
1751 123.95 191.55 190.43 
1752 96.25 198.84 190.43 
1753 131.36 196.59 190.43 
1754 123.36 195.08 190.43 
1755 132.61 187.33 190.43 
1756 126.76 188.56 190.43 
1757 168.85 193.85 190.43 
1758 159.22 186.33 190.43 
1759 162.50 198.62 190.43 
1760 127.19 203.38 190.43 
1761 116.27 200.37 190.43 
1762 123.59 200.11 190.43 
1763 143.88 185.31 190.43 
1764 145.71 174.32 190.43 
1765 128.22 174.56 190.43 
1766 129.23 171.30 190.43 
1767 107.60 172.29 190.43 
1768 106.10 168.76 190.43 
1769 146.66 177.81 190.43 
1770 108.84 179.74 190.43 
1771 96.29 173.00 190.43 
1772 128.85 178.24 190.43 
1773 115.26 179.72 190.43 
1774 110.23 180.71 190.43 
1775 112.28 180.72 190.43 
1776 107.23 171.19 190.43 
1777 116.66 163.19 190.43 
1778 115.48 159.93 190.43 
1779 154.55 175.24 190.43 
1780 155.10 184.32 190.43 
1781 117.82 179.30 190.43 
1782 166.73 181.31 190.43 
1783 87.23 184.82 190.43 
1784 89.77 182.55 190.43 
1785 150.48 178.29 190.43 
1786 151.40 185.63 190.43 
1787 88.65 183.08 190.43 
1788 84.18 171.28 190.43 
1789 95.40 183.85 190.43 
1790 120.80 190.12 190.43 
1791 114.55 183.11 190.43 
1792 144.01 185.60 190.43 
1793 132.25 185.38 190.43 
1794 146.60 182.03 190.43 
1795 120.15 181.07 190.43 
1796 142.82 177.79 190.43 
1797 129.26 171.77 190.43 
1798 106.92 174.04 190.43 
1799 130.65 179.31 190.43 
1800 104.29 181.82 190.43 
1801 108.65 179.08 190.43 
1802 132.36 170.29 190.43 
1803 58.95 176.61 190.43 
1804 74.13 172.26 190.43 
1805 142.00 169.52 190.43 
1806 158.41 167.54 190.43 
1807 142.46 171.80 190.43 
1808 119.66 171.05 190.43 
1809 88.20 173.31 190.43 
1810 115.19 176.33 190.43 
1811 133.19 173.02 190.43 
1812 119.87 162.81 190.43 
1813 114.97 159.04 190.43 
1814 126.10 167.06 190.43 
1815 134.56 164.80 190.43 
1816 135.40 168.77 190.43 
1817 100.94 173.05 190.43 
1818 137.42 175.03 190.43 
1819 147.43 180.53 190.43 
1820 130.69 156.75 190.43 
1821 119.94 164.02 190.43 
1822 122.21 183.03 190.43 
1823 96.33 164.75 190.43 
1824 89.15 172.77 190.43 
1825 112.39 173.50 190.43 
1826 143.98 165.23 190.43 
1827 88.62 162.02 190.43 
1828 112.35 160.53 190.43 
1829 94.58 183.83 190.43 
1830 133.91 178.33 190.43 
1831 148.51 179.84 190.43 
1832 135.34 186.38 190.43 
1833 106.44 205.39 190.43 
1834 142.88 199.11 190.43 
1835 136.84 189.38 190.43 
1836 159.61 178.34 190.43 
1837 142.84 189.61 190.43 
1838 140.89 201.88 190.43 
1839 118.81 199.40 190.43 
1840 116.77 199.90 190.43 
1841 143.83 185.83 190.43 
1842 116.40 198.37 190.43 
1843 92.54 197.37 190.43 
1844 118.86 195.32 190.43 
1845 139.41 187.33 190.43 
1846 120.36 189.87 190.43 
1847 128.24 187.39 190.43 
1848 125.49 186.40 190.43 
1849 97.76 185.90 190.43 
1850 150.48 175.86 190.43 
1851 174.13 179.36 190.43 
1852 130.19 184.12 190.43 
1853 104.83 183.81 190.43 
1854 112.15 179.31 190.43 
1855 140.44 185.11 190.43 
1856 83.09 184.38 190.43 
1857 152.53 181.88 190.43 
1858 109.35 191.64 190.43 
1859 116.03 184.39 190.43 
1860 102.18 188.87 190.43 
1861 93.33 194.88 190.43 
1862 93.11 190.16 190.43 
1863 144.34 187.66 190.43 
1864 99.85 182.90 190.43 
1865 111.58 184.39 190.43 
1866 96.19 184.39 190.43 
1867 147.39 180.87 190.43 
1868 86.77 189.90 190.43 
1869 113.91 195.17 190.43 
1870 115.24 193.66 190.43 
1871 126.31 182.89 190.43 
1872 117.80 181.88 190.43 
1873 141.06 188.64 190.43 
1874 140.99 190.88 190.43 
1875 93.27 181.84 190.43 
1876 118.86 179.60 190.43 
1877 100.78 185.37 190.43 
1878 122.02 183.37 190.43 
1879 81.94 184.07 190.43 
1880 138.60 184.82 190.43 
1881 134.98 172.29 190.43 
1882 94.73 173.82 190.43 
1883 86.23 176.31 190.43 
1884 89.05 172.81 190.43 
1885 108.23 187.83 190.43 
1886 132.72 193.11 190.43 
1887 112.18 186.10 190.43 
1888 155.65 186.62 190.43 
1889 146.63 187.14 190.43 
1890 128.43 201.92 190.43 
1891 127.04 201.89 190.43 
1892 120.70 200.41 190.43 
1893 120.20 204.65 190.43 
1894 160.24 207.13 190.43 
1895 105.10 199.12 190.43 
1896 131.98 197.86 190.43 
1897 89.61 201.87 190.43 
1898 117.04 197.35 190.43 
1899 154.21 198.58 190.43 
1900 124.47 195.59 190.43 
1901 137.02 200.86 190.43 
1902 128.32 196.58 190.43 
1903 114.27 203.10 190.43 
1904 122.02 187.32 190.43 
1905 141.75 205.35 190.43 
1906 126.97 197.30 190.43 
1907 115.78 190.03 190.43 
1908 143.58 196.31 190.43 
1909 109.24 181.54 190.43 
1910 174.09 180.30 190.43 
1911 132.93 177.82 190.43 
1912 103.27 180.81 190.43 
1913 171.21 186.57 190.43 
1914 103.48 175.82 190.43 
1915 124.96 183.09 190.43 
1916 132.73 189.11 190.43 
1917 101.99 182.30 190.43 
1918 98.08 180.82 190.43 
1919 105.83 190.85 190.43 
1920 126.79 198.41 190.43 
1921 80.30 204.40 190.43 
1922 97.96 203.40 190.43 
1923 111.14 202.11 190.43 
1924 154.49 197.59 190.43 
1925 120.39 197.34 190.43 
1926 111.90 199.84 190.43 
1927 114.63 196.05 190.43 
1928 116.14 181.79 190.43 
1929 141.03 186.81 190.43 
1930 123.50 177.84 190.43 
1931 119.57 184.57 190.43 
1932 109.35 195.32 190.43 
1933 129.49 186.05 190.43 
1934 146.79 186.03 190.43 
1935 148.31 175.29 190.43 
1936 115.18 177.77 190.43 
1937 124.46 174.26 190.43 
1938 146.84 165.73 190.43 
1939 141.62 168.76 190.43 
1940 128.23 171.76 190.43 
1941 127.63 173.51 190.43 
1942 131.76 172.01 190.43 
1943 134.77 176.28 190.43 
1944 137.08 192.57 190.43 
1945 146.22 199.58 190.43 
1946 116.58 189.29 190.43 
1947 133.39 194.35 190.43 
1948 134.99 195.36 190.43 
1949 108.28 198.61 190.43 
1950 124.03 201.12 190.43 
1951 130.82 199.62 190.43 
1952 93.79 199.58 190.43 
1953 127.39 185.83 190.43 
1954 134.54 193.35 190.43 
1955 130.02 190.59 190.43 
1956 102.42 187.06 190.43 
1957 142.07 195.31 190.43 
1958 130.14 182.04 190.43 
1959 111.69 193.05 190.43 
1960 91.98 174.51 190.43 
1961 170.51 182.75 190.43 
1962 123.45 178.99 190.43 
1963 115.79 179.49 190.43 
1964 162.54 172.24 190.43 
1965 94.38 171.21 190.43 
1966 133.27 177.47 190.43 
1967 124.77 183.23 190.43 
1968 130.93 189.27 190.43 
1969 141.34 180.99 190.43 
1970 135.45 181.01 190.43 
1971 126.24 181.75 190.43 
1972 147.03 187.02 190.43 
1973 114.67 171.49 190.43 
1974 135.49 160.76 190.43 
1975 143.18 153.99 190.43 
1976 108.66 161.97 190.43 
1977 141.88 165.23 190.43 
1978 90.08 160.95 190.43 
1979 122.68 167.47 190.43 
1980 115.11 159.73 190.43 
1981 134.58 161.22 190.43 
1982 104.82 150.68 190.43 
1983 116.21 152.17 190.43 
1984 156.93 138.61 190.43 
1985 139.89 148.40 190.43 
1986 105.76 147.65 190.43 
1987 118.12 151.65 190.43 
1988 122.38 168.00 190.43 
1989 123.57 140.94 190.43 
1990 114.83 160.94 190.43 
1991 113.82 150.93 190.43 
1992 113.46 154.66 190.43 
1993 119.79 144.39 190.43 
1994 139.76 147.19 190.43 
1995 84.39 149.65 190.43 
1996 90.99 154.97 190.43 
1997 133.89 154.45 190.43 
1998 114.03 146.16 190.43 
1999 121.85 141.37 190.43 
2000 131.53 139.65 190.43 
2001 136.29 139.91 190.43 
2002 120.84 167.19 190.43 
2003 137.16 162.46 190.43 
2004 149.17 157.43 190.43 
2005 116.38 164.20 190.43 
2006 105.40 164.70 190.43 
2007 152.15 162.20 190.43 
2008 118.05 165.69 190.43 
2009 143.64 164.49 190.43 
2010 145.49 163.49 190.43 
2011 173.47 168.74 190.43 
2012 145.21 176.28 190.43 
2013 121.47 178.53 190.43 
2014 130.75 175.02 190.43 
2015 104.93 171.29 190.43 
2016 144.82 169.28 190.43 
2017 125.63 170.53 190.43 
2018 130.56 174.30 190.43 
2019 93.20 170.53 190.43 
2020 114.21 170.03 190.43 
2021 133.27 165.02 190.43 
2022 109.11 174.56 190.43 
2023 167.31 178.06 190.43 
2024 137.36 173.54 190.43 
2025 101.45 173.06 190.43 
2026 109.82 174.30 190.43 
2027 73.31 179.32 190.43 
2028 107.56 169.81 190.43 
2029 74.17 172.80 190.43 
2030 119.51 169.53 190.43 
2031 135.30 174.55 190.43 
2032 116.47 168.30 190.43 
2033 134.42 171.31 190.43 
2034 134.20 170.29 190.43 
2035 88.34 180.30 190.43 
2036 125.78 172.05 190.43 
2037 95.92 173.54 190.43 
2038 102.65 170.54 190.43 
2039 166.37 175.05 190.43 
2040 140.78 169.78 190.43 
2041 126.82 165.02 190.43 
2042 130.46 167.26 190.43 
2043 127.21 168.03 190.43 
2044 167.81 170.78 190.43 
2045 87.40 169.03 190.43 
2046 120.22 169.55 190.43 
2047 131.98 170.55 190.43 
2048 76.08 174.79 190.43 
2049 131.87 178.55 190.43 
2050 133.10 179.54 190.43 
2051 108.37 180.83 190.43 
2052 118.95 177.34 190.43 
2053 103.19 179.34 190.43 
2054 107.15 178.60 190.43 
2055 125.31 178.86 190.43 
2056 135.13 176.85 190.43 
2057 114.77 173.09 190.43 
2058 134.20 176.33 190.43 
2059 125.24 175.58 190.43 
2060 129.25 174.06 190.43 
2061 132.43 171.59 190.43 
2062 107.27 171.80 190.43 
2063 136.78 175.05 190.43 
2064 130.03 175.53 190.43 
2065 97.79 174.06 190.43 
2066 117.94 171.04 190.43 
2067 72.85 171.31 190.43 
2068 99.06 172.30 190.43 
2069 120.70 171.56 190.43 
2070 124.53 172.56 190.43 
2071 120.16 171.07 190.43 
2072 147.85 173.30 190.43 
2073 139.10 170.56 190.43 
2074 113.75 171.08 190.43 
2075 115.10 170.58 190.43 
2076 126.51 164.82 190.43 
2077 162.95 168.07 190.43 
2078 121.39 169.32 190.43 
2079 136.60 172.59 190.43 
2080 129.19 169.09 190.43 
2081 136.19 174.63 190.43 
2082 123.53 170.61 190.43 
2083 108.57 172.36 190.43 
2084 91.92 169.62 190.43 
2085 82.07 168.38 190.43 
2086 100.44 170.11 190.43 
2087 127.50 168.62 190.43 
2088 123.23 170.11 190.43 
2089 144.51 176.11 190.43 
2090 146.41 177.12 190.43 
2091 176.07 176.87 190.43 
2092 143.77 171.85 190.43 
2093 104.97 176.37 190.43 
2094 105.21 171.37 190.43 
2095 76.08 176.13 190.43 
2096 130.25 172.38 190.43 
2097 153.66 174.14 190.43 
2098 118.43 171.64 190.43 
2099 119.54 174.63 190.43 
2100 103.18 172.87 190.43 
2101 145.65 176.13 190.43 
2102 114.40 172.12 190.43 
2103 133.40 170.88 190.43 
2104 158.16 175.61 190.43 
2105 116.10 175.62 190.43 
2106 140.61 171.37 190.43 
2107 123.72 175.63 190.43 
2108 148.88 176.37 190.43 
2109 108.94 175.39 190.43 
2110 111.04 175.89 190.43 
2111 134.31 178.89 190.43 
2112 128.25 172.89 190.43 
2113 98.70 172.39 190.43 
2114 127.78 173.89 190.43 
2115 115.91 178.40 190.43 
2116 104.88 172.38 190.43 
2117 85.90 177.13 190.43 
2118 152.57 189.63 190.43 
2119 90.84 168.86 190.43 
2120 108.36 179.13 190.43 
2121 124.22 176.85 190.43 
2122 108.21 172.61 190.43 
2123 101.15 171.10 190.43 
2124 165.70 170.08 190.43 
2125 130.20 172.33 190.43 
2126 128.46 169.59 190.43 
2127 147.36 168.08 190.43 
2128 130.81 169.08 190.43 
2129 124.92 171.09 190.43 
2130 165.04 171.57 190.43 
2131 124.88 170.30 190.43 
2132 161.00 169.05 190.43 
2133 168.02 176.06 190.43 
2134 130.07 172.80 190.43 
2135 88.68 177.05 190.43 
2136 111.39 174.03 190.43 
2137 104.16 173.29 190.43 
2138 128.01 175.77 190.43 
2139 137.00 176.80 190.43 
2140 157.09 180.28 190.43 
2141 120.28 176.53 190.43 
2142 147.46 182.31 190.43 
2143 87.51 174.56 190.43 
2144 153.95 175.29 190.43 
2145 150.89 177.28 190.43 
2146 173.08 176.78 190.43 
2147 101.90 173.53 190.43 
2148 142.83 173.54 190.43 
2149 139.03 176.26 190.43 
2150 96.49 179.03 190.43 
2151 118.52 178.79 190.43 
2152 143.60 176.05 190.43 
2153 120.09 180.54 190.43 
2154 107.35 167.98 190.43 
2155 116.61 182.53 190.43 
2156 111.43 182.28 190.43 
2157 112.56 177.54 190.43 
2158 147.17 182.76 190.43 
2159 140.24 179.00 190.43 
2160 135.88 184.77 190.43 
2161 88.15 185.79 190.43 
2162 102.64 181.04 190.43 
2163 104.43 177.52 190.43 
2164 135.46 184.77 190.43 
2165 120.84 187.53 190.43 
2166 112.58 182.76 190.43 
2167 113.16 183.03 190.43 
2168 96.53 183.07 190.43 
2169 134.98 178.03 190.43 
2170 92.56 174.05 190.43 
2171 105.73 172.01 190.43 
2172 142.06 167.06 190.43 
2173 130.37 159.58 190.43 
2174 103.39 169.83 190.43 
2175 141.88 170.54 190.43 
2176 123.31 174.78 190.43 
2177 161.84 175.02 190.43 
2178 98.07 174.26 190.43 
2179 99.32 169.23 190.43 
2180 124.25 167.51 190.43 
2181 146.76 166.75 190.43 
2182 112.77 178.27 190.43 
2183 144.11 173.52 190.43 
2184 165.36 172.54 190.43 
2185 153.09 168.02 190.43 
2186 144.88 171.76 190.43 
2187 148.78 172.48 190.43 
2188 137.80 175.54 190.43 
2189 104.95 174.28 190.43 
2190 137.45 170.77 190.43 
2191 141.12 171.79 190.43 
2192 120.00 167.78 190.43 
2193 133.50 173.52 190.43 
2194 107.76 161.53 190.43 
2195 116.41 179.53 190.43 
2196 100.83 175.78 190.43 
2197 97.76 177.81 190.43 
2198 120.19 177.77 190.43 
2199 117.87 180.06 190.43 
2200 163.79 185.82 190.43 
2201 119.80 188.06 190.43 
2202 114.19 189.05 190.43 
2203 152.54 187.57 190.43 
2204 111.31 177.51 190.43 
2205 126.49 181.29 190.43 
2206 63.39 187.53 190.43 
2207 125.21 184.78 190.43 
2208 97.03 195.79 190.43 
2209 110.09 185.54 190.43 
2210 123.14 191.50 190.43 
2211 115.88 189.53 190.43 
2212 126.36 193.28 190.43 
2213 135.23 194.30 190.43 
2214 117.59 189.52 190.43 
2215 143.61 186.77 190.43 
2216 121.28 180.25 190.43 
2217 136.19 178.25 190.43 
2218 117.75 175.74 190.43 
2219 71.90 180.26 190.43 
2220 106.69 182.51 190.43 
2221 132.21 180.75 190.43 
2222 140.36 189.76 190.43 
2223 107.32 191.25 190.43 
2224 115.96 193.50 190.43 
2225 97.10 193.76 190.43 
2226 102.68 195.27 190.43 
2227 121.68 198.78 190.43 
2228 116.48 195.02 190.43 
2229 140.46 193.76 190.43 
2230 154.79 193.52 190.43 
2231 112.49 195.81 190.43 
2232 127.76 193.78 190.43 
2233 133.20 194.53 190.43 
2234 106.00 194.53 190.43 
2235 114.88 196.04 190.43 
2236 92.20 196.29 190.43 
2237 137.26 188.25 190.43 
2238 163.79 191.01 190.43 
2239 130.94 194.74 190.43 
2240 119.88 187.26 190.43 
2241 124.92 185.50 190.43 
2242 119.27 187.51 190.43 
2243 85.87 179.99 190.43 
2244 125.43 182.26 190.43 
2245 129.37 184.26 190.43 
2246 124.97 189.26 190.43 
2247 113.46 185.98 190.43 
2248 116.64 180.00 190.43 
2249 86.39 182.01 190.43 
2250 132.05 183.04 190.43 
2251 108.12 174.51 190.43 
2252 78.19 172.78 190.43 
2253 130.04 176.26 190.43 
2254 147.62 176.26 190.43 
2255 118.35 179.50 190.43 
2256 109.95 178.25 190.43 
2257 125.44 171.22 190.43 
2258 87.60 167.73 190.43 
2259 108.08 173.97 190.43 
2260 95.51 171.97 190.43 
2261 102.06 168.98 190.43 
2262 110.46 169.46 190.43 
2263 116.60 174.21 190.43 
2264 118.51 172.23 190.43 
2265 137.27 176.49 190.43 
2266 87.40 171.97 190.43 
2267 118.39 167.48 190.43 
2268 98.36 171.49 190.43 
2269 127.76 179.49 190.43 
2270 107.74 182.49 190.43 
2271 97.95 177.77 190.43 
2272 108.93 186.80 190.43 
2273 88.44 188.80 190.43 
2274 104.86 186.56 190.43 
2275 128.56 194.55 190.43 
2276 135.44 193.55 190.43 
2277 119.56 188.07 190.43 
2278 107.91 193.81 190.43 
2279 105.67 190.81 190.43 
2280 132.81 191.33 190.43 
2281 117.91 191.58 190.43 
2282 149.56 192.08 190.43 
2283 103.74 191.33 190.43 
2284 129.47 189.60 190.43 
2285 100.83 190.10 190.43 
2286 130.30 190.85 190.43 
2287 156.97 187.60 190.43 
2288 130.60 191.09 190.43 
2289 92.43 195.36 190.43 
2290 133.95 193.34 190.43 
2291 107.42 192.34 190.43 
2292 121.62 194.59 190.43 
2293 132.10 187.31 190.43 
2294 138.64 195.56 190.43 
2295 141.07 195.58 190.43 
2296 118.59 195.08 190.43 
2297 168.76 202.11 190.43 
2298 124.69 198.85 190.43 
2299 134.38 194.85 190.43 
2300 119.54 194.35 190.43 
2301 107.58 200.62 190.43 
2302 121.12 195.37 190.43 
2303 131.83 202.13 190.43 
2304 135.76 199.13 190.43 
2305 101.54 196.37 190.43 
2306 138.64 196.37 190.43 
2307 179.34 200.14 190.43 
2308 129.47 194.63 190.43 
2309 114.93 194.61 190.43 
2310 132.55 194.87 190.43 
2311 132.63 194.37 190.43 
2312 96.65 198.88 190.43 
2313 154.44 195.87 190.43 
2314 96.18 198.13 190.43 
2315 66.71 193.64 190.43 
2316 165.61 191.88 190.43 
2317 115.38 191.15 190.43 
2318 158.85 191.12 190.43 
2319 123.89 193.65 190.43 
2320 88.51 199.87 190.43 
2321 113.24 196.87 190.43 
2322 120.38 199.37 190.43 
2323 84.23 197.85 190.43 
2324 154.98 195.88 190.43 
2325 119.22 198.38 190.43 
2326 116.88 198.13 190.43 
2327 143.32 200.14 190.43 
2328 126.24 197.14 190.43 
2329 111.49 196.16 190.43 
2330 106.98 196.41 190.43 
2331 115.67 194.65 190.43 
2332 130.41 202.67 190.43 
2333 117.41 199.91 190.43 
2334 187.61 200.67 190.43 
2335 127.74 196.40 190.43 
2336 113.42 206.17 190.43 
2337 133.19 201.66 190.43 
2338 149.19 203.92 190.43 
2339 148.72 203.92 190.43 
2340 105.33 201.16 190.43 
2341 103.93 198.66 190.43 
2342 107.43 199.17 190.43 
2343 134.36 196.91 190.43 
2344 123.72 193.65 190.43 
2345 138.21 196.17 190.43 
2346 147.19 193.17 190.43 
2347 117.90 191.40 190.43 
2348 158.19 190.65 190.43 
2349 120.56 192.12 190.43 
2350 141.33 189.37 190.43 
2351 123.46 191.35 190.43 
2352 144.91 185.59 190.43 
2353 136.81 185.34 190.43 
2354 134.76 183.33 190.43 
2355 106.75 185.61 190.43 
2356 115.72 185.12 190.43 
2357 164.22 186.11 190.43 
2358 108.14 189.34 190.43 
2359 85.49 189.60 190.43 
2360 114.27 195.38 190.43 
2361 109.83 195.38 190.43 
2362 124.23 188.86 190.43 
2363 112.22 189.86 190.43 
2364 117.95 195.37 190.43 
2365 79.76 191.85 190.43 
2366 142.64 187.85 190.43 
2367 117.88 190.38 190.43 
2368 124.05 188.14 190.43 
2369 122.51 190.62 190.43 
2370 158.63 192.13 190.43 
2371 135.66 197.67 190.43 
2372 138.30 193.90 190.43 
2373 144.95 193.17 190.43 
2374 147.66 197.66 190.43 
2375 113.83 194.15 190.43 
2376 133.29 192.40 190.43 
2377 156.54 193.89 190.43 
2378 155.64 192.37 190.43 
2379 175.63 201.39 190.43 
2380 101.13 199.16 190.43 
2381 116.52 196.16 190.43 
2382 129.55 193.63 190.43 
2383 88.61 191.37 190.43 
2384 104.69 196.89 190.43 
2385 106.61 196.11 190.43 
2386 106.00 193.62 190.43 
2387 105.57 192.63 190.43 
2388 101.63 192.40 190.43 
2389 140.31 189.41 190.43 
2390 74.89 184.40 190.43 
2391 123.77 192.90 190.43 
2392 151.05 188.39 190.43 
2393 118.84 183.14 190.43 
2394 100.61 181.88 190.43 
2395 116.76 188.88 190.43 
2396 161.36 186.14 190.43 
2397 127.66 183.38 190.43 
2398 124.80 188.14 190.43 
2399 115.03 190.12 190.43 
2400 166.51 186.64 190.43 
2401 109.62 186.88 190.43 
2402 119.71 186.39 190.43 
2403 113.85 187.64 190.43 
2404 105.19 189.63 190.43 
2405 119.06 189.40 190.43 
2406 101.19 191.90 190.43 
2407 99.80 188.88 190.43 
2408 109.88 199.16 190.43 
2409 92.04 188.64 190.43 
2410 123.93 187.86 190.43 
2411 124.17 182.89 190.43 
2412 112.35 184.63 190.43 
2413 125.10 181.88 190.43 
2414 144.75 183.34 190.43 
2415 80.64 188.84 190.43 
2416 95.73 190.85 190.43 
2417 103.69 190.38 190.43 
2418 156.66 187.60 190.43 
2419 99.08 184.63 190.43 
2420 128.29 187.11 190.43 
2421 146.07 189.86 190.43 
2422 125.23 193.37 190.43 
2423 139.20 193.64 190.43 
2424 133.49 193.14 190.43 
2425 162.97 200.65 190.43 
2426 137.02 185.62 190.43 
2427 119.87 201.90 190.43 
2428 94.46 199.39 190.43 
2429 143.57 204.42 190.43 
2430 127.39 207.93 190.43 
2431 148.67 204.63 190.43 
2432 122.90 201.92 190.43 
2433 153.38 199.68 190.43 
2434 140.15 205.91 190.43 
2435 146.67 202.39 190.43 
2436 132.08 203.88 190.43 
2437 140.75 192.36 190.43 
2438 139.04 189.34 190.43 
2439 137.98 181.84 190.43 
2440 111.65 190.86 190.43 
2441 135.04 197.39 190.43 
2442 131.18 196.36 190.43 
2443 146.09 192.39 190.43 
2444 132.55 191.35 190.43 
2445 119.27 195.35 190.43 
2446 93.40 181.56 190.43 
2447 121.68 176.33 190.43 
2448 123.59 184.85 190.43 
2449 101.51 175.30 190.43 
2450 137.17 174.80 190.43 
2451 171.68 175.54 190.43 
2452 118.94 165.51 190.43 
2453 109.95 177.30 190.43 
2454 135.88 185.81 190.43 
2455 119.88 181.57 190.43 
2456 151.19 181.31 190.43 
2457 147.12 183.06 190.43 
2458 112.07 179.31 190.43 
2459 95.21 191.83 190.43 
2460 128.77 195.61 190.43 
2461 124.17 193.63 190.43 
2462 124.90 197.12 190.43 
2463 135.64 194.89 190.43 
2464 101.09 196.92 190.43 
2465 129.91 199.39 190.43 
2466 139.96 192.89 190.43 
2467 88.00 188.66 190.43 
2468 105.38 192.60 190.43 
2469 128.03 192.11 190.43 
2470 93.54 189.11 190.43 
2471 117.19 186.38 190.43 
2472 116.55 190.36 190.43 
2473 163.04 185.34 190.43 
2474 147.81 192.15 190.43 
2475 114.03 193.15 190.43 
2476 105.36 193.66 190.43 
2477 90.55 190.39 190.43 
2478 104.49 186.66 190.43 
2479 121.86 186.89 190.43 
2480 135.90 187.37 190.43 
2481 101.00 187.87 190.43 
2482 112.90 192.86 190.43 
2483 109.92 187.63 190.43 
2484 120.07 183.85 190.43 
2485 108.58 180.07 190.43 
2486 126.70 187.59 190.43 
2487 121.78 188.85 190.43 
2488 106.95 187.04 190.43 
2489 112.75 179.07 190.43 
2490 66.04 186.57 190.43 
2491 122.79 184.55 190.43 
2492 98.91 184.83 190.43 
2493 114.04 184.56 190.43 
2494 95.57 187.31 190.43 
2495 131.23 183.05 190.43 
2496 151.61 185.85 190.43 
2497 75.40 184.55 190.43 
2498 139.11 186.09 190.43 
2499 127.56 186.83 190.43 
2500 119.82 188.29 190.43 
2501 121.92 190.83 190.43 
2502 137.70 188.60 190.43 
2503 103.54 189.54 190.43 
2504 117.32 193.56 190.43 
2505 158.83 193.33 190.43 
2506 138.10 196.11 190.43 
2507 134.10 195.33 190.43 
2508 109.41 198.61 190.43 
2509 132.12 190.58 190.43 
2510 128.45 188.83 190.43 
2511 126.29 192.84 190.43 
2512 109.25 194.60 190.43 
2513 128.46 189.09 190.43 
2514 128.75 195.33 190.43 
2515 159.12 191.82 190.43 
2516 103.44 185.31 190.43 
2517 117.35 192.07 190.43 
2518 131.26 193.82 190.43 
2519 111.72 189.54 190.43 
2520 108.04 184.53 190.43 
2521 132.93 196.56 190.43 
2522 170.18 186.78 190.43 
2523 111.63 197.80 190.43 
2524 133.72 194.80 190.43 
2525 71.06 192.27 190.43 
2526 106.97 189.74 190.43 
2527 128.75 189.03 190.43 
2528 128.19 192.28 190.43 
2529 120.15 191.50 190.43 
2530 110.78 187.75 190.43 
2531 89.08 184.75 190.43 
2532 107.78 183.72 190.43 
2533 136.85 181.69 190.43 
2534 105.63 177.94 190.43 
2535 143.88 181.47 190.43 
2536 132.33 176.99 190.43 
2537 105.29 176.46 190.43 
2538 115.29 172.97 190.43 
2539 128.19 177.71 190.43 
2540 96.80 179.18 190.43 
2541 82.51 175.42 190.43 
2542 124.19 174.40 190.43 
2543 119.12 174.63 190.43 
2544 119.49 175.40 190.43 
2545 124.40 176.93 190.43 
2546 122.78 170.68 190.43 
2547 115.12 176.70 190.43 
2548 98.42 173.67 190.43 
2549 139.71 172.96 190.43 
2550 142.63 175.45 190.43 
2551 115.93 175.46 190.43 
2552 142.94 176.23 190.43 
2553 150.37 171.01 190.43 
2554 118.31 175.01 190.43 
2555 119.13 173.51 190.43 
2556 111.32 172.75 190.43 
2557 131.07 172.98 190.43 
2558 112.30 173.28 190.43 
2559 148.76 172.52 190.43 
2560 114.31 175.52 190.43 
2561 120.48 168.52 190.43 
2562 108.20 175.27 190.43 
2563 184.12 171.07 190.43 
2564 137.70 173.52 190.43 
2565 128.01 173.57 190.43 
2566 133.62 175.54 190.43 
2567 118.66 174.82 190.43 
2568 90.49 175.81 190.43 
2569 138.77 177.32 190.43 
2570 78.18 176.58 190.43 
2571 159.52 179.32 190.43 
2572 85.18 177.64 190.43 
2573 105.14 170.59 190.43 
2574 105.92 175.38 190.43 
2575 125.72 172.35 190.43 
2576 168.09 179.86 190.43 
2577 149.21 177.57 190.43 
2578 90.52 179.11 190.43 
2579 150.95 174.63 190.43 
2580 127.73 176.10 190.43 
2581 154.07 181.11 190.43 
2582 150.94 181.63 190.43 
2583 119.68 184.38 190.43 
2584 103.67 175.86 190.43 
2585 181.25 179.64 190.43 
2586 95.00 178.88 190.43 
2587 107.71 178.38 190.43 
2588 111.12 183.14 190.43 
2589 103.70 181.93 190.43 
2590 136.31 175.66 190.43 
2591 78.95 183.41 190.43 
2592 136.55 180.42 190.43 
2593 107.22 174.43 190.43 
2594 151.10 168.92 190.43 
2595 128.59 172.42 190.43 
2596 155.18 170.88 190.43 
2597 103.12 166.89 190.43 
2598 127.87 170.39 190.43 
2599 120.84 170.11 190.43 
2600 118.17 169.62 190.43 
2601 136.96 170.63 190.43 
2602 136.37 168.84 190.43 
2603 149.97 168.59 190.43 
2604 126.32 170.09 190.43 
2605 138.35 167.33 190.43 
2606 105.66 167.07 190.43 
2607 101.92 169.34 190.43 
2608 131.00 165.82 190.43 
2609 96.20 164.09 190.43 
2610 129.68 169.86 190.43 
2611 158.90 166.60 190.43 
2612 102.57 169.11 190.43 
2613 113.91 153.63 190.43 
2614 117.36 160.62 190.43 
2615 127.39 159.63 190.43 
2616 123.88 169.87 190.43 
2617 147.12 165.14 190.43 
2618 148.17 164.61 190.43 
2619 118.08 159.63 190.43 
2620 90.04 168.64 190.43 
2621 118.12 163.14 190.43 
2622 147.69 171.90 190.43 
2623 104.63 164.91 190.43 
2624 126.83 159.61 190.43 
2625 127.71 160.13 190.43 
2626 135.25 164.14 190.43 
2627 77.84 162.34 190.43 
2628 144.49 161.33 190.43 
2629 106.90 164.60 190.43 
2630 135.05 165.62 190.43 
2631 139.62 161.35 190.43 
2632 121.82 158.60 190.43 
2633 133.21 156.60 190.43 
2634 102.41 156.38 190.43 
2635 139.75 162.41 190.43 
2636 116.79 160.65 190.43 
2637 139.21 162.89 190.43 
2638 120.44 167.17 190.43 
2639 128.78 170.17 190.43 
2640 141.31 165.18 190.43 
2641 163.76 167.44 190.43 
2642 123.68 161.88 190.43 
2643 93.84 159.66 190.43 
2644 116.32 163.41 190.43 
2645 138.88 163.16 190.43 
2646 96.36 163.89 190.43 
2647 104.09 159.16 190.43 
2648 131.03 165.43 190.43 
2649 150.58 165.43 190.43 
2650 143.06 164.42 190.43 
2651 102.83 167.90 190.43 
2652 139.31 168.91 190.43 
2653 135.64 170.44 190.43 
2654 131.67 165.42 190.43 
2655 96.81 165.92 190.43 
2656 139.01 165.92 190.43 
2657 173.11 164.16 190.43 
2658 93.12 167.38 190.43 
2659 144.72 164.84 190.43 
2660 70.48 163.38 190.43 
2661 119.68 162.63 190.43 
2662 132.06 164.09 190.43 
2663 99.88 166.85 190.43 
2664 154.48 169.37 190.43 
2665 75.05 159.59 190.43 
2666 123.70 165.60 190.43 
2667 127.30 170.90 190.43 
2668 126.61 165.11 190.43 
2669 129.11 160.85 190.43 
2670 108.98 164.88 190.43 
2671 153.19 167.13 190.43 
2672 125.12 169.41 190.43 
2673 102.18 164.38 190.43 
2674 151.45 168.65 190.43 
2675 69.37 170.64 190.43 
2676 131.91 166.15 190.43 
2677 163.29 164.12 190.43 
2678 143.05 164.42 190.43 
2679 122.58 163.14 190.43 
2680 163.54 167.14 190.43 
2681 133.45 172.17 190.43 
2682 129.73 169.66 190.43 
2683 143.94 164.63 190.43 
2684 159.38 170.41 190.43 
2685 80.32 160.37 190.43 
2686 104.85 167.14 190.43 
2687 101.85 166.89 190.43 
2688 147.24 165.11 190.43 
2689 116.63 169.87 190.43 
2690 124.77 176.13 190.43 
2691 135.92 169.61 190.43 
2692 173.72 196.13 190.43 
2693 141.45 191.95 190.43 
2694 61.76 186.37 190.43 
2695 156.20 192.89 190.43 
2696 142.93 193.65 190.43 
2697 139.14 182.16 190.43 
2698 152.46 195.17 190.43 
2699 166.41 174.36 190.43 
2700 121.56 172.89 190.43 
2701 144.49 171.13 190.43 
2702 95.20 172.39 190.43 
2703 135.65 171.39 190.43 
2704 159.35 172.38 190.43 
2705 116.96 171.63 190.43 
2706 123.56 170.11 190.43 
2707 115.02 179.16 190.43 
2708 125.86 173.64 190.43 
2709 127.13 173.16 190.43 
2710 137.24 174.89 190.43 
2711 109.69 172.93 190.43 
2712 125.21 176.39 190.43 
2713 171.55 185.66 190.43 
2714 169.53 170.12 190.43 
2715 122.27 167.89 190.43 
2716 115.05 174.90 190.43 
2717 126.24 175.16 190.43 
2718 123.00 188.67 190.43 
2719 140.02 183.66 190.43 
2720 130.49 170.39 190.43 
2721 120.97 166.65 190.43 
2722 133.13 174.90 190.43 
2723 123.54 174.41 190.43 
2724 135.55 169.88 190.43 
2725 133.49 169.85 190.43 
2726 97.10 167.07 190.43 
2727 136.99 166.57 190.43 
2728 133.55 160.05 190.43 
2729 90.11 168.31 190.43 
2730 158.34 168.83 190.43 
2731 111.07 164.58 190.43 
2732 115.23 162.08 190.43 
2733 108.72 164.82 190.43 
2734 116.19 160.30 190.43 
2735 126.75 162.32 190.43 
2736 165.88 160.57 190.43 
2737 98.69 164.57 190.43 
2738 151.63 160.09 190.43 
2739 134.33 164.58 190.43 
2740 79.48 167.31 190.43 
2741 136.16 165.31 190.43 
2742 152.25 168.02 190.43 
2743 112.51 168.81 190.43 
2744 108.13 168.35 190.43 
2745 130.86 170.30 190.43 
2746 117.57 170.31 190.43 
2747 148.86 164.30 190.43 
2748 99.42 171.79 190.43 
2749 136.19 170.00 190.43 
2750 147.29 174.04 190.43 
2751 146.68 173.56 190.43 
2752 103.79 174.81 190.43 
2753 116.36 175.56 190.43 
2754 108.69 178.58 190.43 
2755 132.19 195.60 190.43 
2756 76.24 196.35 190.43 
2757 136.55 201.35 190.43 
2758 104.89 197.35 190.43 
2759 95.00 192.34 190.43 
2760 93.74 197.87 190.43 
2761 132.54 198.89 190.43 
2762 132.84 199.40 190.43 
2763 179.97 205.15 190.43 
2764 110.99 205.40 190.43 
2765 150.54 208.40 190.43 
2766 123.58 199.14 190.43 
2767 68.61 193.65 190.43 
2768 140.46 198.67 190.43 
2769 124.70 191.88 190.43 
2770 154.98 193.64 190.43 
2771 127.49 196.15 190.43 
2772 119.75 195.93 190.43 
2773 110.01 192.18 190.43 
2774 126.13 197.19 190.43 
2775 119.04 195.67 190.43 
2776 142.22 195.16 190.43 
2777 173.84 191.16 190.43 
2778 142.93 195.41 190.43 
2779 123.49 193.91 190.43 
2780 118.06 194.40 190.43 
2781 137.03 190.15 190.43 
2782 96.15 192.16 190.43 
2783 111.89 181.67 190.43 
2784 160.37 193.42 190.43 
2785 108.61 194.69 190.43 
2786 143.40 196.69 190.43 
2787 118.79 196.69 190.43 
2788 124.23 195.67 190.43 
2789 137.98 195.65 190.43 
2790 141.19 196.38 190.43 
2791 161.94 197.65 190.43 
2792 130.03 195.16 190.43 
2793 122.73 196.43 190.43 
2794 92.28 197.16 190.43 
2795 119.66 196.67 190.43 
2796 146.62 197.16 190.43 
2797 141.66 204.71 190.43 
2798 112.34 191.69 190.43 
2799 111.62 199.70 190.43 
2800 118.53 200.19 190.43 
2801 137.73 198.68 190.43 
2802 118.28 196.91 190.43 
2803 158.36 197.91 190.43 
2804 121.08 192.68 190.43 
2805 86.20 193.90 190.43 
2806 88.14 192.90 190.43 
2807 140.72 189.44 190.43 
2808 109.86 189.15 190.43 
2809 125.62 189.17 190.43 
2810 118.64 192.66 190.43 
2811 116.97 192.16 190.43 
2812 129.35 198.14 190.43 
2813 101.65 209.64 190.43 
2814 127.11 209.64 190.43 
2815 106.18 192.90 190.43 
2816 116.26 181.37 190.43 
2817 144.81 195.87 190.43 
2818 116.29 198.63 190.43 
2819 150.83 201.67 190.43 
2820 127.64 207.92 190.43 
2821 85.03 209.98 190.43 
2822 92.43 194.97 190.43 
2823 155.22 201.48 190.43 
2824 104.24 194.23 190.43 
2825 100.29 191.69 190.43 
2826 129.16 194.69 190.43 
2827 120.62 210.67 190.43 
2828 140.29 198.42 190.43 
2829 116.56 202.91 190.43 
2830 135.99 214.95 190.43 
2831 107.22 202.19 190.43 
2832 130.07 209.15 190.43 
2833 182.31 203.90 190.43 
2834 125.94 194.38 190.43 
2835 122.45 195.40 190.43 
2836 126.84 197.92 190.43 
2837 140.62 195.18 190.43 
2838 112.86 191.70 190.43 
2839 121.22 190.99 190.43 
2840 141.70 197.98 190.43 
2841 124.52 197.78 190.43 
2842 129.15 195.74 190.43 
2843 84.60 199.26 190.43 
2844 93.75 195.99 190.43 
2845 134.59 195.46 190.43 
2846 139.97 197.23 190.43 
2847 94.81 195.23 190.43 
2848 113.86 201.20 190.43 
2849 149.62 196.73 190.43 
2850 141.19 194.71 190.43 
2851 128.29 193.97 190.43 
2852 143.15 199.77 190.43 
2853 118.43 198.23 190.43 
2854 108.52 200.02 190.43 
2855 167.84 195.51 190.43 
2856 154.37 204.99 190.43 
2857 121.41 200.30 190.43 
2858 104.08 197.07 190.43 
2859 119.95 214.11 190.43 
2860 140.23 214.60 190.43 
2861 101.18 209.83 190.43 
2862 169.18 211.36 190.43 
2863 126.24 205.83 190.43 
2864 109.01 209.05 190.43 
2865 135.72 211.08 190.43 
2866 168.44 215.11 190.43 
2867 139.67 227.86 190.43 
2868 135.03 219.37 190.43 
2869 134.86 220.10 190.43 
2870 111.79 203.82 190.43 
2871 150.81 210.35 190.43 
2872 150.12 203.59 190.43 
2873 146.88 206.08 190.43 
2874 145.59 193.06 190.43 
2875 148.57 195.08 190.43 
2876 108.33 197.08 190.43 
2877 124.92 194.82 190.43 
2878 140.02 191.78 190.43 
2879 130.87 206.56 190.43 
2880 164.05 197.53 190.43 
2881 100.11 182.03 190.43 
2882 136.66 182.25 190.43 
2883 76.55 192.25 190.43 
2884 107.95 194.03 190.43 
2885 108.57 185.02 190.43 
2886 112.65 212.78 190.43 
2887 175.49 192.02 190.43 
2888 151.78 202.03 190.43 
2889 159.25 197.27 190.43 
2890 124.40 195.77 190.43 
2891 83.94 181.52 190.43 
2892 131.85 180.03 190.43 
2893 108.31 196.56 190.43 
2894 99.87 193.77 190.43 
2895 128.70 197.30 190.43 
2896 144.85 196.02 190.43 
2897 133.84 194.79 190.43 
2898 107.30 191.78 190.43 
2899 93.33 193.54 190.43 
2900 164.01 180.29 190.43 
2901 128.19 178.01 190.43 
2902 94.06 173.49 190.43 
2903 125.56 170.73 190.43 
2904 127.96 171.99 190.43 
2905 142.88 176.00 190.43 
2906 119.12 167.75 190.43 
2907 91.24 174.52 190.43 
2908 110.84 180.25 190.43 
2909 107.97 197.25 190.43 
2910 127.67 178.26 190.43 
2911 112.06 175.75 190.43 
2912 141.94 174.71 190.43 
2913 131.72 173.45 190.43 
2914 68.00 171.95 190.43 
2915 133.31 177.18 190.43 
2916 121.99 184.20 190.43 
2917 98.50 180.19 190.43 
2918 120.01 181.19 190.43 
2919 163.70 180.65 190.43 
2920 151.61 179.68 190.43 
2921 122.23 177.18 190.43 
2922 149.51 174.93 190.43 
2923 145.06 176.43 190.43 
2924 82.72 173.93 190.43 
2925 124.79 176.71 190.43 
2926 90.49 174.43 190.43 
2927 103.26 170.46 190.43 
2928 106.49 168.69 190.43 
2929 144.19 168.67 190.43 
2930 145.88 170.47 190.43 
2931 139.02 164.98 190.43 
2932 92.32 170.96 190.43 
2933 146.88 174.21 190.43 
2934 126.37 165.73 190.43 
2935 100.11 195.00 190.43 
2936 76.20 190.00 190.43 
2937 115.86 190.48 190.43 
2938 187.62 189.46 190.43 
2939 105.70 185.73 190.43 
2940 120.02 162.95 190.43 
2941 173.56 162.70 190.43 
2942 114.05 162.69 190.43 
2943 115.20 163.91 190.43 
2944 148.64 163.69 190.43 
2945 170.75 168.45 190.43 
2946 123.06 168.67 190.43 
2947 121.40 165.16 190.43 
2948 131.36 172.96 190.43 
2949 134.66 166.93 190.43 
2950 94.04 162.64 190.43 
2951 152.80 159.13 190.43 
2952 151.14 158.39 190.43 
2953 129.26 162.39 190.43 
2954 129.58 164.68 190.43 
2955 124.68 159.14 190.43 
2956 149.23 155.63 190.43 
2957 155.47 156.39 190.43 
2958 155.26 158.14 190.43 
2959 155.44 158.14 190.43 
2960 107.51 150.87 190.43 
2961 128.22 153.88 190.43 
2962 149.23 158.65 190.43 
2963 134.61 160.41 190.43 
2964 166.39 164.17 190.43 
2965 123.44 167.42 190.43 
2966 151.52 169.18 190.43 
2967 77.60 166.18 190.43 
2968 95.97 168.92 190.43 
2969 169.73 183.70 190.43 
2970 105.75 181.94 190.43 
2971 110.26 181.19 190.43 
2972 120.92 180.68 190.43 
2973 103.88 180.43 190.43 
2974 125.04 191.93 190.43 
2975 113.42 181.69 190.43 
2976 130.09 183.17 190.43 
2977 100.51 189.92 190.43 
2978 178.29 193.69 190.43 
2979 99.87 191.43 190.43 
2980 125.12 191.42 190.43 
2981 111.23 187.16 190.43 
2982 102.09 181.68 190.43 
2983 155.48 181.21 190.43 
2984 152.10 188.20 190.43 
2985 163.35 186.68 190.43 
2986 144.77 180.17 190.43 
2987 124.72 182.67 190.43 
2988 117.88 182.42 190.43 
2989 108.56 182.70 190.43 
2990 127.07 181.95 190.43 
2991 142.13 184.70 190.43 
2992 110.17 182.97 190.43 
2993 151.42 170.70 190.43 
2994 114.46 172.20 190.43 
2995 158.17 182.94 190.43 
2996 100.73 183.71 190.43 
2997 82.14 186.97 190.43 
2998 119.20 187.48 190.43 
2999 109.16 183.95 190.43 
3000 120.87 191.49 190.43 
3001 130.48 188.47 190.43 
3002 135.93 195.01 190.43 
3003 115.97 198.27 190.43 
3004 104.41 201.00 190.43 
3005 132.89 192.50 190.43 
3006 89.04 191.50 190.43 
3007 148.67 185.01 190.43 
3008 123.72 190.24 190.43 
3009 156.95 189.27 190.43 
3010 126.82 202.27 190.43 
3011 134.75 202.04 190.43 
3012 130.20 201.79 190.43 
3013 116.01 200.30 190.43 
3014 113.87 207.07 190.43 
3015 122.17 213.82 190.43 
3016 156.87 207.56 190.43 
3017 135.56 201.81 190.43 
3018 147.79 195.31 190.43 
3019 106.01 198.82 190.43 
3020 124.49 201.33 190.43 
3021 130.84 183.79 190.43 
3022 127.44 186.29 190.43 
3023 116.07 178.25 190.43 
3024 157.60 184.51 190.43 
3025 160.90 185.77 190.43 
3026 106.16 176.22 190.43 
3027 165.12 175.95 190.43 
3028 97.46 182.22 190.43 
3029 146.98 181.46 190.43 
3030 156.96 183.72 190.43 
3031 169.28 181.73 190.43 
3032 126.78 188.24 190.43 
3033 117.46 188.29 190.43 
3034 153.27 190.77 190.43 
3035 183.07 192.53 190.43 
3036 141.35 191.53 190.43 
3037 112.80 195.28 190.43 
3038 114.31 190.53 190.43 
3039 151.25 188.77 190.43 
3040 140.53 199.79 190.43 
3041 122.60 188.27 190.43 
3042 148.98 185.74 190.43 
3043 127.88 181.74 190.43 
3044 123.61 191.99 190.43 
3045 115.91 184.74 190.43 
3046 167.44 197.00 190.43 
3047 101.41 205.52 190.43 
3048 84.66 208.53 190.43 
3049 107.78 208.53 190.43 
3050 112.35 205.00 190.43 
3051 127.88 192.99 190.43 
3052 156.96 196.26 190.43 
3053 151.36 185.48 190.43 
3054 118.84 192.75 190.43 
3055 132.53 205.77 190.43 
3056 151.08 206.76 190.43 
3057 89.99 201.04 190.43 
3058 136.31 196.51 190.43 
3059 192.80 182.48 190.43 
3060 164.00 188.23 192.80 
3061 142.08 184.48 192.80 
3062 155.89 191.72 192.80 
3063 142.24 176.72 192.80 
3064 114.73 178.23 192.80 
3065 156.22 205.76 192.80 
3066 139.42 207.54 192.80 
3067 102.27 204.52 192.80 
3068 108.28 193.27 192.80 
3069 133.13 195.53 192.80 
3070 87.30 204.27 192.80 
3071 119.21 212.55 192.80 
3072 125.30 206.53 192.80 
3073 106.87 212.29 192.80 
3074 152.49 213.55 192.80 
3075 79.96 218.57 192.80 
3076 141.44 212.06 192.80 
3077 126.95 205.52 192.80 
3078 210.33 215.54 192.80 
3079 148.42 227.32 210.33 
3080 101.79 221.59 210.33 
3081 147.77 223.86 210.33 
3082 125.67 213.33 210.33 
3083 161.54 219.62 210.33 
3084 154.90 217.86 210.33 
3085 118.83 212.85 210.33 
3086 129.99 227.89 210.33 
3087 132.50 226.93 210.33 
3088 160.29 220.13 210.33 
3089 118.49 220.62 210.33 
3090 147.76 218.64 210.33 
3091 167.81 223.11 210.33 
3092 130.01 213.12 210.33 
3093 140.70 226.38 210.33 
3094 143.45 227.91 210.33 
3095 138.60 224.42 210.33 
3096 149.76 222.15 210.33 
3097 151.91 231.42 210.33 
3098 139.21 234.90 210.33 
3099 139.63 225.95 210.33 
3100 124.70 234.47 210.33 
3101 95.17 229.23 210.33 
3102 131.70 230.23 210.33 
3103 98.01 240.99 210.33 
3104 121.29 231.21 210.33 
3105 128.14 230.44 210.33 
3106 96.05 228.43 210.33 
3107 125.56 231.73 210.33 
3108 106.90 232.17 210.33 
3109 133.16 225.39 210.33 
3110 155.61 233.92 210.33 
3111 82.95 228.43 210.33 
3112 169.13 224.45 210.33 
3113 137.30 227.98 210.33 
3114 106.02 227.72 210.33 
3115 87.89 236.95 210.33 
3116 128.86 224.92 210.33 
3117 138.48 224.14 210.33 
3118 144.19 226.89 210.33 
3119 107.28 225.19 210.33 
3120 116.11 232.21 210.33 
3121 159.25 221.70 210.33 
3122 89.33 222.97 210.33 
3123 153.95 214.68 210.33 
3124 137.27 223.93 210.33 
3125 126.22 224.18 210.33 
3126 135.87 225.44 210.33 
3127 124.78 227.40 210.33 
3128 168.45 222.91 210.33 
3129 137.75 226.92 210.33 
3130 128.28 211.90 210.33 
3131 109.63 221.39 210.33 
3132 145.38 219.41 210.33 
3133 161.13 221.17 210.33 
3134 117.66 220.91 210.33 
3135 121.15 220.90 210.33 
3136 158.03 213.89 210.33 
3137 132.07 217.43 210.33 
3138 148.30 219.89 210.33 
3139 147.85 221.42 210.33 
3140 115.35 216.89 210.33 
3141 152.12 214.41 210.33 
3142 161.16 217.43 210.33 
3143 140.81 211.65 210.33 
3144 179.31 216.15 210.33 
3145 107.55 225.45 210.33 
3146 119.72 217.41 210.33 
3147 107.14 227.20 210.33 
3148 119.16 222.94 210.33 
3149 149.41 222.15 210.33 
3150 126.84 219.65 210.33 
3151 172.60 220.89 210.33 
3152 129.50 214.89 210.33 
3153 130.20 219.41 210.33 
3154 76.69 219.90 210.33 
3155 125.50 220.91 210.33 
3156 108.78 226.17 210.33 
3157 174.48 219.89 210.33 
3158 120.23 220.38 210.33 
3159 103.68 219.11 210.33 
3160 163.18 216.11 210.33 
3161 146.06 212.62 210.33 
3162 226.98 219.38 210.33 
3163 132.55 218.11 226.98 
3164 139.83 216.87 226.98 
3165 138.20 215.62 226.98 
3166 137.25 208.11 226.98 
3167 120.34 214.13 226.98 
3168 171.86 220.88 226.98 
3169 142.60 205.33 226.98 
3170 126.55 218.86 226.98 
3171 128.88 202.80 226.98 
3172 134.81 195.52 226.98 
3173 103.35 193.75 226.98 
3174 160.82 191.00 226.98 
3175 96.09 190.80 226.98 
3176 148.15 200.31 226.98 
3177 154.97 200.05 226.98 
3178 131.29 195.29 226.98 
3179 152.86 197.06 226.98 
3180 161.58 183.04 226.98 
3181 169.31 189.07 226.98 
3182 124.44 198.58 226.98 
3183 174.00 188.30 226.98 
3184 156.59 205.09 226.98 
3185 81.43 193.82 226.98 
3186 159.02 203.34 226.98 
3187 158.43 187.28 226.98 
3188 151.53 192.56 226.98 
3189 155.91 198.59 226.98 
3190 140.62 191.36 226.98 
3191 172.81 200.08 226.98 
3192 182.65 192.79 226.98 
3193 132.86 197.36 226.98 
3194 129.57 200.84 226.98 
3195 116.46 199.09 226.98 
3196 167.53 191.29 226.98 
3197 128.54 196.31 226.98 
3198 157.97 198.06 226.98 
3199 177.11 195.07 226.98 
3200 140.28 202.07 226.98 
3201 110.99 198.05 226.98 
3202 119.75 199.05 226.98 
3203 133.84 200.54 226.98 
3204 122.03 216.32 226.98 
3205 127.52 204.09 226.98 
3206 162.34 195.05 226.98 
3207 113.81 204.56 226.98 
3208 121.28 192.79 226.98 
3209 112.50 197.05 226.98 
3210 148.91 194.78 226.98 
3211 105.66 195.54 226.98 
3212 108.82 205.83 226.98 
3213 134.26 203.05 226.98 
3214 96.79 198.30 226.98 
3215 128.94 199.59 226.98 
3216 129.55 204.31 226.98 
3217 122.08 198.57 226.98 
3218 127.82 197.06 226.98 
3219 143.04 193.32 226.98 
3220 134.78 192.03 226.98 
3221 158.15 195.55 226.98 
3222 122.57 193.05 226.98 
3223 149.12 192.29 226.98 
3224 135.48 200.55 226.98 
3225 133.11 204.55 226.98 
3226 147.44 208.34 226.98 
3227 150.90 203.82 226.98 
3228 143.48 209.57 226.98 
3229 139.92 200.03 226.98 
3230 139.68 188.51 226.98 
3231 129.66 187.00 226.98 
3232 147.97 186.78 226.98 
3233 116.02 192.53 226.98 
3234 140.14 185.03 226.98 
3235 130.63 181.78 226.98 
3236 130.21 194.54 226.98 
3237 143.64 201.57 226.98 
3238 120.24 197.30 226.98 
3239 142.12 197.82 226.98 
3240 111.26 184.82 226.98 
3241 136.87 189.55 226.98 
3242 130.50 186.76 226.98 
3243 104.36 191.30 226.98 
3244 148.57 186.78 226.98 
3245 170.69 194.25 226.98 
3246 181.56 185.25 226.98 
3247 155.92 187.49 226.98 
3248 124.16 185.02 226.98 
3249 155.37 184.50 226.98 
3250 121.75 175.44 226.98 
3251 118.62 180.45 226.98 
3252 81.94 175.48 226.98 
3253 130.06 190.24 226.98 
3254 132.59 185.21 226.98 
3255 120.66 180.20 226.98 
3256 172.94 180.45 226.98 
3257 152.59 181.41 226.98 
3258 140.56 182.42 226.98 
3259 121.94 184.42 226.98 
3260 100.70 185.93 226.98 
3261 120.19 182.68 226.98 
3262 141.74 185.37 226.98 
3263 133.67 185.37 226.98 
3264 156.73 188.15 226.98 
3265 175.23 188.38 226.98 
3266 162.79 176.11 226.98 
3267 116.50 185.61 226.98 
3268 102.71 175.62 226.98 
3269 102.50 177.38 226.98 
3270 109.31 179.12 226.98 
3271 170.65 178.15 226.98 
3272 89.78 175.87 226.98 
3273 89.19 177.40 226.98 
3274 153.21 182.14 226.98 
3275 143.74 175.37 226.98 
3276 148.02 171.87 226.98 
3277 98.27 171.40 226.98 
3278 89.98 170.63 226.98 
3279 134.68 175.35 226.98 
3280 109.53 168.85 226.98 
3281 124.33 173.37 226.98 
3282 121.85 173.85 226.98 
3283 96.04 173.39 226.98 
3284 148.25 175.64 226.98 
3285 139.11 165.61 226.98 
3286 149.15 171.59 226.98 
3287 85.20 165.35 226.98 
3288 102.23 165.35 226.98 
3289 109.34 168.11 226.98 
3290 146.54 166.86 226.98 
3291 116.27 159.59 226.98 
3292 151.78 168.61 226.98 
3293 109.96 169.15 226.98 
3294 118.99 165.64 226.98 
3295 117.81 179.42 226.98 
3296 107.13 174.15 226.98 
3297 134.93 173.63 226.98 
3298 133.78 165.36 226.98 
3299 135.95 173.38 226.98 
3300 115.63 176.67 226.98 
3301 178.16 174.17 226.98 
3302 111.24 171.92 226.98 
3303 130.50 176.44 226.98 
3304 134.34 178.69 226.98 
3305 111.26 175.16 226.98 
3306 168.92 176.42 226.98 
3307 112.78 182.45 226.98 
3308 126.55 186.73 226.98 
3309 157.30 182.20 226.98 
3310 116.34 185.18 226.98 
3311 187.43 181.92 226.98 
3312 127.81 176.66 226.98 
3313 184.51 186.96 226.98 
3314 130.49 180.96 226.98 
3315 116.53 177.95 226.98 
3316 190.13 184.95 226.98 
3317 162.45 180.94 226.98 
3318 114.06 182.69 226.98 
3319 104.31 191.98 226.98 
3320 115.00 187.97 226.98 
3321 155.30 186.73 226.98 
3322 111.69 186.99 226.98 
3323 129.62 183.48 226.98 
3324 147.26 179.71 226.98 
3325 134.05 185.00 226.98 
3326 110.27 183.71 226.98 
3327 137.64 183.96 226.98 
3328 111.77 183.73 226.98 
3329 106.46 184.22 226.98 
3330 118.92 182.72 226.98 
3331 133.66 180.44 226.98 
3332 122.81 185.18 226.98 
3333 128.35 189.46 226.98 
3334 93.33 186.21 226.98 
3335 129.59 183.71 226.98 
3336 128.62 180.94 226.98 
3337 131.03 179.92 226.98 
3338 135.72 178.94 226.98 
3339 116.88 183.20 226.98 
3340 132.05 187.24 226.98 
3341 132.29 184.23 226.98 
3342 109.31 191.75 226.98 
3343 141.51 186.48 226.98 
3344 116.58 185.19 226.98 
3345 145.76 186.98 226.98 
3346 121.27 194.25 226.98 
3347 120.53 200.24 226.98 
3348 145.10 198.50 226.98 
3349 169.86 201.24 226.98 
3350 137.72 196.75 226.98 
3351 140.52 202.27 226.98 
3352 166.38 194.50 226.98 
3353 169.68 192.75 226.98 
3354 98.47 190.99 226.98 
3355 172.24 189.49 226.98 
3356 170.77 190.22 226.98 
3357 110.39 194.03 226.98 
3358 143.21 195.54 226.98 
3359 109.45 200.06 226.98 
3360 127.68 201.07 226.98 
3361 153.17 212.37 226.98 
3362 119.49 208.35 226.98 
3363 81.61 208.55 226.98 
3364 127.70 209.59 226.98 
3365 133.64 210.33 226.98 
3366 126.66 215.10 226.98 
3367 170.80 216.63 226.98 
3368 153.64 205.31 226.98 
3369 118.66 214.85 226.98 
3370 121.31 211.06 226.98 
3371 136.90 213.84 226.98 
3372 112.06 214.36 226.98 
3373 170.79 217.39 226.98 
3374 121.22 214.36 226.98 
3375 167.89 216.64 226.98 
3376 115.51 215.35 226.98 
3377 138.29 211.59 226.98 
3378 134.30 215.32 226.98 
3379 138.92 209.29 226.98 
3380 67.26 210.53 226.98 
3381 114.55 212.05 226.98 
3382 130.10 216.56 226.98 
3383 105.96 212.02 226.98 
3384 120.20 207.04 226.98 
3385 106.51 211.03 226.98 
3386 131.42 200.75 226.98 
3387 118.60 210.02 226.98 
3388 114.42 203.50 226.98 
3389 129.57 202.74 226.98 
3390 159.95 206.25 226.98 
3391 139.93 206.74 226.98 
3392 146.63 210.81 226.98 
3393 128.23 209.80 226.98 
3394 148.86 215.06 226.98 
3395 135.13 210.04 226.98 
3396 126.16 212.29 226.98 
3397 150.05 206.53 226.98 
3398 124.40 201.00 226.98 
3399 103.88 203.76 226.98 
3400 118.36 197.50 226.98 
3401 147.83 204.77 226.98 
3402 116.69 201.51 226.98 
3403 109.92 199.52 226.98 
3404 140.84 209.04 226.98 
3405 174.79 205.75 226.98 
3406 153.85 200.78 226.98 
3407 97.07 202.52 226.98 
3408 118.65 207.51 226.98 
3409 121.81 197.89 226.98 
3410 174.42 198.27 226.98 
3411 128.85 201.74 226.98 
3412 156.98 185.95 226.98 
3413 161.44 180.17 226.98 
3414 130.72 189.70 226.98 
3415 122.85 182.71 226.98 
3416 111.09 191.48 226.98 
3417 164.05 201.80 226.98 
3418 120.45 203.05 226.98 
3419 111.99 199.78 226.98 
3420 117.34 204.54 226.98 
3421 113.86 205.80 226.98 
3422 110.61 201.02 226.98 
3423 164.81 198.78 226.98 
3424 133.85 199.81 226.98 
3425 170.40 199.57 226.98 
3426 170.19 193.55 226.98 
3427 113.50 189.79 226.98 
3428 121.79 197.79 226.98 
3429 110.82 202.05 226.98 
3430 138.82 198.04 226.98 
3431 96.76 197.04 226.98 
3432 144.39 195.28 226.98 
3433 103.25 198.57 226.98 
3434 136.09 193.60 226.98 
3435 126.42 196.60 226.98 
3436 68.80 206.10 226.98 
3437 147.51 203.09 226.98 
3438 131.98 199.38 226.98 
3439 136.43 201.89 226.98 
3440 159.75 201.40 226.98 
3441 141.69 198.62 226.98 
3442 153.39 198.11 226.98 
3443 151.85 195.87 226.98 
3444 132.48 189.84 226.98 
3445 134.38 197.32 226.98 
3446 148.66 191.80 226.98 
3447 135.05 207.83 226.98 
3448 164.10 194.56 226.98 
3449 151.05 202.85 226.98 
3450 150.97 203.61 226.98 
3451 141.70 195.09 226.98 
3452 125.31 198.10 226.98 
3453 131.31 199.11 226.98 
3454 190.83 200.86 226.98 
3455 105.45 194.34 226.98 
3456 143.02 200.34 226.98 
3457 152.36 202.37 226.98 
3458 146.62 202.60 226.98 
3459 138.18 205.35 226.98 
3460 184.79 202.35 226.98 
3461 135.10 204.86 226.98 
3462 116.52 198.34 226.98 
3463 145.26 199.61 226.98 
3464 104.99 200.35 226.98 
3465 161.76 187.85 226.98 
3466 150.13 178.09 226.98 
3467 156.16 188.58 226.98 
3468 137.09 192.88 226.98 
3469 150.46 199.65 226.98 
3470 145.85 209.33 226.98 
3471 142.15 208.17 226.98 
3472 121.98 209.16 226.98 
3473 128.81 213.41 226.98 
3474 129.63 214.19 226.98 
3475 109.51 201.16 226.98 
3476 171.68 204.90 226.98 
3477 139.91 199.91 226.98 
3478 150.00 211.19 226.98 
3479 150.27 200.67 226.98 
3480 141.87 188.88 226.98 
3481 129.64 183.62 226.98 
3482 106.23 181.11 226.98 
3483 151.05 188.49 226.98 
3484 94.54 196.00 226.98 
3485 104.97 197.22 226.98 
3486 109.96 186.61 226.98 
3487 134.43 178.12 226.98 
3488 95.37 202.64 226.98 
3489 125.58 201.63 226.98 
3490 159.83 203.62 226.98 
3491 160.98 192.98 226.98 
3492 185.73 197.82 226.98 
3493 151.59 188.54 226.98 
3494 130.99 194.30 226.98 
3495 128.76 196.59 226.98 
3496 166.59 203.58 226.98 
3497 133.51 202.34 226.98 
3498 81.86 207.09 226.98 
3499 118.01 206.60 226.98 
3500 126.24 203.60 226.98 
3501 175.62 206.11 226.98 
3502 108.42 204.88 226.98 
3503 117.56 207.88 226.98 
3504 143.37 196.83 226.98 
3505 136.48 205.13 226.98 
3506 166.63 208.14 226.98 
3507 107.02 202.38 226.98 
3508 88.13 204.66 226.98 
3509 145.02 213.91 226.98 
3510 137.00 213.71 226.98 
3511 105.25 213.96 226.98 
3512 111.87 202.44 226.98 
3513 184.08 217.73 226.98 
3514 116.82 215.94 226.98 
3515 123.67 217.97 226.98 
3516 118.50 214.72 226.98 
3517 146.34 220.23 226.98 
3518 116.80 221.80 226.98 
3519 183.68 216.54 226.98 
3520 148.80 217.03 226.98 
3521 138.86 214.04 226.98 
3522 135.63 213.50 226.98 
3523 162.88 214.76 226.98 
3524 136.61 208.23 226.98 
3525 150.96 214.99 226.98 
3526 134.86 218.92 226.98 
3527 148.93 215.27 226.98 
3528 143.36 203.48 226.98 
3529 158.26 209.24 226.98 
3530 198.28 211.02 226.98 
3531 94.74 210.75 226.98 
3532 145.57 212.74 226.98 
3533 124.93 207.46 226.98 
3534 125.75 208.46 226.98 
3535 94.52 209.98 226.98 
3536 161.00 209.22 226.98 
3537 148.41 206.22 226.98 
3538 115.56 211.01 226.98 
3539 146.17 211.76 226.98 
3540 184.94 211.74 226.98 
3541 171.18 214.55 226.98 
3542 132.04 221.59 226.98 
3543 154.10 219.56 226.98 
3544 114.48 216.05 226.98 
3545 122.05 219.07 226.98 
3546 137.33 223.85 226.98 
3547 156.27 226.14 226.98 
3548 131.68 221.63 226.98 
3549 131.00 227.38 226.98 
3550 115.42 229.40 226.98 
3551 141.53 221.62 226.98 
3552 164.72 227.88 226.98 
3553 92.20 225.14 226.98 
3554 195.84 231.92 226.98 
3555 115.73 229.21 226.98 
3556 133.96 233.96 226.98 
3557 136.01 240.22 226.98 
3558 169.86 241.70 226.98 
3559 116.23 242.90 226.98 
3560 153.21 242.62 226.98 
3561 128.67 235.21 226.98 
3562 87.32 232.98 226.98 
3563 147.07 238.99 226.98 
3564 155.09 240.49 226.98 
3565 146.66 232.81 226.98 
3566 96.81 231.17 226.98 
3567 187.31 235.46 226.98 
3568 104.08 233.07 226.98 
3569 184.78 233.60 226.98 
3570 110.74 236.95 226.98 
3571 190.64 227.15 226.98 
3572 142.85 231.80 226.98 
3573 141.09 226.09 226.98 
3574 82.04 230.98 226.98 
3575 178.69 237.12 226.98 
3576 141.24 237.02 226.98 
3577 143.52 228.16 226.98 
3578 129.52 234.33 226.98 
3579 140.35 227.57 226.98 
3580 172.97 230.16 226.98 
3581 135.71 225.96 226.98 
3582 151.01 232.69 226.98 
3583 141.00 225.96 226.98 
3584 116.74 234.47 226.98 
3585 133.45 232.37 226.98 
3586 169.18 235.10 226.98 
3587 141.20 237.88 226.98 
3588 146.94 228.66 226.98 
3589 107.39 222.55 226.98 
3590 107.40 229.16 226.98 
3591 116.84 231.42 226.98 
3592 125.96 223.68 226.98 
3593 151.88 222.18 226.98 
3594 125.20 231.71 226.98 
3595 109.53 233.73 226.98 
3596 152.12 232.70 226.98 
3597 124.62 234.08 226.98 
3598 121.32 229.94 226.98 
3599 183.27 236.69 226.98 
3600 169.77 237.92 226.98 
3601 153.75 231.93 226.98 
3602 152.54 233.69 226.98 
3603 157.61 233.70 226.98 
3604 150.85 237.94 226.98 
3605 162.40 235.91 226.98 
3606 174.59 234.67 226.98 
3607 166.23 236.96 226.98 
3608 172.57 234.96 226.98 
3609 166.86 243.73 226.98 
3610 154.48 240.21 226.98 
3611 165.25 238.46 226.98 
3612 119.31 241.97 226.98 
3613 121.01 237.22 226.98 
3614 133.30 235.69 226.98 
3615 142.44 236.06 226.98 
3616 140.18 233.45 226.98 
3617 111.08 232.20 226.98 
3618 151.75 235.69 226.98 
3619 139.94 219.64 226.98 
3620 159.84 224.89 226.98 
3621 151.75 229.91 226.98 
3622 171.41 229.23 226.98 
3623 133.05 227.69 226.98 
3624 173.04 227.17 226.98 
3625 142.29 235.68 226.98 
3626 129.46 231.13 226.98 
3627 155.63 237.65 226.98 
3628 137.84 238.16 226.98 
3629 163.57 233.11 226.98 
3630 117.20 236.15 226.98 
3631 170.48 221.11 226.98 
3632 101.25 224.83 226.98 
3633 166.33 240.38 226.98 
3634 146.88 239.37 226.98 
3635 167.32 229.62 226.98 
3636 151.88 224.87 226.98 
3637 147.34 232.64 226.98 
3638 160.65 221.39 226.98 
3639 117.52 226.88 226.98 
3640 163.82 237.44 226.98 
3641 132.34 223.66 226.98 
3642 154.72 232.15 226.98 
3643 171.13 227.41 226.98 
3644 126.85 227.89 226.98 
3645 140.86 231.65 226.98 
3646 107.29 233.68 226.98 
3647 132.27 227.39 226.98 
3648 144.91 234.18 226.98 
3649 152.34 235.13 226.98 
3650 134.87 246.41 226.98 
3651 173.39 225.41 226.98 
3652 172.84 230.66 226.98 
3653 140.94 238.90 226.98 
3654 178.83 259.45 226.98 
3655 140.17 247.68 226.98 
3656 121.47 251.97 226.98 
3657 139.27 252.24 226.98 
3658 104.24 248.23 226.98 
3659 101.35 256.45 226.98 
3660 141.32 243.97 226.98 
3661 144.44 245.45 226.98 
3662 141.84 241.48 226.98 
3663 116.15 238.97 226.98 
3664 142.61 259.74 226.98 
3665 124.94 237.22 226.98 
3666 149.52 237.99 226.98 
3667 144.73 242.48 226.98 
3668 136.44 234.72 226.98 
3669 160.70 234.71 226.98 
3670 109.07 231.96 226.98 
3671 139.23 223.71 226.98 
3672 146.09 229.20 226.98 
3673 133.74 238.18 226.98 
3674 171.83 232.94 226.98 
3675 140.25 237.96 226.98 
3676 144.53 233.95 226.98 
3677 164.66 235.98 226.98 
3678 128.32 234.72 226.98 
3679 116.26 237.45 226.98 
3680 119.29 243.20 226.98 
3681 182.43 242.75 226.98 
3682 134.69 222.15 226.98 
3683 161.16 237.48 226.98 
3684 154.12 233.46 226.98 
3685 115.08 236.20 226.98 
3686 170.87 230.90 226.98 
3687 189.05 231.17 226.98 
3688 148.90 231.91 226.98 
3689 125.55 231.15 226.98 
3690 152.08 236.18 226.98 
3691 170.56 226.64 226.98 
3692 132.71 242.90 226.98 
3693 140.31 243.16 226.98 
3694 130.18 242.90 226.98 
3695 142.62 244.13 226.98 
3696 119.26 252.17 226.98 
3697 156.76 250.42 226.98 
3698 175.88 242.89 226.98 
3699 151.26 239.91 226.98 
3700 155.05 235.90 226.98 
3701 175.75 227.42 226.98 
3702 148.42 229.90 226.98 
3703 142.43 236.88 226.98 
3704 152.70 234.38 226.98 
3705 162.06 240.22 226.98 
3706 151.66 226.70 226.98 
3707 152.39 220.97 226.98 
3708 153.49 232.74 226.98 
3709 159.92 236.50 226.98 
3710 189.14 233.97 226.98 
3711 108.74 235.48 226.98 
3712 190.86 232.45 226.98 
3713 132.13 227.45 226.98 
3714 96.32 232.75 226.98 
3715 143.29 228.94 226.98 
3716 160.24 230.72 226.98 
3717 99.67 226.00 226.98 
3718 135.94 231.22 226.98 
3719 142.65 229.22 226.98 
3720 141.83 225.74 226.98 
3721 161.53 226.68 226.98 
3722 172.20 222.48 226.98 
3723 134.58 223.47 226.98 
3724 136.61 223.74 226.98 
3725 107.27 234.49 226.98 
3726 108.97 241.74 226.98 
3727 143.82 237.98 226.98 
3728 112.26 235.47 226.98 
3729 125.03 235.72 226.98 
3730 159.66 238.50 226.98 
3731 105.62 238.78 226.98 
3732 141.65 244.55 226.98 
3733 183.34 233.00 226.98 
3734 124.26 240.50 226.98 
3735 146.54 240.51 226.98 
3736 128.32 246.55 226.98 
3737 151.67 241.04 226.98 
3738 90.19 237.27 226.98 
3739 127.16 236.03 226.98 
3740 141.30 252.60 226.98 
3741 142.31 253.32 226.98 
3742 152.63 248.79 226.98 
3743 181.64 254.53 226.98 
3744 150.35 248.01 226.98 
3745 147.10 250.01 226.98 
3746 186.06 246.29 226.98 
3747 170.53 240.03 226.98 
3748 158.73 236.52 226.98 
3749 138.80 232.77 226.98 
3750 117.76 247.56 226.98 
3751 163.96 238.05 226.98 
3752 149.18 247.34 226.98 
3753 147.21 245.09 226.98 
3754 173.96 244.34 226.98 
3755 140.71 245.63 226.98 
3756 121.97 244.36 226.98 
3757 132.54 242.75 226.98 
3758 150.55 238.58 226.98 
3759 141.02 237.08 226.98 
3760 164.07 253.39 226.98 
3761 179.01 245.86 226.98 
3762 130.57 256.62 226.98 
3763 190.16 254.37 226.98 
3764 167.27 261.68 226.98 
3765 124.92 257.15 226.98 
3766 139.87 241.32 226.98 
3767 116.72 235.58 226.98 
3768 123.84 243.35 226.98 
3769 85.75 239.54 226.98 
3770 178.36 255.16 226.98 
3771 135.26 267.48 226.98 
3772 166.77 265.45 226.98 
3773 151.79 260.46 226.98 
3774 141.52 260.69 226.98 
3775 138.73 270.26 226.98 
3776 130.64 250.71 226.98 
3777 159.62 254.69 226.98 
3778 135.24 265.40 226.98 
3779 163.07 265.23 226.98 
3780 170.30 266.93 226.98 
3781 111.32 269.31 226.98 
3782 156.71 256.41 226.98 
3783 129.30 247.25 226.98 
3784 147.58 253.17 226.98 
3785 152.21 253.45 226.98 
3786 188.18 250.93 226.98 
3787 147.61 245.92 226.98 
3788 152.03 259.44 226.98 
3789 117.98 244.67 226.98 
3790 176.52 246.19 226.98 
3791 125.54 243.93 226.98 
3792 159.24 244.91 226.98 
3793 142.48 233.90 226.98 
3794 124.83 237.68 226.98 
3795 144.52 252.95 226.98 
3796 141.91 238.46 226.98 
3797 164.97 242.96 226.98 
3798 195.99 253.53 226.98 
3799 177.14 257.04 226.98 
3800 185.03 246.48 226.98 
3801 164.09 227.68 226.98 
3802 159.09 256.75 226.98 
3803 177.73 239.68 226.98 
3804 156.05 243.21 226.98 
3805 171.09 238.74 226.98 
3806 157.19 233.69 226.98 
3807 167.32 259.30 226.98 
3808 155.90 228.69 226.98 
3809 142.41 251.04 226.98 
3810 166.21 253.04 226.98 
3811 145.43 247.01 226.98 
3812 98.73 241.50 226.98 
3813 160.43 226.94 226.98 
3814 214.77 235.69 226.98 
3815 155.93 248.23 226.98 
3816 163.57 233.42 226.98 
3817 187.06 223.14 226.98 
3818 181.25 233.91 226.98 
3819 178.59 219.86 226.98 
3820 153.76 226.62 226.98 
3821 170.62 214.86 226.98 
3822 172.31 224.65 226.98 
3823 155.76 227.63 226.98 
3824 142.09 234.14 226.98 
3825 164.43 233.64 226.98 
3826 187.44 238.18 226.98 
3827 161.12 218.82 226.98 
3828 143.36 221.90 226.98 
3829 181.38 229.89 226.98 
3830 195.93 221.38 226.98 
3831 159.21 247.25 226.98 
3832 171.05 230.43 226.98 
3833 177.57 220.89 226.98 
3834 169.51 245.24 226.98 
3835 157.74 232.68 226.98 
3836 205.74 250.51 226.98 
3837 144.33 243.55 226.98 
3838 131.47 255.04 226.98 
3839 171.46 245.78 226.98 
3840 165.79 256.84 226.98 
3841 175.10 248.58 226.98 
3842 141.04 261.62 226.98 
3843 176.31 252.12 226.98 
3844 203.16 242.32 226.98 
3845 195.58 262.39 226.98 
3846 143.07 262.38 226.98 
3847 172.19 249.59 226.98 
3848 136.37 260.13 226.98 
3849 143.86 242.82 226.98 
3850 149.00 246.81 226.98 
3851 169.48 252.32 226.98 
3852 156.08 255.10 226.98 
3853 159.69 275.18 226.98 
3854 193.00 266.88 226.98 
3855 137.91 278.19 226.98 
3856 192.84 254.85 226.98 
3857 198.15 265.17 226.98 
3858 212.30 259.88 226.98 
3859 167.33 256.87 226.98 
3860 122.53 250.60 226.98 
3861 203.19 229.75 226.98 
3862 158.52 252.61 226.98 
3863 181.37 237.28 226.98 
3864 165.58 247.33 226.98 
3865 151.08 229.77 226.98 
3866 164.20 249.59 226.98 
3867 211.55 246.09 226.98 
3868 172.99 233.01 226.98 
3869 164.20 229.53 226.98 
3870 203.90 249.12 226.98 
3871 159.57 248.60 226.98 
3872 160.41 248.12 226.98 
3873 159.08 247.09 226.98 
3874 225.31 249.06 226.98 
3875 146.10 252.62 226.98 
3876 151.19 239.07 226.98 
3877 148.05 239.59 226.98 
3878 199.84 252.09 226.98 
3879 179.75 236.30 226.98 
3880 160.24 252.85 226.98 
3881 155.88 224.54 226.98 
3882 231.38 228.56 226.98 
3883 169.97 226.04 231.38 
3884 172.92 230.31 231.38 
3885 186.76 234.30 231.38 
3886 181.77 220.76 231.38 
3887 200.80 236.84 231.38 
3888 144.09 234.05 231.38 
3889 193.57 234.31 231.38 
3890 226.70 237.82 231.38 
3891 168.81 224.30 231.38 
3892 155.58 239.10 231.38 
3893 195.47 238.35 231.38 
3894 188.56 235.32 231.38 
3895 186.70 228.78 231.38 
3896 171.47 244.39 231.38 
3897 193.54 218.01 231.38 
3898 155.68 237.60 231.38 
3899 163.94 221.01 231.38 
3900 224.80 240.61 231.38 
3901 174.79 249.39 231.38 
3902 174.12 221.54 231.38 
3903 169.10 217.02 231.38 
3904 147.92 219.28 231.38 
3905 162.18 215.02 231.38 
3906 184.54 224.05 231.38 
3907 181.56 219.30 231.38 
3908 205.55 224.84 231.38 
3909 236.39 211.04 231.38 
3910 195.47 227.10 236.39 
3911 176.88 227.83 236.39 
3912 200.18 241.36 236.39 
3913 185.83 233.84 236.39 
3914 213.30 215.02 236.39 
3915 159.21 231.07 236.39 
3916 209.26 219.80 236.39 
3917 216.62 223.82 236.39 
3918 202.89 203.52 236.39 
3919 210.96 200.73 236.39 
3920 229.02 227.10 236.39 
3921 243.13 227.85 236.39 
3922 183.13 232.38 243.13 
3923 212.78 235.64 243.13 
3924 179.86 224.38 243.13 
3925 215.86 217.35 243.13 
3926 180.45 212.59 243.13 
3927 187.52 221.35 243.13 
3928 179.33 236.90 243.13 
3929 231.90 221.85 243.13 
3930 230.25 204.29 243.13 
3931 213.80 239.41 243.13 
3932 209.56 239.16 243.13 
3933 219.27 221.38 243.13 
3934 211.74 228.17 243.13 
3935 211.62 223.14 243.13 
3936 197.97 227.64 243.13 
3937 243.16 206.85 243.13 
3938 219.79 247.20 243.16 
3939 214.97 237.93 243.16 
3940 213.25 233.17 243.16 
3941 220.04 235.66 243.16 
3942 230.24 242.17 243.16 
3943 203.71 226.38 243.16 
3944 208.41 239.19 243.16 
3945 189.72 216.35 243.16 
3946 243.50 182.76 243.16 
3947 252.87 218.90 243.50 
3948 205.92 248.45 252.87 
3949 168.31 213.86 252.87 
3950 265.47 174.27 252.87 
3951 201.40 175.99 265.47 
3952 221.23 212.34 265.47 
3953 232.93 234.67 265.47 
3954 202.36 232.91 265.47 
3955 256.31 226.93 265.47 
3956 220.06 238.18 265.47 
3957 204.90 237.68 265.47 
3958 207.27 230.43 265.47 
3959 210.87 211.86 265.47 
3960 230.70 222.38 265.47 
3961 242.08 202.35 265.47 
3962 218.11 245.69 265.47 
3963 205.86 238.44 265.47 
3964 221.87 207.11 265.47 
3965 238.70 190.59 265.47 
3966 232.06 214.65 265.47 
3967 202.56 249.02 265.47 
3968 225.67 262.76 265.47 
3969 228.20 270.80 265.47 
3970 230.84 265.02 265.47 
3971 210.58 254.25 265.47 
3972 291.08 265.78 265.47 
3973 210.37 253.01 291.08 
3974 256.21 273.57 291.08 
3975 218.89 267.30 291.08 
3976 177.42 260.79 291.08 
3977 233.93 274.32 291.08 
3978 217.97 258.26 291.08 
3979 219.52 250.52 291.08 
3980 237.18 254.28 291.08 
3981 217.13 265.05 291.08 
3982 235.14 258.52 291.08 
3983 244.70 251.00 291.08 
3984 232.07 252.52 291.08 
3985 221.60 243.50 291.08 
3986 236.54 250.50 291.08 
3987 206.34 256.52 291.08 
3988 249.18 244.51 291.08 
3989 220.06 251.03 291.08 
3990 197.39 264.32 291.08 
3991 207.18 267.32 291.08 
3992 255.27 258.05 291.08 
3993 278.84 243.24 291.08 
3994 258.30 250.00 291.08 
3995 235.79 242.99 291.08 
3996 225.47 229.95 291.08 
3997 256.76 231.95 291.08 
3998 242.97 248.75 291.08 
3999 247.67 242.70 291.08 
4000 205.74 244.72 291.08 
4001 207.28 227.15 291.08 
4002 220.38 242.70 291.08 
4003 187.89 265.27 291.08 
4004 181.51 261.02 291.08 
4005 235.79 265.30 291.08 
4006 239.38 260.79 291.08 
4007 230.19 274.10 291.08 
4008 278.27 278.58 291.08 
4009 263.67 272.11 291.08 
4010 267.70 273.86 291.08 
4011 248.03 283.37 291.08 
4012 212.87 277.62 291.08 
4013 227.35 281.87 291.08 
4014 192.80 274.87 291.08 
4015 233.56 281.86 291.08 
4016 244.27 290.39 291.08 
4017 251.14 294.41 291.08 
4018 221.99 309.98 291.08 
4019 219.37 304.96 291.08 
4020 256.44 322.75 291.08 
4021 282.40 311.72 291.08 
4022 210.63 305.21 291.08 
4023 223.39 305.72 291.08 
4024 264.03 305.73 291.08 
4025 248.28 297.45 291.08 
4026 227.59 293.18 291.08 
4027 253.55 302.19 291.08 
4028 238.56 297.95 291.08 
4029 284.55 279.38 291.08 
4030 262.89 283.90 291.08 
4031 320.75 271.63 291.08 
4032 259.44 246.03 320.75 
4033 277.45 284.38 320.75 
4034 304.67 291.92 320.75 
4035 246.87 276.37 320.75 
4036 234.21 278.87 320.75 
4037 285.70 265.57 320.75 
4038 209.10 278.37 320.75 
4039 270.49 308.70 320.75 
4040 200.78 305.95 320.75 
4041 229.85 246.27 320.75 
4042 253.66 274.36 320.75 
4043 229.33 267.07 320.75 
4044 233.17 289.90 320.75 
4045 238.79 277.85 320.75 
4046 281.90 260.06 320.75 
4047 261.97 257.54 320.75 
4048 236.99 268.58 320.75 
4049 262.14 274.59 320.75 
4050 293.09 271.09 320.75 
4051 248.88 268.83 320.75 
4052 277.46 276.86 320.75 
4053 255.38 265.83 320.75 
4054 263.06 302.65 320.75 
4055 210.71 288.14 320.75 
4056 234.05 294.67 320.75 
4057 258.79 295.42 320.75 
4058 186.80 304.18 320.75 
4059 238.74 323.00 320.75 
4060 207.20 315.48 320.75 
4061 254.14 318.24 320.75 
4062 264.65 308.19 320.75 
4063 244.45 288.64 320.75 
4064 211.54 290.65 320.75 
4065 269.63 292.91 320.75 
4066 234.73 287.89 320.75 
4067 253.59 291.39 320.75 
4068 249.88 299.95 320.75 
4069 237.09 281.89 320.75 
4070 289.52 296.18 320.75 
4071 257.74 313.70 320.75 
4072 252.10 303.71 320.75 
4073 238.20 304.20 320.75 
4074 226.14 315.47 320.75 
4075 214.71 309.72 320.75 
4076 295.91 296.94 320.75 
4077 217.65 306.44 320.75 
4078 197.76 326.01 320.75 
4079 306.64 319.99 320.75 
4080 308.23 321.24 320.75 
4081 269.90 315.50 320.75 
4082 246.95 319.26 320.75 
4083 262.69 309.48 320.75 
4084 269.29 304.46 320.75 
4085 235.98 328.27 320.75 
4086 267.40 330.29 320.75 
4087 247.80 322.50 320.75 
4088 198.74 319.73 320.75 
4089 301.65 308.21 320.75 
4090 230.64 329.26 320.75 
4091 292.43 309.96 320.75 
4092 245.24 309.99 320.75 
4093 218.88 305.97 320.75 
4094 281.24 314.49 320.75 
4095 241.56 314.50 320.75 
4096 228.48 308.99 320.75 
4097 314.48 306.49 320.75 
4098 296.23 327.55 320.75 
4099 257.86 344.11 320.75 
4100 266.64 352.14 320.75 
4101 251.11 362.18 320.75 
4102 302.27 347.87 320.75 
4103 266.27 321.80 320.75 
4104 245.06 330.82 320.75 
4105 234.29 326.55 320.75 
4106 273.16 333.56 320.75 
4107 249.07 336.05 320.75 
4108 245.67 322.78 320.75 
4109 270.25 326.79 320.75 
4110 240.30 329.83 320.75 
4111 303.52 339.84 320.75 
4112 261.39 345.36 320.75 
4113 263.69 350.65 320.75 
4114 269.65 347.84 320.75 
4115 283.26 351.38 320.75 
4116 263.17 346.62 320.75 
4117 266.61 341.85 320.75 
4118 250.86 348.61 320.75 
4119 247.01 345.85 320.75 
4120 295.44 346.84 320.75 
4121 274.03 357.39 320.75 
4122 267.23 362.91 320.75 
4123 243.61 366.44 320.75 
4124 233.38 364.44 320.75 
4125 267.47 359.67 320.75 
4126 271.83 358.39 320.75 
4127 301.62 365.92 320.75 
4128 307.41 361.19 320.75 
4129 262.99 369.18 320.75 
4130 295.33 368.91 320.75 
4131 214.27 364.42 320.75 
4132 259.45 362.66 320.75 
4133 270.23 367.69 320.75 
4134 292.18 366.69 320.75 
4135 273.41 358.92 320.75 
4136 223.84 362.16 320.75 
4137 270.51 361.91 320.75 
4138 256.78 355.62 320.75 
4139 240.59 360.62 320.75 
4140 257.91 352.61 320.75 
4141 281.73 348.59 320.75 
4142 234.66 362.40 320.75 
4143 269.96 354.13 320.75 
4144 276.13 345.09 320.75 
4145 236.82 350.35 320.75 
4146 222.82 361.14 320.75 
4147 310.86 361.40 320.75 
4148 281.72 339.32 320.75 
4149 257.94 341.32 320.75 
4150 259.81 344.08 320.75 
4151 229.90 334.03 320.75 
4152 255.12 328.54 320.75 
4153 258.47 333.58 320.75 
4154 262.92 333.57 320.75 
4155 268.48 315.29 320.75 
4156 243.80 337.59 320.75 
4157 249.20 348.37 320.75 
4158 215.24 345.10 320.75 
4159 230.91 349.89 320.75 
4160 237.77 347.13 320.75 
4161 300.91 358.90 320.75 
4162 267.17 357.40 320.75 
4163 271.79 344.87 320.75 
4164 251.73 328.85 320.75 
4165 241.15 324.57 320.75 
4166 271.59 321.83 320.75 
4167 274.53 327.07 320.75 
4168 284.15 334.83 320.75 
4169 277.60 345.61 320.75 
4170 271.50 353.63 320.75 
4171 258.07 326.79 320.75 
4172 257.15 312.28 320.75 
4173 242.08 351.61 320.75 
4174 275.21 355.14 320.75 
4175 253.39 356.62 320.75 
4176 290.80 352.33 320.75 
4177 285.95 363.37 320.75 
4178 257.98 364.13 320.75 
4179 241.61 352.59 320.75 
4180 272.73 341.07 320.75 
4181 331.18 339.32 320.75 
4182 262.95 344.84 331.18 
4183 260.99 349.85 331.18 
4184 260.46 354.87 331.18 
4185 219.09 345.06 331.18 
4186 279.61 341.55 331.18 
4187 263.10 341.06 331.18 
4188 286.40 344.07 331.18 
4189 294.05 354.07 331.18 
4190 285.94 353.58 331.18 
4191 256.16 347.84 331.18 
4192 303.68 349.82 331.18 
4193 247.89 354.85 331.18 
4194 241.17 335.79 331.18 
4195 259.29 350.83 331.18 
4196 256.90 352.06 331.18 
4197 290.51 346.07 331.18 
4198 284.40 356.86 331.18 
4199 265.16 355.11 331.18 
4200 278.76 350.85 331.18 
4201 250.02 350.82 331.18 
4202 305.28 356.36 331.18 
4203 220.07 360.13 331.18 
4204 224.10 361.12 331.18 
4205 270.47 351.34 331.18 
4206 299.24 352.08 331.18 
4207 362.74 349.08 331.18 
4208 265.60 354.60 362.74 
4209 312.08 359.63 362.74 
4210 217.62 359.13 362.74 
4211 268.00 358.61 362.74 
4212 228.86 344.59 362.74 
4213 237.79 358.35 362.74 
4214 254.49 342.55 362.74 
4215 266.77 337.56 362.74 
4216 223.49 322.55 362.74 
4217 286.09 322.04 362.74 
4218 263.07 359.12 362.74 
4219 358.27 357.64 362.74 
4220 240.29 355.37 362.74 
4221 221.54 336.06 362.74 
4222 308.53 348.83 362.74 
4223 304.97 350.85 362.74 
4224 214.73 357.36 362.74 
4225 296.36 357.88 362.74 
4226 295.58 359.62 362.74 
4227 286.88 360.63 362.74 
4228 319.61 359.14 362.74 
4229 277.07 340.59 362.74 
4230 294.41 341.85 362.74 
4231 264.97 357.38 362.74 
4232 311.59 353.36 362.74 
4233 249.11 333.55 362.74 
4234 249.46 356.87 362.74 
4235 306.78 362.89 362.74 
4236 269.70 361.63 362.74 
4237 268.92 344.09 362.74 
4238 276.34 341.84 362.74 
4239 262.42 344.10 362.74 
4240 254.99 355.13 362.74 
4241 264.04 356.61 362.74 
4242 280.30 358.14 362.74 
4243 284.78 369.42 362.74 
4244 253.37 356.60 362.74 
4245 337.58 358.38 362.74 
4246 301.84 367.67 362.74 
4247 286.41 364.15 362.74 
4248 273.84 359.64 362.74 
4249 282.26 353.62 362.74 
4250 302.62 356.37 362.74 
4251 290.04 345.82 362.74 
4252 266.43 335.08 362.74 
4253 227.68 338.58 362.74 
4254 283.06 363.39 362.74 
4255 279.26 354.62 362.74 
4256 294.51 350.87 362.74 
4257 283.85 349.11 362.74 
4258 293.51 352.87 362.74 
4259 292.33 344.85 362.74 
4260 248.28 342.86 362.74 
4261 232.83 339.56 362.74 
4262 285.86 345.32 362.74 
4263 208.83 341.58 362.74 
4264 250.27 339.33 362.74 
4265 265.06 345.37 362.74 
4266 254.26 347.35 362.74 
4267 277.51 354.10 362.74 
4268 256.18 359.36 362.74 
4269 280.01 354.84 362.74 
4270 291.17 357.87 362.74 
4271 318.00 364.62 362.74 
4272 310.40 358.62 362.74 
4273 279.37 347.82 362.74 
4274 293.71 354.12 362.74 
4275 254.02 346.09 362.74 
4276 262.36 342.58 362.74 
4277 282.16 348.86 362.74 
4278 271.03 344.36 362.74 
4279 265.27 352.38 362.74 
4280 294.57 343.34 362.74 
4281 307.01 360.64 362.74 
4282 316.02 358.38 362.74 
4283 323.71 359.14 362.74 
4284 316.32 357.90 362.74 
4285 271.70 360.89 362.74 
4286 324.81 364.18 362.74 
4287 245.30 352.37 362.74 
4288 232.80 357.89 362.74 
4289 300.28 352.36 362.74 
4290 288.74 364.91 362.74 
4291 263.82 361.16 362.74 
4292 236.24 357.66 362.74 
4293 265.89 362.42 362.74 
4294 219.45 356.89 362.74 
4295 330.99 367.17 362.74 
4296 258.56 364.65 362.74 
4297 282.01 364.40 362.74 
4298 294.91 370.93 362.74 
4299 234.93 370.17 362.74 
4300 295.21 365.90 362.74 
4301 293.29 367.94 362.74 
4302 280.25 373.44 362.74 
4303 263.39 365.69 362.74 
4304 243.87 362.13 362.74 
4305 297.02 365.42 362.74 
4306 258.68 367.18 362.74 
4307 264.71 370.45 362.74 
4308 295.19 364.19 362.74 
4309 266.03 368.18 362.74 
4310 295.21 359.16 362.74 
4311 248.88 365.91 362.74 
4312 312.94 362.93 362.74 
4313 291.37 361.17 362.74 
4314 280.42 358.93 362.74 
4315 284.32 363.18 362.74 
4316 263.18 353.14 362.74 
4317 207.05 356.91 362.74 
4318 221.85 358.15 362.74 
4319 226.73 368.44 362.74 
4320 282.23 358.92 362.74 
4321 303.18 364.45 362.74 
4322 283.15 365.95 362.74 
4323 246.11 373.97 362.74 
4324 306.58 377.73 362.74 
4325 333.36 370.72 362.74 
4326 297.83 371.22 362.74 
4327 266.82 373.20 362.74 
4328 301.09 364.69 362.74 
4329 310.74 372.70 362.74 
4330 251.23 373.45 362.74 
4331 264.16 380.71 362.74 
4332 259.62 366.65 362.74 
4333 281.84 379.46 362.74 
4334 266.44 366.19 362.74 
4335 260.54 379.23 362.74 
4336 263.85 373.73 362.74 
4337 321.22 371.48 362.74 
4338 354.19 373.50 362.74 
4339 275.69 361.45 362.74 
4340 294.48 373.73 362.74 
4341 289.55 365.47 362.74 
4342 283.38 372.99 362.74 
4343 261.26 373.49 362.74 
4344 321.00 365.20 362.74 
4345 286.74 372.47 362.74 
4346 263.46 370.71 362.74 
4347 298.88 368.70 362.74 
4348 284.13 367.93 362.74 
4349 251.68 374.71 362.74 
4350 277.62 372.21 362.74 
4351 247.80 370.71 362.74 
4352 241.39 375.48 362.74 
4353 194.05 369.96 362.74 
4354 265.50 372.71 362.74 
4355 276.83 379.49 362.74 
4356 323.74 378.23 362.74 
4357 268.00 373.21 362.74 
4358 225.77 369.44 362.74 
4359 292.59 380.73 362.74 
4360 348.01 377.51 362.74 
4361 270.24 367.96 362.74 
4362 262.97 366.19 362.74 
4363 328.40 372.72 362.74 
4364 309.19 380.99 362.74 
4365 284.88 369.97 362.74 
4366 260.68 374.98 362.74 
4367 282.64 372.21 362.74 
4368 300.50 369.72 362.74 
4369 271.85 369.22 362.74 
4370 318.73 366.94 362.74 
4371 283.78 365.69 362.74 
4372 302.12 365.42 362.74 
4373 324.21 366.16 362.74 
4374 235.44 364.40 362.74 
4375 288.52 365.67 362.74 
4376 284.38 365.93 362.74 
4377 258.56 356.37 362.74 
4378 305.72 366.41 362.74 
4379 272.59 361.67 362.74 
4380 285.03 359.15 362.74 
4381 306.45 366.18 362.74 
4382 234.31 364.95 362.74 
4383 302.17 367.43 362.74 
4384 313.62 363.44 362.74 
4385 245.15 360.43 362.74 
4386 270.54 361.15 362.74 
4387 249.86 356.91 362.74 
4388 244.34 348.62 362.74 
4389 292.68 356.67 362.74 
4390 213.72 364.68 362.74 
4391 266.15 363.68 362.74 
4392 270.79 370.95 362.74 
4393 292.53 367.44 362.74 
4394 268.45 367.68 362.74 
4395 265.82 361.66 362.74 
4396 285.15 359.42 362.74 
4397 249.26 348.39 362.74 
4398 256.68 346.38 362.74 
4399 273.91 349.64 362.74 
4400 302.89 349.65 362.74 
4401 270.09 359.17 362.74 
4402 305.30 353.40 362.74 
4403 289.78 354.66 362.74 
4404 257.14 358.19 362.74 
4405 270.91 344.65 362.74 
4406 259.03 357.17 362.74 
4407 296.98 349.14 362.74 
4408 276.49 350.62 362.74 
4409 310.63 352.15 362.74 
4410 314.71 352.14 362.74 
4411 315.78 356.91 362.74 
4412 293.35 360.92 362.74 
4413 277.75 356.15 362.74 
4414 278.48 360.42 362.74 
4415 271.12 359.92 362.74 
4416 282.58 370.71 362.74 
4417 272.49 367.45 362.74 
4418 225.33 360.92 362.74 
4419 296.90 365.44 362.74 
4420 302.79 351.13 362.74 
4421 261.56 361.93 362.74 
4422 251.98 358.43 362.74 
4423 255.41 361.41 362.74 
4424 288.06 355.13 362.74 
4425 297.03 360.40 362.74 
4426 310.86 364.16 362.74 
4427 345.90 365.18 362.74 
4428 287.37 361.41 362.74 
4429 298.97 361.90 362.74 
4430 294.75 358.39 362.74 
4431 223.51 358.42 362.74 
4432 293.08 350.89 362.74 
4433 326.47 358.17 362.74 
4434 296.12 362.18 362.74 
4435 349.11 363.70 362.74 
4436 299.93 368.44 362.74 
4437 253.81 367.93 362.74 
4438 218.65 368.66 362.74 
4439 340.63 370.45 362.74 
4440 263.52 363.18 362.74 
4441 297.20 368.95 362.74 
4442 277.73 367.96 362.74 
4443 270.69 373.46 362.74 
4444 298.37 367.42 362.74 
4445 314.43 372.71 362.74 
4446 316.86 368.94 362.74 
4447 283.22 370.43 362.74 
4448 261.32 368.17 362.74 
4449 330.72 372.44 362.74 
4450 261.32 375.94 362.74 
4451 268.43 369.92 362.74 
4452 234.77 368.93 362.74 
4453 246.11 372.42 362.74 
4454 251.72 371.43 362.74 
4455 336.37 367.14 362.74 
4456 253.31 370.65 362.74 
4457 272.27 371.91 362.74 
4458 378.78 366.63 362.74 
4459 334.15 365.38 378.78 
4460 261.14 367.89 378.78 
4461 325.89 361.64 378.78 
4462 292.03 364.89 378.78 
4463 303.34 358.13 378.78 
4464 303.57 354.61 378.78 
4465 259.70 362.37 378.78 
4466 254.44 360.62 378.78 
4467 292.02 361.87 378.78 
4468 312.96 359.88 378.78 
4469 302.17 362.90 378.78 
4470 264.26 365.43 378.78 
4471 266.52 364.66 378.78 
4472 303.73 372.68 378.78 
4473 270.96 365.66 378.78 
4474 299.05 368.40 378.78 
4475 284.66 375.95 378.78 
4476 340.25 364.92 378.78 
4477 226.83 376.18 378.78 
4478 287.60 361.91 378.78 
4479 328.64 373.21 378.78 
4480 255.36 373.67 378.78 
4481 281.76 378.21 378.78 
4482 298.59 375.45 378.78 
4483 280.47 368.93 378.78 
4484 253.40 381.71 378.78 
4485 276.06 364.92 378.78 
4486 279.90 377.45 378.78 
4487 258.20 372.94 378.78 
4488 271.75 376.19 378.78 
4489 238.71 369.18 378.78 
4490 270.18 379.20 378.78 
4491 318.88 372.41 378.78 
4492 274.11 362.40 378.78 
4493 246.29 359.41 378.78 
