Iter | Sampling Pol | Evaluation Pol | Best (Sampled) 
   0 -2939.47 -315.41 -100000000.00 
   1 -2874.67 -139.45 -2939.47 
   2 -2298.96 -141.81 -2874.67 
   3 -2685.41 -50.66 -2298.96 
   4 -2150.55 -110.06 -2298.96 
   5 -2073.39 -324.34 -2150.55 
   6 -1775.55 -2106.22 -2073.39 
   7 -1939.31 -1483.06 -1775.55 
   8 -1120.71 -2563.77 -1775.55 
   9 -814.85 -5141.77 -1120.71 
  10 -256.89 -5064.11 -814.85 
  11 -237.82 -4676.20 -256.89 
  12 -202.59 -3606.70 -237.82 
  13 -218.96 -3433.31 -202.59 
  14 -133.76 -3803.13 -202.59 
  15 -204.10 -3532.81 -133.76 
  16 -172.75 -2418.52 -133.76 
  17 -200.29 -2554.73 -133.76 
  18 -126.00 -1869.31 -133.76 
  19 -54.88 -1373.03 -126.00 
  20 -87.59 -144.81 -54.88 
  21 -111.50 -118.16 -54.88 
  22 -63.05 -137.55 -54.88 
  23 -59.84 -2273.62 -54.88 
  24 -47.30 -159.99 -54.88 
  25 -19.23 -136.32 -47.30 
  26 -8.75 -126.82 -19.23 
  27 -38.37 -128.48 -8.75 
  28 -59.69 -138.02 -8.75 
  29 -11.72 -162.67 -8.75 
  30 15.43 -161.19 -8.75 
  31 30.36 -123.97 15.43 
  32 57.06 -59.56 30.36 
  33 162.02 -48.71 57.06 
  34 184.83 -44.43 162.02 
  35 279.11 -86.77 184.83 
  36 494.97 -75.21 279.11 
  37 424.24 -46.08 494.97 
  38 514.39 -137.08 494.97 
  39 530.00 -145.91 514.39 
  40 658.30 -140.57 530.00 
  41 950.58 -134.59 658.30 
  42 708.62 -133.68 950.58 
  43 768.77 -163.65 950.58 
  44 960.01 -133.43 950.58 
  45 906.78 -117.94 960.01 
  46 922.35 -115.72 960.01 
  47 1155.44 -94.13 960.01 
  48 1175.89 -116.82 1155.44 
  49 1263.37 -89.06 1175.89 
  50 1200.85 -82.65 1263.37 
  51 1216.28 -85.07 1263.37 
  52 1188.67 -87.69 1263.37 
  53 1163.94 -117.74 1263.37 
  54 1271.77 -93.28 1263.37 
  55 1327.02 -95.56 1271.77 
  56 1265.88 -79.64 1327.02 
  57 1347.37 -55.19 1327.02 
  58 1339.55 -43.84 1347.37 
  59 1407.02 -59.16 1347.37 
  60 1409.12 -63.37 1407.02 
  61 1315.18 -489.60 1409.12 
  62 1314.94 -568.41 1409.12 
  63 1465.91 -79.56 1409.12 
  64 1433.53 -500.44 1465.91 
  65 1488.32 -625.89 1465.91 
  66 1426.33 -142.61 1488.32 
  67 1523.13 694.64 1488.32 
  68 1519.87 698.95 1523.13 
  69 1574.56 -1971.44 1523.13 
  70 1571.01 -70.17 1574.56 
  71 1598.25 -1143.87 1574.56 
  72 1614.81 1447.25 1598.25 
  73 1604.52 547.20 1614.81 
  74 1589.92 563.50 1614.81 
  75 1544.68 -92.41 1614.81 
  76 1573.68 1433.56 1614.81 
  77 1621.11 951.00 1614.81 
  78 1642.17 104.30 1621.11 
  79 1561.79 1416.75 1642.17 
  80 1598.49 1618.56 1642.17 
  81 1609.47 1632.08 1642.17 
  82 1628.45 1663.55 1642.17 
  83 1625.19 1424.09 1642.17 
  84 1631.17 1824.23 1642.17 
  85 1660.17 1832.18 1642.17 
  86 1682.34 1820.23 1660.17 
  87 1623.47 1532.16 1682.34 
  88 1685.68 1710.44 1682.34 
  89 1655.75 1331.14 1685.68 
  90 1669.20 1889.42 1685.68 
  91 1730.00 1866.83 1685.68 
  92 1703.49 1571.96 1730.00 
  93 1659.97 1606.83 1730.00 
  94 1700.15 1637.16 1730.00 
  95 1687.18 1661.66 1730.00 
  96 1738.42 1727.35 1730.00 
  97 1732.90 1640.77 1738.42 
  98 1751.68 1780.32 1738.42 
  99 1744.61 1753.83 1751.68 
 100 1718.33 1731.08 1751.68 
 101 1742.86 1755.51 1751.68 
 102 1775.76 1751.54 1751.68 
 103 1730.23 1701.05 1775.76 
 104 1754.01 1745.55 1775.76 
 105 1794.60 1766.47 1775.76 
 106 1784.62 1759.93 1794.60 
 107 1795.44 1773.64 1794.60 
 108 1794.22 1757.35 1795.44 
 109 1818.31 1764.46 1795.44 
 110 1823.66 1754.44 1818.31 
 111 1775.27 1791.11 1823.66 
 112 1828.06 1770.68 1823.66 
 113 1848.66 1792.14 1828.06 
 114 1830.70 1815.73 1848.66 
 115 1850.09 1793.34 1848.66 
 116 1794.65 1766.83 1850.09 
 117 1844.10 1765.43 1850.09 
 118 1849.11 1840.41 1850.09 
 119 1858.34 1813.61 1850.09 
 120 1861.36 1852.39 1858.34 
 121 1868.50 1873.48 1861.36 
 122 1875.72 1886.16 1868.50 
 123 1880.99 1892.58 1875.72 
 124 1882.40 1903.29 1880.99 
 125 1881.75 1884.01 1882.40 
 126 1892.61 1895.90 1882.40 
 127 1905.90 1929.10 1892.61 
 128 1866.87 1905.07 1905.90 
 129 1875.86 1929.42 1905.90 
 130 1817.31 1920.65 1905.90 
 131 1904.64 1925.37 1905.90 
 132 1876.89 1927.03 1905.90 
 133 1908.41 1930.12 1905.90 
 134 1896.45 1921.71 1908.41 
 135 1907.39 1908.10 1908.41 
 136 1916.85 1922.66 1908.41 
 137 1870.64 1925.40 1916.85 
 138 1922.25 1928.26 1916.85 
 139 1900.55 1928.82 1922.25 
 140 1875.67 1931.61 1922.25 
 141 1923.37 1909.77 1922.25 
 142 1904.35 1903.83 1923.37 
 143 1923.69 1923.36 1923.37 
 144 1929.40 1951.55 1923.69 
 145 1934.54 1995.59 1929.40 
 146 1869.80 1954.25 1934.54 
 147 1896.97 1994.86 1934.54 
 148 1919.96 1959.37 1934.54 
 149 1919.74 1951.81 1934.54 
 150 1924.96 1995.24 1934.54 
 151 1898.26 1995.64 1934.54 
 152 1943.35 1988.27 1934.54 
 153 1937.36 1995.32 1943.35 
 154 1931.40 1942.93 1943.35 
 155 1947.69 1942.87 1943.35 
 156 1933.03 1958.85 1947.69 
 157 1946.14 1973.66 1947.69 
 158 1892.95 1972.45 1947.69 
 159 1908.19 1938.32 1947.69 
 160 1927.54 1958.25 1947.69 
 161 1948.80 1951.26 1947.69 
 162 1948.13 1977.67 1948.80 
 163 1938.23 1944.00 1948.80 
 164 1958.93 1953.85 1948.80 
 165 1939.24 1945.53 1958.93 
 166 1936.55 1939.77 1958.93 
 167 1942.39 1944.97 1958.93 
 168 1895.51 1940.96 1958.93 
 169 1934.02 1939.90 1958.93 
 170 1911.02 1935.58 1958.93 
 171 1945.18 1938.89 1958.93 
 172 1952.07 1960.11 1958.93 
 173 1939.05 1944.34 1958.93 
 174 1950.87 1982.62 1958.93 
 175 1940.04 1968.08 1958.93 
 176 1946.59 1965.68 1958.93 
 177 1948.38 1985.26 1958.93 
 178 1969.50 1964.82 1958.93 
 179 1975.26 1965.33 1969.50 
 180 1948.37 1982.30 1975.26 
 181 1980.46 1990.19 1975.26 
 182 1979.76 2005.74 1980.46 
 183 1990.13 2009.40 1980.46 
 184 1972.38 2012.94 1990.13 
 185 1991.68 2015.80 1990.13 
 186 1968.78 2034.28 1991.68 
 187 1994.57 2008.06 1991.68 
 188 1998.26 2041.21 1994.57 
 189 1980.76 2043.65 1998.26 
 190 2001.85 2039.91 1998.26 
 191 2002.66 2041.04 2001.85 
 192 2005.11 2035.61 2002.66 
 193 2013.21 2040.51 2005.11 
 194 2009.77 2030.45 2013.21 
 195 1999.68 2033.28 2013.21 
 196 2016.98 2035.47 2013.21 
 197 2017.40 2040.68 2016.98 
 198 2005.27 2035.94 2017.40 
 199 2021.15 2032.41 2017.40 
 200 2021.56 2033.89 2021.15 
 201 2010.09 2030.77 2021.56 
 202 2016.15 2035.18 2021.56 
 203 2021.48 2036.72 2021.56 
 204 2027.09 2028.25 2021.56 
 205 2026.37 2038.55 2027.09 
 206 2032.77 2020.22 2027.09 
 207 2033.14 2008.88 2032.77 
 208 2034.52 2019.87 2033.14 
 209 2039.14 2029.83 2034.52 
 210 2044.06 2057.94 2039.14 
 211 2043.32 2060.84 2044.06 
 212 2044.93 2035.22 2044.06 
 213 2049.46 2022.51 2044.93 
 214 2027.06 2032.37 2049.46 
 215 2045.85 2036.71 2049.46 
 216 2047.00 2037.03 2049.46 
 217 2044.68 2038.24 2049.46 
 218 2047.35 2021.79 2049.46 
 219 2053.32 2033.67 2049.46 
 220 2054.81 2032.74 2053.32 
 221 2055.28 2033.28 2054.81 
 222 2056.51 2036.01 2055.28 
 223 2054.47 2040.82 2056.51 
 224 2059.04 2036.70 2056.51 
 225 2060.98 2035.32 2059.04 
 226 2056.32 2040.33 2060.98 
 227 2063.22 2034.79 2060.98 
 228 2057.36 2041.13 2063.22 
 229 2041.52 2041.45 2063.22 
 230 2063.98 2040.85 2063.22 
 231 2062.45 2043.86 2063.98 
 232 2066.53 2043.35 2063.98 
 233 2064.13 2040.98 2066.53 
 234 2063.54 2041.89 2066.53 
 235 2067.66 2043.19 2066.53 
 236 2068.95 2043.88 2067.66 
 237 2065.15 2042.64 2068.95 
 238 2068.62 2045.09 2068.95 
 239 2070.83 2044.37 2068.95 
 240 2074.14 2045.10 2070.83 
 241 2075.93 2042.82 2074.14 
 242 2077.90 2044.33 2075.93 
 243 2063.17 2045.11 2077.90 
 244 2082.71 2044.80 2077.90 
 245 2084.24 2048.41 2082.71 
 246 2085.23 2045.52 2084.24 
 247 2090.31 2048.57 2085.23 
 248 2094.66 2043.09 2090.31 
 249 2094.50 2043.98 2094.66 
 250 2096.90 2044.20 2094.66 
 251 2099.45 2043.13 2096.90 
 252 2100.49 2042.93 2099.45 
 253 2104.92 2044.39 2100.49 
 254 2108.74 2049.01 2104.92 
 255 2109.87 2044.80 2108.74 
 256 2111.24 2044.55 2109.87 
 257 2105.11 2047.78 2111.24 
 258 2110.25 2046.58 2111.24 
 259 2110.93 2047.41 2111.24 
 260 2111.29 2046.91 2111.24 
 261 2113.42 2046.67 2111.29 
 262 2114.03 2043.95 2113.42 
 263 2113.51 2047.69 2114.03 
 264 2120.85 2046.71 2114.03 
 265 2121.33 2046.81 2120.85 
 266 2100.16 2046.27 2121.33 
 267 2122.06 2047.41 2121.33 
 268 2121.26 2046.55 2122.06 
 269 2120.67 2045.09 2122.06 
 270 2119.72 2045.44 2122.06 
 271 2123.67 2046.75 2122.06 
 272 2124.00 2048.48 2123.67 
 273 2126.48 2052.75 2124.00 
 274 2107.93 2049.75 2126.48 
 275 2127.25 2052.19 2126.48 
 276 2127.11 2051.71 2127.25 
 277 2127.04 2050.00 2127.25 
 278 2115.54 2049.67 2127.25 
 279 2124.97 2051.96 2127.25 
 280 2130.74 2046.85 2127.25 
 281 2123.15 2055.21 2130.74 
 282 2130.09 2057.38 2130.74 
 283 2108.54 2053.30 2130.74 
 284 2129.98 2056.67 2130.74 
 285 2130.15 2064.33 2130.74 
 286 2132.30 2067.20 2130.74 
 287 2130.09 2070.72 2132.30 
 288 2130.86 2085.19 2132.30 
 289 2132.21 2085.80 2132.30 
 290 2133.31 2088.40 2132.30 
 291 2135.58 2088.04 2133.31 
 292 2135.76 2088.77 2135.58 
 293 2116.82 2086.32 2135.76 
 294 2132.95 2079.25 2135.76 
 295 2133.68 2074.08 2135.76 
 296 2137.01 2085.86 2135.76 
 297 2138.60 2088.84 2137.01 
 298 2114.17 2086.76 2138.60 
 299 2136.93 2086.87 2138.60 
 300 2138.47 2087.75 2138.60 
 301 2139.47 2091.64 2138.60 
 302 2137.66 2092.05 2139.47 
 303 2140.07 2090.65 2139.47 
 304 2138.64 2094.84 2140.07 
 305 2114.32 2113.39 2140.07 
 306 2139.60 2138.87 2140.07 
 307 2141.26 2130.20 2140.07 
 308 2141.40 2132.03 2141.26 
 309 2143.09 2132.44 2141.40 
 310 2144.24 2134.39 2143.09 
 311 2140.79 2132.29 2144.24 
 312 2142.11 2134.38 2144.24 
 313 2144.36 2136.20 2144.24 
 314 2146.24 2137.16 2144.36 
 315 2143.93 2136.84 2146.24 
 316 2124.03 2136.74 2146.24 
 317 2143.35 2138.16 2146.24 
 318 2144.82 2137.82 2146.24 
 319 2145.93 2137.18 2146.24 
 320 2124.60 2136.02 2146.24 
 321 2126.21 2138.16 2146.24 
 322 2145.54 2138.95 2146.24 
 323 2146.22 2139.76 2146.24 
 324 2146.96 2139.74 2146.24 
 325 2144.22 2139.71 2146.96 
 326 2147.48 2140.89 2146.96 
 327 2148.63 2143.36 2147.48 
 328 2149.18 2144.94 2148.63 
 329 2148.37 2142.92 2149.18 
 330 2142.81 2141.31 2149.18 
 331 2134.13 2141.52 2149.18 
 332 2148.43 2140.64 2149.18 
 333 2149.89 2142.74 2149.18 
 334 2151.94 2144.46 2149.89 
 335 2152.40 2141.23 2151.94 
 336 2151.12 2142.39 2152.40 
 337 2152.91 2142.51 2152.40 
 338 2151.87 2141.68 2152.91 
 339 2150.16 2142.40 2152.91 
 340 2152.21 2141.72 2152.91 
 341 2148.54 2140.37 2152.91 
 342 2153.01 2140.98 2152.91 
 343 2152.49 2140.06 2153.01 
 344 2153.96 2142.45 2153.01 
 345 2153.49 2142.25 2153.96 
 346 2154.20 2141.77 2153.96 
 347 2153.82 2143.27 2154.20 
 348 2156.38 2142.76 2154.20 
 349 2156.07 2145.31 2156.38 
 350 2155.40 2142.33 2156.38 
 351 2155.29 2143.27 2156.38 
 352 2158.16 2143.28 2156.38 
 353 2129.68 2144.80 2158.16 
 354 2157.62 2145.76 2158.16 
 355 2156.76 2145.48 2158.16 
 356 2150.10 2143.66 2158.16 
 357 2157.05 2145.70 2158.16 
 358 2157.94 2145.34 2158.16 
 359 2157.50 2145.78 2158.16 
 360 2158.99 2146.48 2158.16 
 361 2159.12 2146.31 2158.99 
 362 2159.91 2146.06 2159.12 
 363 2161.61 2145.04 2159.91 
 364 2153.02 2144.80 2161.61 
 365 2154.84 2144.73 2161.61 
 366 2158.63 2144.51 2161.61 
 367 2159.64 2144.37 2161.61 
 368 2159.77 2142.36 2161.61 
 369 2161.29 2144.26 2161.61 
 370 2162.11 2144.90 2161.61 
 371 2162.53 2146.60 2162.11 
 372 2163.94 2147.59 2162.53 
 373 2161.49 2146.28 2163.94 
 374 2162.22 2146.32 2163.94 
 375 2164.03 2146.20 2163.94 
 376 2164.49 2151.15 2164.03 
 377 2166.41 2151.83 2164.49 
 378 2155.12 2151.21 2166.41 
 379 2166.77 2146.87 2166.41 
 380 2165.97 2145.26 2166.77 
 381 2159.92 2144.63 2166.77 
 382 2147.86 2144.92 2166.77 
 383 2137.65 2143.29 2166.77 
 384 2166.49 2143.54 2166.77 
 385 2165.00 2143.39 2166.77 
 386 2158.27 2140.83 2166.77 
 387 2134.98 2139.85 2166.77 
 388 2159.73 2142.08 2166.77 
 389 2145.28 2141.10 2166.77 
 390 2165.03 2137.50 2166.77 
 391 2155.46 2141.56 2166.77 
 392 2163.20 2142.21 2166.77 
 393 2161.90 2142.42 2166.77 
 394 2152.51 2143.26 2166.77 
 395 2163.07 2142.82 2166.77 
 396 2161.44 2144.48 2166.77 
 397 2162.94 2142.47 2166.77 
 398 2163.20 2147.12 2166.77 
 399 2165.19 2144.59 2166.77 
 400 2165.87 2149.53 2166.77 
 401 2154.02 2147.80 2166.77 
 402 2166.80 2148.04 2166.77 
 403 2141.19 2145.21 2166.80 
 404 2164.67 2146.29 2166.80 
 405 2164.63 2148.57 2166.80 
 406 2166.36 2154.17 2166.80 
 407 2166.64 2152.97 2166.80 
 408 2140.75 2156.34 2166.80 
 409 2161.70 2155.22 2166.80 
 410 2166.73 2156.34 2166.80 
 411 2160.33 2151.63 2166.80 
 412 2161.41 2152.03 2166.80 
 413 2165.93 2156.47 2166.80 
 414 2167.33 2157.65 2166.80 
 415 2166.72 2163.76 2167.33 
 416 2167.23 2162.51 2167.33 
 417 2160.59 2162.28 2167.33 
 418 2154.58 2162.89 2167.33 
 419 2167.49 2162.86 2167.33 
 420 2167.74 2168.56 2167.49 
 421 2167.23 2163.30 2167.74 
 422 2169.54 2163.75 2167.74 
 423 2117.94 2167.83 2169.54 
 424 2169.26 2163.86 2169.54 
 425 2170.47 2162.43 2169.54 
 426 2169.67 2166.23 2170.47 
 427 2165.56 2167.09 2170.47 
 428 2169.57 2168.50 2170.47 
 429 2169.59 2164.54 2170.47 
 430 2168.55 2163.44 2170.47 
 431 2168.19 2167.67 2170.47 
 432 2167.76 2164.67 2170.47 
 433 2169.77 2165.01 2170.47 
 434 2168.14 2163.64 2170.47 
 435 2170.05 2164.10 2170.47 
 436 2168.48 2162.46 2170.47 
 437 2170.04 2169.60 2170.47 
 438 2170.82 2169.17 2170.47 
 439 2167.48 2167.86 2170.82 
 440 2170.61 2164.84 2170.82 
 441 2170.93 2165.69 2170.82 
 442 2172.51 2163.10 2170.93 
 443 2172.34 2170.33 2172.51 
 444 2171.42 2170.88 2172.51 
 445 2173.38 2168.85 2172.51 
 446 2173.60 2173.20 2173.38 
 447 2173.12 2170.37 2173.60 
 448 2167.92 2170.33 2173.60 
 449 2174.09 2173.16 2173.60 
 450 2173.92 2173.54 2174.09 
 451 2174.42 2174.02 2174.09 
 452 2174.96 2175.36 2174.42 
 453 2176.89 2176.22 2174.96 
 454 2153.85 2175.78 2176.89 
 455 2150.36 2174.22 2176.89 
 456 2176.91 2173.68 2176.89 
 457 2176.63 2173.37 2176.91 
 458 2170.96 2171.68 2176.91 
 459 2175.86 2170.13 2176.91 
 460 2174.86 2169.28 2176.91 
 461 2155.99 2169.16 2176.91 
 462 2175.68 2164.59 2176.91 
 463 2175.92 2155.32 2176.91 
 464 2176.15 2157.48 2176.91 
 465 2175.49 2160.17 2176.91 
 466 2176.43 2168.47 2176.91 
 467 2176.15 2168.93 2176.91 
 468 2174.49 2168.31 2176.91 
 469 2176.25 2163.44 2176.91 
 470 2175.08 2166.38 2176.91 
 471 2176.22 2169.71 2176.91 
 472 2175.57 2168.99 2176.91 
 473 2175.32 2167.44 2176.91 
 474 2176.37 2168.37 2176.91 
 475 2176.89 2170.09 2176.91 
 476 2173.19 2169.78 2176.91 
 477 2176.45 2170.37 2176.91 
 478 2174.39 2170.51 2176.91 
 479 2173.50 2168.26 2176.91 
 480 2174.64 2168.45 2176.91 
 481 2175.42 2169.26 2176.91 
 482 2175.05 2169.88 2176.91 
 483 2175.72 2170.50 2176.91 
 484 2175.22 2169.30 2176.91 
 485 2176.57 2170.61 2176.91 
 486 2176.83 2171.74 2176.91 
 487 2176.99 2169.16 2176.91 
 488 2177.45 2168.21 2176.99 
 489 2177.90 2168.79 2177.45 
 490 2176.58 2168.31 2177.90 
 491 2178.43 2167.17 2177.90 
 492 2155.24 2166.25 2178.43 
 493 2175.09 2169.77 2178.43 
 494 2174.20 2157.24 2178.43 
 495 2174.93 2162.64 2178.43 
 496 2175.32 2164.28 2178.43 
 497 2176.86 2164.10 2178.43 
 498 2177.56 2167.11 2178.43 
 499 2177.39 2166.81 2178.43 
 500 2176.73 2162.97 2178.43 
 501 2177.61 2162.51 2178.43 
 502 2179.18 2166.61 2178.43 
 503 2178.03 2169.34 2179.18 
 504 2178.69 2169.20 2179.18 
 505 2176.96 2167.70 2179.18 
 506 2113.73 2166.51 2179.18 
 507 2177.70 2165.70 2179.18 
 508 2180.33 2164.64 2179.18 
 509 2180.12 2165.20 2180.33 
 510 2179.41 2163.65 2180.33 
 511 2179.93 2165.31 2180.33 
 512 2180.16 2166.05 2180.33 
 513 2181.34 2168.22 2180.33 
 514 2175.61 2168.74 2181.34 
 515 2180.64 2168.89 2181.34 
 516 2179.89 2171.52 2181.34 
 517 2180.95 2172.11 2181.34 
 518 2178.09 2170.63 2181.34 
 519 2181.57 2173.96 2181.34 
 520 2181.00 2172.93 2181.57 
 521 2182.05 2173.66 2181.57 
 522 2179.01 2173.38 2182.05 
 523 2182.73 2174.28 2182.05 
 524 2181.79 2175.82 2182.73 
 525 2170.47 2176.17 2182.73 
 526 2181.74 2179.88 2182.73 
 527 2182.00 2180.84 2182.73 
 528 2182.25 2181.43 2182.73 
 529 2182.68 2187.36 2182.73 
 530 2180.23 2187.11 2182.73 
 531 2184.43 2187.96 2182.73 
 532 2183.76 2187.07 2184.43 
 533 2183.10 2182.08 2184.43 
 534 2184.37 2183.67 2184.43 
 535 2184.86 2183.13 2184.43 
 536 2184.83 2187.69 2184.86 
 537 2185.33 2186.22 2184.86 
 538 2169.49 2185.97 2185.33 
 539 2179.51 2185.59 2185.33 
 540 2183.61 2181.92 2185.33 
 541 2184.07 2183.54 2185.33 
 542 2184.42 2186.59 2185.33 
 543 2184.25 2183.64 2185.33 
 544 2184.29 2182.29 2185.33 
 545 2185.97 2183.60 2185.33 
 546 2185.60 2181.56 2185.97 
 547 2184.41 2183.44 2185.97 
 548 2184.77 2184.26 2185.97 
 549 2184.75 2181.87 2185.97 
 550 2186.50 2178.02 2185.97 
 551 2122.96 2177.90 2186.50 
 552 2184.31 2179.90 2186.50 
 553 2183.46 2176.53 2186.50 
 554 2185.45 2177.58 2186.50 
 555 2185.95 2177.09 2186.50 
 556 2184.01 2176.84 2186.50 
 557 2183.60 2178.52 2186.50 
 558 2182.36 2179.70 2186.50 
 559 2182.17 2179.89 2186.50 
 560 2183.13 2182.32 2186.50 
 561 2182.68 2183.28 2186.50 
 562 2184.19 2184.32 2186.50 
 563 2184.43 2184.58 2186.50 
 564 2183.53 2182.14 2186.50 
 565 2183.87 2182.19 2186.50 
 566 2183.58 2185.64 2186.50 
 567 2183.90 2181.56 2186.50 
 568 2184.69 2186.59 2186.50 
 569 2185.05 2186.71 2186.50 
 570 2185.86 2188.72 2186.50 
 571 2187.39 2190.42 2186.50 
 572 2187.33 2190.26 2187.39 
 573 2186.94 2190.34 2187.39 
 574 2188.58 2192.12 2187.39 
 575 2188.64 2192.67 2188.58 
 576 2190.15 2193.54 2188.64 
 577 2190.08 2192.46 2190.15 
 578 2177.22 2192.17 2190.15 
 579 2186.01 2189.97 2190.15 
 580 2190.81 2184.02 2190.15 
 581 2189.06 2184.38 2190.81 
 582 2184.32 2183.61 2190.81 
 583 2126.84 2183.53 2190.81 
 584 2189.87 2183.45 2190.81 
 585 2180.90 2185.40 2190.81 
 586 2188.48 2188.18 2190.81 
 587 2187.52 2188.77 2190.81 
 588 2186.18 2185.81 2190.81 
 589 2187.35 2184.33 2190.81 
 590 2189.27 2186.35 2190.81 
 591 2189.37 2185.65 2190.81 
 592 2190.11 2185.80 2190.81 
 593 2190.12 2185.07 2190.81 
 594 2190.67 2186.46 2190.81 
 595 2181.22 2184.28 2190.81 
 596 2192.10 2183.73 2190.81 
 597 2192.16 2185.52 2192.10 
 598 2185.52 2183.51 2192.16 
 599 2192.69 2182.78 2192.16 
 600 2192.58 2184.68 2192.69 
 601 2192.98 2185.41 2192.69 
 602 2191.81 2185.59 2192.98 
 603 2194.17 2187.52 2192.98 
 604 1997.43 2188.13 2194.17 
 605 2192.49 2191.28 2194.17 
 606 2193.77 2189.61 2194.17 
 607 2195.41 2187.81 2194.17 
 608 2195.56 2183.62 2195.41 
 609 2194.52 2181.10 2195.56 
 610 2194.65 2180.99 2195.56 
 611 2187.58 2181.68 2195.56 
 612 2191.98 2180.79 2195.56 
 613 2192.18 2179.57 2195.56 
 614 2192.72 2179.43 2195.56 
 615 2192.76 2181.44 2195.56 
 616 2194.07 2181.58 2195.56 
 617 2193.96 2181.95 2195.56 
 618 2194.20 2183.55 2195.56 
 619 2130.31 2183.50 2195.56 
 620 2192.42 2183.49 2195.56 
 621 2193.68 2182.50 2195.56 
 622 2192.94 2181.65 2195.56 
 623 2194.05 2183.52 2195.56 
 624 2195.38 2182.94 2195.56 
 625 2194.29 2181.53 2195.56 
 626 2153.31 2182.72 2195.56 
 627 2191.52 2183.71 2195.56 
 628 2193.69 2184.02 2195.56 
 629 2192.97 2184.57 2195.56 
 630 2194.39 2186.16 2195.56 
 631 2196.48 2188.07 2195.56 
 632 2195.41 2187.09 2196.48 
 633 2197.31 2187.38 2196.48 
 634 2156.71 2187.31 2197.31 
 635 2184.59 2186.78 2197.31 
 636 2190.64 2184.41 2197.31 
 637 2187.29 2185.40 2197.31 
 638 2196.63 2186.86 2197.31 
 639 2197.40 2185.65 2197.31 
 640 2197.35 2191.40 2197.40 
 641 2198.25 2191.44 2197.40 
 642 2198.76 2190.80 2198.25 
 643 2199.17 2191.76 2198.76 
 644 2193.30 2189.75 2199.17 
 645 2198.26 2188.09 2199.17 
 646 2198.34 2188.82 2199.17 
 647 2197.47 2186.02 2199.17 
 648 2197.53 2182.29 2199.17 
 649 2197.29 2187.05 2199.17 
 650 2199.84 2191.77 2199.17 
 651 2199.72 2193.68 2199.84 
 652 2137.20 2192.81 2199.84 
 653 2139.42 2190.24 2199.84 
 654 2189.54 2192.10 2199.84 
 655 2198.86 2191.74 2199.84 
 656 2134.61 2189.32 2199.84 
 657 2191.05 2189.57 2199.84 
 658 2192.97 2187.08 2199.84 
 659 2195.89 2186.59 2199.84 
 660 2139.17 2184.24 2199.84 
 661 2197.07 2184.84 2199.84 
 662 2193.34 2182.79 2199.84 
 663 2196.22 2177.07 2199.84 
 664 2197.95 2182.67 2199.84 
 665 2193.75 2182.71 2199.84 
 666 2198.04 2180.98 2199.84 
 667 2199.00 2179.42 2199.84 
 668 2199.56 2174.88 2199.84 
 669 2200.52 2177.25 2199.84 
 670 2197.00 2180.03 2200.52 
 671 2200.57 2182.88 2200.52 
 672 2202.11 2185.76 2200.57 
 673 2202.36 2190.12 2202.11 
 674 2193.81 2189.62 2202.36 
 675 2134.90 2189.05 2202.36 
 676 2199.26 2191.24 2202.36 
 677 2139.61 2188.00 2202.36 
 678 2199.02 2187.84 2202.36 
 679 2198.36 2187.15 2202.36 
 680 2198.22 2185.30 2202.36 
 681 2200.25 2184.55 2202.36 
 682 2199.80 2185.11 2202.36 
 683 2200.27 2183.83 2202.36 
 684 2200.12 2184.44 2202.36 
 685 2199.03 2183.33 2202.36 
 686 2199.44 2175.50 2202.36 
 687 2203.17 2169.83 2202.36 
 688 2203.43 2180.79 2203.17 
 689 2203.22 2186.60 2203.43 
 690 2178.91 2185.54 2203.43 
 691 2202.90 2190.28 2203.43 
 692 2203.37 2189.80 2203.43 
 693 2202.93 2192.40 2203.43 
 694 2202.67 2190.30 2203.43 
 695 2204.48 2193.70 2203.43 
 696 2188.13 2195.96 2204.48 
 697 2202.68 2198.55 2204.48 
 698 2172.15 2195.61 2204.48 
 699 2205.07 2197.84 2204.48 
 700 2171.13 2197.78 2205.07 
 701 2203.18 2200.31 2205.07 
 702 2202.35 2199.00 2205.07 
 703 2202.63 2201.53 2205.07 
 704 2200.24 2200.33 2205.07 
 705 2201.58 2198.82 2205.07 
 706 2204.29 2195.29 2205.07 
 707 2205.63 2194.06 2205.07 
 708 2205.08 2196.03 2205.63 
 709 2197.26 2200.01 2205.63 
 710 2204.28 2198.72 2205.63 
 711 2204.56 2188.37 2205.63 
 712 2202.49 2183.77 2205.63 
 713 2203.40 2186.18 2205.63 
 714 2204.39 2188.74 2205.63 
 715 2204.53 2192.57 2205.63 
 716 2204.51 2188.80 2205.63 
 717 2205.27 2194.92 2205.63 
 718 2205.53 2198.36 2205.63 
 719 2206.36 2196.66 2205.63 
 720 2208.14 2195.13 2206.36 
 721 2207.25 2197.01 2208.14 
 722 2207.12 2201.19 2208.14 
 723 2209.16 2199.41 2208.14 
 724 2190.24 2200.07 2209.16 
 725 2204.19 2202.16 2209.16 
 726 2209.24 2205.65 2209.16 
 727 2208.09 2202.74 2209.24 
 728 2209.22 2201.70 2209.24 
 729 2209.58 2203.53 2209.24 
 730 2209.61 2203.33 2209.58 
 731 2210.73 2200.97 2209.61 
 732 2143.52 2200.90 2210.73 
 733 2207.90 2197.44 2210.73 
 734 2210.23 2196.49 2210.73 
 735 2208.43 2197.50 2210.73 
 736 2202.99 2199.96 2210.73 
 737 2208.62 2203.08 2210.73 
 738 2142.24 2203.81 2210.73 
 739 2207.73 2201.23 2210.73 
 740 2207.01 2192.75 2210.73 
 741 2206.02 2188.44 2210.73 
 742 2207.58 2189.96 2210.73 
 743 2207.55 2193.26 2210.73 
 744 2194.74 2193.85 2210.73 
 745 2139.27 2196.09 2210.73 
 746 2203.67 2195.79 2210.73 
 747 2206.66 2196.75 2210.73 
 748 2207.00 2200.64 2210.73 
 749 2207.19 2197.18 2210.73 
 750 2209.69 2195.07 2210.73 
 751 2208.67 2195.79 2210.73 
 752 2209.15 2195.75 2210.73 
 753 2210.17 2198.89 2210.73 
 754 2209.33 2198.51 2210.73 
 755 2210.12 2194.05 2210.73 
 756 2209.46 2204.28 2210.73 
 757 2209.78 2201.29 2210.73 
 758 2208.48 2207.22 2210.73 
 759 2209.95 2201.56 2210.73 
 760 2210.18 2206.61 2210.73 
 761 2209.94 2206.70 2210.73 
 762 2210.19 2209.57 2210.73 
 763 2210.98 2209.19 2210.73 
 764 2210.54 2214.40 2210.98 
 765 2210.75 2217.85 2210.98 
 766 2212.29 2221.89 2210.98 
 767 2211.84 2220.66 2212.29 
 768 2213.29 2221.65 2212.29 
 769 2200.36 2219.10 2213.29 
 770 2184.21 2217.99 2213.29 
 771 2213.42 2220.73 2213.29 
 772 2212.92 2223.25 2213.42 
 773 2213.25 2222.24 2213.42 
 774 2189.11 2222.04 2213.42 
 775 2213.88 2222.96 2213.42 
 776 2213.75 2224.91 2213.88 
 777 2213.21 2223.64 2213.88 
 778 2197.51 2225.05 2213.88 
 779 2213.61 2225.01 2213.88 
 780 2181.83 2225.75 2213.88 
 781 2181.48 2220.27 2213.88 
 782 2208.42 2220.75 2213.88 
 783 2208.13 2219.29 2213.88 
 784 2209.92 2223.28 2213.88 
 785 2211.60 2222.16 2213.88 
 786 2212.26 2222.56 2213.88 
 787 2213.40 2224.58 2213.88 
 788 2213.85 2223.04 2213.88 
 789 2183.04 2221.71 2213.88 
 790 2214.75 2223.54 2213.88 
 791 2213.77 2221.24 2214.75 
 792 2213.48 2222.51 2214.75 
 793 2214.75 2225.64 2214.75 
 794 2200.43 2226.31 2214.75 
 795 2215.08 2226.96 2214.75 
 796 2187.86 2226.90 2215.08 
 797 2214.53 2228.31 2215.08 
 798 2215.00 2229.86 2215.08 
 799 2181.82 2230.04 2215.08 
 800 2214.88 2228.95 2215.08 
 801 2214.56 2229.18 2215.08 
 802 2214.36 2229.83 2215.08 
 803 2177.30 2228.80 2215.08 
 804 2215.25 2228.20 2215.08 
 805 2215.10 2228.75 2215.25 
 806 2217.91 2228.70 2215.25 
 807 2217.48 2228.11 2217.91 
 808 2217.00 2223.49 2217.91 
 809 2185.75 2220.48 2217.91 
 810 2216.36 2229.90 2217.91 
 811 2204.42 2230.90 2217.91 
 812 2215.35 2228.16 2217.91 
 813 2215.32 2228.12 2217.91 
 814 2216.51 2225.39 2217.91 
 815 2195.16 2225.55 2217.91 
 816 2215.64 2226.34 2217.91 
 817 2215.64 2225.03 2217.91 
 818 2215.38 2226.78 2217.91 
 819 2201.75 2223.60 2217.91 
 820 2215.19 2223.76 2217.91 
 821 2211.05 2224.08 2217.91 
 822 2214.87 2219.28 2217.91 
 823 2215.11 2221.54 2217.91 
 824 2214.91 2225.56 2217.91 
 825 2183.13 2225.61 2217.91 
 826 2216.50 2226.93 2217.91 
 827 2206.18 2225.60 2217.91 
 828 2216.60 2225.72 2217.91 
 829 2216.24 2225.49 2217.91 
 830 2216.00 2223.30 2217.91 
 831 2216.91 2226.20 2217.91 
 832 2152.94 2225.81 2217.91 
 833 2217.07 2227.11 2217.91 
 834 2216.65 2221.72 2217.91 
 835 2216.86 1935.19 2217.91 
 836 2217.13 2214.53 2217.91 
 837 2217.81 1527.24 2217.91 
 838 2208.88 2141.30 2217.91 
 839 2088.60 2112.11 2217.91 
 840 2215.46 1885.26 2217.91 
 841 2215.15 1842.02 2217.91 
 842 2214.43 1792.88 2217.91 
 843 2216.41 2027.39 2217.91 
 844 2216.70 2028.99 2217.91 
 845 2213.49 1424.76 2217.91 
 846 2215.81 935.31 2217.91 
 847 2216.39 1208.39 2217.91 
 848 2216.30 1626.64 2217.91 
 849 2215.84 1221.45 2217.91 
 850 2217.35 1268.29 2217.91 
 851 2216.92 2219.32 2217.91 
 852 2216.78 2218.17 2217.91 
 853 2215.23 2213.11 2217.91 
 854 2218.37 2220.83 2217.91 
 855 2191.38 2220.84 2218.37 
 856 2215.74 2223.85 2218.37 
 857 2217.50 2224.81 2218.37 
 858 2219.38 2225.86 2218.37 
 859 2218.55 2226.21 2219.38 
 860 2219.77 2219.52 2219.38 
 861 2197.57 2222.56 2219.77 
 862 2220.03 2223.49 2219.77 
 863 2219.53 2228.59 2220.03 
 864 2218.84 2227.59 2220.03 
 865 2219.83 2226.87 2220.03 
 866 2220.06 2224.97 2220.03 
 867 2220.36 907.15 2220.06 
 868 2220.98 2227.10 2220.36 
 869 2204.53 2227.94 2220.98 
 870 2205.23 2230.31 2220.98 
 871 2221.86 2227.20 2220.98 
 872 2221.22 2225.67 2221.86 
 873 2222.10 2222.01 2221.86 
 874 2186.60 2221.07 2222.10 
 875 2195.48 2224.21 2222.10 
 876 2137.52 2227.50 2222.10 
 877 2151.83 2226.55 2222.10 
 878 2218.70 2226.70 2222.10 
 879 2219.13 2230.07 2222.10 
 880 2220.27 2229.91 2222.10 
 881 2218.78 2231.19 2222.10 
 882 2219.44 2230.36 2222.10 
 883 2153.87 2231.75 2222.10 
 884 2219.02 2231.68 2222.10 
 885 2218.79 2231.58 2222.10 
 886 2202.54 2231.89 2222.10 
 887 2218.11 2232.51 2222.10 
 888 2219.75 2231.37 2222.10 
 889 2219.59 2231.55 2222.10 
 890 2220.35 2233.33 2222.10 
 891 2204.56 2233.06 2222.10 
 892 2219.56 2233.57 2222.10 
 893 2219.50 2234.79 2222.10 
 894 2218.37 2235.26 2222.10 
 895 2204.72 2235.91 2222.10 
 896 2221.51 2236.40 2222.10 
 897 2220.41 2232.73 2222.10 
 898 2221.09 2237.52 2222.10 
 899 2221.19 2236.71 2222.10 
 900 2221.44 2237.14 2222.10 
 901 2222.96 2237.80 2222.10 
 902 2206.46 2238.21 2222.96 
 903 2222.95 2232.34 2222.96 
 904 2222.68 2235.51 2222.96 
 905 2223.23 2235.84 2222.96 
 906 2224.09 2239.51 2223.23 
 907 2224.46 2240.67 2224.09 
 908 2193.07 2236.12 2224.46 
 909 2143.75 2234.28 2224.46 
 910 2225.16 2235.03 2224.46 
 911 2207.63 2232.55 2225.16 
 912 2196.31 2232.53 2225.16 
 913 2206.71 2232.75 2225.16 
 914 2223.41 2231.30 2225.16 
 915 2222.50 2227.57 2225.16 
 916 2225.57 2230.46 2225.16 
 917 2191.14 2229.84 2225.57 
 918 2191.67 2230.37 2225.57 
 919 2225.13 2231.75 2225.57 
 920 2225.13 2231.34 2225.57 
 921 2225.17 2232.62 2225.57 
 922 2224.31 2235.96 2225.57 
 923 2226.99 2237.65 2225.57 
 924 2227.54 2236.82 2226.99 
 925 2230.89 2238.35 2227.54 
 926 2175.16 2238.99 2230.89 
 927 2230.49 2238.69 2230.89 
 928 2228.03 2235.26 2230.89 
 929 2230.31 2235.76 2230.89 
 930 2232.49 2238.08 2230.89 
 931 2234.10 2239.41 2232.49 
 932 2235.47 2244.36 2234.10 
 933 2235.53 2247.59 2235.47 
 934 2207.44 2247.88 2235.53 
 935 2234.69 2244.88 2235.53 
 936 2234.54 2244.93 2235.53 
 937 2215.86 2246.08 2235.53 
 938 2234.65 2249.23 2235.53 
 939 2233.25 2249.97 2235.53 
 940 2236.17 2250.26 2235.53 
 941 2238.92 2252.77 2236.17 
 942 2241.11 2253.75 2238.92 
 943 2242.93 2254.37 2241.11 
 944 2182.32 2253.67 2242.93 
 945 2245.11 2254.96 2242.93 
 946 2244.72 2252.28 2245.11 
 947 2248.74 2249.28 2245.11 
 948 2253.85 2126.81 2248.74 
 949 2254.20 2126.92 2253.85 
 950 2240.30 2127.83 2254.20 
 951 2223.01 2121.63 2254.20 
 952 2220.15 -226.43 2254.20 
 953 2251.89 2246.95 2254.20 
 954 2254.70 2251.60 2254.20 
 955 2252.92 2252.89 2254.70 
 956 2241.93 2247.31 2254.70 
 957 2240.84 2249.95 2254.70 
 958 2240.37 2250.94 2254.70 
 959 2253.41 2250.59 2254.70 
 960 2255.24 2255.86 2254.70 
 961 2259.12 2255.75 2255.24 
 962 2262.20 2257.48 2259.12 
 963 2263.34 2259.29 2262.20 
 964 2262.49 2258.28 2263.34 
 965 2246.24 2261.07 2263.34 
 966 2244.55 2260.27 2263.34 
 967 2259.32 2262.35 2263.34 
 968 2257.45 2262.22 2263.34 
 969 2264.81 2264.66 2263.34 
 970 2236.74 2264.93 2264.81 
 971 2262.67 2261.87 2264.81 
 972 2264.08 2134.16 2264.81 
 973 2265.30 2262.44 2264.81 
 974 2265.70 2264.60 2265.30 
 975 2206.52 2265.00 2265.70 
 976 2268.56 2263.69 2265.70 
 977 2262.58 2266.20 2268.56 
 978 2267.42 2268.09 2268.56 
 979 2266.14 2268.73 2268.56 
 980 2227.05 2268.15 2268.56 
 981 2267.02 2268.55 2268.56 
 982 2250.32 2267.12 2268.56 
 983 2267.53 2267.92 2268.56 
 984 2269.23 2267.36 2268.56 
 985 2217.32 2267.53 2269.23 
 986 2267.68 2267.93 2269.23 
 987 2269.55 2270.07 2269.23 
 988 2267.52 2269.84 2269.55 
 989 2252.38 2270.43 2269.55 
 990 2267.98 2271.56 2269.55 
 991 2268.69 2274.28 2269.55 
 992 2247.46 2274.12 2269.55 
 993 2267.62 2274.68 2269.55 
 994 2270.91 2276.68 2269.55 
 995 2243.60 2276.03 2270.91 
 996 2272.36 2277.26 2270.91 
 997 2266.38 2275.53 2272.36 
 998 2242.94 2275.12 2272.36 
 999 2269.22 2275.36 2272.36 
1000 2270.17 2272.73 2272.36 
1001 2270.55 2273.60 2272.36 
1002 2249.55 2271.48 2272.36 
1003 2250.03 2272.05 2272.36 
1004 2271.75 2275.14 2272.36 
1005 2269.26 2276.34 2272.36 
1006 2251.97 2275.12 2272.36 
1007 2264.21 2271.93 2272.36 
1008 2266.74 2269.08 2272.36 
1009 2272.12 2272.69 2272.36 
1010 2273.13 2273.67 2272.36 
1011 2274.38 2271.58 2273.13 
1012 2246.44 2270.16 2274.38 
1013 2234.28 2270.28 2274.38 
1014 2253.21 2271.57 2274.38 
1015 2272.97 2274.86 2274.38 
1016 2251.65 2273.12 2274.38 
1017 2273.21 2272.62 2274.38 
1018 2267.72 2268.74 2274.38 
1019 2272.14 2273.71 2274.38 
1020 2268.67 553.92 2274.38 
1021 2273.45 2271.01 2274.38 
1022 2227.14 669.67 2274.38 
1023 2275.33 248.29 2274.38 
1024 2275.38 2270.25 2275.33 
1025 2276.36 2274.62 2275.38 
1026 2272.92 2271.95 2276.36 
1027 2245.28 275.57 2276.36 
1028 2274.89 254.71 2276.36 
1029 2272.30 2273.44 2276.36 
1030 2236.62 2272.81 2276.36 
1031 2266.45 2272.41 2276.36 
1032 2260.46 2277.24 2276.36 
1033 2254.62 2278.16 2276.36 
1034 2266.88 212.85 2276.36 
1035 2160.75 314.88 2276.36 
1036 2241.85 2271.22 2276.36 
1037 2269.22 2274.63 2276.36 
1038 2265.82 355.23 2276.36 
1039 2271.57 287.33 2276.36 
1040 2245.11 308.95 2276.36 
1041 2270.25 260.42 2276.36 
1042 2272.86 136.06 2276.36 
1043 2277.37 2271.27 2276.36 
1044 2259.97 162.04 2277.37 
1045 2254.73 2269.73 2277.37 
1046 2271.15 108.44 2277.37 
1047 2259.55 136.78 2277.37 
1048 2277.14 -8.10 2277.37 
1049 2277.84 -649.66 2277.37 
1050 2260.83 -739.28 2277.84 
1051 2226.33 -756.24 2277.84 
1052 2155.17 -412.80 2277.84 
1053 2251.48 -154.31 2277.84 
1054 2275.45 -64.64 2277.84 
1055 2275.00 -14.96 2277.84 
1056 2258.20  7.28 2277.84 
1057 2274.06 -8.58 2277.84 
1058 2258.36 -456.95 2277.84 
1059 2238.72 2274.29 2277.84 
1060 2268.16 2277.51 2277.84 
1061 2241.07 2277.66 2277.84 
1062 2262.69 2274.86 2277.84 
1063 2239.38 2274.26 2277.84 
1064 2238.42 2272.06 2277.84 
1065 2210.90 2274.33 2277.84 
1066 2258.61 2275.30 2277.84 
1067 2256.55 -10.80 2277.84 
1068 2272.89 -65.82 2277.84 
1069 2273.95 -265.99 2277.84 
1070 2152.34 2271.25 2277.84 
1071 2237.57 2272.23 2277.84 
1072 2259.49 2272.38 2277.84 
1073 2265.40 2274.17 2277.84 
1074 2270.33 2271.19 2277.84 
1075 2274.03 2269.32 2277.84 
1076 2261.08 -21.81 2277.84 
1077 2256.35 43.13 2277.84 
1078 2275.86 -12.27 2277.84 
1079 2278.52 40.06 2277.84 
1080 2278.10 12.51 2278.52 
1081 2223.12 -110.92 2278.52 
1082 2280.41 -152.74 2278.52 
1083 2278.00 -188.11 2280.41 
1084 2279.75 2269.50 2280.41 
1085 2255.21 -186.40 2280.41 
1086 2242.57 2270.54 2280.41 
1087 2253.23 2272.72 2280.41 
1088 2155.80 -183.02 2280.41 
1089 2277.44 -188.75 2280.41 
1090 2243.31 -213.86 2280.41 
1091 2277.53 -216.37 2280.41 
1092 2278.03 -176.84 2280.41 
1093 2255.58 2265.59 2280.41 
1094 2278.43 -116.67 2280.41 
1095 2279.29 -204.41 2280.41 
1096 2280.78 -259.16 2280.41 
1097 2171.56 -172.57 2280.78 
1098 2278.96 -188.03 2280.78 
1099 2201.81 2266.63 2280.78 
1100 2255.10 2270.68 2280.78 
1101 2201.01 2268.08 2280.78 
1102 2220.29 2266.24 2280.78 
1103 2279.14 2273.11 2280.78 
1104 2223.87 2266.91 2280.78 
1105 2274.97 2266.29 2280.78 
1106 2275.62 67.11 2280.78 
1107 2251.31 236.25 2280.78 
1108 2276.03 2264.66 2280.78 
1109 2275.40 2262.45 2280.78 
1110 2277.03 2269.22 2280.78 
1111 2279.18 2266.66 2280.78 
1112 2254.61 2265.48 2280.78 
1113 2261.83 2267.49 2280.78 
1114 2278.29 2268.18 2280.78 
1115 2273.36 2267.60 2280.78 
1116 2213.99 2263.96 2280.78 
1117 2275.00 2266.88 2280.78 
1118 2277.93 -32.55 2280.78 
1119 2249.11 2265.55 2280.78 
1120 2277.93 -36.05 2280.78 
1121 2278.97 -42.66 2280.78 
1122 2278.99 -45.17 2280.78 
1123 2279.07 2262.61 2280.78 
1124 2277.89 -72.33 2280.78 
1125 2279.99 2264.27 2280.78 
1126 2232.68 2267.17 2280.78 
1127 2278.12 2272.97 2280.78 
1128 2278.25 2270.65 2280.78 
1129 2265.00 2269.68 2280.78 
1130 2277.59 2270.18 2280.78 
1131 2247.30 2269.42 2280.78 
1132 2282.17 2269.34 2280.78 
1133 2276.31 2271.88 2282.17 
1134 2273.83 2266.36 2282.17 
1135 2256.69 2266.63 2282.17 
1136 2218.14 2265.86 2282.17 
1137 2249.46 2265.75 2282.17 
1138 2279.78 2264.84 2282.17 
1139 2278.87 2267.89 2282.17 
1140 2277.52 2269.81 2282.17 
1141 2246.39 2267.51 2282.17 
1142 2272.91 2270.66 2282.17 
1143 2261.79 2265.47 2282.17 
1144 2269.11 2259.09 2282.17 
1145 2276.07 2257.35 2282.17 
1146 2206.34 2255.79 2282.17 
1147 2277.90 2257.77 2282.17 
1148 2253.88 2257.93 2282.17 
1149 2277.15 2261.01 2282.17 
1150 2278.15 2260.92 2282.17 
1151 2276.75 2263.01 2282.17 
1152 2282.68 2262.56 2282.17 
1153 2242.45 2264.20 2282.68 
1154 2247.22 2266.22 2282.68 
1155 2282.96 2268.85 2282.68 
1156 2281.03 2269.85 2282.96 
1157 2257.99 2269.17 2282.96 
1158 2278.62 2268.43 2282.96 
1159 2247.64 2265.04 2282.96 
1160 2248.31 2264.37 2282.96 
1161 2277.74 2260.04 2282.96 
1162 2276.28 2261.81 2282.96 
1163 2277.51 2270.46 2282.96 
1164 2281.17 2270.82 2282.96 
1165 2216.23 2271.46 2282.96 
1166 2280.71 2273.99 2282.96 
1167 2209.64 2274.16 2282.96 
1168 2248.27 2274.50 2282.96 
1169 2246.26 2276.09 2282.96 
1170 2276.99 2274.19 2282.96 
1171 2192.57 2277.50 2282.96 
1172 2278.25 2276.91 2282.96 
1173 2280.41 2277.99 2282.96 
1174 2279.34 2278.15 2282.96 
1175 2282.91 2278.19 2282.96 
1176 2285.10 2278.02 2282.96 
1177 2195.70 2275.28 2285.10 
1178 2285.15 2278.92 2285.10 
1179 2254.10 2278.23 2285.15 
1180 2281.58 2278.07 2285.15 
1181 2281.38 2278.23 2285.15 
1182 2257.84 2277.04 2285.15 
1183 2282.88 2278.13 2285.15 
1184 2280.56 2278.65 2285.15 
1185 2284.25 2277.98 2285.15 
1186 2254.78 2276.71 2285.15 
1187 2251.42 2275.77 2285.15 
1188 2284.11 2275.12 2285.15 
1189 2281.64 2277.29 2285.15 
1190 2283.07 2278.20 2285.15 
1191 2285.47 2277.83 2285.15 
1192 2285.67 2278.63 2285.47 
1193 2251.89 2278.42 2285.67 
1194 2255.73 2278.25 2285.67 
1195 2216.31 2278.69 2285.67 
1196 2261.57 2278.85 2285.67 
1197 2221.47 2276.14 2285.67 
1198 2281.71 2277.37 2285.67 
1199 2260.24 2277.35 2285.67 
1200 2253.00 2277.39 2285.67 
1201 2282.89 2277.57 2285.67 
1202 2282.76 2276.94 2285.67 
1203 2280.98 2275.17 2285.67 
1204 2283.42 2275.74 2285.67 
1205 2284.54 2279.29 2285.67 
1206 2286.17 2278.33 2285.67 
1207 2224.95 2276.60 2286.17 
1208 2199.13 2276.06 2286.17 
1209 2221.46 2271.24 2286.17 
1210 2282.58 2269.30 2286.17 
1211 2280.30 2276.73 2286.17 
1212 2284.35 2279.24 2286.17 
1213 2287.00 2281.46 2286.17 
1214 2257.24 2281.47 2287.00 
1215 2256.99 2280.88 2287.00 
1216 2285.68 2281.47 2287.00 
1217 2261.16 2282.39 2287.00 
1218 2250.13 2282.36 2287.00 
1219 2282.90 2281.52 2287.00 
1220 2286.14 2279.93 2287.00 
1221 2222.04 2276.99 2287.00 
1222 2259.56 2267.20 2287.00 
1223 2283.44 2268.89 2287.00 
1224 2283.80 2269.35 2287.00 
1225 2284.73 2270.85 2287.00 
1226 2285.42 2270.70 2287.00 
1227 2256.92 2280.66 2287.00 
1228 2244.77 2280.56 2287.00 
1229 2233.60 2285.60 2287.00 
1230 2285.12 2285.14 2287.00 
1231 2283.79 2284.61 2287.00 
1232 2280.72 2285.21 2287.00 
1233 2285.13 2286.24 2287.00 
1234 2266.17 2286.26 2287.00 
1235 2285.31 2285.96 2287.00 
1236 2284.01 2286.93 2287.00 
1237 2285.73 2287.93 2287.00 
1238 2286.93 2288.56 2287.00 
1239 2231.16 2287.49 2287.00 
1240 2275.50 2287.08 2287.00 
1241 2285.60 2285.07 2287.00 
1242 2284.81 2285.71 2287.00 
1243 2234.53 2284.97 2287.00 
1244 2285.65 2284.20 2287.00 
1245 2284.65 2285.30 2287.00 
1246 2282.85 2286.99 2287.00 
1247 2252.84 2286.26 2287.00 
1248 2284.71 2286.49 2287.00 
1249 2283.91 2287.89 2287.00 
1250 2286.83 2286.69 2287.00 
1251 2259.28 2286.49 2287.00 
1252 2285.51 2285.51 2287.00 
1253 2232.35 2285.82 2287.00 
1254 2285.22 2285.81 2287.00 
1255 2279.29 2287.14 2287.00 
1256 2282.82 2288.04 2287.00 
1257 2286.78 2288.67 2287.00 
1258 2235.04 2286.90 2287.00 
1259 2285.50 2286.81 2287.00 
1260 2283.52 2286.36 2287.00 
1261 2205.80 2285.36 2287.00 
1262 2284.74 2283.93 2287.00 
1263 2281.77 2284.22 2287.00 
1264 2283.93 2285.10 2287.00 
1265 2285.24 2285.59 2287.00 
1266 2274.36 2285.90 2287.00 
1267 2286.66 2286.68 2287.00 
1268 2196.23 2285.45 2287.00 
1269 2259.97 2286.17 2287.00 
1270 2283.51 2286.71 2287.00 
1271 2284.81 2287.61 2287.00 
1272 2285.40 2288.50 2287.00 
1273 2285.78 2288.35 2287.00 
1274 2286.37 2288.88 2287.00 
1275 2287.01 2289.72 2287.00 
1276 2257.07 2279.52 2287.01 
1277 2251.80 2278.85 2287.01 
1278 2284.98 2279.13 2287.01 
1279 2286.09 2290.55 2287.01 
1280 2287.36 2290.51 2287.01 
1281 2285.69 2280.99 2287.36 
1282 2287.83 2281.92 2287.36 
1283 2228.93 2281.30 2287.83 
1284 2288.16 2281.35 2287.83 
1285 2258.94 2280.02 2288.16 
1286 2287.52 2288.87 2288.16 
1287 2286.97 2289.10 2288.16 
1288 2286.59 2289.97 2288.16 
1289 2287.14 2291.19 2288.16 
1290 2287.71 2292.11 2288.16 
1291 2252.53 2292.95 2288.16 
1292 2288.94 2292.71 2288.16 
1293 2233.84 2291.65 2288.94 
1294 2286.00 2291.75 2288.94 
1295 2287.63 2292.42 2288.94 
1296 2289.55 2280.19 2288.94 
1297 2290.65 2278.94 2289.55 
1298 2262.21 2277.91 2290.65 
1299 2261.66 2276.69 2290.65 
1300 2262.06 2277.77 2290.65 
1301 2288.63 2276.30 2290.65 
1302 2288.85 2278.85 2290.65 
1303 2289.21 2279.15 2290.65 
1304 2290.49 2280.98 2290.65 
1305 2282.88 2281.01 2290.65 
1306 2220.47 2279.51 2290.65 
1307 2260.61 2280.16 2290.65 
1308 2288.72 2280.50 2290.65 
1309 2289.05 2279.77 2290.65 
1310 2287.86 2280.36 2290.65 
1311 2264.97 2280.96 2290.65 
1312 2288.35 2279.72 2290.65 
1313 2287.87 2293.15 2290.65 
1314 2289.39 2293.93 2290.65 
1315 2289.89 2294.32 2290.65 
1316 2291.94 2281.06 2290.65 
1317 2291.60 2295.05 2291.94 
1318 2231.06 2294.23 2291.94 
1319 2291.45 2294.04 2291.94 
1320 2289.41 2293.79 2291.94 
1321 2290.77 2294.78 2291.94 
1322 2232.20 2293.34 2291.94 
1323 2292.33 2293.73 2291.94 
1324 2291.67 2281.18 2292.33 
1325 2290.03 2294.87 2292.33 
1326 2290.03 2293.90 2292.33 
1327 2291.30 2281.30 2292.33 
1328 2245.12 2293.66 2292.33 
1329 2290.77 2293.88 2292.33 
1330 2289.53 2294.38 2292.33 
1331 2290.49 2294.55 2292.33 
1332 2291.88 2281.82 2292.33 
1333 2292.37 2282.17 2292.33 
1334 2292.33 2282.82 2292.37 
1335 2266.43 2282.71 2292.37 
1336 2293.86 2282.77 2292.37 
1337 2293.67 2284.15 2293.86 
1338 2251.34 2283.41 2293.86 
1339 2201.19 2282.59 2293.86 
1340 2291.94 2281.93 2293.86 
1341 2291.58 2294.58 2293.86 
1342 2292.26 2294.72 2293.86 
1343 2291.89 2295.73 2293.86 
1344 2292.26 2281.94 2293.86 
1345 2292.97 2281.59 2293.86 
1346 2292.86 2283.31 2293.86 
1347 2294.43 2283.50 2293.86 
1348 2270.68 2282.52 2294.43 
1349 2273.62 2282.53 2294.43 
1350 2292.77 2281.60 2294.43 
1351 2292.88 2281.64 2294.43 
1352 2293.85 2281.82 2294.43 
1353 2294.26 2282.69 2294.43 
1354 2264.32 2281.46 2294.43 
1355 2293.21 2281.69 2294.43 
1356 2294.69 2282.58 2294.43 
1357 2276.50 2281.75 2294.69 
1358 2292.10 2282.03 2294.69 
1359 2290.99 2282.91 2294.69 
1360 2293.33 2282.80 2294.69 
1361 2294.80 2282.97 2294.69 
1362 2296.41 2283.42 2294.80 
1363 2221.12 2281.74 2296.41 
1364 2263.64 2280.32 2296.41 
1365 2292.24 2280.97 2296.41 
1366 2269.30 2279.61 2296.41 
1367 2291.68 2280.09 2296.41 
1368 2292.99 2279.37 2296.41 
1369 2293.22 2280.19 2296.41 
1370 2292.77 2281.54 2296.41 
1371 2295.32 2255.58 2296.41 
1372 2295.38 2255.82 2296.41 
1373 2296.44 2255.31 2296.41 
1374 2278.98 2253.96 2296.44 
1375 2272.32 2253.65 2296.44 
1376 2267.90 2250.02 2296.44 
1377 2276.45 2245.85 2296.44 
1378 2293.15 2243.97 2296.44 
1379 2294.12 2246.97 2296.44 
1380 2293.47 2245.17 2296.44 
1381 2294.91 2242.48 2296.44 
1382 2267.51 2240.52 2296.44 
1383 2295.14 2239.06 2296.44 
1384 2284.89 2237.95 2296.44 
1385 2264.99 2238.05 2296.44 
1386 2290.96 2239.15 2296.44 
1387 2295.41 2240.60 2296.44 
1388 2295.76 2241.58 2296.44 
1389 2279.48 2283.45 2296.44 
1390 2295.11 2282.34 2296.44 
1391 2294.90 2283.03 2296.44 
1392 2297.45 2272.34 2296.44 
1393 2298.84 2271.99 2297.45 
1394 2235.05 2275.10 2298.84 
1395 2289.71 2274.67 2298.84 
1396 2297.70 2272.68 2298.84 
1397 2297.32 2270.41 2298.84 
1398 2289.85 2269.12 2298.84 
1399 2297.45 2267.47 2298.84 
1400 2294.27 2267.66 2298.84 
1401 2294.10 2285.93 2298.84 
1402 2297.95 2284.01 2298.84 
1403 2294.56 2265.73 2298.84 
1404 2296.52 2283.82 2298.84 
1405 2297.34 2267.95 2298.84 
1406 2297.54 2267.59 2298.84 
1407 2296.07 2285.56 2298.84 
1408 2296.19 2285.57 2298.84 
1409 2298.69 2268.88 2298.84 
1410 2293.36 2267.48 2298.84 
1411 2299.56 2268.24 2298.84 
1412 2290.12 2267.96 2299.56 
1413 2298.99 2268.53 2299.56 
1414 2300.48 2269.07 2299.56 
1415 2298.03 2260.31 2300.48 
1416 2299.83 2259.25 2300.48 
1417 2299.44 2260.47 2300.48 
1418 2299.51 2261.56 2300.48 
1419 2301.22 2261.28 2300.48 
1420 2301.73 2262.84 2301.22 
1421 2163.75 2262.41 2301.73 
1422 2256.53 2263.28 2301.73 
1423 2283.31 2263.50 2301.73 
1424 2266.91 2263.60 2301.73 
1425 2099.34 2263.68 2301.73 
1426 2210.75 2263.43 2301.73 
1427 2270.29 2261.94 2301.73 
1428 2300.75 2261.24 2301.73 
1429 2299.27 2261.97 2301.73 
1430 2273.00 2262.01 2301.73 
1431 2300.23 2262.22 2301.73 
1432 2300.51 2263.04 2301.73 
1433 2299.94 2263.82 2301.73 
1434 2259.78 2263.67 2301.73 
1435 2254.37 2261.79 2301.73 
1436 2300.19 2261.87 2301.73 
1437 2298.51 2261.29 2301.73 
1438 2300.10 2261.57 2301.73 
1439 2285.71 2261.64 2301.73 
1440 2293.70 2260.53 2301.73 
1441 2302.21 2261.67 2301.73 
1442 2300.45 2262.23 2302.21 
1443 2302.93 2262.25 2302.21 
1444 2285.97 2259.39 2302.93 
1445 2301.18 2260.44 2302.93 
1446 2301.07 2259.70 2302.93 
1447 2301.74 2259.82 2302.93 
1448 2299.42 2258.64 2302.93 
1449 2298.29 2260.31 2302.93 
1450 2302.29 2260.84 2302.93 
1451 2303.46 2264.65 2302.93 
1452 2297.51 2258.77 2303.46 
1453 2303.41 2258.25 2303.46 
1454 2303.89 2257.58 2303.46 
1455 2251.06 2255.73 2303.89 
1456 2303.72 2253.48 2303.89 
1457 2302.80 2254.46 2303.89 
1458 2301.94 2257.17 2303.89 
1459 2302.30 2257.35 2303.89 
1460 2280.32 2256.28 2303.89 
1461 2303.80 2257.14 2303.89 
1462 2302.38 2254.58 2303.89 
1463 2296.40 2255.81 2303.89 
1464 2298.31 2261.21 2303.89 
1465 2298.03 2258.50 2303.89 
1466 2299.09 2253.68 2303.89 
1467 2300.78 2252.75 2303.89 
1468 2286.33 2253.89 2303.89 
1469 2302.91 2254.78 2303.89 
1470 2299.16 2255.08 2303.89 
1471 2301.93 2255.55 2303.89 
1472 2282.66 2255.69 2303.89 
1473 2299.85 2255.29 2303.89 
1474 2251.34 2254.77 2303.89 
1475 2293.94 2254.15 2303.89 
1476 2291.85 2253.68 2303.89 
1477 2284.20 2254.09 2303.89 
1478 2295.86 2253.85 2303.89 
1479 2299.19 2254.34 2303.89 
1480 2277.38 2254.08 2303.89 
1481 2300.45 2255.37 2303.89 
1482 2301.22 2255.15 2303.89 
1483 2301.62 2257.93 2303.89 
1484 2295.84 2256.53 2303.89 
1485 2300.52 2257.37 2303.89 
1486 2271.09 2257.15 2303.89 
1487 2299.29 2257.17 2303.89 
1488 2295.38 2252.62 2303.89 
1489 2295.42 2252.53 2303.89 
1490 2302.00 2256.94 2303.89 
1491 2288.40 2253.38 2303.89 
1492 2277.24 2253.57 2303.89 
1493 2301.94 2253.46 2303.89 
1494 2300.01 2254.12 2303.89 
1495 2300.88 2254.56 2303.89 
1496 2303.04 2255.22 2303.89 
1497 2218.23 2254.86 2303.89 
1498 2301.23 2254.87 2303.89 
1499 2282.62 2254.55 2303.89 
1500 2301.27 2254.42 2303.89 
1501 2301.63 2258.23 2303.89 
1502 2298.75 2258.50 2303.89 
1503 2282.95 2258.85 2303.89 
1504 2301.84 2255.72 2303.89 
1505 2240.27 2255.39 2303.89 
1506 2291.60 2255.32 2303.89 
1507 2280.96 2255.31 2303.89 
1508 2294.24 2256.06 2303.89 
1509 2301.82 2255.81 2303.89 
1510 2274.00 2256.28 2303.89 
1511 2297.67 2257.21 2303.89 
1512 2299.68 2257.55 2303.89 
1513 2295.59 2258.26 2303.89 
1514 2287.66 2256.79 2303.89 
1515 2298.47 2256.39 2303.89 
1516 2287.74 2256.07 2303.89 
1517 2278.28 2256.53 2303.89 
1518 2278.46 2255.66 2303.89 
1519 2273.21 2254.52 2303.89 
1520 2295.59 2254.63 2303.89 
1521 2298.07 2256.18 2303.89 
1522 2301.75 2258.47 2303.89 
1523 2304.02 2260.12 2303.89 
1524 2304.21 2256.89 2304.02 
1525 2302.74 2258.33 2304.21 
1526 2305.44 2261.16 2304.21 
1527 2305.49 2264.83 2305.44 
1528 2264.94 2260.90 2305.49 
1529 2295.55 2257.71 2305.49 
1530 2305.52 2263.94 2305.49 
1531 2305.33 2265.05 2305.52 
1532 2302.23 2263.31 2305.52 
1533 2303.04 2263.50 2305.52 
1534 2305.17 2265.07 2305.52 
1535 2305.21 2267.32 2305.52 
1536 2306.82 2267.31 2305.52 
1537 2296.05 2266.92 2306.82 
1538 2302.64 2266.11 2306.82 
1539 2277.26 2263.64 2306.82 
1540 2298.64 2261.03 2306.82 
1541 2299.46 2261.58 2306.82 
1542 2303.73 2260.73 2306.82 
1543 2304.50 2264.27 2306.82 
1544 2270.46 2263.75 2306.82 
1545 2307.00 2259.43 2306.82 
1546 2303.83 2261.72 2307.00 
1547 2303.04 2263.62 2307.00 
1548 2302.54 2263.38 2307.00 
1549 2304.60 2263.97 2307.00 
1550 2268.72 2261.86 2307.00 
1551 2305.86 2260.81 2307.00 
1552 2303.01 2261.49 2307.00 
1553 2244.98 2261.53 2307.00 
1554 2303.09 2261.37 2307.00 
1555 2302.26 2259.63 2307.00 
1556 2299.60 2262.10 2307.00 
1557 2305.36 2257.96 2307.00 
1558 2303.63 2261.86 2307.00 
1559 2307.33 2262.94 2307.00 
1560 2273.02 2264.11 2307.33 
1561 2298.52 2264.80 2307.33 
1562 2291.67 2264.07 2307.33 
1563 2295.84 2265.19 2307.33 
1564 2303.68 2264.45 2307.33 
1565 2305.85 2261.89 2307.33 
1566 2305.39 2261.95 2307.33 
1567 2305.49 2261.44 2307.33 
1568 2302.04 2261.26 2307.33 
1569 2308.05 2261.39 2307.33 
1570 2304.60 2260.58 2308.05 
1571 2242.17 2260.80 2308.05 
1572 2307.85 2261.13 2308.05 
1573 2306.67 2263.69 2308.05 
1574 2306.50 2262.75 2308.05 
1575 2301.00 2261.12 2308.05 
1576 2301.29 2261.59 2308.05 
1577 2307.52 2261.52 2308.05 
1578 2308.14 2261.27 2308.05 
1579 2293.00 2260.52 2308.14 
1580 2306.32 2260.66 2308.14 
1581 2309.01 2260.90 2308.14 
1582 2308.97 2262.28 2309.01 
1583 2277.72 2262.09 2309.01 
1584 2306.48 2263.29 2309.01 
1585 2307.65 2260.71 2309.01 
1586 2308.13 2261.26 2309.01 
1587 2300.68 2260.39 2309.01 
1588 2299.74 2260.29 2309.01 
1589 2308.21 2259.74 2309.01 
1590 2241.46 2260.18 2309.01 
1591 2307.46 2260.26 2309.01 
1592 2307.53 2261.85 2309.01 
1593 2239.31 2261.95 2309.01 
1594 2181.70 2261.93 2309.01 
1595 2307.46 2262.43 2309.01 
1596 2306.72 2262.92 2309.01 
1597 2308.74 2264.72 2309.01 
1598 2291.75 2264.20 2309.01 
1599 2298.13 2263.74 2309.01 
1600 2308.76 2260.67 2309.01 
1601 2309.35 2260.97 2309.01 
1602 2308.13 2261.36 2309.35 
1603 2307.90 2261.97 2309.35 
1604 2305.55 2262.09 2309.35 
1605 2289.64 2262.57 2309.35 
1606 2304.60 2262.97 2309.35 
1607 2302.49 2262.75 2309.35 
1608 2308.34 2263.33 2309.35 
1609 2310.46 2264.18 2309.35 
1610 2300.22 2265.36 2310.46 
1611 2301.81 2263.92 2310.46 
1612 2307.92 2267.51 2310.46 
1613 2309.80 2270.47 2310.46 
1614 2308.76 2272.75 2310.46 
1615 2298.75 2272.54 2310.46 
1616 2307.06 2271.65 2310.46 
1617 2306.92 2267.80 2310.46 
1618 2308.96 2269.05 2310.46 
1619 2289.32 2265.99 2310.46 
1620 2307.57 2269.75 2310.46 
1621 2308.91 2269.09 2310.46 
1622 2307.97 2269.48 2310.46 
1623 2305.58 2265.48 2310.46 
1624 2292.21 2262.40 2310.46 
1625 2308.03 2262.08 2310.46 
1626 2308.10 2263.60 2310.46 
1627 2309.70 2264.21 2310.46 
1628 2310.08 2268.48 2310.46 
1629 2298.48 2268.69 2310.46 
1630 2292.53 2269.19 2310.46 
1631 2310.73 2265.18 2310.46 
1632 2309.66 2264.43 2310.73 
1633 2307.71 2265.82 2310.73 
1634 2306.61 2267.80 2310.73 
1635 2306.55 2273.34 2310.73 
1636 2311.10 2273.86 2310.73 
1637 2311.50 2266.88 2311.10 
1638 2295.37 2268.20 2311.50 
1639 2298.15 2268.94 2311.50 
1640 2294.89 2267.46 2311.50 
1641 2311.04 2266.88 2311.50 
1642 2304.78 2267.28 2311.50 
1643 2305.09 2267.79 2311.50 
1644 2306.03 2266.14 2311.50 
1645 2307.61 2265.25 2311.50 
1646 2310.13 2265.16 2311.50 
1647 2309.26 2264.79 2311.50 
1648 2306.04 2265.52 2311.50 
1649 2310.30 2265.17 2311.50 
1650 2309.08 2265.57 2311.50 
1651 2305.88 2265.22 2311.50 
1652 2307.57 2265.27 2311.50 
1653 2277.48 2265.43 2311.50 
1654 2279.37 2265.23 2311.50 
1655 2294.34 2263.81 2311.50 
1656 2306.13 2263.60 2311.50 
1657 2283.72 2263.00 2311.50 
1658 2307.18 2263.33 2311.50 
1659 2307.48 2264.40 2311.50 
1660 2286.82 2264.33 2311.50 
1661 2308.83 2263.94 2311.50 
1662 2309.25 2264.82 2311.50 
1663 2291.91 2265.16 2311.50 
1664 2240.12 2263.46 2311.50 
1665 2310.22 2264.44 2311.50 
1666 2292.26 2263.68 2311.50 
1667 2308.40 2263.98 2311.50 
1668 2308.18 2264.51 2311.50 
1669 2281.81 2263.69 2311.50 
1670 2305.64 2263.41 2311.50 
1671 2307.21 2264.90 2311.50 
1672 2308.61 2265.07 2311.50 
1673 2309.07 2266.17 2311.50 
1674 2290.25 2264.77 2311.50 
1675 2293.65 2264.15 2311.50 
1676 2309.10 2263.97 2311.50 
1677 2308.91 2264.48 2311.50 
1678 2310.24 2265.92 2311.50 
1679 2305.50 2264.41 2311.50 
1680 2309.84 2264.71 2311.50 
1681 2303.73 2264.58 2311.50 
1682 2308.89 2264.07 2311.50 
1683 2308.96 2264.30 2311.50 
1684 2305.60 2262.62 2311.50 
1685 2309.80 2264.03 2311.50 
1686 2307.01 2264.70 2311.50 
1687 2286.44 2264.48 2311.50 
1688 2309.03 2264.28 2311.50 
1689 2265.97 2264.31 2311.50 
1690 2311.81 2264.48 2311.50 
1691 2306.53 2262.64 2311.81 
1692 2246.78 2262.83 2311.81 
1693 2309.15 2263.20 2311.81 
1694 2309.86 2271.25 2311.81 
1695 2309.65 2268.75 2311.81 
1696 2311.57 2272.16 2311.81 
1697 2246.92 2272.63 2311.81 
1698 2311.58 2272.48 2311.81 
1699 2312.41 2266.33 2311.81 
1700 2293.26 2268.14 2312.41 
1701 2308.09 2271.40 2312.41 
1702 2310.89 2269.07 2312.41 
1703 2312.05 2268.13 2312.41 
1704 2309.54 2267.86 2312.41 
1705 2307.08 2266.79 2312.41 
1706 2304.86 2265.73 2312.41 
1707 2311.33 2265.19 2312.41 
1708 2304.88 2265.59 2312.41 
1709 2311.43 2266.75 2312.41 
1710 2307.95 2265.35 2312.41 
1711 2311.16 2267.46 2312.41 
1712 2309.41 2272.03 2312.41 
1713 2309.46 2272.82 2312.41 
1714 2306.88 2265.97 2312.41 
1715 2311.46 2266.65 2312.41 
1716 2313.43 2266.90 2312.41 
1717 2308.77 2267.50 2313.43 
1718 2296.80 2267.09 2313.43 
1719 2301.78 2267.03 2313.43 
1720 2295.48 2266.61 2313.43 
1721 2302.15 2266.07 2313.43 
1722 2301.92 2266.10 2313.43 
1723 2310.42 2266.50 2313.43 
1724 2310.13 2267.80 2313.43 
1725 2307.54 2268.31 2313.43 
1726 2310.04 2267.02 2313.43 
1727 2311.37 2267.29 2313.43 
1728 2312.42 2268.11 2313.43 
1729 2311.31 2268.67 2313.43 
1730 2305.36 2267.52 2313.43 
1731 2312.44 2267.95 2313.43 
1732 2311.10 2266.95 2313.43 
1733 2310.48 2267.35 2313.43 
1734 2312.70 2268.15 2313.43 
1735 2308.50 2268.73 2313.43 
1736 2312.36 2268.38 2313.43 
1737 2308.54 2269.00 2313.43 
1738 2299.81 2268.70 2313.43 
1739 2284.33 2268.66 2313.43 
1740 2307.06 2268.45 2313.43 
1741 2310.35 2268.22 2313.43 
1742 2292.70 2267.41 2313.43 
1743 2310.40 2267.31 2313.43 
1744 2311.28 2267.67 2313.43 
1745 2313.44 2269.22 2313.43 
1746 2269.31 2268.26 2313.44 
1747 2311.82 2268.60 2313.44 
1748 2312.62 2269.22 2313.44 
1749 2308.16 2269.03 2313.44 
1750 2300.13 2268.25 2313.44 
1751 2312.10 2268.93 2313.44 
1752 2313.30 2269.34 2313.44 
1753 2311.63 2269.63 2313.44 
1754 2302.78 2269.93 2313.44 
1755 2302.41 2269.49 2313.44 
1756 2313.58 2268.87 2313.44 
1757 2314.75 2269.86 2313.58 
1758 2285.58 2269.65 2314.75 
1759 2312.14 2269.67 2314.75 
1760 2280.41 2269.69 2314.75 
1761 2312.13 2269.21 2314.75 
1762 2313.59 2269.78 2314.75 
1763 2312.49 2269.44 2314.75 
1764 2312.95 2269.53 2314.75 
1765 2311.76 2270.08 2314.75 
1766 2295.49 2270.01 2314.75 
1767 2293.05 2269.22 2314.75 
1768 2310.82 2270.18 2314.75 
1769 2278.00 2270.04 2314.75 
1770 2311.20 2270.00 2314.75 
1771 2296.44 2269.45 2314.75 
1772 2311.23 2269.37 2314.75 
1773 2278.04 2269.85 2314.75 
1774 2295.24 2269.74 2314.75 
1775 2311.95 2269.63 2314.75 
1776 2314.80 2270.25 2314.75 
1777 2314.40 2271.26 2314.80 
1778 2296.33 2270.88 2314.80 
1779 2294.29 2269.96 2314.80 
1780 2314.18 2269.62 2314.80 
1781 2312.07 2270.21 2314.80 
1782 2313.29 2270.37 2314.80 
1783 2312.29 2270.40 2314.80 
1784 2315.79 2271.43 2314.80 
1785 2299.39 2271.07 2315.79 
1786 2238.87 2270.19 2315.79 
1787 2287.32 2270.05 2315.79 
1788 2313.66 2270.12 2315.79 
1789 2311.55 2270.86 2315.79 
1790 2297.71 2270.57 2315.79 
1791 2278.59 2269.76 2315.79 
1792 2312.75 2269.83 2315.79 
1793 2313.73 2270.89 2315.79 
1794 2298.61 2270.83 2315.79 
1795 2295.94 2270.68 2315.79 
1796 2316.65 2270.35 2315.79 
1797 2315.28 2271.30 2316.65 
1798 2315.57 2272.10 2316.65 
1799 2252.90 2271.79 2316.65 
1800 2297.19 2270.79 2316.65 
1801 2314.25 2271.02 2316.65 
1802 2314.54 2271.37 2316.65 
1803 2291.70 2272.37 2316.65 
1804 2314.08 2272.49 2316.65 
1805 2313.79 2272.33 2316.65 
1806 2313.92 2272.79 2316.65 
1807 2313.58 2271.39 2316.65 
1808 2281.12 2270.66 2316.65 
1809 2313.34 2270.59 2316.65 
1810 2312.98 2270.99 2316.65 
1811 2278.11 2270.28 2316.65 
1812 2313.70 2270.22 2316.65 
1813 2313.26 2271.32 2316.65 
1814 2315.31 2271.65 2316.65 
1815 2313.88 2271.75 2316.65 
1816 2296.01 2271.10 2316.65 
1817 2283.06 2270.69 2316.65 
1818 2314.31 2270.98 2316.65 
1819 2314.48 2271.46 2316.65 
1820 2313.85 2271.86 2316.65 
1821 2312.50 2271.86 2316.65 
1822 2312.81 2271.13 2316.65 
1823 2315.48 2271.76 2316.65 
1824 2300.65 2272.05 2316.65 
1825 2314.10 2274.06 2316.65 
1826 2315.60 2273.93 2316.65 
1827 2285.17 2273.79 2316.65 
1828 2296.65 2273.37 2316.65 
1829 2313.12 2275.66 2316.65 
1830 2312.29 2273.80 2316.65 
1831 2313.17 2274.95 2316.65 
1832 2311.63 2274.88 2316.65 
1833 2313.98 2275.89 2316.65 
1834 2315.38 2277.71 2316.65 
1835 2303.75 2278.31 2316.65 
1836 2314.23 2278.61 2316.65 
1837 2252.85 2277.93 2316.65 
1838 2315.33 2277.48 2316.65 
1839 2311.86 2276.40 2316.65 
1840 2296.80 2276.13 2316.65 
1841 2295.31 2276.07 2316.65 
1842 2299.70 2275.84 2316.65 
1843 2307.80 2275.96 2316.65 
1844 2302.93 2274.74 2316.65 
1845 2309.14 2275.97 2316.65 
1846 2313.00 2277.49 2316.65 
1847 2315.05 2275.98 2316.65 
1848 2314.20 2276.37 2316.65 
1849 2315.22 2277.44 2316.65 
1850 2314.06 2278.26 2316.65 
1851 2300.67 2279.11 2316.65 
1852 2299.21 2280.01 2316.65 
1853 2314.00 2279.56 2316.65 
1854 2314.41 2278.25 2316.65 
1855 2263.09 2278.27 2316.65 
1856 2293.30 2277.16 2316.65 
1857 2313.02 2277.38 2316.65 
1858 2312.94 2279.28 2316.65 
1859 2316.81 2278.17 2316.65 
1860 2317.06 2280.33 2316.81 
1861 2317.67 2277.22 2317.06 
1862 2298.37 2277.31 2317.67 
1863 2316.15 2277.36 2317.67 
1864 2316.93 2276.56 2317.67 
1865 2278.80 2277.30 2317.67 
1866 2315.08 2279.00 2317.67 
1867 2315.92 2279.35 2317.67 
1868 2315.84 2281.02 2317.67 
1869 2316.11 2286.19 2317.67 
1870 2316.18 2281.33 2317.67 
1871 2299.59 2280.46 2317.67 
1872 2315.84 2281.19 2317.67 
1873 2298.52 2282.66 2317.67 
1874 2315.29 2276.55 2317.67 
1875 2314.52 2282.39 2317.67 
1876 2316.99 2284.40 2317.67 
1877 2315.27 2280.86 2317.67 
1878 2299.03 2279.48 2317.67 
1879 2317.04 2284.86 2317.67 
1880 2299.27 2285.21 2317.67 
1881 2281.22 2284.13 2317.67 
1882 2316.62 2284.10 2317.67 
1883 2318.00 2285.48 2317.67 
1884 2315.33 2280.09 2318.00 
1885 2260.22 2279.43 2318.00 
1886 2315.02 2278.83 2318.00 
1887 2316.17 2281.08 2318.00 
1888 2317.91 2280.86 2318.00 
1889 2318.08 2281.92 2318.00 
1890 2318.05 2284.75 2318.08 
1891 2260.31 2287.62 2318.08 
1892 2241.63 2285.62 2318.08 
1893 2295.57 2284.17 2318.08 
1894 2316.46 2283.39 2318.08 
1895 2315.91 2280.96 2318.08 
1896 2315.04 2280.44 2318.08 
1897 2281.44 2278.83 2318.08 
1898 2315.78 2278.64 2318.08 
1899 2296.92 2278.55 2318.08 
1900 2317.52 2277.40 2318.08 
1901 2314.24 2283.06 2318.08 
1902 2269.30 2279.39 2318.08 
1903 2315.47 2279.43 2318.08 
1904 2315.07 2283.81 2318.08 
1905 2315.01 2285.45 2318.08 
1906 2313.93 2284.45 2318.08 
1907 2318.09 2283.94 2318.08 
1908 2316.86 2278.93 2318.09 
1909 2217.72 2277.17 2318.09 
1910 2297.70 2276.56 2318.09 
1911 2316.98 2276.68 2318.09 
1912 2313.12 2278.38 2318.09 
1913 2313.29 2277.47 2318.09 
1914 2271.15 2277.58 2318.09 
1915 2314.58 2278.19 2318.09 
1916 2314.79 2279.07 2318.09 
1917 2314.83 2280.82 2318.09 
1918 2312.37 2281.19 2318.09 
1919 2266.41 2279.51 2318.09 
1920 2312.97 2280.07 2318.09 
1921 2314.10 2280.62 2318.09 
1922 2307.88 2281.23 2318.09 
1923 2314.78 2279.54 2318.09 
1924 2313.45 2278.74 2318.09 
1925 2316.02 2281.51 2318.09 
1926 2269.41 2280.03 2318.09 
1927 2267.01 2280.96 2318.09 
1928 2315.05 2278.02 2318.09 
1929 2313.79 2282.39 2318.09 
1930 2314.31 2283.38 2318.09 
1931 2314.07 2280.20 2318.09 
1932 2314.65 2284.40 2318.09 
1933 2315.74 2284.20 2318.09 
1934 2316.25 2283.53 2318.09 
1935 2316.71 2285.33 2318.09 
1936 2285.03 2285.54 2318.09 
1937 2313.35 2285.78 2318.09 
1938 2315.33 2284.13 2318.09 
1939 2282.32 2284.49 2318.09 
1940 2315.36 2283.81 2318.09 
1941 2317.01 2279.01 2318.09 
1942 2260.43 2280.17 2318.09 
1943 2297.31 2280.91 2318.09 
1944 2299.98 2279.26 2318.09 
1945 2318.02 2279.89 2318.09 
1946 2260.28 2280.34 2318.09 
1947 2297.09 2280.36 2318.09 
1948 2316.16 2281.06 2318.09 
1949 2315.86 2280.42 2318.09 
1950 2314.78 2282.09 2318.09 
1951 2293.45 2279.91 2318.09 
1952 2313.65 2279.09 2318.09 
1953 2317.14 2278.02 2318.09 
1954 2316.13 2277.59 2318.09 
1955 2316.80 2280.30 2318.09 
1956 2318.77 2284.95 2318.09 
1957 2205.49 2284.78 2318.77 
1958 2280.74 2284.26 2318.77 
1959 2317.25 2283.66 2318.77 
1960 2317.15 2283.18 2318.77 
1961 2316.81 2285.09 2318.77 
1962 2316.63 2285.66 2318.77 
1963 2315.97 2287.94 2318.77 
1964 2315.62 2290.31 2318.77 
1965 2317.57 2290.44 2318.77 
1966 2279.85 2289.40 2318.77 
1967 2317.93 2289.73 2318.77 
1968 2314.98 2291.09 2318.77 
1969 2295.16 2291.61 2318.77 
1970 2312.23 2290.15 2318.77 
1971 2314.25 2286.96 2318.77 
1972 2316.16 2287.47 2318.77 
1973 2317.99 2289.74 2318.77 
1974 2315.22 2288.00 2318.77 
1975 2316.32 2288.81 2318.77 
1976 2315.30 2287.70 2318.77 
1977 2315.81 2288.35 2318.77 
1978 2316.62 2289.35 2318.77 
1979 2319.14 2290.28 2318.77 
1980 2295.29 2290.76 2319.14 
1981 2319.85 2289.42 2319.14 
1982 2317.89 2290.40 2319.85 
1983 2316.37 2288.42 2319.85 
1984 2315.73 2290.71 2319.85 
1985 2316.71 2297.36 2319.85 
1986 2318.19 2294.74 2319.85 
1987 2316.69 2294.92 2319.85 
1988 2286.67 2293.94 2319.85 
1989 2312.98 2291.30 2319.85 
1990 2316.73 2293.47 2319.85 
1991 2313.24 2292.25 2319.85 
1992 2317.42 2293.99 2319.85 
1993 2317.60 2295.40 2319.85 
1994 2317.45 2291.72 2319.85 
1995 2307.80 2291.20 2319.85 
1996 2317.99 2289.87 2319.85 
1997 2318.86 2295.11 2319.85 
1998 2298.80 2295.79 2319.85 
1999 2317.17 2292.25 2319.85 
2000 2315.11 2295.41 2319.85 
2001 2317.00 2292.37 2319.85 
2002 2320.94 2294.53 2319.85 
2003 2267.27 2293.50 2320.94 
2004 2321.17 2294.02 2320.94 
2005 2310.94 2291.50 2321.17 
2006 2284.08 2292.95 2321.17 
2007 2307.95 2294.21 2321.17 
2008 2313.91 2291.19 2321.17 
2009 2311.44 2292.46 2321.17 
2010 2314.93 2291.57 2321.17 
2011 2313.95 2294.77 2321.17 
2012 2317.65 2292.64 2321.17 
2013 2315.44 2292.73 2321.17 
2014 2319.00 2293.29 2321.17 
2015 2319.37 2293.78 2321.17 
2016 2314.67 2290.51 2321.17 
2017 2310.39 2289.27 2321.17 
2018 2319.30 2291.39 2321.17 
2019 2319.17 2292.28 2321.17 
2020 2304.15 2291.44 2321.17 
2021 2321.13 2292.32 2321.17 
2022 2318.57 2293.47 2321.17 
2023 2313.39 2296.60 2321.17 
2024 2317.20 2298.44 2321.17 
2025 2320.98 2238.14 2321.17 
2026 2300.54 2240.08 2321.17 
2027 2309.42 2318.66 2321.17 
2028 2319.55 2316.54 2321.17 
2029 2319.02 2319.07 2321.17 
2030 2321.00 2236.82 2321.17 
2031 2315.98 2232.34 2321.17 
2032 2317.72 2322.99 2321.17 
2033 2319.97 2297.39 2321.17 
2034 2319.40 2290.27 2321.17 
2035 2317.28 2290.43 2321.17 
2036 2318.60 2292.31 2321.17 
2037 2320.09 2323.49 2321.17 
2038 2319.03 2298.29 2321.17 
2039 2318.03 2298.94 2321.17 
2040 2316.99 2295.52 2321.17 
2041 2321.76 2297.59 2321.17 
2042 2320.56 2292.45 2321.76 
2043 2306.64 2294.73 2321.76 
2044 2289.56 2294.48 2321.76 
2045 2321.63 2295.92 2321.76 
2046 2305.49 2297.41 2321.76 
2047 2321.84 2297.15 2321.76 
2048 2320.68 2301.87 2321.84 
2049 2318.07 2301.77 2321.84 
2050 2322.27 2303.80 2321.84 
2051 2302.77 2303.83 2322.27 
2052 2321.00 2299.90 2322.27 
2053 2321.43 2320.93 2322.27 
2054 2320.12 2298.07 2322.27 
2055 2319.03 2296.75 2322.27 
2056 2310.12 2295.38 2322.27 
2057 2316.62 2294.63 2322.27 
2058 2321.55 2291.27 2322.27 
2059 2312.03 2290.24 2322.27 
2060 2314.85 2292.55 2322.27 
2061 2316.91 2295.14 2322.27 
2062 2319.30 2297.64 2322.27 
2063 2321.06 2299.24 2322.27 
2064 2313.62 2296.46 2322.27 
2065 2321.81 2298.86 2322.27 
2066 2321.05 2301.54 2322.27 
2067 2320.50 2301.10 2322.27 
2068 2313.80 2316.20 2322.27 
2069 2317.87 2297.76 2322.27 
2070 2319.59 2294.12 2322.27 
2071 2321.72 2298.86 2322.27 
2072 2321.84 2297.35 2322.27 
2073 2322.22 2295.59 2322.27 
2074 2323.57 2293.14 2322.27 
2075 2319.40 2292.48 2323.57 
2076 2318.78 2292.23 2323.57 
2077 2314.86 2291.18 2323.57 
2078 2322.37 2294.31 2323.57 
2079 2317.57 2295.83 2323.57 
2080 2322.64 2297.26 2323.57 
2081 2319.93 2295.69 2323.57 
2082 2321.43 2293.11 2323.57 
2083 2322.57 2290.33 2323.57 
2084 2322.73 2291.69 2323.57 
2085 2308.18 2289.62 2323.57 
2086 2324.18 2291.69 2323.57 
2087 2323.25 2293.00 2324.18 
2088 2321.44 2294.13 2324.18 
2089 2312.94 2293.03 2324.18 
2090 2321.31 2297.84 2324.18 
2091 2323.33 2296.02 2324.18 
2092 2316.66 2294.42 2324.18 
2093 2321.83 2297.80 2324.18 
2094 2323.60 2295.29 2324.18 
2095 2320.44 2292.20 2324.18 
2096 2323.16 2299.15 2324.18 
2097 2317.86 2295.26 2324.18 
2098 2321.58 2299.50 2324.18 
2099 2314.23 2297.63 2324.18 
2100 2322.98 2296.00 2324.18 
2101 2323.22 2295.38 2324.18 
2102 2324.13 2297.76 2324.18 
2103 2317.28 2296.38 2324.18 
2104 2304.76 2294.21 2324.18 
2105 2323.45 2294.73 2324.18 
2106 2323.07 2296.09 2324.18 
2107 2257.66 2294.98 2324.18 
2108 2324.05 2296.08 2324.18 
2109 2317.92 2294.50 2324.18 
2110 2323.95 2291.99 2324.18 
2111 2323.17 2295.81 2324.18 
2112 2319.79 2292.27 2324.18 
2113 2323.58 2292.60 2324.18 
2114 2324.85 2292.59 2324.18 
2115 2321.45 2293.12 2324.85 
2116 2322.98 2292.07 2324.85 
2117 2318.35 2290.35 2324.85 
2118 2320.46 2291.00 2324.85 
2119 2323.59 2295.05 2324.85 
2120 2320.73 2293.93 2324.85 
2121 2318.26 2294.31 2324.85 
2122 2322.11 2296.13 2324.85 
2123 2321.60 2296.54 2324.85 
2124 2317.92 2291.74 2324.85 
2125 2318.80 2290.73 2324.85 
2126 2322.58 2292.72 2324.85 
2127 2322.73 2296.59 2324.85 
2128 2324.63 2297.50 2324.85 
2129 2318.74 2298.09 2324.85 
2130 2319.96 2295.19 2324.85 
2131 2326.24 2295.36 2324.85 
2132 2322.61 2291.62 2326.24 
2133 2323.14 2291.66 2326.24 
2134 2321.38 2291.38 2326.24 
2135 2321.38 2291.48 2326.24 
2136 2315.54 2291.45 2326.24 
2137 2321.57 2292.57 2326.24 
2138 2320.80 2293.49 2326.24 
2139 2323.80 2293.94 2326.24 
2140 2306.75 2294.37 2326.24 
2141 2270.05 2293.48 2326.24 
2142 2324.58 2294.39 2326.24 
2143 2323.65 2294.32 2326.24 
2144 2324.96 2293.33 2326.24 
2145 2302.55 2294.33 2326.24 
2146 2325.13 2299.39 2326.24 
2147 2294.35 2299.77 2326.24 
2148 2319.79 2299.72 2326.24 
2149 2322.71 2301.89 2326.24 
2150 2324.91 2301.60 2326.24 
2151 2322.12 2302.83 2326.24 
2152 2323.52 2320.74 2326.24 
2153 2318.21 2301.85 2326.24 
2154 2313.34 2299.79 2326.24 
2155 2325.18 2299.28 2326.24 
2156 2321.17 2299.32 2326.24 
2157 2324.95 2297.80 2326.24 
2158 2319.46 2300.74 2326.24 
2159 2316.60 2298.59 2326.24 
2160 2322.82 2300.00 2326.24 
2161 2324.78 2321.32 2326.24 
2162 2320.11 2305.03 2326.24 
2163 2312.04 2302.47 2326.24 
2164 2324.29 2304.35 2326.24 
2165 2321.93 2303.99 2326.24 
2166 2323.49 2299.91 2326.24 
2167 2321.78 2298.07 2326.24 
2168 2322.16 2291.52 2326.24 
2169 2323.57 2298.62 2326.24 
2170 2321.76 2303.14 2326.24 
2171 2322.88 2307.77 2326.24 
2172 2322.02 2308.31 2326.24 
2173 2322.79 2307.41 2326.24 
2174 2325.76 2306.51 2326.24 
2175 2324.02 2306.26 2326.24 
2176 2325.33 2306.13 2326.24 
2177 2265.01 2304.39 2326.24 
2178 2319.85 2304.28 2326.24 
2179 2322.07 2303.08 2326.24 
2180 2324.57 2306.88 2326.24 
2181 2318.05 2306.88 2326.24 
2182 2323.08 2306.25 2326.24 
2183 2322.32 2305.42 2326.24 
2184 2322.23 2307.00 2326.24 
2185 2322.77 2305.42 2326.24 
2186 2319.84 2306.33 2326.24 
2187 2323.78 2306.12 2326.24 
2188 2318.10 2303.17 2326.24 
2189 2320.38 2303.28 2326.24 
2190 2323.05 2304.33 2326.24 
2191 2323.42 2305.84 2326.24 
2192 2315.56 2305.06 2326.24 
2193 2313.17 2305.58 2326.24 
2194 2320.57 2303.25 2326.24 
2195 2320.13 2300.86 2326.24 
2196 2323.39 2300.98 2326.24 
2197 2322.20 2301.65 2326.24 
2198 2323.79 2301.32 2326.24 
2199 2318.44 2301.40 2326.24 
2200 2317.79 2301.82 2326.24 
2201 2320.85 2301.59 2326.24 
2202 2316.54 2302.28 2326.24 
2203 2322.77 2302.89 2326.24 
2204 2304.29 2302.37 2326.24 
2205 2322.23 2302.49 2326.24 
2206 2322.11 2302.86 2326.24 
2207 2323.46 2304.37 2326.24 
2208 2324.70 2305.90 2326.24 
2209 2321.34 2306.52 2326.24 
2210 2323.53 2307.63 2326.24 
2211 2324.54 2306.57 2326.24 
2212 2307.05 2306.29 2326.24 
2213 2325.59 2306.08 2326.24 
2214 2322.61 2306.37 2326.24 
2215 2319.62 2304.71 2326.24 
2216 2325.29 2304.61 2326.24 
2217 2325.39 2304.44 2326.24 
2218 2318.36 2304.43 2326.24 
2219 2304.53 2304.66 2326.24 
2220 2325.86 2305.39 2326.24 
2221 2319.75 2305.94 2326.24 
2222 2317.37 2305.48 2326.24 
2223 2315.71 2304.44 2326.24 
2224 2321.53 2303.46 2326.24 
2225 2314.49 2303.91 2326.24 
2226 2323.88 2305.50 2326.24 
2227 2317.89 2299.27 2326.24 
2228 2320.09 2304.49 2326.24 
2229 2325.20 2303.94 2326.24 
2230 2323.20 2303.40 2326.24 
2231 2325.19 2304.38 2326.24 
2232 2324.65 2306.02 2326.24 
2233 2318.49 2304.60 2326.24 
2234 2295.35 2303.81 2326.24 
2235 2323.95 2303.64 2326.24 
2236 2324.17 2305.29 2326.24 
2237 2323.71 2304.90 2326.24 
2238 2325.57 2307.45 2326.24 
2239 2318.67 2307.75 2326.24 
2240 2318.04 2307.26 2326.24 
2241 2320.80 2306.75 2326.24 
2242 2324.25 2307.40 2326.24 
2243 2318.84 2306.61 2326.24 
2244 2324.05 2306.62 2326.24 
2245 2322.09 2306.66 2326.24 
2246 2319.71 2305.77 2326.24 
2247 2319.55 2304.90 2326.24 
2248 2320.91 2303.90 2326.24 
2249 2322.66 2303.02 2326.24 
2250 2309.53 2302.17 2326.24 
2251 2323.75 2300.83 2326.24 
2252 2322.69 2303.92 2326.24 
2253 2321.64 2302.66 2326.24 
2254 2323.85 2304.60 2326.24 
2255 2320.00 2304.54 2326.24 
2256 2325.52 2307.45 2326.24 
2257 2325.35 2308.26 2326.24 
2258 2320.14 2308.56 2326.24 
2259 2321.35 2307.23 2326.24 
2260 2321.40 2307.34 2326.24 
2261 2286.64 2306.57 2326.24 
2262 2325.03 2306.03 2326.24 
2263 2324.73 2305.92 2326.24 
2264 2322.96 2306.93 2326.24 
2265 2323.48 2319.81 2326.24 
2266 2323.15 2321.38 2326.24 
2267 2320.29 2321.23 2326.24 
2268 2320.71 2305.37 2326.24 
2269 2326.13 2299.23 2326.24 
2270 2324.12 2300.69 2326.24 
2271 2323.10 2301.12 2326.24 
2272 2322.12 2301.27 2326.24 
2273 2315.65 2301.13 2326.24 
2274 2319.60 2299.00 2326.24 
2275 2322.78 2303.25 2326.24 
2276 2322.24 2304.27 2326.24 
2277 2321.49 2295.58 2326.24 
2278 2323.62 2300.59 2326.24 
2279 2323.13 2300.86 2326.24 
2280 2323.43 2301.12 2326.24 
2281 2315.86 2300.68 2326.24 
2282 2325.39 2301.08 2326.24 
2283 2325.68 2302.94 2326.24 
2284 2315.59 2321.23 2326.24 
2285 2322.74 2303.69 2326.24 
2286 2325.58 2302.73 2326.24 
2287 2320.50 2322.31 2326.24 
2288 2322.90 2300.73 2326.24 
2289 2319.70 2298.52 2326.24 
2290 2324.23 2297.77 2326.24 
2291 2323.74 2297.63 2326.24 
2292 2322.26 2301.96 2326.24 
2293 2324.92 2304.23 2326.24 
2294 2326.14 2303.84 2326.24 
2295 2318.74 2326.37 2326.24 
2296 2325.54 2325.67 2326.24 
2297 2322.89 2325.77 2326.24 
2298 2297.63 2326.24 2326.24 
2299 2318.78 2326.15 2326.24 
2300 2321.41 2326.76 2326.24 
2301 2325.44 2326.70 2326.24 
2302 2323.44 2303.83 2326.24 
2303 2323.24 2300.76 2326.24 
2304 2321.33 2301.86 2326.24 
2305 2322.55 2296.31 2326.24 
2306 2322.56 2297.63 2326.24 
2307 2320.98 2299.12 2326.24 
2308 2324.75 2301.39 2326.24 
2309 2325.57 2301.80 2326.24 
2310 2323.68 2302.77 2326.24 
2311 2317.36 2301.01 2326.24 
2312 2326.03 2300.96 2326.24 
2313 2325.96 2301.17 2326.24 
2314 2324.01 2301.45 2326.24 
2315 2326.23 2301.20 2326.24 
2316 2318.79 2297.23 2326.24 
2317 2325.37 2295.21 2326.24 
2318 2324.06 2298.71 2326.24 
2319 2324.93 2299.82 2326.24 
2320 2324.08 2298.89 2326.24 
2321 2324.20 2296.41 2326.24 
2322 2325.61 2296.66 2326.24 
2323 2325.99 2291.47 2326.24 
2324 2324.52 2288.72 2326.24 
2325 2324.92 2290.26 2326.24 
2326 2326.36 2292.03 2326.24 
2327 2320.18 2291.90 2326.36 
2328 2322.11 2291.08 2326.36 
2329 2321.70 2298.28 2326.36 
2330 2322.33 2296.54 2326.36 
2331 2323.58 2296.03 2326.36 
2332 2323.77 2292.93 2326.36 
2333 2325.29 2295.72 2326.36 
2334 2325.74 2295.68 2326.36 
2335 2323.10 2298.19 2326.36 
2336 2326.32 2297.57 2326.36 
2337 2322.30 2294.90 2326.36 
2338 2322.84 2293.59 2326.36 
2339 2322.88 2295.29 2326.36 
2340 2322.29 2296.24 2326.36 
2341 2325.87 2298.29 2326.36 
2342 2325.50 2299.20 2326.36 
2343 2325.83 2299.25 2326.36 
2344 2325.94 2323.36 2326.36 
2345 2326.26 2302.47 2326.36 
2346 2323.87 2303.87 2326.36 
2347 2308.43 2302.41 2326.36 
2348 2324.49 2301.79 2326.36 
2349 2322.82 2300.99 2326.36 
2350 2325.84 2301.88 2326.36 
2351 2290.96 2301.96 2326.36 
2352 2327.63 2301.53 2326.36 
2353 2287.95 2300.77 2327.63 
2354 2306.69 2300.46 2327.63 
2355 2323.52 2301.81 2327.63 
2356 2326.97 2301.37 2327.63 
2357 2324.18 2302.97 2327.63 
2358 2326.90 2302.36 2327.63 
2359 2323.25 2298.74 2327.63 
2360 2326.77 2301.36 2327.63 
2361 2308.79 2300.73 2327.63 
2362 2320.84 2298.79 2327.63 
2363 2304.73 2298.00 2327.63 
2364 2324.16 2298.62 2327.63 
2365 2325.08 2300.26 2327.63 
2366 2324.24 2319.47 2327.63 
2367 2326.56 2321.13 2327.63 
2368 2324.65 2303.78 2327.63 
2369 2291.69 2304.21 2327.63 
2370 2327.22 2320.90 2327.63 
2371 2327.27 2305.45 2327.63 
2372 2327.65 2306.18 2327.63 
2373 2326.28 2307.63 2327.65 
2374 2319.95 2304.52 2327.65 
2375 2324.46 2302.28 2327.65 
2376 2309.20 2302.33 2327.65 
2377 2319.91 2301.31 2327.65 
2378 2327.01 2300.90 2327.65 
2379 2325.43 2318.77 2327.65 
2380 2327.39 2318.87 2327.65 
2381 2327.43 2303.60 2327.65 
2382 2323.45 2301.71 2327.65 
2383 2320.38 2300.79 2327.65 
2384 2323.35 2298.03 2327.65 
2385 2324.94 2300.68 2327.65 
2386 2325.18 2299.49 2327.65 
2387 2325.91 2301.47 2327.65 
2388 2325.98 2301.83 2327.65 
2389 2321.28 2300.67 2327.65 
2390 2325.88 2304.18 2327.65 
2391 2311.30 2303.08 2327.65 
2392 2309.13 2302.27 2327.65 
2393 2325.35 2303.39 2327.65 
2394 2327.23 2320.77 2327.65 
2395 2324.88 2319.78 2327.65 
2396 2324.84 2318.76 2327.65 
2397 2323.35 2318.00 2327.65 
2398 2325.57 2319.52 2327.65 
2399 2326.16 2321.04 2327.65 
2400 2325.76 2321.49 2327.65 
2401 2325.69 2321.72 2327.65 
2402 2326.81 2321.65 2327.65 
2403 2317.44 2321.27 2327.65 
2404 2324.27 2322.19 2327.65 
2405 2326.07 2300.52 2327.65 
2406 2323.74 2300.25 2327.65 
2407 2325.73 2323.17 2327.65 
2408 2325.88 2320.77 2327.65 
2409 2326.94 2323.03 2327.65 
2410 2322.47 2321.77 2327.65 
2411 2326.13 2320.70 2327.65 
2412 2327.35 2321.54 2327.65 
2413 2322.06 2321.62 2327.65 
2414 2323.52 2320.47 2327.65 
2415 2324.73 2321.11 2327.65 
2416 2322.82 2292.30 2327.65 
2417 2324.91 2298.36 2327.65 
2418 2326.44 2299.28 2327.65 
2419 2326.72 2324.16 2327.65 
2420 2314.40 2323.78 2327.65 
2421 2328.60 2323.85 2327.65 
2422 2329.04 2322.93 2328.60 
2423 2298.36 2292.16 2329.04 
2424 2326.46 2292.69 2329.04 
2425 2327.24 2321.36 2329.04 
2426 2323.84 2324.00 2329.04 
2427 2324.11 2322.52 2329.04 
2428 2326.58 2323.68 2329.04 
2429 2321.70 2322.11 2329.04 
2430 2328.19 2322.25 2329.04 
2431 2323.15 2322.70 2329.04 
2432 2326.75 2323.12 2329.04 
2433 2324.34 2301.64 2329.04 
2434 2328.33 2300.89 2329.04 
2435 2327.94 2323.61 2329.04 
2436 2324.81 2323.33 2329.04 
2437 2324.21 2325.21 2329.04 
2438 2321.97 2325.46 2329.04 
2439 2322.56 2323.55 2329.04 
2440 2230.38 2322.92 2329.04 
2441 2324.08 2321.41 2329.04 
2442 2323.87 2318.73 2329.04 
2443 2304.32 2317.67 2329.04 
2444 2326.55 2317.74 2329.04 
2445 2326.90 2319.88 2329.04 
2446 2325.71 2318.38 2329.04 
2447 2325.07 2319.09 2329.04 
2448 2325.69 2319.23 2329.04 
2449 2326.57 2300.58 2329.04 
2450 2327.15 2298.52 2329.04 
2451 2327.79 2319.26 2329.04 
2452 2328.33 2322.96 2329.04 
2453 2326.09 2321.46 2329.04 
2454 2324.31 2299.34 2329.04 
2455 2328.71 2322.63 2329.04 
2456 2324.61 2301.02 2329.04 
2457 2326.41 2301.56 2329.04 
2458 2328.18 2322.87 2329.04 
2459 2323.24 2301.98 2329.04 
2460 2267.13 2301.27 2329.04 
2461 2326.25 2301.07 2329.04 
2462 2328.49 2300.15 2329.04 
2463 2325.74 2303.18 2329.04 
2464 2313.73 2319.08 2329.04 
2465 2327.59 2320.25 2329.04 
2466 2304.13 2317.99 2329.04 
2467 2326.46 2319.29 2329.04 
2468 2322.94 2318.18 2329.04 
2469 2326.70 2318.61 2329.04 
2470 2328.17 2321.11 2329.04 
2471 2324.84 2321.00 2329.04 
2472 2257.93 2320.36 2329.04 
2473 2319.17 2319.53 2329.04 
2474 2321.04 2318.66 2329.04 
2475 2316.94 2318.57 2329.04 
2476 2324.28 2319.07 2329.04 
2477 2322.21 2316.41 2329.04 
2478 2322.38 2315.55 2329.04 
2479 2323.18 2315.43 2329.04 
2480 2324.03 2315.37 2329.04 
2481 2325.73 2318.54 2329.04 
2482 2326.67 2316.20 2329.04 
2483 2325.41 2316.22 2329.04 
2484 2325.90 2317.78 2329.04 
2485 2326.03 2318.00 2329.04 
2486 2292.83 2299.56 2329.04 
2487 2324.97 2298.65 2329.04 
2488 2290.45 2299.96 2329.04 
2489 2302.80 2300.37 2329.04 
2490 2322.79 2320.43 2329.04 
2491 2322.13 2300.97 2329.04 
2492 2325.75 2302.44 2329.04 
2493 2322.75 2303.78 2329.04 
2494 2324.07 2303.00 2329.04 
2495 2326.18 2301.95 2329.04 
2496 2327.04 2302.86 2329.04 
2497 2321.67 2301.46 2329.04 
2498 2326.57 2300.71 2329.04 
2499 2327.14 2302.79 2329.04 
2500 2322.84 2301.52 2329.04 
2501 2326.66 2302.85 2329.04 
2502 2319.78 2301.87 2329.04 
2503 2325.77 2302.04 2329.04 
2504 2327.14 2324.04 2329.04 
2505 2326.68 2303.74 2329.04 
2506 2325.92 2302.21 2329.04 
2507 2325.20 2302.74 2329.04 
2508 2323.06 2302.54 2329.04 
2509 2327.72 2303.62 2329.04 
2510 2327.05 2323.51 2329.04 
2511 2325.07 2323.72 2329.04 
2512 2326.41 2322.12 2329.04 
2513 2328.56 2319.96 2329.04 
2514 2326.92 2320.07 2329.04 
2515 2328.26 2320.54 2329.04 
2516 2327.69 2323.40 2329.04 
2517 2322.15 2325.77 2329.04 
2518 2327.10 2324.92 2329.04 
2519 2294.60 2324.97 2329.04 
2520 2284.23 2324.95 2329.04 
2521 2252.57 2325.15 2329.04 
2522 2320.50 2323.37 2329.04 
2523 2324.78 2323.97 2329.04 
2524 2326.44 2325.26 2329.04 
2525 2326.26 2324.93 2329.04 
2526 2325.31 2324.83 2329.04 
2527 2327.37 2326.00 2329.04 
2528 2327.92 2324.92 2329.04 
2529 2328.71 2303.62 2329.04 
2530 2262.41 2303.75 2329.04 
2531 2325.31 2323.42 2329.04 
2532 2326.45 2324.89 2329.04 
2533 2291.46 2325.11 2329.04 
2534 2322.37 2324.97 2329.04 
2535 2192.23 2325.53 2329.04 
2536 2264.64 2304.46 2329.04 
2537 2321.61 2328.59 2329.04 
2538 2324.01 2309.58 2329.04 
2539 2306.17 2322.95 2329.04 
2540 2327.61 2326.23 2329.04 
2541 2323.98 2309.22 2329.04 
2542 2327.15 2305.61 2329.04 
2543 2327.00 2305.12 2329.04 
2544 2328.99 2304.45 2329.04 
2545 2324.67 2304.92 2329.04 
2546 2326.69 2309.49 2329.04 
2547 2328.76 2322.55 2329.04 
2548 2325.09 2321.61 2329.04 
2549 2325.28 2320.98 2329.04 
2550 2327.92 2321.18 2329.04 
2551 2327.73 2309.18 2329.04 
2552 2328.06 2322.95 2329.04 
2553 2326.16 2319.09 2329.04 
2554 2328.52 2321.02 2329.04 
2555 2329.40 2322.96 2329.04 
2556 2327.81 2322.45 2329.40 
2557 2329.27 2322.20 2329.40 
2558 2328.20 2325.47 2329.40 
2559 2328.87 2323.90 2329.40 
2560 2329.50 2326.42 2329.40 
2561 2326.50 2310.56 2329.50 
2562 2324.53 2320.32 2329.50 
2563 2329.39 2322.29 2329.50 
2564 2326.27 2322.49 2329.50 
2565 2329.95 2322.77 2329.50 
2566 2329.88 2322.33 2329.95 
2567 2324.19 2322.72 2329.95 
2568 2326.04 2327.74 2329.95 
2569 2324.41 2305.59 2329.95 
2570 2323.51 2303.90 2329.95 
2571 2326.32 2325.50 2329.95 
2572 2327.29 2325.70 2329.95 
2573 2323.70 2325.36 2329.95 
2574 2329.29 2324.68 2329.95 
2575 2329.56 2325.39 2329.95 
2576 2325.63 2325.00 2329.95 
2577 2325.03 2328.90 2329.95 
2578 2320.04 2325.24 2329.95 
2579 2323.51 2324.09 2329.95 
2580 2325.61 2325.04 2329.95 
2581 2329.08 2328.34 2329.95 
2582 2327.80 2326.34 2329.95 
2583 2328.22 2325.55 2329.95 
2584 2328.62 2325.82 2329.95 
2585 2328.00 2324.52 2329.95 
2586 2328.28 2324.09 2329.95 
2587 2327.63 2324.36 2329.95 
2588 2323.58 2324.78 2329.95 
2589 2325.84 2324.39 2329.95 
2590 2327.26 2322.51 2329.95 
2591 2330.31 2323.61 2329.95 
2592 2330.35 2324.81 2330.31 
2593 2321.02 2325.32 2330.35 
2594 2321.42 2323.28 2330.35 
2595 2326.13 2318.28 2330.35 
2596 2324.84 2318.04 2330.35 
2597 2326.00 2322.66 2330.35 
2598 2326.44 2319.18 2330.35 
2599 2327.74 2320.51 2330.35 
2600 2327.40 2320.19 2330.35 
2601 2326.07 2319.55 2330.35 
2602 2325.49 2320.75 2330.35 
2603 2324.71 2319.13 2330.35 
2604 2327.95 2320.13 2330.35 
2605 2326.57 2318.96 2330.35 
2606 2330.65 2319.95 2330.35 
2607 2327.82 2320.56 2330.65 
2608 2330.40 2321.23 2330.65 
2609 2330.99 2320.65 2330.65 
2610 2330.10 2320.31 2330.99 
2611 2329.68 2319.10 2330.99 
2612 2326.09 2318.29 2330.99 
2613 2325.86 2317.22 2330.99 
2614 2328.69 2319.35 2330.99 
2615 2328.99 2320.10 2330.99 
2616 2325.18 2318.12 2330.99 
2617 2328.79 2319.54 2330.99 
2618 2330.36 2320.89 2330.99 
2619 2326.88 2319.98 2330.99 
2620 2330.17 2319.87 2330.99 
2621 2329.39 2320.45 2330.99 
2622 2328.40 2320.87 2330.99 
2623 2329.32 2321.06 2330.99 
2624 2328.78 2320.99 2330.99 
2625 2331.16 2322.35 2330.99 
2626 2329.97 2321.13 2331.16 
2627 2326.26 2320.76 2331.16 
2628 2331.34 2321.21 2331.16 
2629 2331.79 2323.07 2331.34 
2630 2324.70 2321.19 2331.79 
2631 2328.72 2319.66 2331.79 
2632 2328.38 2318.54 2331.79 
2633 2328.20 2318.26 2331.79 
2634 2329.83 2319.36 2331.79 
2635 2329.95 2321.23 2331.79 
2636 2331.15 2322.38 2331.79 
2637 2332.70 2324.15 2331.79 
2638 2292.87 2322.88 2332.70 
2639 2330.17 2321.38 2332.70 
2640 2330.94 2325.21 2332.70 
2641 2330.96 2322.91 2332.70 
2642 2332.32 2324.67 2332.70 
2643 2331.06 2324.25 2332.70 
2644 2333.22 2324.87 2332.70 
2645 2327.88 2320.83 2333.22 
2646 2332.84 2321.52 2333.22 
2647 2309.39 2320.05 2333.22 
2648 2332.38 2319.88 2333.22 
2649 2333.63 2319.75 2333.22 
2650 2290.07 2322.85 2333.63 
2651 2309.53 2318.56 2333.63 
2652 2331.88 2318.19 2333.63 
2653 2314.91 2317.79 2333.63 
2654 2331.44 2190.46 2333.63 
2655 2330.42 2188.77 2333.63 
2656 2328.03 2321.35 2333.63 
2657 2332.82 2322.73 2333.63 
2658 2300.07 2323.97 2333.63 
2659 2333.82 2323.97 2333.63 
2660 2310.36 2323.73 2333.82 
2661 2315.20 2323.87 2333.82 
2662 2313.90 2323.20 2333.82 
2663 2331.83 2327.65 2333.82 
2664 2332.18 2325.02 2333.82 
2665 2334.08 2321.16 2333.82 
2666 2332.33 2321.24 2334.08 
2667 2316.53 2320.95 2334.08 
2668 2315.09 2320.83 2334.08 
2669 2327.39 2319.92 2334.08 
2670 2333.00 2318.45 2334.08 
2671 2333.48 2321.55 2334.08 
2672 2334.51 2318.21 2334.08 
2673 2315.46 2319.17 2334.51 
2674 2335.66 2316.70 2334.51 
2675 2334.69 2319.92 2335.66 
2676 2334.69 2320.42 2335.66 
2677 2333.42 2324.63 2335.66 
2678 2334.97 2328.43 2335.66 
2679 2335.21 2327.80 2335.66 
2680 2336.30 2330.52 2335.66 
2681 2336.00 2332.12 2336.30 
2682 2334.06 2333.38 2336.30 
2683 2332.47 2322.72 2336.30 
2684 2333.34 2305.04 2336.30 
2685 2330.95 2328.11 2336.30 
2686 2334.42 2324.88 2336.30 
2687 2336.09 2324.14 2336.30 
2688 2337.06 2324.59 2336.30 
2689 2336.07 2324.72 2337.06 
2690 2336.87 2321.83 2337.06 
2691 2338.17 2318.14 2337.06 
2692 2338.39 2318.55 2338.17 
2693 2338.41 2318.13 2338.39 
2694 2339.68 2321.02 2338.41 
2695 2339.22 2318.93 2339.68 
2696 2341.22 2317.20 2339.68 
2697 2339.00 2317.14 2341.22 
2698 2336.52 2315.53 2341.22 
2699 2340.90 2316.07 2341.22 
2700 2338.83 2317.42 2341.22 
2701 2340.80 2315.79 2341.22 
2702 2319.57 2315.98 2341.22 
2703 2342.31 2313.64 2341.22 
2704 2337.71 2315.37 2342.31 
2705 2341.83 2320.56 2342.31 
2706 2341.81 2321.26 2342.31 
2707 2339.63 2327.39 2342.31 
2708 2311.74 2328.82 2342.31 
2709 2341.55 2325.88 2342.31 
2710 2338.74 2329.24 2342.31 
2711 2337.70 2332.46 2342.31 
2712 2332.93 2329.76 2342.31 
2713 2342.13 2328.40 2342.31 
2714 2341.78 2326.94 2342.31 
2715 2342.50 2331.38 2342.31 
2716 2339.31 2329.95 2342.50 
2717 2343.56 2331.31 2342.50 
2718 2341.42 2332.47 2343.56 
2719 2339.01 2331.36 2343.56 
2720 2341.39 2334.60 2343.56 
2721 2342.10 2337.39 2343.56 
2722 2342.13 2337.20 2343.56 
2723 2339.70 2337.09 2343.56 
2724 2342.85 2338.51 2343.56 
2725 2343.25 2339.46 2343.56 
2726 2339.04 2338.45 2343.56 
2727 2343.43 2339.86 2343.56 
2728 2341.53 2340.33 2343.56 
2729 2322.75 2340.20 2343.56 
2730 2340.29 2339.54 2343.56 
2731 2341.57 2339.52 2343.56 
2732 2342.55 2339.67 2343.56 
2733 2341.44 2340.71 2343.56 
2734 2344.01 2339.20 2343.56 
2735 2341.41 2340.26 2344.01 
2736 2335.80 2340.96 2344.01 
2737 2341.42 2340.59 2344.01 
2738 2333.37 2340.26 2344.01 
2739 2342.57 2340.06 2344.01 
2740 2341.28 2340.36 2344.01 
2741 2339.28 2338.77 2344.01 
2742 2342.02 2339.64 2344.01 
2743 2343.41 2340.77 2344.01 
2744 2343.38 2338.88 2344.01 
2745 2344.37 2334.35 2344.01 
2746 2340.44 2333.39 2344.37 
2747 2344.12 2331.80 2344.37 
2748 2344.73 2330.96 2344.37 
2749 2345.96 2329.78 2344.73 
2750 2342.78 2330.39 2345.96 
2751 2342.91 2335.24 2345.96 
2752 2344.74 2333.94 2345.96 
2753 2342.41 2333.74 2345.96 
2754 2342.88 2334.78 2345.96 
2755 2342.31 2203.63 2345.96 
2756 2344.38 2338.28 2345.96 
2757 2343.46 2194.19 2345.96 
2758 2345.03 2191.48 2345.96 
2759 2340.57 2334.57 2345.96 
2760 2344.29 2333.84 2345.96 
2761 2342.03 2335.03 2345.96 
2762 2345.25 2339.84 2345.96 
2763 2346.04 2200.79 2345.96 
2764 2342.59 2206.14 2346.04 
2765 2338.04 2330.84 2346.04 
2766 2344.46 2332.04 2346.04 
2767 2344.31 2328.47 2346.04 
2768 2341.38 2329.01 2346.04 
2769 2345.72 2327.44 2346.04 
2770 2344.85 2331.19 2346.04 
2771 2345.98 2328.65 2346.04 
2772 2345.92 2328.00 2346.04 
2773 2343.96 2326.81 2346.04 
2774 2346.28 2327.28 2346.04 
2775 2343.49 2327.13 2346.28 
2776 2345.27 2205.22 2346.28 
2777 2346.68 2195.36 2346.28 
2778 2346.47 2203.28 2346.68 
2779 2347.56 2331.43 2346.68 
2780 2347.96 2335.61 2347.56 
2781 2343.71 2337.41 2347.96 
2782 2344.48 2335.59 2347.96 
2783 2345.06 2336.25 2347.96 
2784 2343.82 2333.52 2347.96 
2785 2346.26 2335.06 2347.96 
2786 2345.26 2332.77 2347.96 
2787 2345.96 2331.65 2347.96 
2788 2349.01 2332.64 2347.96 
2789 2342.48 2332.45 2349.01 
2790 2345.91 2334.10 2349.01 
2791 2347.67 2336.71 2349.01 
2792 2346.80 2335.74 2349.01 
2793 2345.44 2332.97 2349.01 
2794 2348.02 2333.73 2349.01 
2795 2349.47 2333.05 2349.01 
2796 2348.69 2335.06 2349.47 
2797 2348.75 2240.35 2349.47 
2798 2342.84 2338.45 2349.47 
2799 2342.70 2337.29 2349.47 
2800 2347.14 2336.43 2349.47 
2801 2348.23 2338.94 2349.47 
2802 2348.29 2337.14 2349.47 
2803 2345.84 2333.35 2349.47 
2804 2348.20 2335.05 2349.47 
2805 2349.90 2335.75 2349.47 
2806 2349.64 2337.04 2349.90 
2807 2345.46 2332.41 2349.90 
2808 2329.58 2332.68 2349.90 
2809 2345.22 2331.49 2349.90 
2810 2348.96 2329.76 2349.90 
2811 2346.21 2330.35 2349.90 
2812 2346.01 2330.65 2349.90 
2813 2348.69 2330.45 2349.90 
2814 2348.21 2329.26 2349.90 
2815 2348.03 2330.36 2349.90 
2816 2348.35 2330.09 2349.90 
2817 2349.74 2329.67 2349.90 
2818 2342.87 2329.12 2349.90 
2819 2349.67 2327.67 2349.90 
2820 2348.66 2329.09 2349.90 
2821 2348.19 2329.54 2349.90 
2822 2345.49 2331.54 2349.90 
2823 2348.97 2328.10 2349.90 
2824 2348.71 2257.90 2349.90 
2825 2349.87 2328.43 2349.90 
2826 2349.02 2327.61 2349.90 
2827 2350.14 2328.00 2349.90 
2828 2350.15 2330.50 2350.14 
2829 2351.34 2253.71 2350.15 
2830 2347.38 2249.26 2351.34 
2831 2349.72 2242.48 2351.34 
2832 2348.58 2245.34 2351.34 
2833 2347.36 2338.26 2351.34 
2834 2346.49 2335.49 2351.34 
2835 2351.29 2337.87 2351.34 
2836 2350.10 2339.21 2351.34 
2837 2349.82 2339.73 2351.34 
2838 2348.81 2342.68 2351.34 
2839 2351.30 2247.96 2351.34 
2840 2342.42 2338.04 2351.34 
2841 2346.13 2333.30 2351.34 
2842 2349.53 2331.99 2351.34 
2843 2351.40 2331.20 2351.34 
2844 2348.11 2331.47 2351.40 
2845 2351.57 2333.30 2351.40 
2846 2349.92 2333.42 2351.57 
2847 2349.21 2331.61 2351.57 
2848 2350.84 2331.62 2351.57 
2849 2350.87 2331.39 2351.57 
2850 2350.02 2330.96 2351.57 
2851 2350.13 2332.58 2351.57 
2852 2352.08 2334.13 2351.57 
2853 2341.90 2332.98 2352.08 
2854 2350.69 2334.29 2352.08 
2855 2346.02 2233.25 2352.08 
2856 2352.03 2238.31 2352.08 
2857 2347.07 2234.83 2352.08 
2858 2348.44 2234.31 2352.08 
2859 2324.07 2228.97 2352.08 
2860 2348.99 2228.31 2352.08 
2861 2348.47 2229.45 2352.08 
2862 2349.59 2243.50 2352.08 
2863 2350.84 2225.40 2352.08 
2864 2350.30 2343.19 2352.08 
2865 2336.63 2342.41 2352.08 
2866 2352.40 2227.91 2352.08 
2867 2344.73 2336.61 2352.40 
2868 2350.47 2336.39 2352.40 
2869 2349.89 2333.70 2352.40 
2870 2349.32 2332.40 2352.40 
2871 2350.72 2334.72 2352.40 
2872 2350.24 2334.57 2352.40 
2873 2348.97 2334.93 2352.40 
2874 2347.80 2334.16 2352.40 
2875 2347.04 2332.74 2352.40 
2876 2350.88 2334.17 2352.40 
2877 2349.96 2335.96 2352.40 
2878 2350.67 2218.90 2352.40 
2879 2349.47 2220.71 2352.40 
2880 2348.34 2230.59 2352.40 
2881 2352.12 2230.61 2352.40 
2882 2352.47 2332.50 2352.40 
2883 2349.27 2331.19 2352.47 
2884 2351.56 2330.93 2352.47 
2885 2352.34 2333.73 2352.47 
2886 2351.71 2332.62 2352.47 
2887 2346.22 2331.80 2352.47 
2888 2349.39 2333.39 2352.47 
2889 2350.63 2335.26 2352.47 
2890 2350.36 2232.53 2352.47 
2891 2342.51 2232.19 2352.47 
2892 2350.59 2335.20 2352.47 
2893 2350.48 2331.11 2352.47 
2894 2352.53 2331.13 2352.47 
2895 2346.67 2329.88 2352.53 
2896 2348.82 2330.62 2352.53 
2897 2352.16 2331.49 2352.53 
2898 2351.26 2330.52 2352.53 
2899 2351.08 2232.41 2352.53 
2900 2348.09 2331.41 2352.53 
2901 2348.02 2332.62 2352.53 
2902 2352.77 2332.10 2352.53 
2903 2347.26 2333.26 2352.77 
2904 2348.00 2333.69 2352.77 
2905 2351.50 2334.14 2352.77 
2906 2351.40 2333.71 2352.77 
2907 2349.13 2334.09 2352.77 
2908 2352.47 2335.18 2352.77 
2909 2352.09 2225.20 2352.77 
2910 2347.68 2341.04 2352.77 
2911 2346.00 2341.68 2352.77 
2912 2351.36 2216.19 2352.77 
2913 2345.63 2213.99 2352.77 
2914 2345.41 2217.98 2352.77 
2915 2351.02 2218.59 2352.77 
2916 2350.62 2222.29 2352.77 
2917 2349.25 2219.25 2352.77 
2918 2350.87 2218.72 2352.77 
2919 2349.58 2214.00 2352.77 
2920 2350.36 2218.57 2352.77 
2921 2351.93 2217.16 2352.77 
2922 2331.69 2334.79 2352.77 
2923 2349.12 2332.60 2352.77 
2924 2351.84 2336.57 2352.77 
2925 2347.88 2221.50 2352.77 
2926 2351.75 2342.15 2352.77 
2927 2352.69 2223.12 2352.77 
2928 2351.63 2229.73 2352.77 
2929 2346.42 2222.75 2352.77 
2930 2351.20 2220.31 2352.77 
2931 2352.81 2224.13 2352.77 
2932 2349.69 2220.08 2352.81 
2933 2346.22 2225.87 2352.81 
2934 2350.68 2229.28 2352.81 
2935 2351.74 2220.83 2352.81 
2936 2351.85 2223.41 2352.81 
2937 2353.50 2223.34 2352.81 
2938 2352.24 2216.59 2353.50 
2939 2310.39 2217.40 2353.50 
2940 2321.82 2224.30 2353.50 
2941 2353.64 2225.59 2353.50 
2942 2353.36 2221.57 2353.64 
2943 2351.13 2225.32 2353.64 
2944 2345.79 2236.32 2353.64 
2945 2348.68 2230.64 2353.64 
2946 2350.30 2222.96 2353.64 
2947 2350.76 2222.19 2353.64 
2948 2296.38 2217.58 2353.64 
2949 2351.83 2218.74 2353.64 
2950 2351.29 2234.43 2353.64 
2951 2350.09 2238.43 2353.64 
2952 2349.65 2229.28 2353.64 
2953 2350.85 2231.22 2353.64 
2954 2350.51 2226.02 2353.64 
2955 2351.85 2237.61 2353.64 
2956 2343.55 2231.46 2353.64 
2957 2351.11 2229.71 2353.64 
2958 2349.31 2231.73 2353.64 
2959 2341.01 2225.72 2353.64 
2960 2350.89 2227.13 2353.64 
2961 2352.61 2229.21 2353.64 
2962 2349.06 2225.30 2353.64 
2963 2350.10 2226.42 2353.64 
2964 2351.90 2226.91 2353.64 
2965 2351.80 2332.45 2353.64 
2966 2353.86 2223.32 2353.64 
2967 2348.91 2232.88 2353.86 
2968 2352.19 2225.97 2353.86 
2969 2352.78 2230.14 2353.86 
2970 2352.56 2336.78 2353.86 
2971 2353.77 2223.88 2353.86 
2972 2351.36 2224.14 2353.86 
2973 2352.65 2228.61 2353.86 
2974 2352.28 2218.54 2353.86 
2975 2349.13 2218.14 2353.86 
2976 2351.88 2229.22 2353.86 
2977 2354.02 2226.73 2353.86 
2978 2354.59 2226.32 2354.02 
2979 2353.87 2226.21 2354.59 
2980 2353.07 2225.97 2354.59 
2981 2354.16 2227.37 2354.59 
2982 2349.92 2229.90 2354.59 
2983 2351.46 2231.32 2354.59 
2984 2352.49 2231.23 2354.59 
2985 2353.32 2233.87 2354.59 
2986 2353.22 2233.96 2354.59 
2987 2352.63 2240.22 2354.59 
2988 2354.05 2240.23 2354.59 
2989 2350.08 2247.56 2354.59 
2990 2350.99 2247.32 2354.59 
2991 2351.46 2247.67 2354.59 
2992 2352.93 2231.36 2354.59 
2993 2351.02 2234.92 2354.59 
2994 2354.69 2238.41 2354.59 
2995 2355.13 2231.45 2354.69 
2996 2323.58 2230.53 2355.13 
2997 2328.06 2233.05 2355.13 
2998 2351.97 2234.45 2355.13 
2999 2354.03 2234.87 2355.13 
3000 2349.16 2234.89 2355.13 
3001 2354.09 2235.25 2355.13 
3002 2353.58 2233.86 2355.13 
3003 2354.62 2235.78 2355.13 
3004 2351.03 2233.12 2355.13 
3005 2350.52 2234.91 2355.13 
3006 2355.15 2235.94 2355.13 
3007 2353.84 2237.80 2355.15 
3008 2345.69 2237.26 2355.15 
3009 2355.63 2237.36 2355.15 
3010 2355.28 2237.99 2355.63 
3011 2350.35 2252.67 2355.63 
3012 2354.49 2253.95 2355.63 
3013 2353.50 2252.92 2355.63 
3014 2354.30 2236.79 2355.63 
3015 2353.66 2237.22 2355.63 
3016 2355.21 2231.68 2355.63 
3017 2353.25 2233.43 2355.63 
3018 2350.98 2238.66 2355.63 
3019 2354.97 2237.33 2355.63 
3020 2354.58 2232.89 2355.63 
3021 2356.13 2228.44 2355.63 
3022 2353.78 2237.34 2356.13 
3023 2347.04 2256.60 2356.13 
3024 2354.79 2249.38 2356.13 
3025 2354.29 2235.68 2356.13 
3026 2353.92 2232.44 2356.13 
3027 2355.47 2233.27 2356.13 
3028 2346.47 2236.41 2356.13 
3029 2356.90 2242.70 2356.13 
3030 2354.93 2342.09 2356.90 
3031 2353.21 2339.87 2356.90 
3032 2353.26 2340.84 2356.90 
3033 2354.26 2235.42 2356.90 
3034 2354.70 2237.87 2356.90 
3035 2352.73 2231.22 2356.90 
3036 2355.28 2251.41 2356.90 
3037 2351.44 2239.25 2356.90 
3038 2351.43 2244.58 2356.90 
3039 2352.98 2337.79 2356.90 
3040 2354.36 2335.61 2356.90 
3041 2355.79 2335.96 2356.90 
3042 2355.35 2337.19 2356.90 
3043 2346.62 2335.33 2356.90 
3044 2354.83 2335.63 2356.90 
3045 2354.93 2336.48 2356.90 
3046 2307.16 2336.60 2356.90 
3047 2353.81 2336.00 2356.90 
3048 2355.37 2337.09 2356.90 
3049 2352.63 2241.16 2356.90 
3050 2351.32 2256.37 2356.90 
3051 2355.07 2244.47 2356.90 
3052 2354.60 2241.70 2356.90 
3053 2356.22 2237.57 2356.90 
3054 2357.29 2234.35 2356.90 
3055 2347.31 2241.31 2357.29 
3056 2349.73 2247.15 2357.29 
3057 2355.29 2240.90 2357.29 
3058 2356.99 2230.78 2357.29 
3059 2351.38 2243.65 2357.29 
3060 2351.98 2251.43 2357.29 
3061 2355.34 2332.77 2357.29 
3062 2350.77 2333.65 2357.29 
3063 2349.06 2333.34 2357.29 
3064 2354.23 2334.98 2357.29 
3065 2353.75 2338.36 2357.29 
3066 2353.34 2337.29 2357.29 
3067 2352.86 2337.63 2357.29 
3068 2353.77 2337.19 2357.29 
3069 2354.63 2337.43 2357.29 
3070 2355.19 2336.59 2357.29 
3071 2355.73 2337.21 2357.29 
3072 2356.62 2262.68 2357.29 
3073 2347.82 2337.68 2357.29 
3074 2354.42 2334.55 2357.29 
3075 2353.71 2342.86 2357.29 
3076 2355.45 2338.22 2357.29 
3077 2353.73 2339.27 2357.29 
3078 2354.80 2337.05 2357.29 
3079 2354.91 2334.63 2357.29 
3080 2350.48 2332.66 2357.29 
3081 2356.85 2333.96 2357.29 
3082 2356.92 2336.24 2357.29 
3083 2354.58 2335.74 2357.29 
3084 2356.43 2338.13 2357.29 
3085 2352.85 2338.03 2357.29 
3086 2348.95 2258.95 2357.29 
3087 2355.11 2241.04 2357.29 
3088 2350.04 2337.92 2357.29 
3089 2351.90 2269.36 2357.29 
3090 2356.31 2267.94 2357.29 
3091 2351.32 2267.58 2357.29 
3092 2351.76 2259.34 2357.29 
3093 2355.21 2263.79 2357.29 
3094 2352.35 2271.11 2357.29 
3095 2356.02 2271.91 2357.29 
3096 2354.63 2244.72 2357.29 
3097 2353.36 2239.76 2357.29 
3098 2355.74 2240.08 2357.29 
3099 2350.81 2268.74 2357.29 
3100 2355.51 2244.17 2357.29 
3101 2357.76 2241.97 2357.29 
3102 2357.70 2246.11 2357.76 
3103 2354.91 2240.72 2357.76 
3104 2356.77 2238.04 2357.76 
3105 2357.18 2236.42 2357.76 
3106 2353.73 2238.83 2357.76 
3107 2355.30 2238.28 2357.76 
3108 2352.42 2240.35 2357.76 
3109 2354.09 2236.85 2357.76 
3110 2357.08 2235.11 2357.76 
3111 2350.88 2237.68 2357.76 
3112 2357.08 2238.23 2357.76 
3113 2355.83 2236.30 2357.76 
3114 2353.33 2249.27 2357.76 
3115 2354.83 2241.63 2357.76 
3116 2356.15 2227.87 2357.76 
3117 2356.09 2227.07 2357.76 
3118 2357.14 2229.70 2357.76 
3119 2357.66 2229.78 2357.76 
3120 2351.64 2265.35 2357.76 
3121 2346.79 2262.27 2357.76 
3122 2357.38 2246.68 2357.76 
3123 2357.70 2249.80 2357.76 
3124 2354.56 2329.86 2357.76 
3125 2356.56 2331.32 2357.76 
3126 2357.62 2250.42 2357.76 
3127 2357.47 2334.33 2357.76 
3128 2347.14 2334.39 2357.76 
3129 2357.15 2334.98 2357.76 
3130 2349.04 2334.85 2357.76 
3131 2354.03 2334.95 2357.76 
3132 2356.18 2338.93 2357.76 
3133 2355.79 2340.16 2357.76 
3134 2355.56 2341.21 2357.76 
3135 2354.06 2345.58 2357.76 
3136 2351.30 2340.66 2357.76 
3137 2356.03 2340.42 2357.76 
3138 2354.08 2340.86 2357.76 
3139 2356.96 2338.55 2357.76 
3140 2357.27 2340.96 2357.76 
3141 2357.87 2277.14 2357.76 
3142 2357.27 2341.52 2357.87 
3143 2358.22 2341.37 2357.87 
3144 2351.30 2341.25 2358.22 
3145 2353.89 2340.87 2358.22 
3146 2354.05 2265.43 2358.22 
3147 2357.91 2279.47 2358.22 
3148 2354.40 2346.43 2358.22 
3149 2355.87 2340.57 2358.22 
3150 2355.29 2346.29 2358.22 
3151 2346.44 2347.36 2358.22 
3152 2353.72 2348.21 2358.22 
3153 2355.33 2351.42 2358.22 
3154 2356.23 2348.26 2358.22 
3155 2354.33 2348.70 2358.22 
3156 2356.86 2346.84 2358.22 
3157 2354.93 2348.62 2358.22 
3158 2346.82 2348.91 2358.22 
3159 2349.88 2345.06 2358.22 
3160 2352.94 2352.28 2358.22 
3161 2356.09 2346.74 2358.22 
3162 2355.48 2341.29 2358.22 
3163 2355.44 2345.21 2358.22 
3164 2353.03 2341.90 2358.22 
3165 2351.13 2338.24 2358.22 
3166 2355.87 2341.39 2358.22 
3167 2357.33 2338.33 2358.22 
3168 2353.31 2340.08 2358.22 
3169 2356.19 2338.84 2358.22 
3170 2347.13 2341.64 2358.22 
3171 2355.40 2341.94 2358.22 
3172 2353.42 2342.72 2358.22 
3173 2356.79 2345.76 2358.22 
3174 2355.54 2343.59 2358.22 
3175 2355.19 2345.81 2358.22 
3176 2356.73 2344.78 2358.22 
3177 2356.41 2338.50 2358.22 
3178 2355.15 2336.70 2358.22 
3179 2357.34 2336.45 2358.22 
3180 2357.39 2337.54 2358.22 
3181 2354.87 2337.68 2358.22 
3182 2355.89 2339.04 2358.22 
3183 2356.92 2340.84 2358.22 
3184 2355.88 2338.51 2358.22 
3185 2355.74 2336.95 2358.22 
3186 2354.11 2338.22 2358.22 
3187 2354.60 2339.95 2358.22 
3188 2357.46 2338.72 2358.22 
3189 2356.78 2336.66 2358.22 
3190 2353.50 2336.61 2358.22 
3191 2357.31 2335.13 2358.22 
3192 2356.36 2334.33 2358.22 
3193 2355.58 2335.25 2358.22 
3194 2357.95 2336.76 2358.22 
3195 2357.44 2338.82 2358.22 
3196 2352.59 2339.29 2358.22 
3197 2351.90 2338.80 2358.22 
3198 2358.07 2338.68 2358.22 
3199 2356.99 2339.94 2358.22 
3200 2356.32 2341.03 2358.22 
3201 2356.07 2342.36 2358.22 
3202 2357.62 2343.57 2358.22 
3203 2353.68 2342.17 2358.22 
3204 2357.49 2341.99 2358.22 
3205 2352.23 2342.46 2358.22 
3206 2357.76 2343.24 2358.22 
3207 2357.51 2343.76 2358.22 
3208 2358.23 2341.43 2358.22 
3209 2357.49 2344.56 2358.23 
3210 2356.89 2344.68 2358.23 
3211 2356.33 2345.75 2358.23 
3212 2356.25 2345.23 2358.23 
3213 2356.57 2344.06 2358.23 
3214 2351.09 2342.49 2358.23 
3215 2358.55 2342.13 2358.23 
3216 2351.31 2343.05 2358.55 
3217 2355.04 2342.85 2358.55 
3218 2358.34 2344.86 2358.55 
3219 2356.42 2345.70 2358.55 
3220 2351.54 2345.55 2358.55 
3221 2358.81 2345.41 2358.55 
3222 2357.28 2344.10 2358.81 
3223 2356.80 2343.77 2358.81 
3224 2356.99 2343.18 2358.81 
3225 2358.81 2344.63 2358.81 
3226 2356.50 2344.97 2358.81 
3227 2350.42 2344.08 2358.81 
3228 2358.65 2342.93 2358.81 
3229 2357.76 2342.08 2358.81 
3230 2358.01 2342.38 2358.81 
3231 2355.37 2343.52 2358.81 
3232 2352.91 2342.35 2358.81 
3233 2356.04 2342.38 2358.81 
3234 2358.09 2343.01 2358.81 
3235 2359.74 2344.59 2358.81 
3236 2357.41 2344.83 2359.74 
3237 2354.21 2344.29 2359.74 
3238 2356.58 2344.03 2359.74 
3239 2357.34 2342.81 2359.74 
3240 2354.12 2342.63 2359.74 
3241 2356.65 2341.64 2359.74 
3242 2357.32 2340.44 2359.74 
3243 2358.90 2341.39 2359.74 
3244 2358.10 2342.10 2359.74 
3245 2356.36 2343.02 2359.74 
3246 2357.66 2342.77 2359.74 
3247 2356.31 2248.87 2359.74 
3248 2303.89 2260.02 2359.74 
3249 2355.17 2255.87 2359.74 
3250 2353.33 2256.16 2359.74 
3251 2353.07 2344.87 2359.74 
3252 2355.87 2346.22 2359.74 
3253 2355.38 2347.73 2359.74 
3254 2357.54 2348.63 2359.74 
3255 2356.06 2350.68 2359.74 
3256 2359.09 2350.22 2359.74 
3257 2354.36 2349.07 2359.74 
3258 2349.76 2348.34 2359.74 
3259 2354.75 2348.55 2359.74 
3260 2357.32 2349.15 2359.74 
3261 2352.14 2349.70 2359.74 
3262 2355.23 2352.44 2359.74 
3263 2358.54 2352.30 2359.74 
3264 2354.29 2351.84 2359.74 
3265 2358.19 2353.86 2359.74 
3266 2356.98 2352.68 2359.74 
3267 2357.86 2350.22 2359.74 
3268 2356.78 2347.68 2359.74 
3269 2356.85 2342.50 2359.74 
3270 2358.94 2342.74 2359.74 
3271 2358.70 2339.72 2359.74 
3272 2353.78 2340.97 2359.74 
3273 2357.41 2343.70 2359.74 
3274 2358.17 2346.44 2359.74 
3275 2358.52 2350.32 2359.74 
3276 2359.81 2352.38 2359.74 
3277 2355.56 2353.02 2359.81 
3278 2355.75 2238.93 2359.81 
3279 2356.82 2240.92 2359.81 
3280 2359.12 2238.76 2359.81 
3281 2355.65 2353.48 2359.81 
3282 2354.50 2351.78 2359.81 
3283 2357.13 2353.08 2359.81 
3284 2360.05 2354.68 2359.81 
3285 2358.97 2358.72 2360.05 
3286 2357.51 2358.94 2360.05 
3287 2360.00 2356.40 2360.05 
3288 2361.18 2355.05 2360.05 
3289 2355.25 2354.01 2361.18 
3290 2361.55 2354.16 2361.18 
3291 2357.21 2354.25 2361.55 
3292 2362.25 2356.22 2361.55 
3293 2362.38 2354.61 2362.25 
3294 2359.93 2355.23 2362.38 
3295 2362.72 2356.47 2362.38 
3296 2355.24 2355.76 2362.72 
3297 2361.71 2357.18 2362.72 
3298 2363.32 2359.33 2362.72 
3299 2362.59 2359.65 2363.32 
3300 2361.92 2359.14 2363.32 
3301 2363.78 2360.82 2363.32 
3302 2361.84 2361.32 2363.78 
3303 2364.87 2362.59 2363.78 
3304 2361.34 2362.93 2364.87 
3305 2359.00 2362.19 2364.87 
3306 2364.90 2364.04 2364.87 
3307 2364.16 2367.94 2364.90 
3308 2365.72 2368.46 2364.90 
3309 2366.67 2366.52 2365.72 
3310 2366.19 2366.07 2366.67 
3311 2356.58 2366.77 2366.67 
3312 2366.27 2368.57 2366.67 
3313 2366.61 2368.05 2366.67 
3314 2366.47 2368.09 2366.67 
3315 2365.04 2367.93 2366.67 
3316 2367.21 2370.07 2366.67 
3317 2366.88 2370.90 2367.21 
3318 2364.54 2370.11 2367.21 
3319 2364.00 2369.69 2367.21 
3320 2365.82 2369.95 2367.21 
3321 2366.69 2369.50 2367.21 
3322 2366.80 2369.60 2367.21 
3323 2365.89 2369.77 2367.21 
3324 2361.96 2369.66 2367.21 
3325 2368.06 2371.47 2367.21 
3326 2363.22 2371.32 2368.06 
3327 2368.30 2373.17 2368.06 
3328 2368.59 2373.69 2368.30 
3329 2364.19 2374.09 2368.59 
3330 2368.05 2373.88 2368.59 
3331 2369.31 2374.38 2368.59 
3332 2369.96 2374.63 2369.31 
3333 2365.14 2374.86 2369.96 
3334 2360.82 2375.13 2369.96 
3335 2360.21 2374.93 2369.96 
3336 2368.58 2375.63 2369.96 
3337 2366.24 2376.10 2369.96 
3338 2365.40 2375.65 2369.96 
3339 2367.24 2375.94 2369.96 
3340 2365.14 2375.02 2369.96 
3341 2370.14 2374.17 2369.96 
3342 2365.28 2374.68 2370.14 
3343 2365.79 2375.13 2370.14 
3344 2369.36 2376.43 2370.14 
3345 2363.64 2375.88 2370.14 
3346 2369.80 2376.13 2370.14 
3347 2366.52 2375.49 2370.14 
3348 2365.48 2375.67 2370.14 
3349 2369.92 2373.01 2370.14 
3350 2365.88 2372.60 2370.14 
3351 2368.18 2373.83 2370.14 
3352 2364.63 2371.30 2370.14 
3353 2367.37 2371.65 2370.14 
3354 2368.73 2370.98 2370.14 
3355 2369.37 2371.94 2370.14 
3356 2366.89 2371.91 2370.14 
3357 2363.65 2370.27 2370.14 
3358 2367.66 2370.75 2370.14 
3359 2368.52 2370.39 2370.14 
3360 2362.23 2368.88 2370.14 
3361 2366.01 2370.07 2370.14 
3362 2367.12 2370.55 2370.14 
3363 2365.89 2370.72 2370.14 
3364 2366.88 2369.90 2370.14 
3365 2368.80 2370.93 2370.14 
3366 2365.85 2369.69 2370.14 
3367 2369.85 2370.40 2370.14 
3368 2366.84 2370.36 2370.14 
3369 2369.12 2368.49 2370.14 
3370 2366.29 2368.66 2370.14 
3371 2369.09 2367.44 2370.14 
3372 2366.82 2368.13 2370.14 
3373 2367.77 2367.53 2370.14 
3374 2369.55 2370.53 2370.14 
3375 2369.51 2372.46 2370.14 
3376 2367.21 2373.17 2370.14 
3377 2366.85 2371.48 2370.14 
3378 2368.67 2371.60 2370.14 
3379 2367.64 2286.25 2370.14 
3380 2371.10 2371.28 2370.14 
3381 2369.49 2372.14 2371.10 
3382 2369.12 2372.13 2371.10 
3383 2369.46 2372.47 2371.10 
3384 2370.62 2373.97 2371.10 
3385 2367.03 2371.23 2371.10 
3386 2370.27 2369.62 2371.10 
3387 2370.40 2370.99 2371.10 
3388 2370.33 2372.32 2371.10 
3389 2313.34 2372.79 2371.10 
3390 2366.37 2372.28 2371.10 
3391 2364.56 2371.79 2371.10 
3392 2326.26 2372.07 2371.10 
3393 2366.23 2372.10 2371.10 
3394 2368.63 2371.38 2371.10 
3395 2370.49 2370.63 2371.10 
3396 2366.27 2369.93 2371.10 
3397 2368.89 2367.71 2371.10 
3398 2367.23 2365.70 2371.10 
3399 2365.34 2366.19 2371.10 
3400 2365.29 2368.32 2371.10 
3401 2369.84 2368.30 2371.10 
3402 2370.38 2367.51 2371.10 
3403 2366.19 2367.82 2371.10 
3404 2366.22 2367.68 2371.10 
3405 2315.63 2367.86 2371.10 
3406 2307.58 2367.11 2371.10 
3407 2369.64 2366.76 2371.10 
3408 2369.24 2367.16 2371.10 
3409 2370.13 2366.53 2371.10 
3410 2366.86 2367.62 2371.10 
3411 2369.08 2369.71 2371.10 
3412 2368.92 2370.67 2371.10 
3413 2367.68 2369.57 2371.10 
3414 2368.70 2370.27 2371.10 
3415 2367.90 2369.43 2371.10 
3416 2368.28 2369.37 2371.10 
3417 2369.15 2368.72 2371.10 
3418 2367.83 2370.99 2371.10 
3419 2366.29 2369.45 2371.10 
3420 2370.36 2369.50 2371.10 
3421 2361.65 2368.48 2371.10 
3422 2362.81 2368.66 2371.10 
3423 2365.29 2368.34 2371.10 
3424 2369.31 2367.74 2371.10 
3425 2367.57 2367.12 2371.10 
3426 2360.68 2366.15 2371.10 
3427 2369.64 2366.34 2371.10 
3428 2369.41 2367.76 2371.10 
3429 2370.86 2367.50 2371.10 
3430 2368.74 2368.51 2371.10 
3431 2371.71 2367.93 2371.10 
3432 2371.48 2367.99 2371.71 
3433 2364.49 2367.84 2371.71 
3434 2370.09 2368.55 2371.71 
3435 2372.46 2369.07 2371.71 
3436 2370.10 2368.84 2372.46 
3437 2369.25 2369.40 2372.46 
3438 2368.25 2368.63 2372.46 
3439 2367.75 2371.08 2372.46 
3440 2370.37 2368.02 2372.46 
3441 2368.55 2368.64 2372.46 
3442 2370.60 2368.11 2372.46 
3443 2370.02 2368.90 2372.46 
3444 2368.58 2370.58 2372.46 
3445 2371.24 2369.93 2372.46 
3446 2371.89 2367.29 2372.46 
3447 2369.58 2368.28 2372.46 
3448 2370.13 2372.18 2372.46 
3449 2370.15 2369.51 2372.46 
3450 2372.70 2369.89 2372.46 
3451 2369.43 2372.61 2372.70 
3452 2370.94 2372.20 2372.70 
3453 2371.36 2370.95 2372.70 
3454 2371.45 2370.40 2372.70 
3455 2367.06 2369.72 2372.70 
3456 2370.73 2369.03 2372.70 
3457 2366.26 2369.39 2372.70 
3458 2367.19 2369.35 2372.70 
3459 2369.54 2371.28 2372.70 
3460 2372.28 2369.89 2372.70 
3461 2372.34 2369.71 2372.70 
3462 2367.38 2369.54 2372.70 
3463 2370.59 2369.72 2372.70 
3464 2370.01 2369.68 2372.70 
3465 2372.03 2368.85 2372.70 
3466 2372.28 2369.24 2372.70 
3467 2368.33 2369.32 2372.70 
3468 2371.03 2369.69 2372.70 
3469 2367.96 2368.89 2372.70 
3470 2369.50 2369.77 2372.70 
3471 2365.19 2369.84 2372.70 
3472 2364.89 2369.13 2372.70 
3473 2369.33 2369.50 2372.70 
3474 2367.51 2369.86 2372.70 
3475 2365.85 2369.48 2372.70 
3476 2369.31 2369.10 2372.70 
3477 2368.57 2368.74 2372.70 
3478 2371.08 2368.18 2372.70 
3479 2370.00 2367.85 2372.70 
3480 2368.65 2368.42 2372.70 
3481 2364.10 2368.27 2372.70 
3482 2370.02 2368.14 2372.70 
3483 2368.00 2367.30 2372.70 
3484 2371.79 2368.18 2372.70 
3485 2363.23 2368.16 2372.70 
3486 2368.01 2367.72 2372.70 
3487 2370.80 2366.79 2372.70 
3488 2371.64 2367.96 2372.70 
3489 2370.66 2368.27 2372.70 
3490 2371.27 2367.86 2372.70 
3491 2368.30 2367.84 2372.70 
3492 2370.92 2367.28 2372.70 
3493 2368.33 2366.46 2372.70 
3494 2369.93 2366.30 2372.70 
3495 2368.61 2367.12 2372.70 
3496 2372.51 2368.66 2372.70 
3497 2365.45 2368.71 2372.70 
3498 2366.96 2369.22 2372.70 
3499 2366.03 2369.61 2372.70 
3500 2371.01 2368.99 2372.70 
3501 2371.48 2368.67 2372.70 
3502 2370.64 2369.19 2372.70 
3503 2368.43 2368.40 2372.70 
3504 2372.05 2368.84 2372.70 
3505 2368.62 2369.20 2372.70 
3506 2369.94 2368.90 2372.70 
3507 2367.87 2368.19 2372.70 
3508 2367.90 2367.45 2372.70 
3509 2370.89 2368.59 2372.70 
3510 2370.96 2368.05 2372.70 
3511 2372.21 2367.29 2372.70 
3512 2372.76 2367.03 2372.70 
3513 2371.80 2367.09 2372.76 
3514 2370.06 2367.21 2372.76 
3515 2370.61 2367.70 2372.76 
3516 2371.84 2366.90 2372.76 
3517 2373.22 2367.21 2372.76 
3518 2369.98 2367.21 2373.22 
3519 2370.34 2366.41 2373.22 
3520 2372.28 2366.34 2373.22 
3521 2370.87 2367.09 2373.22 
3522 2367.16 2367.24 2373.22 
3523 2371.08 2367.54 2373.22 
3524 2372.60 2367.53 2373.22 
3525 2373.07 2367.47 2373.22 
3526 2370.96 2367.41 2373.22 
3527 2371.15 2367.39 2373.22 
3528 2372.55 2367.09 2373.22 
3529 2367.86 2367.13 2373.22 
3530 2369.64 2366.90 2373.22 
3531 2371.59 2367.91 2373.22 
3532 2369.67 2366.94 2373.22 
3533 2371.93 2365.62 2373.22 
3534 2367.64 2365.83 2373.22 
3535 2371.68 2366.41 2373.22 
3536 2372.90 2367.76 2373.22 
3537 2366.64 2367.69 2373.22 
3538 2367.52 2367.66 2373.22 
3539 2371.58 2366.93 2373.22 
3540 2373.05 2366.15 2373.22 
3541 2373.54 2366.78 2373.22 
3542 2373.97 2367.82 2373.54 
3543 2371.89 2367.99 2373.97 
3544 2372.70 2367.07 2373.97 
3545 2374.40 2366.10 2373.97 
3546 2373.90 2366.48 2374.40 
3547 2374.38 2367.86 2374.40 
3548 2373.35 2367.45 2374.40 
3549 2370.76 2366.77 2374.40 
3550 2373.07 2367.37 2374.40 
3551 2373.07 2366.91 2374.40 
3552 2374.72 2367.75 2374.40 
3553 2373.68 2366.92 2374.72 
3554 2372.27 2367.15 2374.72 
3555 2374.21 2367.46 2374.72 
3556 2373.00 2367.16 2374.72 
3557 2374.01 2367.26 2374.72 
3558 2375.03 2366.57 2374.72 
3559 2374.95 2367.91 2375.03 
3560 2373.79 2367.21 2375.03 
3561 2371.13 2367.14 2375.03 
3562 2369.92 2367.09 2375.03 
3563 2375.03 2365.79 2375.03 
3564 2371.37 2366.20 2375.03 
3565 2370.59 2366.71 2375.03 
3566 2372.65 2366.74 2375.03 
3567 2373.51 2366.12 2375.03 
3568 2369.58 2366.35 2375.03 
3569 2376.04 2367.57 2375.03 
3570 2373.74 2367.99 2376.04 
3571 2372.13 2368.25 2376.04 
3572 2368.19 2367.95 2376.04 
3573 2374.58 2367.98 2376.04 
3574 2373.72 2367.56 2376.04 
3575 2373.17 2368.09 2376.04 
3576 2372.68 2368.21 2376.04 
3577 2372.04 2368.70 2376.04 
3578 2371.48 2368.09 2376.04 
3579 2375.34 2368.50 2376.04 
3580 2371.89 2368.20 2376.04 
3581 2375.58 2368.38 2376.04 
3582 2365.55 2368.11 2376.04 
3583 2370.34 2367.58 2376.04 
3584 2373.81 2367.62 2376.04 
3585 2375.05 2368.15 2376.04 
3586 2375.07 2368.72 2376.04 
3587 2370.33 2368.19 2376.04 
3588 2372.92 2368.76 2376.04 
3589 2374.22 2368.48 2376.04 
3590 2374.30 2368.94 2376.04 
3591 2373.36 2369.35 2376.04 
3592 2339.60 2369.17 2376.04 
3593 2374.93 2368.74 2376.04 
3594 2374.03 2368.40 2376.04 
3595 2373.24 2368.36 2376.04 
3596 2373.97 2369.11 2376.04 
3597 2372.64 2369.32 2376.04 
3598 2376.43 2369.34 2376.04 
3599 2370.27 2368.90 2376.43 
3600 2374.13 2368.91 2376.43 
3601 2375.58 2369.40 2376.43 
3602 2326.74 2369.34 2376.43 
3603 2325.57 2368.72 2376.43 
3604 2323.82 2368.31 2376.43 
3605 2375.07 2368.69 2376.43 
3606 2275.17 2368.38 2376.43 
3607 2325.37 2368.41 2376.43 
3608 2320.38 2368.21 2376.43 
3609 2372.11 2368.34 2376.43 
3610 2374.31 2368.44 2376.43 
3611 2374.86 2368.46 2376.43 
3612 2374.63 2368.13 2376.43 
3613 2375.22 2368.16 2376.43 
3614 2373.46 2368.32 2376.43 
3615 2373.49 2368.12 2376.43 
3616 2371.29 2367.87 2376.43 
3617 2373.56 2368.19 2376.43 
3618 2374.28 2368.52 2376.43 
3619 2373.34 2368.81 2376.43 
3620 2373.55 2368.62 2376.43 
3621 2326.17 2369.28 2376.43 
3622 2369.93 2369.56 2376.43 
3623 2281.07 2370.04 2376.43 
3624 2372.60 2370.15 2376.43 
3625 2371.15 2369.28 2376.43 
3626 2325.23 2368.79 2376.43 
3627 2372.17 2368.16 2376.43 
3628 2365.73 2369.17 2376.43 
3629 2370.34 2369.85 2376.43 
3630 2367.54 2369.35 2376.43 
3631 2369.04 2369.38 2376.43 
3632 2369.79 2369.07 2376.43 
3633 2368.77 2368.72 2376.43 
3634 2371.63 2368.72 2376.43 
3635 2372.58 2368.92 2376.43 
3636 2370.84 2369.01 2376.43 
3637 2370.17 2369.33 2376.43 
3638 2371.31 2369.70 2376.43 
3639 2374.35 2369.46 2376.43 
3640 2373.10 2369.35 2376.43 
3641 2372.66 2369.74 2376.43 
3642 2367.91 2369.70 2376.43 
3643 2373.42 2369.47 2376.43 
3644 2368.77 2369.02 2376.43 
3645 2374.74 2369.74 2376.43 
3646 2370.39 2369.11 2376.43 
3647 2373.76 2370.43 2376.43 
3648 2375.03 2369.94 2376.43 
3649 2368.63 2369.89 2376.43 
3650 2372.24 2369.59 2376.43 
3651 2371.20 2369.75 2376.43 
3652 2363.42 2369.21 2376.43 
3653 2370.77 2369.61 2376.43 
3654 2373.69 2369.73 2376.43 
3655 2367.71 2368.90 2376.43 
3656 2372.99 2368.96 2376.43 
3657 2374.23 2369.59 2376.43 
3658 2366.27 2368.89 2376.43 
3659 2373.72 2368.05 2376.43 
3660 2373.19 2368.14 2376.43 
3661 2368.80 2368.53 2376.43 
3662 2371.04 2368.42 2376.43 
3663 2374.17 2368.47 2376.43 
3664 2368.92 2367.90 2376.43 
3665 2371.23 2367.91 2376.43 
3666 2374.18 2368.11 2376.43 
3667 2373.84 2368.22 2376.43 
3668 2371.16 2367.59 2376.43 
3669 2373.92 2367.63 2376.43 
3670 2373.02 2367.09 2376.43 
3671 2373.63 2366.58 2376.43 
3672 2374.57 2366.76 2376.43 
3673 2374.72 2367.40 2376.43 
3674 2374.30 2367.51 2376.43 
3675 2373.43 2367.61 2376.43 
3676 2374.22 2367.87 2376.43 
3677 2375.78 2368.53 2376.43 
3678 2376.66 2368.78 2376.43 
3679 2374.14 2368.18 2376.66 
3680 2372.27 2367.66 2376.66 
3681 2374.46 2368.37 2376.66 
3682 2375.97 2368.27 2376.66 
3683 2377.14 2368.68 2376.66 
3684 2374.69 2368.32 2377.14 
3685 2375.90 2368.61 2377.14 
3686 2376.19 2367.76 2377.14 
3687 2375.41 2368.34 2377.14 
3688 2376.04 2368.68 2377.14 
3689 2369.95 2367.72 2377.14 
3690 2374.10 2367.95 2377.14 
3691 2374.22 2367.71 2377.14 
3692 2377.95 2368.15 2377.14 
3693 2375.01 2368.36 2377.95 
3694 2376.06 2368.59 2377.95 
3695 2373.28 2367.86 2377.95 
3696 2375.68 2369.01 2377.95 
3697 2372.04 2368.60 2377.95 
3698 2374.97 2368.14 2377.95 
3699 2377.44 2368.93 2377.95 
3700 2374.56 2368.40 2377.95 
3701 2375.85 2367.79 2377.95 
3702 2375.50 2368.21 2377.95 
3703 2376.04 2368.85 2377.95 
3704 2376.84 2369.33 2377.95 
3705 2375.88 2369.15 2377.95 
3706 2378.31 2369.38 2377.95 
3707 2378.75 2370.71 2378.31 
3708 2380.31 2370.33 2378.75 
3709 2370.18 2370.42 2380.31 
3710 2377.78 2370.09 2380.31 
3711 2375.57 2368.97 2380.31 
3712 2380.05 2369.19 2380.31 
3713 2377.86 2368.87 2380.31 
3714 2378.08 2369.55 2380.31 
3715 2375.90 2369.40 2380.31 
3716 2373.17 2369.40 2380.31 
3717 2376.37 2368.91 2380.31 
3718 2372.06 2369.09 2380.31 
3719 2379.43 2369.69 2380.31 
3720 2376.51 2368.90 2380.31 
3721 2378.86 2368.06 2380.31 
3722 2379.61 2368.88 2380.31 
3723 2377.67 2369.43 2380.31 
3724 2380.35 2368.97 2380.31 
3725 2374.43 2369.18 2380.35 
3726 2379.52 2368.77 2380.35 
3727 2377.52 2369.43 2380.35 
3728 2379.69 2369.19 2380.35 
3729 2379.08 2368.81 2380.35 
3730 2377.69 2368.20 2380.35 
3731 2378.09 2368.60 2380.35 
3732 2378.58 2365.22 2380.35 
3733 2379.13 2369.30 2380.35 
3734 2376.24 2369.26 2380.35 
3735 2377.56 2368.99 2380.35 
3736 2379.39 2368.71 2380.35 
3737 2374.78 2368.61 2380.35 
3738 2373.50 2368.41 2380.35 
3739 2376.36 2368.50 2380.35 
3740 2377.64 2368.55 2380.35 
3741 2377.83 2367.81 2380.35 
3742 2379.97 2368.57 2380.35 
3743 2374.57 2368.18 2380.35 
3744 2378.17 2367.88 2380.35 
3745 2377.16 2367.89 2380.35 
3746 2378.62 2367.79 2380.35 
3747 2379.73 2368.33 2380.35 
3748 2380.47 2369.57 2380.35 
3749 2376.98 2369.99 2380.47 
3750 2329.59 2370.26 2380.47 
3751 2377.55 2370.27 2380.47 
3752 2374.24 2370.06 2380.47 
3753 2376.09 2370.50 2380.47 
3754 2378.10 2370.45 2380.47 
3755 2376.22 2369.51 2380.47 
3756 2376.89 2368.23 2380.47 
3757 2379.61 2367.48 2380.47 
3758 2377.57 2368.10 2380.47 
3759 2380.70 2368.58 2380.47 
3760 2378.66 2368.16 2380.70 
3761 2376.80 2368.32 2380.70 
3762 2366.02 2368.08 2380.70 
3763 2381.31 2368.86 2380.70 
3764 2378.06 2368.71 2381.31 
3765 2381.01 2367.75 2381.31 
3766 2378.79 2368.17 2381.31 
3767 2375.21 2368.74 2381.31 
3768 2372.54 2368.15 2381.31 
3769 2373.95 2368.12 2381.31 
3770 2367.75 2367.44 2381.31 
3771 2372.42 2367.48 2381.31 
3772 2377.00 2367.59 2381.31 
3773 2377.70 2367.28 2381.31 
3774 2379.21 2367.31 2381.31 
3775 2379.95 2367.80 2381.31 
3776 2379.81 2367.77 2381.31 
3777 2373.32 2368.14 2381.31 
3778 2378.69 2367.91 2381.31 
3779 2379.62 2367.87 2381.31 
3780 2378.86 2367.82 2381.31 
3781 2364.40 2367.84 2381.31 
3782 2378.75 2367.96 2381.31 
3783 2377.04 2367.45 2381.31 
3784 2377.37 2368.26 2381.31 
3785 2378.73 2368.53 2381.31 
3786 2377.40 2367.61 2381.31 
3787 2380.52 2367.49 2381.31 
3788 2378.45 2367.48 2381.31 
3789 2377.26 2367.34 2381.31 
3790 2365.12 2367.72 2381.31 
3791 2378.09 2367.52 2381.31 
3792 2374.17 2367.49 2381.31 
3793 2380.45 2367.79 2381.31 
3794 2373.83 2366.64 2381.31 
3795 2379.47 2366.80 2381.31 
3796 2378.70 2367.74 2381.31 
3797 2372.40 2368.08 2381.31 
3798 2378.43 2367.71 2381.31 
3799 2380.59 2368.66 2381.31 
3800 2379.86 2369.61 2381.31 
3801 2377.39 2370.07 2381.31 
3802 2371.48 2369.19 2381.31 
3803 2379.47 2369.67 2381.31 
3804 2379.04 2368.46 2381.31 
3805 2378.67 2367.08 2381.31 
3806 2379.98 2367.45 2381.31 
3807 2378.21 2367.52 2381.31 
3808 2378.40 2367.28 2381.31 
3809 2372.75 2367.11 2381.31 
3810 2380.91 2368.04 2381.31 
3811 2367.85 2367.43 2381.31 
3812 2378.34 2366.41 2381.31 
3813 2380.63 2366.94 2381.31 
3814 2379.68 2369.24 2381.31 
3815 2380.93 2370.44 2381.31 
3816 2381.35 2370.03 2381.31 
3817 2378.32 2370.82 2381.35 
3818 2379.43 2371.31 2381.35 
3819 2377.82 2371.53 2381.35 
3820 2379.11 2370.28 2381.35 
3821 2374.00 2369.27 2381.35 
3822 2379.26 2369.47 2381.35 
3823 2379.15 2371.38 2381.35 
3824 2377.69 2370.23 2381.35 
3825 2380.70 2371.20 2381.35 
3826 2373.57 2370.42 2381.35 
3827 2379.72 2370.85 2381.35 
3828 2380.31 2369.91 2381.35 
3829 2379.92 2370.44 2381.35 
3830 2375.73 2372.01 2381.35 
3831 2359.88 2371.13 2381.35 
3832 2380.39 2371.61 2381.35 
3833 2379.32 2371.54 2381.35 
3834 2381.82 2372.32 2381.35 
3835 2379.90 2374.18 2381.82 
3836 2378.20 2373.57 2381.82 
3837 2380.94 2373.01 2381.82 
3838 2374.24 2373.09 2381.82 
3839 2374.29 2372.87 2381.82 
3840 2380.68 2373.21 2381.82 
3841 2376.77 2372.66 2381.82 
3842 2375.86 2374.67 2381.82 
3843 2377.78 2373.54 2381.82 
3844 2375.87 2373.37 2381.82 
3845 2380.15 2373.77 2381.82 
3846 2377.81 2374.17 2381.82 
3847 2378.79 2374.76 2381.82 
3848 2376.15 2374.55 2381.82 
3849 2377.84 2292.67 2381.82 
3850 2375.88 2293.55 2381.82 
3851 2380.71 2376.16 2381.82 
3852 2379.90 2376.82 2381.82 
3853 2377.54 2288.34 2381.82 
3854 2382.73 2375.47 2381.82 
3855 2376.11 2375.85 2382.73 
3856 2381.00 2291.29 2382.73 
3857 2380.22 2375.62 2382.73 
3858 2377.24 2376.46 2382.73 
3859 2380.36 2293.21 2382.73 
3860 2377.73 2376.48 2382.73 
3861 2381.26 2290.36 2382.73 
3862 2380.60 2291.62 2382.73 
3863 2381.03 2380.06 2382.73 
3864 2376.54 2291.99 2382.73 
3865 2379.78 2290.89 2382.73 
3866 2381.22 2379.94 2382.73 
3867 2378.63 2379.32 2382.73 
3868 2379.71 2378.97 2382.73 
3869 2378.28 2291.08 2382.73 
3870 2379.68 2379.37 2382.73 
3871 2375.65 2290.30 2382.73 
3872 2382.36 2380.48 2382.73 
3873 2383.03 2294.23 2382.73 
3874 2378.82 2379.65 2383.03 
3875 2383.19 2380.09 2383.03 
3876 2381.68 2295.26 2383.19 
3877 2379.54 2378.76 2383.19 
3878 2382.78 2293.00 2383.19 
3879 2376.85 2291.59 2383.19 
3880 2379.06 2292.22 2383.19 
3881 2378.03 2292.54 2383.19 
3882 2378.54 2378.89 2383.19 
3883 2380.44 2378.20 2383.19 
3884 2381.14 2295.68 2383.19 
3885 2380.92 2290.74 2383.19 
3886 2380.20 2288.31 2383.19 
3887 2379.94 2289.49 2383.19 
3888 2383.27 2380.82 2383.19 
3889 2381.35 2380.16 2383.27 
3890 2383.07 2379.74 2383.27 
3891 2382.69 2378.91 2383.27 
3892 2380.24 2380.48 2383.27 
3893 2380.33 2379.50 2383.27 
3894 2382.26 2379.70 2383.27 
3895 2381.43 2379.70 2383.27 
3896 2380.38 2380.05 2383.27 
3897 2381.43 2382.24 2383.27 
3898 2380.05 2382.50 2383.27 
3899 2378.09 2383.70 2383.27 
3900 2384.11 2384.15 2383.27 
3901 2381.78 2383.57 2384.11 
3902 2385.08 2381.46 2384.11 
3903 2383.00 2381.85 2385.08 
3904 2384.10 2384.87 2385.08 
3905 2383.85 2384.90 2385.08 
3906 2383.63 2384.88 2385.08 
3907 2377.73 2383.34 2385.08 
3908 2379.20 2381.87 2385.08 
3909 2383.14 2380.74 2385.08 
3910 2383.76 2384.25 2385.08 
3911 2380.95 2383.68 2385.08 
3912 2384.80 2386.06 2385.08 
3913 2378.70 2386.10 2385.08 
3914 2382.12 2384.73 2385.08 
3915 2383.24 2383.76 2385.08 
3916 2380.03 2383.01 2385.08 
3917 2377.19 2382.44 2385.08 
3918 2381.48 2382.58 2385.08 
3919 2384.21 2384.53 2385.08 
3920 2379.80 2383.41 2385.08 
3921 2377.44 2383.90 2385.08 
3922 2382.64 2383.34 2385.08 
3923 2383.59 2383.31 2385.08 
3924 2381.37 2382.50 2385.08 
3925 2385.67 2383.23 2385.08 
3926 2382.23 2383.59 2385.67 
3927 2376.89 2385.56 2385.67 
3928 2375.42 2385.81 2385.67 
3929 2379.92 2386.49 2385.67 
3930 2378.79 2387.64 2385.67 
3931 2382.94 2387.33 2385.67 
3932 2381.39 2385.15 2385.67 
3933 2381.51 2387.27 2385.67 
3934 2381.57 2385.10 2385.67 
3935 2379.95 2382.09 2385.67 
3936 2380.66 2384.42 2385.67 
3937 2379.17 2384.94 2385.67 
3938 2381.09 2385.80 2385.67 
3939 2379.65 2385.67 2385.67 
3940 2383.93 2388.95 2385.67 
3941 2379.81 2389.43 2385.67 
3942 2384.77 2392.00 2385.67 
3943 2384.28 2390.97 2385.67 
3944 2384.10 2391.61 2385.67 
3945 2386.11 2390.41 2385.67 
3946 2384.73 2391.35 2386.11 
3947 2385.15 2391.94 2386.11 
3948 2382.98 2388.33 2386.11 
3949 2378.92 2389.29 2386.11 
3950 2384.67 2390.08 2386.11 
3951 2378.12 2389.48 2386.11 
3952 2386.78 2390.07 2386.11 
3953 2383.52 2389.50 2386.78 
3954 2385.44 2390.28 2386.78 
3955 2384.79 2389.60 2386.78 
3956 2383.04 2387.67 2386.78 
3957 2383.36 2390.11 2386.78 
3958 2381.23 2389.99 2386.78 
3959 2382.53 2389.98 2386.78 
3960 2384.83 2389.87 2386.78 
3961 2382.48 2390.43 2386.78 
3962 2383.34 2389.89 2386.78 
3963 2384.16 2388.01 2386.78 
3964 2381.43 2389.79 2386.78 
3965 2385.75 2390.00 2386.78 
3966 2383.35 2389.13 2386.78 
3967 2385.21 2389.61 2386.78 
3968 2384.39 2389.98 2386.78 
3969 2386.38 2390.66 2386.78 
3970 2387.00 2389.69 2386.78 
3971 2385.85 2390.70 2387.00 
3972 2383.79 2390.35 2387.00 
3973 2385.00 2390.91 2387.00 
3974 2385.66 2391.50 2387.00 
3975 2386.53 2391.63 2387.00 
3976 2385.61 2391.82 2387.00 
3977 2383.33 2390.48 2387.00 
3978 2386.00 2390.81 2387.00 
3979 2386.83 2391.58 2387.00 
3980 2385.10 2391.90 2387.00 
3981 2384.39 2389.50 2387.00 
3982 2386.70 2390.23 2387.00 
3983 2387.27 2391.03 2387.00 
3984 2383.01 2391.25 2387.27 
3985 2385.71 2391.77 2387.27 
3986 2388.00 2394.24 2387.27 
3987 2382.23 2394.63 2388.00 
3988 2386.50 2394.00 2388.00 
3989 2382.65 2392.96 2388.00 
3990 2387.04 2391.40 2388.00 
3991 2384.47 2391.35 2388.00 
3992 2385.57 2393.29 2388.00 
3993 2386.51 2391.19 2388.00 
3994 2384.31 2393.45 2388.00 
3995 2387.07 2393.70 2388.00 
3996 2381.91 2393.35 2388.00 
3997 2385.09 2393.65 2388.00 
3998 2386.84 2392.54 2388.00 
3999 2382.94 2392.59 2388.00 
4000 2384.19 2393.19 2388.00 
