iteration,time_sampling,stoc_pol_mean,stoc_pol_std,stoc_pol_max,stoc_pol_min,rollout_success,alpha,delta,time_vpg,time_npg,kl_dist,surr_improvement,running_score,rwd_sparse,rwd_dense,success_percentage,num_samples,time_VF,VF_error_before,VF_error_after,eval_score,eval_success
0,2.2521955966949463,-23.840961995967138,12.0248758944477,16.12133789952876,-66.67271916015474,0.0,3.1481591685172248,0.1,0.008960485458374023,0.19393038749694824,0.050135743,0.030249685,-23.840961995967138,-0.2248311540655532,-0.23298651250152622,0.0,9307,0.8247711658477783,1.0076175276546477,0.3561910109360128,-24.4097736090162,0.0
1,1.5903406143188477,-20.66283247471866,15.861263397436465,19.07868119267878,-65.3163727065808,0.0,3.7394896413565797,0.1,0.008604764938354492,0.18143796920776367,0.055175766,0.026343558,-23.52314904384229,-0.18504259944682352,-0.20169290986860947,0.0,9230,0.7851176261901855,0.5577950120791045,0.4365944049468216,-14.09897737983053,0.0
2,1.677485466003418,-9.213576541469823,25.457825462252927,204.63254470385414,-69.60523933027952,0.0,4.430202148589688,0.1,0.008899211883544922,0.2035813331604004,0.0441578,0.022944408,-22.092191793605046,-0.13274413528947293,-0.09203529248674626,0.0,9596,0.8526771068572998,0.974290347027651,0.864892937643463,-10.888407211714858,0.0
3,1.6697065830230713,-8.90586635839697,20.459487859743295,87.24574882253759,-63.31905392112485,0.0,3.6794931589567796,0.1,0.008866548538208008,0.19345617294311523,0.049918957,0.027656795,-20.77355925008424,-0.12885630508198237,-0.08896583026550536,0.0,9516,0.8682019710540771,0.8198244839314215,0.7954625890203066,-5.808340409411955,0.0
4,1.710134744644165,-10.263326261262591,14.425841445890178,86.49346106074228,-58.70359900220575,0.0,3.3248576923241084,0.1,0.008629322052001953,0.1866602897644043,0.046188235,0.027299233,-19.722535951202076,-0.1264247533263163,-0.10299422449341362,0.0,9544,0.9380803108215332,0.7604872392030052,0.7348881924060099,-18.34278442924694,0.0
5,1.7287473678588867,-8.060299316489832,13.72789046243757,71.77640169400792,-28.358626007456714,0.0,3.542719190483801,0.1,0.009065866470336914,0.18607831001281738,0.051452592,0.029243901,-18.55631228773085,-0.11302126946209605,-0.08052126946209605,0.0,9600,1.1503608226776123,0.8003589346878927,0.7823717864621129,-17.34119155749344,0.0
6,1.788651704788208,-7.596417715655676,13.888897073136013,92.36259575669507,-18.39868325296111,0.0,4.4802841371365805,0.1,0.008637428283691406,0.19080591201782227,0.055341847,0.023733756,-17.460322830523335,-0.10882181457649122,-0.07590514790982457,0.0,9600,1.200376033782959,0.8434043463920151,0.8197325753336201,-14.738382014986296,0.0
7,1.6890590190887451,-5.671067080375906,21.003211469526434,139.85750848842798,-18.74777345174628,0.0,4.155335583027453,0.1,0.009330034255981445,0.19335317611694336,0.053278934,0.0301366,-16.281397255508594,-0.10291643438766014,-0.056666434387660135,0.0,9600,1.2610011100769043,0.971372166182306,0.9506592192551017,-16.334287915600477,0.0
8,1.741933822631836,-5.196377756118437,21.067272608085254,140.46630647278144,-18.111162680294967,0.0,3.2872579526940915,0.1,0.009813070297241211,0.2147834300994873,0.055551626,0.03528506,-15.172895305569579,-0.1052498340900659,-0.052333167423399246,0.0,9600,1.286306619644165,0.9481953725814193,0.9292393134686594,-15.02321445192947,0.0
9,1.6829185485839844,-7.1363972344699365,12.70873762636071,59.19162897094496,-24.69307609946793,0.0,4.526220292964512,0.1,0.01003265380859375,0.19170904159545898,0.05520951,0.025412727,-14.369245498459614,-0.1083812057851005,-0.07129787245176716,0.0,9600,1.274765968322754,0.8078570166159078,0.772320098797609,-6.8597250966185355,0.0
10,1.6505475044250488,-0.820211966672907,42.77674781705176,272.76716190260083,-61.554604457455746,2.0833333333333335,3.975194658202844,0.1,0.008994817733764648,0.19055581092834473,0.05111702,0.024748916,-13.014342145280944,-0.10731889098693222,-0.0028968766904323615,2.0833333333333335,9496,1.291905164718628,0.9994731467313985,0.9673591814092218,-3.5181311043708736,0.0
11,1.6862094402313232,11.374894329480147,72.66825394602614,505.4494326789789,-56.12179125855452,5.208333333333333,4.126706353683704,0.1,0.008685588836669922,0.193253755569458,0.050688516,0.027960185,-10.575418497804836,-0.09770222089156196,0.11296371875287216,5.208333333333333,9532,1.3014891147613525,1.007298200821958,0.955287895664643,-5.303568039149229,0.0
12,1.8179841041564941,-5.519349106548841,22.10524527161939,144.73836013622386,-21.31608380828072,1.0416666666666667,4.303769059630336,0.1,0.008472442626953125,0.18381619453430176,0.054761615,0.025016863,-10.069811558679238,-0.10011611990111746,-0.05511611990111747,1.0416666666666667,9600,1.286806583404541,1.2705720220942194,0.9395214761955646,-7.341375904034306,0.0
13,1.7324509620666504,-5.719506350341798,15.579858318244554,84.89430732773143,-23.808642326914352,1.0416666666666667,3.4564862397069045,0.1,0.009061574935913086,0.18627238273620605,0.044811085,0.03859812,-9.634781037845494,-0.09962855197546427,-0.05712855197546429,1.0416666666666667,9600,1.2927963733673096,0.8555651564170568,0.8210275436612846,-7.027199542097097,0.0
14,1.7322380542755127,-3.019538182610933,19.240594171315486,85.49778060142421,-17.14033848420854,1.0416666666666667,3.4883372445691623,0.1,0.009085655212402344,0.18883705139160156,0.06134641,0.03407444,-8.973256752322039,-0.09222632133903419,-0.030142988005700866,1.0416666666666667,9600,1.337639331817627,0.9596037790617205,0.9275722914881163,-5.8785499407459225,0.0
15,1.7072505950927734,-3.0762595767219896,22.741500083029013,131.8130750848618,-16.361246873861134,1.0416666666666667,4.264268877531875,0.1,0.008519887924194336,0.1852583885192871,0.048927117,0.023228357,-8.383557034762035,-0.08989741056886445,-0.03156407723553111,1.0416666666666667,9600,1.311354637145996,0.9605637527700942,0.9442512520546663,-7.043576160858262,0.0
16,1.7140111923217773,0.4100875990638073,31.752676080373977,228.3003793146738,-16.50665065544607,2.0833333333333335,3.976468872678485,0.1,0.00957798957824707,0.19107985496520996,0.052648846,0.029366802,-7.50419257137945,-0.0862598294230351,0.004156837243631564,2.0833333333333335,9600,1.3257181644439697,0.9910524147435247,0.9779979657373342,-8.875322754665348,0.0
17,1.7016911506652832,-0.11782488292020792,31.07288997301881,168.7992218803075,-15.39806236640901,0.0,4.131042544213616,0.1,0.009031057357788086,0.18877840042114258,0.04392057,0.024464833,-6.765555802533527,-0.08238248418270956,-0.0011324841827095658,0.0,9600,1.3170933723449707,0.9820380298189829,0.9774264924993631,-3.83401307282145,0.0
18,1.9915392398834229,-0.4814624445394419,27.194941817854595,119.70526499826843,-14.169267318675205,1.0416666666666667,4.036763074159064,0.1,0.008408784866333008,0.18979430198669434,0.051246267,0.034635615,-6.1371464667341185,-0.08810117409986222,-0.005184507433195548,1.0416666666666667,9600,1.350431203842163,0.9577289333839394,0.9408569581514475,-7.579660442214861,0.0
19,1.9035062789916992,-1.4163971882894142,21.987084675325075,127.41218045249731,-15.918810404932852,0.0,4.252580195749371,0.1,0.013234615325927734,0.18699145317077637,0.050121624,0.02436573,-5.665071538889649,-0.0870346095010192,-0.014117942834352535,0.0,9600,1.311610221862793,0.945895084974524,0.9186257297272551,-7.37146895006184,0.0
20,1.6923820972442627,7.287314349405132,39.143920794445826,196.80764735788023,-25.07142780731614,1.0416666666666667,4.97203493593374,0.1,0.008944511413574219,0.1858539581298828,0.054562345,0.019761333,-4.369832950060172,-0.08833598142888055,0.07291401857111945,1.0416666666666667,9600,1.299156904220581,0.9496816795154399,0.8755655590846007,-7.194818148944334,0.0
21,1.7282657623291016,-3.3632585079016333,19.92719339500363,140.08613679649986,-15.77910028267866,0.0,3.8523283703913305,0.1,0.009421825408935547,0.19054961204528809,0.049654506,0.029644025,-4.269175505844318,-0.08401172373790715,-0.033595057071240476,0.0,9600,1.3424913883209229,1.1400254576480076,0.8977489958162257,-5.217993224283326,0.0
22,1.7274887561798096,0.8860533969718855,38.223693262774596,256.1233354185495,-20.71356892988653,3.125,3.999160405171596,0.1,0.008528470993041992,0.18344545364379883,0.0493646,0.029922249,-3.753652615562698,-0.08816277676271234,0.00892055657062097,3.125,9600,1.2768242359161377,0.9558282129332241,0.9358078500464707,-6.601572558113148,0.0
23,1.7479267120361328,2.537251017581729,34.09692624621989,200.79707513550338,-24.454867411451506,3.125,4.0174478418489405,0.1,0.008478403091430664,0.18941736221313477,0.05253717,0.028008949,-3.1245622522482552,-0.08707913501972131,0.02542086498027865,3.125,9600,1.2947840690612793,0.9151839513568027,0.8979438283830717,-6.6752033826753,0.0
24,1.734388828277588,3.457850649139042,40.62447491088561,301.25688986924337,-14.77875265591745,2.0833333333333335,4.365362917826487,0.1,0.008672237396240234,0.18723583221435547,0.054549783,0.025507975,-2.4663209621095254,-0.08161424700079532,0.03463575299920467,2.0833333333333335,9600,1.3027663230895996,0.9264257923038304,0.9106922694286215,-7.006813660124821,0.0
25,1.8472874164581299,-2.7684854195431896,23.38329613217254,164.32266504457695,-14.339571428619818,2.0833333333333335,3.777101728154681,0.1,0.009563207626342773,0.19698286056518555,0.049416557,0.028124183,-2.496537407852892,-0.08390301917755251,-0.028486352510885826,2.0833333333333335,9600,1.290895938873291,0.9668028062541713,0.8892137286971336,-2.2921797311951093,0.0
26,1.7202625274658203,7.1529896196578955,42.16944023981562,265.1118429843182,-14.258441231974636,3.125,3.9690216832540375,0.1,0.008656024932861328,0.18728947639465332,0.053398304,0.034534417,-1.5315847051018134,-0.07758597535766763,0.07158069130899902,3.125,9600,1.259005069732666,0.9344273752012862,0.8753082662372498,-4.6545577920001096,0.0
27,1.705819845199585,2.007231950524226,33.30192627581408,196.69196743955712,-13.82323752994922,2.0833333333333335,4.328440324337441,0.1,0.008814096450805664,0.19334101676940918,0.048183836,0.023675336,-1.1777030395392094,-0.07822663355636207,0.02010669977697127,2.0833333333333335,9600,1.2787408828735352,0.9562031795087108,0.9113475392267534,-1.1219142045113193,0.0
28,1.7270071506500244,4.826892361850201,50.4356601592771,328.9529038634137,-14.093824434840627,3.125,3.3889482685951107,0.1,0.008729696273803711,0.1875617504119873,0.044609442,0.035404738,-0.5772434994002684,-0.08293673632068489,0.04831326367931512,3.125,9600,1.2997195720672607,0.9273081439886722,0.8899250244521686,-4.563523162668693,6.25
29,1.706749439239502,1.2069187253725622,31.178998396450528,144.31908421024326,-17.548982198265538,1.0416666666666667,3.9125302174746692,0.1,0.008539676666259766,0.1849966049194336,0.049823653,0.029832082,-0.39882727692298536,-0.08205596379285106,0.011694036207148943,1.0416666666666667,9600,1.2986905574798584,0.869908830009273,0.8230710223246464,-6.184496572602878,0.0
30,1.718724012374878,1.1083248760579785,26.82351732646826,148.4916984472458,-15.1191713369164,0.0,3.8731260090103765,0.1,0.008980035781860352,0.18883252143859863,0.050921645,0.025599658,-0.24811206162488902,-0.07804519906870222,0.011121467597964452,0.0,9600,1.282731294631958,0.8419176329222663,0.8315421908659755,-6.62760139875277,0.0
31,1.7252755165100098,6.3359825542680435,41.51214606634882,216.56930346577164,-22.305383371437834,2.0833333333333335,3.644886055748288,0.1,0.009495735168457031,0.18355417251586914,0.053773243,0.026631052,0.41029739996440423,-0.08452242967356528,0.06339423699310139,2.0833333333333335,9600,1.293830394744873,0.8631318301858908,0.8126522553456992,-6.420227988999988,0.0
32,1.9368388652801514,20.276148236554867,63.49066587942122,312.92250130147403,-22.75821494423308,6.25,4.420782065926206,0.1,0.009211301803588867,0.18893814086914062,0.052816037,0.023976281,2.3968824836234504,-0.07929501697132192,0.2023716496953448,6.25,9600,1.2684967517852783,0.808296508737328,0.7182115074912166,-6.69198522505425,0.0
33,1.7459070682525635,1.6180542603274046,37.25776289781462,220.77273032752308,-19.155176593494065,1.0416666666666667,3.8319966191690997,0.1,0.008723974227905273,0.19119858741760254,0.04880712,0.028915333,2.3189996612938457,-0.08212192318460483,0.016211410148728494,1.0416666666666667,9600,1.2990972995758057,1.1220900396427982,0.8566257265340053,-7.431600902470856,0.0
34,1.717653751373291,3.6685285861249626,39.95328713616595,257.2687456484073,-23.38994918984923,1.0416666666666667,3.7859955084571792,0.1,0.008557796478271484,0.18541288375854492,0.04889719,0.030530352,2.4539525537769578,-0.08618919140014158,0.03672747526652508,1.0416666666666667,9600,1.31782865524292,0.8316244885066751,0.7815632372262461,-7.372297540628569,0.0
35,1.755540132522583,5.568643359613872,55.23098635035624,280.8489248167841,-14.67124578566202,3.125,4.038892429880032,0.1,0.008774042129516602,0.187941312789917,0.052624866,0.02701651,2.7654216343606493,-0.0842821263366756,0.054884540329991065,3.125,9600,1.3456361293792725,0.8479860787352483,0.8114448741725955,-7.90576109178647,0.0
36,1.7192738056182861,15.240161721469507,80.04141741951811,433.6839883708863,-27.382944691885534,5.208333333333333,4.974168365849439,0.1,0.008802175521850586,0.18606019020080566,0.049473725,0.020727325,4.012895643071535,-0.08877120875108273,0.15247879124891728,5.208333333333333,9600,1.3302087783813477,0.8302276410452175,0.76057653780749,-8.263830999388725,0.0
37,1.7032313346862793,1.9366990042423307,32.20999768211967,212.57846932671316,-24.409293186111093,0.0,3.987500552216785,0.1,0.008663415908813477,0.1865246295928955,0.048724256,0.025897847,3.805275979188615,-0.08185473572319264,0.019395264276807347,0.0,9600,1.308603048324585,1.1552070812904183,0.8209522960083986,-9.101189615910645,0.0
38,1.825568675994873,4.419835481114598,44.70682390978688,224.30543258642493,-56.03038245176234,5.208333333333333,4.576551489011015,0.1,0.009414911270141602,0.1836531162261963,0.046555698,0.025358392,3.8667319293812135,-0.09119030078845725,0.044261777340758875,5.208333333333333,9529,1.348771572113037,0.778272673657413,0.7265385326821638,-8.330706323556706,0.0
39,1.728147268295288,6.100443395862821,48.6897617646744,345.08098120491985,-28.644495308759147,4.166666666666667,3.6768847510456353,0.1,0.008314847946166992,0.18448233604431152,0.04928231,0.029328085,4.090103076029375,-0.09853036183817614,0.06105297149515725,4.166666666666667,9600,1.3488483428955078,0.8251216540564745,0.784651615085966,-8.93467352357661,0.0
40,1.7233319282531738,12.35280414011765,49.035360225149546,264.220904376619,-24.054071492448145,5.208333333333333,5.574395994247461,0.1,0.008371353149414062,0.1900312900543213,0.048727494,0.0216437,4.916373182438202,-0.07933747567382067,0.12357919099284596,5.208333333333333,9600,1.3216962814331055,0.7936824272094485,0.7455086843110043,-10.941896051383011,0.0
41,1.7455003261566162,-1.5058147969891664,32.679351355407846,231.18971636686445,-28.789887610120058,1.0416666666666667,3.588128841948233,0.1,0.008418083190917969,0.19225215911865234,0.051622696,0.02824646,4.274154384495465,-0.09832569709120087,-0.014992363757867532,1.0416666666666667,9600,1.348414421081543,1.0604805129108144,0.8060219725783574,-9.97754718623948,0.0
42,1.720191478729248,6.380675509090499,45.995625317319096,304.9333767498367,-25.310632036987965,2.0833333333333335,4.015199069464084,0.1,0.008318185806274414,0.17742180824279785,0.046420593,0.037488014,4.484806496954969,-0.09486197185432044,0.06388802814567955,2.0833333333333335,9600,1.334907054901123,0.7966961148758247,0.7164337746880399,-10.609980563084822,0.0
43,1.7428245544433594,2.2325053439407143,34.70705609234949,167.00536413657073,-26.012518251797758,3.125,4.954557650380476,0.1,0.009397268295288086,0.19243574142456055,0.047264062,0.023988513,4.2595763816535435,-0.08762885153979905,0.022371148460200954,3.125,9600,1.3154284954071045,0.7846732789309565,0.7064302618810481,-8.532907114483443,0.0
44,1.7423853874206543,2.8010863849613643,35.76541541040087,176.15683073408377,-23.501049185347764,3.125,4.400201762635488,0.1,0.00884699821472168,0.18796062469482422,0.047014616,0.02649624,4.113727381984326,-0.08569801335198086,0.02805198664801915,3.125,9600,1.370387077331543,0.7589759565070707,0.6787479534487901,-8.031585848623749,0.0
45,1.9423162937164307,-1.839441543235376,23.074370275998835,128.34025483762403,-30.094617035122496,0.0,3.5356776815539446,0.1,0.00847482681274414,0.1890397071838379,0.053416304,0.02853028,3.5184104894623554,-0.09418323619951911,-0.01834990286618578,0.0,9600,1.3370387554168701,0.8480026036979545,0.6715824055172492,-9.70805063800946,0.0
46,1.7253618240356445,0.0027588322624133945,32.18213787338089,180.49522772497377,-24.839809715529874,1.0416666666666667,4.907900325626611,0.1,0.008590936660766602,0.18768644332885742,0.050970193,0.024661284,3.1668453237423613,-0.09240990279862764,-0.00032656946529427644,1.0416666666666667,9600,1.2972118854522705,0.8486201772411365,0.7283824498249961,-10.92125965317848,0.0
47,1.7117211818695068,3.7823324765398554,38.809825126949946,293.0843373488336,-30.085332698992097,1.0416666666666667,4.909102784181147,0.1,0.008243322372436523,0.17563462257385254,0.046583056,0.021083318,3.2283940390221106,-0.09043677161524748,0.03789656171808584,1.0416666666666667,9600,1.280454158782959,0.8279296536744521,0.6949315180062775,-12.01569875253428,0.0
48,1.8076825141906738,20.001423931003046,60.32474987553621,229.0655245313015,-20.2113335598975,6.25,4.324009251046663,0.1,0.008901596069335938,0.1996622085571289,0.053254306,0.025279462,4.905697028220205,-0.07993766368419165,0.19964566964914168,6.25,9600,1.3236405849456787,0.6628965970544792,0.5625379371009872,-8.825885395815984,0.0
49,1.7517845630645752,9.163041493988182,52.594494202353935,353.31066027494666,-18.01698907514231,3.125,3.6619510884744044,0.1,0.009647607803344727,0.190779447555542,0.050271276,0.02955773,5.331431474797003,-0.08666416389484953,0.09083583610515045,3.125,9600,1.3197989463806152,0.7433558989619536,0.6522963229539734,-8.348187306929788,0.0
50,1.7290492057800293,-1.2484146244901007,29.50384382929184,208.7739814937272,-24.367385964070117,0.0,3.7117901447407258,0.1,0.00916147232055664,0.18294191360473633,0.048567705,0.024519475,4.673446864868293,-0.08909490217915005,-0.012428235512483392,0.0,9600,1.2692697048187256,1.0439252243074135,0.7467281149260109,-12.922236500724644,0.0
51,1.9253439903259277,6.416451929977182,42.98382290409543,236.6297478588161,-15.008894916042081,1.0416666666666667,4.370725137309688,0.1,0.008757591247558594,0.19833683967590332,0.052394472,0.025233623,4.847747371379182,-0.0820469125169001,0.06420308748309987,1.0416666666666667,9600,1.2933037281036377,0.7363677952588614,0.6471741797177835,-8.173380792052377,0.0
52,1.7312684059143066,9.211035931778378,42.29017907598279,192.39046688265717,-14.27980887888894,2.0833333333333335,4.477397341802908,0.1,0.007620096206665039,0.1848440170288086,0.050786443,0.022255465,5.284076227419102,-0.07619580859242135,0.09213752474091197,2.0833333333333335,9600,1.3071393966674805,0.6303515616462296,0.5924550940193346,-8.447190345253297,0.0
53,1.7483253479003906,9.497981468394434,65.50666148898462,437.223374399953,-28.097616376412144,6.25,6.02278000960902,0.1,0.0093994140625,0.18985247611999512,0.047055647,0.017293232,5.705466751516635,-0.08784365759645314,0.09507300907021353,6.25,9600,1.294804334640503,0.7451589096780706,0.6740142347879183,-9.54668774857541,0.0
54,1.741868495941162,9.536276407871428,69.21259122649079,396.9534117452224,-27.665911754088437,3.125,3.960375565080925,0.1,0.009150981903076172,0.19206929206848145,0.051847316,0.02900325,6.088547717152114,-0.09001535873848691,0.09540130792817976,3.125,9600,1.281787395477295,0.7246732550511445,0.6583325595396552,-12.000314338849075,0.0
55,1.7322816848754883,10.192688565525279,60.02604392531409,389.23788572723606,-25.887360891541334,1.0416666666666667,4.453775829221986,0.1,0.008806228637695312,0.18575334548950195,0.050056275,0.021698209,6.498961801989431,-0.08513418020857964,0.10069915312475371,1.0416666666666667,9600,1.291541576385498,0.7385681986271756,0.6992334666472385,-11.311623358655858,0.0
56,1.731417179107666,7.100537740260877,56.5834886636379,385.22567474559975,-13.405722789455238,4.166666666666667,5.054151220082853,0.1,0.008402347564697266,0.18670368194580078,0.048964944,0.021791497,6.559119395816576,-0.07938508155143147,0.07019825178190191,4.166666666666667,9600,1.2745819091796875,0.716377753516123,0.6724454763300541,-13.130861085940571,0.0
57,1.8312559127807617,9.16645299450946,62.7386806719094,505.75496701032813,-15.180437355790952,2.0833333333333335,4.90390143168957,0.1,0.008370161056518555,0.1857621669769287,0.048086204,0.021807747,6.819852755685864,-0.07955308507741217,0.09169691492258786,2.0833333333333335,9600,1.2606489658355713,0.7225390529460234,0.6885466121349044,-10.902770376235694,0.0
58,1.736487627029419,8.5518982379466,53.35246315619395,312.60081825349056,-24.099210217140755,2.0833333333333335,4.528613900582883,0.1,0.008559465408325195,0.18470549583435059,0.054656036,0.022683633,6.993057303911938,-0.08152122557888375,0.0855621077544496,2.0833333333333335,9600,1.299004077911377,0.6544515164238557,0.5541166581389368,-12.606137647082708,0.0
59,1.7265021800994873,7.116553343285825,45.569732880330385,244.21906382000776,-15.790078067068023,1.0416666666666667,4.398699743514668,0.1,0.008588314056396484,0.18500733375549316,0.056657046,0.023921277,7.005406907849327,-0.08087170734194922,0.07121162599138414,1.0416666666666667,9600,1.267354965209961,0.6082649275731803,0.5789312320679074,-8.275384623341548,0.0
60,1.7169089317321777,1.2287579386142515,50.05051120364581,373.21950317190715,-19.930838929364118,2.0833333333333335,4.381933385697594,0.1,0.008461952209472656,0.1943211555480957,0.048180837,0.024671342,6.42774201092582,-0.0885235602821951,0.011893106384471564,2.0833333333333335,9600,1.2487492561340332,0.747150318075166,0.6947355130435595,6.404810709257597,0.0
61,1.731109380722046,11.733134030269788,70.00076672787743,373.4798780847933,-23.843764374924838,3.125,4.477567048026833,0.1,0.008257627487182617,0.17522048950195312,0.048053037,0.0220092,6.958281212860217,-0.08884703453462002,0.11740296546537998,3.125,9600,1.2554619312286377,0.711576369977809,0.6334773503502883,18.366663663621022,0.0
62,1.7396667003631592,7.377976892677329,53.50798773333887,313.21958364635447,-19.490005064021734,0.0,4.158955704029237,0.1,0.009125471115112305,0.18790316581726074,0.05093291,0.021773234,7.000250780841928,-0.08741299058215934,0.0738370094178407,0.0,9600,1.261263132095337,0.6405591387154608,0.5698004321841689,14.258671711140433,0.0
63,1.7332732677459717,1.614938879500773,47.753515790599266,369.1779153577218,-18.8328122898394,3.125,4.314190958928534,0.1,0.008540868759155273,0.18753933906555176,0.04578703,0.0245969,6.461719590707813,-0.0842331183723178,0.016183548294348874,3.125,9600,1.23931884765625,0.7326568044828701,0.6902487231697301,17.754351208456725,0.0
64,1.9376749992370605,11.159234028023567,63.77713909371002,461.8785913003973,-18.552187533682336,3.125,4.582186460585506,0.1,0.008481979370117188,0.1847820281982422,0.049703203,0.025197404,6.931471034439388,-0.07751205794182603,0.11165460872484063,3.125,9600,1.248556137084961,0.6435408689791057,0.5863458844678049,9.735557113681145,0.0
65,1.7737228870391846,10.653568896314706,60.30660658093841,373.49046667726,-20.455333578755194,2.0833333333333335,4.0428750695050955,0.1,0.008708477020263672,0.18892335891723633,0.05020472,0.024563927,7.303680820626921,-0.0859300443374152,0.10656995566258481,2.0833333333333335,9600,1.244035243988037,0.6312944837416757,0.6001030764834818,0.16819507636811348,0.0
66,1.7282989025115967,18.575255674781314,66.73100458978084,328.90330630988785,-20.532216583163947,3.125,4.036694461087491,0.1,0.00875401496887207,0.18591737747192383,0.04426336,0.025398472,8.43083830604236,-0.07878481236316023,0.1857985209701731,3.125,9600,1.2227370738983154,0.543610535297917,0.5009240839851429,-4.09482483450379,0.0
67,1.6997125148773193,15.227641558298378,71.01326934329366,389.65954626412673,-18.867611620478087,4.166666666666667,4.9199149227424845,0.1,0.009030580520629883,0.18586206436157227,0.053079642,0.022071226,9.110518631267963,-0.0835290802314221,0.15188758643524453,4.166666666666667,9600,1.253401279449463,0.5526061620111391,0.4947189919147514,-5.221580057748021,0.0
68,1.8753063678741455,14.091279262178418,74.41671118834932,361.5173808305978,-17.249926267553672,4.166666666666667,3.9391399112309275,0.1,0.008050918579101562,0.18605351448059082,0.04949851,0.023918543,9.60859469435901,-0.08237508768992012,0.1405415789767465,4.166666666666667,9600,1.2674586772918701,0.5697516534429912,0.4841566251259893,-5.8274293035030125,0.0
69,1.7144508361816406,-0.8402321487624603,28.62733140265891,204.4934549092295,-15.501021174759051,0.0,3.922066419091313,0.1,0.008321523666381836,0.18247175216674805,0.051778246,0.026106315,8.563712010046862,-0.08211581573361212,-0.00878248240027881,0.0,9600,1.2650985717773438,2.065468111199185,0.6028824699807395,-7.241637559663677,0.0
70,1.808361291885376,6.83970571590498,41.63527510822304,204.4154962402468,-19.173078010188476,3.125,4.198907569632349,0.1,0.00847482681274414,0.19096064567565918,0.05008657,0.025181128,8.391311380632674,-0.08154174066318164,0.06804159267015171,3.125,9600,1.2605855464935303,0.7395616804605586,0.6148908569879845,-7.768418413470649,0.0
71,1.7385170459747314,1.5139772057585859,32.77262438672476,184.70118790143601,-19.15340506063023,1.0416666666666667,3.25978110255488,0.1,0.008706808090209961,0.18664979934692383,0.047699567,0.03269154,7.703577963145265,-0.08398675586794918,0.015179910798717508,1.0416666666666667,9600,1.2617955207824707,0.755180889274926,0.5577379129278496,-6.501973807836139,0.0
72,1.7270708084106445,0.29084196110442706,34.48820563461979,228.56946381406965,-20.566361682065086,1.0416666666666667,4.070225186377443,0.1,0.008930683135986328,0.19377398490905762,0.052150294,0.025906093,6.962304362941182,-0.09037273148994074,0.002960601843392606,1.0416666666666667,9600,1.2812273502349854,0.6703140224996015,0.5122943997178467,-7.5868178059429345,0.0
73,1.7294001579284668,16.962091210725404,65.53493758576724,297.3790486866819,-22.208030736118175,7.291666666666667,4.230547783311299,0.1,0.008649110794067383,0.17589068412780762,0.048521962,0.032002393,7.962283047719604,-0.08242797896778344,0.1692386876988832,7.291666666666667,9600,1.2431302070617676,0.578953936960753,0.4797777326112473,-8.7806019680776,0.0
74,1.7248070240020752,14.27643556370971,72.14413747169861,517.6954768312503,-22.5101416311317,3.125,4.5340402336982155,0.1,0.008520364761352539,0.18714594841003418,0.0528275,0.02283872,8.593698299318614,-0.08344156111317846,0.14239177222015487,3.125,9600,1.214859962463379,0.6308109045207089,0.49751693897440613,-8.549198801367822,0.0
75,1.7351219654083252,11.072739443742622,77.08789713459899,610.0665597737369,-19.39732588420358,4.166666666666667,3.3724954980066206,0.1,0.008742809295654297,0.1866006851196289,0.04636427,0.038089138,8.841602413761015,-0.08670797713520113,0.11079202286479888,4.166666666666667,9600,1.263716220855713,0.5698453812905325,0.5107795055912747,-3.1338080470387375,0.0
76,1.7392299175262451,11.998083092588494,48.53901201546628,224.73877075956761,-21.363287398692993,5.208333333333333,3.5942908873311232,0.1,0.00850057601928711,0.18564295768737793,0.049605936,0.028777383,9.157250481643763,-0.07998430802508526,0.12001569197491474,5.208333333333333,9600,1.2575976848602295,1.0036474453339763,0.5326424599433743,-6.4834637537332895,0.0
77,1.9055893421173096,15.867017528926382,75.8071001135676,425.8010754340813,-22.485097689284174,5.208333333333333,4.250566489921282,0.1,0.008800745010375977,0.18768739700317383,0.051990774,0.025154203,9.828227186372025,-0.09253685980167731,0.1587131401983227,5.208333333333333,9600,1.2685749530792236,0.5998158181454329,0.5309114222396807,-7.414480456357408,0.0
78,1.7217895984649658,12.268501149386394,66.46608944151461,381.3008577806936,-22.385407610177296,3.125,3.7351732155687856,0.1,0.009380578994750977,0.19269490242004395,0.05365592,0.02850442,10.072254582673462,-0.0864175172953271,0.12274914937133957,3.125,9600,1.26202392578125,0.6052167010164853,0.5498751732525631,-9.194804362725145,0.0
79,1.7098901271820068,8.934403772109777,51.77626173103176,329.1292594259952,-20.233622169457437,3.125,3.4284040417936064,0.1,0.008824586868286133,0.18668794631958008,0.05141328,0.03357717,9.958469501617094,-0.08520167126998224,0.08896499539668441,3.125,9600,1.2430078983306885,0.5804786264543628,0.46819941679866395,-4.822154562903109,0.0
80,1.7254786491394043,0.31050528147358075,41.95613148854054,329.4388572052977,-20.909326214936875,1.0416666666666667,3.4409506729443433,0.1,0.008639335632324219,0.18647313117980957,0.04652617,0.029002348,8.993673079602742,-0.09100720897132036,0.003159457695346299,1.0416666666666667,9600,1.2416090965270996,0.8830669034622505,0.6679489552438144,-2.009157189954319,0.0
81,1.7348992824554443,2.2804117581918253,41.60885086424749,336.823695282796,-18.363395247855944,1.0416666666666667,5.1068536194067224,0.1,0.00857996940612793,0.19473481178283691,0.053590063,0.020055229,8.32234694746165,-0.08589767620636718,0.022852323793632806,1.0416666666666667,9600,1.248032808303833,0.7472431728055842,0.5625086763052111,-3.940685200835472,0.0
82,1.7160892486572266,4.494891545195334,38.62293725418091,235.06776964737978,-16.313186430493445,1.0416666666666667,3.7547975368419686,0.1,0.008461475372314453,0.1851062774658203,0.05037789,0.024737803,7.939601407235019,-0.08500941720343601,0.04415724946323064,1.0416666666666667,9600,1.265092134475708,0.7026047523399498,0.4554527354527506,-6.867569416298291,0.0
83,1.8297524452209473,5.077095096872884,48.76539022945635,240.78207971380309,-25.748015455026763,1.0416666666666667,4.5010772443708476,0.1,0.008962869644165039,0.18788433074951172,0.05037198,0.02222043,7.653350776198805,-0.09459846100613227,0.05081820566053438,1.0416666666666667,9600,1.264436960220337,0.573664558323842,0.48020430274196374,-2.9189345166054967,0.0
84,1.7252914905548096,20.20863511017983,88.99391705858184,521.9055381730966,-20.58918768454165,6.25,4.283937123973717,0.1,0.008604049682617188,0.18456411361694336,0.05110932,0.022011226,8.908879209596908,-0.08908727708186219,0.20216272291813783,6.25,9600,1.2786920070648193,0.5696011821170464,0.492314683591653,-2.9096113243645507,0.0
85,1.7294621467590332,4.3031519840443435,49.93870083229591,329.26226610457684,-23.19931604440177,1.0416666666666667,5.038516068347205,0.1,0.009334087371826172,0.18918466567993164,0.050255794,0.02049413,8.448306487041652,-0.09274011448445951,0.04309321884887385,1.0416666666666667,9600,1.2703402042388916,0.7114021689198413,0.5311819963264903,-4.199324625590192,0.0
86,1.771864652633667,12.197278099182528,63.78875372177009,373.5834010263794,-24.186259671542995,3.125,4.682868429809176,0.1,0.00876307487487793,0.1887834072113037,0.05140089,0.021366015,8.82320364825574,-0.09381635969588009,0.1216003069707866,3.125,9600,1.3129675388336182,0.4524414443915759,0.38772061285194936,-2.3340225499021194,0.0
87,1.718975305557251,24.618747345087826,82.12141650871354,441.78287892998316,-26.37990893071989,5.208333333333333,4.9023990837737434,0.1,0.008630752563476562,0.18758726119995117,0.05135027,0.021231418,10.402758017938948,-0.08791945481409752,0.2454138785192358,5.208333333333333,9600,1.2527060508728027,0.5239592256177609,0.4621681936354561,-4.618430765984848,0.0
88,1.726820945739746,16.449947011427582,73.40343144077049,449.38571224169914,-21.902772124460462,3.125,3.8510512847373004,0.1,0.008743047714233398,0.19187259674072266,0.047536056,0.02713092,11.007476917287812,-0.08878672674142533,0.164546606591908,3.125,9600,1.2750284671783447,0.49593854158086725,0.4310381365067987,12.60165672689605,0.0
89,1.7294509410858154,16.428631808760517,80.73787644598521,425.4947752945579,-22.39396429412831,3.125,4.543814130120193,0.1,0.008667230606079102,0.18812966346740723,0.05205543,0.021804849,11.549592406435083,-0.0906808338731222,0.1643191661268778,3.125,9600,1.2991352081298828,0.5352943918571528,0.4501477525383729,7.528477217168097,0.0
90,1.825143575668335,19.259700773502235,82.37120019656699,485.71773601318387,-23.38062607599115,5.208333333333333,4.216599473647898,0.1,0.008555412292480469,0.18535447120666504,0.04988551,0.027141826,12.320603243141798,-0.08445090687147098,0.1922157597951957,5.208333333333333,9600,1.2844128608703613,0.540373601516574,0.4916780288284623,7.084393997602672,0.0
91,1.7601449489593506,13.357264571187917,68.33609054366104,401.39211817691023,-21.610357889349437,2.0833333333333335,4.030305986397048,0.1,0.008786439895629883,0.18814349174499512,0.049793046,0.026366604,12.42426937594641,-0.08639213529452495,0.13360786470547503,2.0833333333333335,9600,1.2793302536010742,0.575264170370785,0.514036232889458,18.268472142204967,0.0
92,1.73561429977417,23.55722743734982,85.05479818105952,449.4400188275371,-21.410014414155025,6.25,4.586589126948227,0.1,0.00846552848815918,0.18627619743347168,0.050224703,0.022039441,13.537565182086752,-0.08103171276657951,0.23563495390008715,6.25,9600,1.2685303688049316,0.5173561848123182,0.41289625384723455,26.93467611160567,6.25
93,1.7386596202850342,18.154406278260495,75.1434352189195,429.44606283667963,-25.11780802564374,4.166666666666667,4.469482347437938,0.1,0.008411407470703125,0.19011998176574707,0.048302624,0.02216713,13.999249291704126,-0.07964686134040368,0.1816031386595963,4.166666666666667,9600,1.2906811237335205,0.5558289059565791,0.4349992776351469,0.0756925602848546,0.0
94,1.7164990901947021,8.942061014040338,51.44485252565741,281.23407838973236,-23.71362568181696,3.125,3.8688479275887264,0.1,0.00858449935913086,0.18701791763305664,0.04944859,0.025257695,13.493530463937748,-0.0871814112942554,0.0894852553724113,3.125,9600,1.2681481838226318,0.6082528421877628,0.449908243058733,-3.330232813603338,0.0
95,1.727790355682373,11.205579520702152,63.869565796780385,397.1002036721106,-27.662324193086754,3.125,3.9821252646008163,0.1,0.008914709091186523,0.1856060028076172,0.052448023,0.024361625,13.264735369614188,-0.09163548382226276,0.11169784951107055,3.125,9600,1.281264305114746,0.4983632807377011,0.47767447964693105,9.880793196027295,6.25
96,1.8027231693267822,17.212490371112196,65.12174483480423,357.2781244363754,-26.530461864986684,3.125,4.030823566567738,0.1,0.008839130401611328,0.18815374374389648,0.049471047,0.02596116,13.659510869763988,-0.07534204529758111,0.17174128803575225,3.125,9600,1.2868468761444092,0.5562865804126956,0.4090529561307807,31.68171903722521,6.25
97,1.7857646942138672,8.51690491128045,56.68602886451545,365.638852548283,-22.10920378682956,2.0833333333333335,4.718880601972543,0.1,0.00877833366394043,0.1955888271331787,0.04749054,0.018815989,13.145250273915634,-0.088951151767957,0.08521551489870965,2.0833333333333335,9600,1.2973990440368652,0.7083364425063595,0.5839504794317805,15.54688688806229,0.0
98,1.7534816265106201,8.227025625260062,57.36889827442209,325.4079311624023,-22.792813315731408,3.125,4.191131260551264,0.1,0.008661746978759766,0.18488240242004395,0.047920346,0.024998477,12.653427809050077,-0.08599713291896016,0.08233620041437317,3.125,9600,1.2698018550872803,0.5637075090083999,0.44779702622384593,3.664325949893448,6.25
99,1.7413787841796875,13.654902006996641,58.10690154898259,273.06901663434917,-26.463007948915532,3.125,4.0553009731770615,0.1,0.008551836013793945,0.18913507461547852,0.049652305,0.026722876,12.753575228844735,-0.08257972193289118,0.13575361140044218,3.125,9600,1.2804200649261475,0.45179403597434353,0.36845649525872914,13.139512540006105,6.25
100,1.7628192901611328,23.102042099452806,76.63172749576965,325.3387677174241,-23.193480247554273,5.208333333333333,4.271501441793235,0.1,0.008684873580932617,0.18568778038024902,0.052785058,0.024027335,13.788421915905543,-0.07978000748969877,0.23105332584363458,5.208333333333333,9600,1.2936460971832275,0.3964040842284741,0.33786568102367254,11.080200450756706,6.25
101,1.871851921081543,3.9054256047697162,38.4505356625941,220.77243361075622,-22.981127294076646,2.0833333333333335,4.092695682783814,0.1,0.009022712707519531,0.19114136695861816,0.05302699,0.024320029,12.80012228479196,-0.08755756350881345,0.03910910315785322,2.0833333333333335,9600,1.3111660480499268,0.9808017583091445,0.368316120945996,25.73698969267509,6.25
102,1.8703770637512207,1.3133914519450678,25.242888028030446,112.35246255976122,-22.66497173933925,0.0,3.8943052823170468,0.1,0.008774995803833008,0.19524645805358887,0.048972033,0.025520135,11.651449201507273,-0.08348008145729485,0.013186585209371817,0.0,9600,1.3132517337799072,0.8378892919143707,0.3438270484850562,24.289592592282553,6.25
103,1.7674870491027832,8.934677365416633,49.55740827804288,260.8456345975585,-25.778511789352414,2.0833333333333335,4.732453775930533,0.1,0.008688688278198242,0.20338129997253418,0.04951296,0.02250837,11.379772017898208,-0.08477831763774263,0.08938834902892405,2.0833333333333335,9600,1.3128340244293213,0.5073592887524222,0.3807920762559488,10.32434725670323,0.0
104,1.7247416973114014,4.611187348735399,37.69311112945604,281.11550198865774,-21.771401698256938,1.0416666666666667,3.963514806156912,0.1,0.008966684341430664,0.19103598594665527,0.047933273,0.028694827,10.702913550981929,-0.08842094446460085,0.04616238886873251,1.0416666666666667,9600,1.315826177597046,0.6365877773970774,0.478438068097083,17.178548460542107,6.25
105,1.7307698726654053,23.464874398980783,81.64253918876972,477.9109259658588,-22.287302733304617,5.208333333333333,4.2533363871455965,0.1,0.008961915969848633,0.20107173919677734,0.04919374,0.024745923,11.979109635781816,-0.07821667862003613,0.23469998804663061,5.208333333333333,9600,1.2797927856445312,0.6264612377116027,0.4803275823539858,44.43673112048596,6.25
106,1.7015502452850342,10.113788155777106,53.97394562317796,261.02844248412276,-19.814048691577124,2.0833333333333335,4.189102222528926,0.1,0.008692264556884766,0.19638872146606445,0.04974057,0.024688661,11.792577487781346,-0.08545966826132766,0.10120699840533902,2.0833333333333335,9600,1.2272930145263672,0.43686104450148044,0.3693189196843489,49.11739085514076,12.5
107,1.7201130390167236,11.753974897566367,63.850275178737135,341.23998345306615,-22.18791094994283,2.0833333333333335,4.596014155005841,0.1,0.008977890014648438,0.19378256797790527,0.051444873,0.02716802,11.788717228759849,-0.08407017686770125,0.1175964897989654,2.0833333333333335,9600,1.226447343826294,0.47572892509823456,0.41051073420028844,25.476583937224042,6.25
108,1.8228471279144287,5.398331314632936,49.06637712437932,285.474140373969,-20.69686983388665,2.0833333333333335,3.9023796707574454,0.1,0.009196043014526367,0.19218087196350098,0.048593212,0.028635386,11.149678637347158,-0.08303159545451415,0.05405173787881921,2.0833333333333335,9600,1.2755143642425537,0.610448393684578,0.4271386510384663,38.20972414499975,6.25
109,1.9132931232452393,10.446551669669226,58.988357952286066,333.5633836102346,-25.66036204854164,4.166666666666667,4.195267822131269,0.1,0.008365869522094727,0.18905162811279297,0.049055245,0.027015803,11.079365940579365,-0.09343360735917755,0.10406639264082246,4.166666666666667,9600,1.2784035205841064,0.4083402836512004,0.31880572930746554,28.322333375369027,6.25
110,1.728386640548706,22.693985215261893,86.0577095033069,497.6764300617263,-22.528403947665996,5.208333333333333,4.089118819248889,0.1,0.008646011352539062,0.18792033195495605,0.055242825,0.025959907,12.240827868047619,-0.08635338759933953,0.22697994573399385,5.208333333333333,9600,1.234043836593628,0.5614847623232296,0.4266633620631078,27.451733385623733,6.25
111,1.7211620807647705,11.644098105465877,54.29627708735878,256.9626096507219,-20.719143720401078,4.166666666666667,3.973790608215616,0.1,0.008925914764404297,0.19786977767944336,0.053715564,0.026411312,12.181154891789445,-0.07935361360994538,0.11647971972338796,4.166666666666667,9600,1.2194702625274658,0.540594608674236,0.34259690111694224,20.84691307822967,0.0
112,1.7549707889556885,26.319793114077594,84.95375401313794,385.77057889349834,-26.599079258884135,8.333333333333334,4.600817553411555,0.1,0.009019136428833008,0.19130539894104004,0.04950658,0.02239872,13.595018714018261,-0.07882312739725159,0.2632602059360817,8.333333333333334,9600,1.2192974090576172,0.4696530492990725,0.33531607843238986,30.49376085062847,6.25
113,1.7376048564910889,18.549790663598397,72.9036241690178,381.7788990001204,-27.861632234145308,5.208333333333333,3.7819922282892144,0.1,0.00861215591430664,0.19597840309143066,0.04993262,0.027134,14.090495908976276,-0.09364803272643774,0.18468530060689559,5.208333333333333,9600,1.1941821575164795,0.48377149614715975,0.346635663524467,23.441394788606388,12.5
114,1.7374546527862549,13.475641374038503,75.02223850820045,429.4504328189018,-24.7488857162183,5.208333333333333,4.239944985649829,0.1,0.008470535278320312,0.18357205390930176,0.049298074,0.023730293,14.0290104554825,-0.09018820740238359,0.13481179259761641,5.208333333333333,9600,1.2373199462890625,0.46500067811212514,0.4462484745724838,13.295821113441782,6.25
115,1.8274822235107422,10.799844410686363,47.087839922873584,237.1521503768069,-25.919662170115142,1.0416666666666667,3.6789944062435485,0.1,0.008366107940673828,0.18808388710021973,0.04947083,0.026355352,13.706093851002887,-0.0973327072647624,0.10808395940190425,1.0416666666666667,9600,1.2457714080810547,0.5519377903256827,0.32286139003806896,13.42351736056048,6.25
116,1.7309815883636475,6.217304570461047,60.4505285594352,377.1552670565272,-27.43664926553668,3.125,3.3540623913692884,0.1,0.00873112678527832,0.19174671173095703,0.047344994,0.027603088,12.957214922948705,-0.10693582359763291,0.06223084306903375,3.125,9600,1.2384283542633057,0.5424964499336008,0.36329096328429106,23.869064808132514,6.25
117,1.731579303741455,23.418979251860907,80.55283826240466,429.3046754263019,-23.666733499421056,3.125,4.087970552226337,0.1,0.00845789909362793,0.18810725212097168,0.04791948,0.023689598,14.003391355839925,-0.09160719131090263,0.23422614202243067,3.125,9600,1.2119367122650146,0.4591111408450746,0.4120397373485908,29.43530499556828,6.25
118,1.724212408065796,10.49700039585552,58.71008617733621,265.13068211224476,-23.733577717950883,2.0833333333333335,3.6062364954497106,0.1,0.008656501770019531,0.19331812858581543,0.04969,0.025363756,13.652752259841485,-0.09456998402171624,0.10501334931161706,2.0833333333333335,9600,1.2381083965301514,0.4834895000709198,0.32957848844959775,32.06065507886305,6.25
119,1.7314410209655762,10.66184588381473,51.67422967690464,301.2297390503483,-22.495846063328194,5.208333333333333,3.5947442928868147,0.1,0.008719444274902344,0.19564008712768555,0.050779223,0.026933687,13.35366162223881,-0.08169968459362538,0.105383648739708,5.208333333333333,9600,1.2677946090698242,0.6928087637429695,0.42426736311814717,26.77607550758367,6.25
120,1.7206454277038574,13.337363078202193,61.586226135981576,421.6967405546642,-24.94851042831009,3.125,4.557226900896226,0.1,0.008667707443237305,0.1893150806427002,0.05028928,0.018651498,13.352031767835149,-0.08824623224399537,0.13342043442267124,3.125,9600,1.2312910556793213,0.4520883896825025,0.3628724724710193,24.832274883559528,12.5
121,1.7309322357177734,15.664975358217399,73.0531997501428,417.64731343585225,-18.068853396212962,4.166666666666667,4.01781731659352,0.1,0.008808135986328125,0.1960287094116211,0.043867256,0.02824258,13.583326126873374,-0.08328541841452079,0.15671458158547918,4.166666666666667,9600,1.242591142654419,0.44321923586110984,0.30788477374022216,17.000118501981884,6.25
122,1.9056580066680908,39.166292181510634,104.61101810716227,417.7868684851822,-19.665122287522866,9.375,3.767480212999603,0.1,0.008867263793945312,0.20252513885498047,0.047904916,0.02813927,16.1416227323371,-0.07828978092998959,0.39171021907001036,9.375,9600,1.262906551361084,0.3171657111960068,0.2505440929246374,21.8607026969913,0.0
123,1.7075371742248535,20.23799772991487,77.20648758020351,393.587137207904,-17.243757022387772,5.208333333333333,4.095485217062703,0.1,0.008711814880371094,0.1981792449951172,0.053179212,0.022322468,16.55126023209488,-0.07509509905045302,0.20198823428288035,5.208333333333333,9600,1.232192039489746,0.4223013932123377,0.23908032535085375,40.99023835793564,6.25
124,1.7206189632415771,13.729182547510227,58.952464714631496,341.61078590967657,-20.283252276298647,3.125,4.791113852325423,0.1,0.00869894027709961,0.1910552978515625,0.047471423,0.019470338,16.269052463636417,-0.08266412799784721,0.13733587200215278,3.125,9600,1.2397162914276123,0.813276797180975,0.32865925698850784,36.2521734180684,6.25
125,1.7418782711029053,6.987011951301085,46.91215455835629,273.00944936086626,-21.64593674420344,1.0416666666666667,3.6067763675412294,0.1,0.008716583251953125,0.18998479843139648,0.051206023,0.027103372,15.340848412402885,-0.08466568973670498,0.06950097692996167,1.0416666666666667,9600,1.2822105884552002,0.5196640676193158,0.3813951093022644,31.335661787533727,12.5
126,1.7069423198699951,13.985433523905387,67.80424486206758,373.1981761612034,-21.12635340636237,4.166666666666667,3.8588040815830147,0.1,0.00856924057006836,0.18756532669067383,0.046308592,0.025974264,15.205306923553135,-0.08550793195094197,0.13865873471572465,4.166666666666667,9600,1.2484726905822754,0.47327326554332705,0.3934601538622878,32.890819511207994,12.5
127,1.7053217887878418,24.512299247006634,85.51016076186556,449.55515496396305,-22.29020160519361,5.208333333333333,4.153110700391791,0.1,0.008627653121948242,0.19383931159973145,0.04717936,0.023579087,16.136006155898485,-0.08357128415127424,0.24517871584872575,5.208333333333333,9600,1.236053228378296,0.42829181059823856,0.37772020254803923,25.814635163458366,6.25
128,1.8718218803405762,15.534777823086111,58.90888388469269,305.2391275132708,-24.559082476123145,4.166666666666667,4.162665912056687,0.1,0.0086212158203125,0.1863267421722412,0.04746873,0.02494619,16.075883322617248,-0.08422450936062252,0.15494215730604413,4.166666666666667,9600,1.2549397945404053,0.4857247499683894,0.28190751493177335,19.852936065943087,6.25
129,1.716118335723877,13.307640853105829,51.159105973092494,253.28197541806668,-21.19635351649516,2.0833333333333335,4.433318862770132,0.1,0.009012222290039062,0.1983346939086914,0.052097153,0.021446634,15.799059075666108,-0.07938070237091692,0.13311929762908306,2.0833333333333335,9600,1.3101310729980469,0.4654075345374357,0.33007052511645973,22.481323054531188,6.25
130,1.735227108001709,12.291318086924855,50.690553128841316,249.09334629764635,-21.880292138466743,2.0833333333333335,4.5327666563886355,0.1,0.00854635238647461,0.18672490119934082,0.047405433,0.021019306,15.448284976791983,-0.09162681404407857,0.12295651928925473,2.0833333333333335,9600,1.265162706375122,0.34504214456173915,0.2606242053269825,23.56327710647862,6.25
131,1.7214131355285645,13.604373800333546,65.90647948062423,373.3301814802315,-23.222892064284416,3.125,3.836686452049259,0.1,0.008852005004882812,0.19414997100830078,0.049289804,0.025564019,15.26389385914614,-0.10184210218045742,0.1356578978195426,3.125,9600,1.246624231338501,0.36126956355308215,0.2993992293407658,13.012449152473977,6.25
132,1.7087128162384033,22.22963307402382,85.74275873310091,445.63075711842544,-23.52785570163128,7.291666666666667,3.80723366381085,0.1,0.008662700653076172,0.18864893913269043,0.048943076,0.02278358,15.960467780633909,-0.08101229410927989,0.22190437255738682,7.291666666666667,9600,1.2620928287506104,0.451600062376986,0.35957114008650154,11.077847727369512,6.25
133,1.7369167804718018,30.660064055028744,104.5653328061371,522.0132471884908,-22.039232870308734,7.291666666666667,4.004762379268028,0.1,0.00868988037109375,0.19160676002502441,0.050848935,0.02612924,17.430427408073392,-0.09002533465849556,0.3058079986748377,7.291666666666667,9600,1.2764744758605957,0.4271552388356052,0.30092124995138253,8.295718567040343,0.0
134,1.7331428527832031,22.064046080438953,75.17755315558149,341.341325286617,-20.6460992584483,3.125,4.21684020277755,0.1,0.008631229400634766,0.19449591636657715,0.047808226,0.024776699,17.89378927530995,-0.07934758401616661,0.2198190826505001,3.125,9600,1.2759201526641846,0.44806767730183605,0.2899257268397556,22.98422730744038,6.25
135,1.8147468566894531,30.811713060555903,108.32255548520376,546.0240965014636,-26.906751823482374,7.291666666666667,3.874476918475888,0.1,0.008566617965698242,0.1961824893951416,0.047165774,0.029150307,19.185581653834547,-0.08850596557079514,0.30774403442920484,7.291666666666667,9600,1.3213365077972412,0.4305286067724117,0.3383141027428498,21.70660821922423,6.25
136,1.7517600059509277,19.35107322300311,77.98706796339536,373.5253858449473,-21.57253247232214,3.125,4.092176241091029,0.1,0.008517265319824219,0.19473528861999512,0.048189364,0.036899272,19.202130810751402,-0.08935864982619746,0.1931413501738026,3.125,9600,1.3229646682739258,0.4408162141118552,0.37316209545207507,32.63735782750603,6.25
137,1.7084195613861084,19.91569298099145,68.27105211887807,385.52440395322213,-21.598592045924764,4.166666666666667,3.598183556822817,0.1,0.008727788925170898,0.1945953369140625,0.05103604,0.026789682,19.273487027775406,-0.08453504694781168,0.1992149530521883,4.166666666666667,9600,1.2915153503417969,0.4215938074046082,0.33069991877538685,32.97646531747881,6.25
138,1.7313570976257324,25.746305557099287,90.62806303308658,433.6877080946333,-23.385889312975653,3.125,3.883142653373835,0.1,0.008703947067260742,0.19870567321777344,0.047889844,0.02793594,19.920768880707797,-0.08002536446690946,0.2570579688664239,3.125,9600,1.2950334548950195,0.43278281968961413,0.3217148578073407,15.466007736117737,6.25
139,1.7080931663513184,29.03014601763857,88.17252759021547,514.0119559136299,-20.46288010094224,3.125,5.286479120501834,0.1,0.008697986602783203,0.1925826072692871,0.052967973,0.018339358,20.831706594400874,-0.08090051925931886,0.2899328140740145,3.125,9600,1.2970211505889893,0.357266864996648,0.32792317158989703,19.314136683775605,6.25
140,1.7366976737976074,10.887905548951087,57.345226802402806,285.4522473530858,-23.142289764015064,1.0416666666666667,3.6398951309587844,0.1,0.00871133804321289,0.19565677642822266,0.04792593,0.029033486,19.837326489855897,-0.08521800507658328,0.10894866159008336,1.0416666666666667,9600,1.2735216617584229,0.48513474393826916,0.2596302558368608,7.456289317566585,6.25
141,1.787219762802124,5.634147446149439,53.2703508783505,405.42528282958835,-20.441696880396503,2.0833333333333335,4.589009866575579,0.1,0.008507490158081055,0.1891469955444336,0.047853157,0.022659702,18.417008585485252,-0.09232901293660611,0.056420987063393886,2.0833333333333335,9600,1.2430362701416016,0.4245419831740456,0.3101562523369292,18.145167980909083,6.25
142,1.7286968231201172,22.64336099770047,74.51480836189435,409.4860975489248,-18.66735056281067,3.125,3.6302662935555423,0.1,0.008507251739501953,0.1876976490020752,0.049762663,0.0268175,18.839643826706777,-0.0781060397142999,0.22606062695236676,3.125,9600,1.234853982925415,0.3958558851899706,0.31862355050041674,9.301579419493141,0.0
143,1.701131820678711,32.897578672060284,92.51716763644222,437.6115904651647,-21.38819206157166,6.25,3.925526284017539,0.1,0.008813142776489258,0.1910717487335205,0.049540903,0.02758109,20.245437311242128,-0.0797084362343039,0.3286248970990294,6.25,9600,1.2851965427398682,0.26840139771756827,0.19106467012298184,-0.6431280219294386,0.0
144,1.7543599605560303,21.16259709930058,91.5430516761327,626.4742575679927,-23.443433271660187,2.0833333333333335,3.7608669326087942,0.1,0.008486747741699219,0.1895275115966797,0.05034383,0.027669534,20.337153290047976,-0.08000054623108976,0.21166612043557698,2.0833333333333335,9600,1.3156943321228027,0.4825851739718501,0.37905799678098445,-1.1642792494025689,0.0
145,1.7317438125610352,21.311415795505383,88.82238921821289,489.65004188832984,-23.013150127754415,3.125,4.436288068248716,0.1,0.008720636367797852,0.18880724906921387,0.0504819,0.02422631,20.434579540593717,-0.07851284515771509,0.2131538215089516,3.125,9600,1.2977616786956787,0.412505530227675,0.3667761583538422,7.291198199854209,0.0
146,1.7033681869506836,8.500135772994552,51.018954016442535,321.22908876651667,-24.544401072052324,2.0833333333333335,4.061499561079533,0.1,0.008678436279296875,0.19082975387573242,0.05202251,0.023985319,19.241135163833803,-0.08119326730310113,0.08464006603023222,2.0833333333333335,9600,1.3043720722198486,0.6368760639819799,0.3884703874952144,19.630114730421937,0.0
147,1.725477695465088,16.961651659556846,78.76802085514932,405.526932839613,-16.542857710696065,4.166666666666667,4.058442629574703,0.1,0.008529901504516602,0.19509673118591309,0.049626164,0.022304667,19.013186813406108,-0.08035121590235372,0.1696487840976463,4.166666666666667,9600,1.286407470703125,0.392588086296094,0.27096186155961755,15.165760010277026,6.25
148,1.9005498886108398,19.910199696824346,93.48732251109175,634.6243660116639,-23.339585492407707,2.0833333333333335,4.145871295524563,0.1,0.008840322494506836,0.18877553939819336,0.050711337,0.033675227,19.102888101747933,-0.07916540971182918,0.19875125695483745,2.0833333333333335,9600,1.307682752609253,0.5040525990046544,0.40016243982894806,6.406602744791966,0.0
149,1.7256438732147217,21.229215379618896,83.16854511330588,445.92140200445033,-20.626224899821278,4.166666666666667,3.822970349953925,0.1,0.00870060920715332,0.19913744926452637,0.05361288,0.028378893,19.31552082953503,-0.08101695824482164,0.21148304175517837,4.166666666666667,9600,1.2883179187774658,0.4257350998193915,0.31176901538200447,5.372536271412095,0.0
150,1.7208516597747803,15.183696158318492,70.51936029501108,401.32082071845423,-20.258763421060873,3.125,4.11367568037541,0.1,0.008657693862915039,0.19140100479125977,0.053894438,0.023565233,18.902338362413374,-0.07603102952981831,0.15188563713684836,3.125,9600,1.286912202835083,0.5039992368604382,0.30617860523614765,5.020020044991364,0.0
151,1.6838293075561523,16.490827283200087,65.30936029044986,433.7624455393092,-17.538945064701004,2.0833333333333335,3.9747457266398425,0.1,0.00855255126953125,0.19261717796325684,0.051227365,0.025667869,18.66118725449205,-0.07669897196167563,0.16496769470499104,2.0833333333333335,9600,1.2702953815460205,0.49725312427745694,0.37598066783544615,4.14707910990219,0.0
152,1.7437410354614258,26.499390549433723,86.58993360286155,425.82098979753545,-21.7354367131754,5.208333333333333,4.19844725842292,0.1,0.009496688842773438,0.1999187469482422,0.044460043,0.02020102,19.445007583986218,-0.0812216140709618,0.26461171926237154,5.208333333333333,9600,1.2614190578460693,0.4170578846528767,0.30783040517090776,0.033051461631743884,0.0
153,1.7970256805419922,15.327584093680928,73.60275977996865,470.06107104753943,-20.267822089964305,3.125,3.7944717508380013,0.1,0.008505582809448242,0.18126988410949707,0.049031865,0.029221715,19.03326523495569,-0.08374532954793645,0.15333800378539686,3.125,9600,1.2911887168884277,0.4643682276541881,0.33391866869731024,5.806950710078391,0.0
154,1.7377102375030518,12.359354379003852,61.46971807415212,413.62683431850826,-20.689326602029915,2.0833333333333335,4.194166954310673,0.1,0.008888721466064453,0.18976283073425293,0.049052957,0.02762239,18.365874149360504,-0.08468658991797778,0.12364674341535555,2.0833333333333335,9600,1.3053333759307861,0.3923508714090292,0.2818533841744486,8.87354935494987,0.0
155,1.7510340213775635,41.20357045675216,112.10840525206787,626.2982012357569,-21.600127055502377,7.291666666666667,3.747275599192429,0.1,0.008567094802856445,0.18631243705749512,0.048298713,0.033110812,20.64964378009967,-0.06957590737675938,0.4116740926232407,7.291666666666667,9600,1.2746520042419434,0.3971656385890453,0.3322962954912344,2.568281151642842,0.0
156,1.725191354751587,17.79647121018993,71.40306495135953,558.1369440931596,-20.393985153430304,4.166666666666667,4.056343444435853,0.1,0.009621858596801758,0.20114874839782715,0.052197337,0.02630506,20.364326523108694,-0.08073367420641217,0.17718299246025446,4.166666666666667,9600,1.2686240673065186,0.6739942037928078,0.4619861467049587,6.2196223170430445,0.0
157,1.8198413848876953,18.91385019708901,75.37062507049264,425.7947400998561,-20.231637585444332,3.125,4.579295497558108,0.1,0.008725166320800781,0.19311141967773438,0.049506795,0.025582036,20.21927889050673,-0.08081240214713893,0.18918759785286107,3.125,9600,1.3094801902770996,0.39412001462822055,0.25843174081255066,-5.205529055796616,0.0
158,1.7253944873809814,20.65358995602679,76.57756995013207,369.5611597665298,-20.432877905165764,6.25,3.640855739273039,0.1,0.008631706237792969,0.18730568885803223,0.04986069,0.028642297,20.262709997058735,-0.07883039316732238,0.20658627349934433,6.25,9600,1.274240255355835,0.3265461084109251,0.24817673582651992,0.30640488284661993,0.0
159,1.7246551513671875,23.406452945995976,73.93094579806596,353.60177895615016,-21.48915402295918,4.166666666666667,4.018718706863823,0.1,0.008880376815795898,0.19214129447937012,0.051402196,0.025023645,20.57708429195246,-0.07881821367632412,0.23326511965700922,4.166666666666667,9600,1.2971417903900146,0.30910400974202945,0.2516935680893185,7.97631501973295,0.0
160,1.820493459701538,15.977777606426338,68.66962890436608,449.61275087861713,-20.05160784339783,4.166666666666667,3.7864638540281246,0.1,0.009161949157714844,0.1872704029083252,0.04965712,0.031413782,20.11715362339985,-0.08519896730257011,0.15980103269742987,4.166666666666667,9600,1.3119456768035889,0.3714480195484273,0.29418000649689,13.79969386075864,0.0
161,1.7442996501922607,28.28213512456645,82.44210676990157,465.9544784907828,-24.02192121058089,5.208333333333333,3.064824960809445,0.1,0.008495092391967773,0.19769072532653809,0.0499071,0.043475,20.933651773516512,-0.08258105262809133,0.282002280705242,5.208333333333333,9600,1.297973871231079,0.36300305720161324,0.29371062099579653,12.451280938983732,0.0
162,1.728205919265747,21.18093942154803,73.10269792316433,397.75404919865525,-24.832079538096835,7.291666666666667,3.7598153724552836,0.1,0.008802175521850586,0.19806385040283203,0.050807286,0.025871819,20.958380538319666,-0.08642691252951666,0.2119064208038166,7.291666666666667,9600,1.3079354763031006,0.3862601734937589,0.24546114190172938,16.3900185312038,0.0
163,1.7580642700195312,10.14306184619898,55.41051499439407,337.39619252058264,-21.048600387255636,3.125,3.832484868141026,0.1,0.008538961410522461,0.18764281272888184,0.047770914,0.02434404,19.8768486691076,-0.08437446813168326,0.10145886520165008,3.125,9600,1.306396484375,0.40771810685969156,0.2405932290845423,8.53398608382059,0.0
164,1.7483329772949219,24.845353647136974,76.65089461526799,473.4972514009997,-20.09227221803514,8.333333333333334,3.6229483890948004,0.1,0.008775711059570312,0.18597817420959473,0.049434733,0.028182374,20.373699166910537,-0.07901863798439353,0.2472313620156065,8.333333333333334,9600,1.3393006324768066,0.38910622103515013,0.3109864135243807,22.47946863375677,6.25
165,1.6930997371673584,40.47127548282029,96.29604754244183,377.314116324313,-22.205454699551208,8.333333333333334,4.13465067033815,0.1,0.008394002914428711,0.19268560409545898,0.047627058,0.02474257,22.383456798501513,-0.08315833570207375,0.40475833096459296,8.333333333333334,9600,1.3106615543365479,0.2703817414506072,0.13428327819392546,17.437939035267917,0.0
166,1.7033021450042725,19.674882027571044,63.48014905891209,301.13677273021375,-21.860902794455853,4.166666666666667,3.427456807327694,0.1,0.009374618530273438,0.20046019554138184,0.051719066,0.027875626,22.112599321408464,-0.08529335495853559,0.1967899783747977,4.166666666666667,9600,1.3255512714385986,0.6716977724414525,0.26509360033766516,15.853671114001216,0.0
167,1.8673679828643799,40.06787663709075,92.72470625046729,381.49096205279767,-20.514653392845872,6.25,5.40349820338622,0.1,0.008611679077148438,0.18703269958496094,0.052307658,0.017660359,23.908127052976695,-0.08344237486953698,0.39905762513046295,6.25,9600,1.316904067993164,0.26640875681827514,0.15655551742081492,17.483084724762143,0.0
168,1.7144126892089844,20.58842900997632,67.90094436607333,324.959680987894,-19.363778264043752,6.25,3.5700335720549705,0.1,0.008852005004882812,0.1974179744720459,0.050339017,0.028644517,23.576157248676658,-0.07824462660046332,0.2059220400662034,6.25,9600,1.3498001098632812,0.4928935761845067,0.23631664535060926,10.523771307998608,0.0
169,1.8555893898010254,29.994356531982806,70.9844192622459,313.3051724506032,-23.451089313259427,4.166666666666667,5.115339963571173,0.1,0.008751392364501953,0.1936049461364746,0.049213853,0.019509418,24.217977177007274,-0.08039943251703523,0.29918390081629803,4.166666666666667,9600,1.3657865524291992,0.4282583589155917,0.24568907702329112,28.69409197775934,0.0
170,1.7056148052215576,22.971732547851882,74.43374437880941,489.65216365222415,-20.055251335895143,5.208333333333333,3.4623102472115415,0.1,0.008565664291381836,0.18687868118286133,0.048959427,0.028645173,24.093352714091736,-0.07858471360160897,0.22974861973172436,5.208333333333333,9600,1.3361890316009521,0.3379608900133421,0.2316672510297221,35.65249429592609,0.0
171,1.7183589935302734,24.812242870240194,83.0266503544054,457.61961009662616,-21.65215953315327,6.25,3.5949115112390455,0.1,0.00850677490234375,0.18640446662902832,0.050153162,0.030362278,24.165241729706583,-0.07932784400442394,0.24775548932890937,6.25,9600,1.3212988376617432,0.38863625074173114,0.21555590448149156,30.588146699677573,0.0
172,1.7474842071533203,19.995793789726093,61.64740726169466,261.024579013665,-19.02794989303495,3.125,3.727859072989278,0.1,0.008598566055297852,0.19405508041381836,0.051365804,0.025633827,23.748296935708535,-0.08168268327901451,0.1995673167209854,3.125,9600,1.309276819229126,0.8001116914652894,0.31674005177817305,37.27478589107666,6.25
173,1.7645738124847412,26.482574928113404,80.373085168979,485.9788162820738,-22.583841765296985,6.25,4.082488273226407,0.1,0.008707761764526367,0.19844436645507812,0.047406405,0.025903812,24.02172473494902,-0.07887796859795544,0.2648720314020445,6.25,9600,1.3501482009887695,0.5349696089268867,0.216700320424788,21.219148491381972,0.0
174,1.7942609786987305,30.169759491491334,80.56559370915129,365.18806342279055,-21.403580092802496,7.291666666666667,4.04610450114406,0.1,0.00883173942565918,0.19838976860046387,0.051714268,0.024818255,24.636528210603256,-0.08533666957318879,0.3013299970934779,7.291666666666667,9600,1.3535559177398682,0.2938781390518254,0.20487560449816,33.637799355565065,0.0
175,1.8748388290405273,48.53717539310164,123.46366978070803,586.0637000769023,-23.518874007047224,10.416666666666666,3.9037561696859178,0.1,0.008738040924072266,0.19427919387817383,0.048276227,0.0269325,27.026592928853095,-0.08211885386478353,0.48413114613521646,10.416666666666666,9600,1.360044002532959,0.3618484820300677,0.21385694872637945,31.27772781774268,0.0
176,1.704092025756836,36.97853479419239,94.65678589422514,497.5114789168727,-20.81711690646853,8.333333333333334,3.6144552233545353,0.1,0.008485555648803711,0.18717312812805176,0.04762839,0.026524853,28.021787115387028,-0.07973481803820089,0.3698485152951325,8.333333333333334,9600,1.3326048851013184,0.34132359451391603,0.21781893748016987,23.305739172381696,0.0
177,1.7167327404022217,25.359472164924934,83.66137863350785,385.39742051604316,-19.997948608777932,9.375,3.5524481387102385,0.1,0.008426189422607422,0.18806886672973633,0.05074849,0.028351594,27.75555562034082,-0.0880338834783219,0.2527994498550114,9.375,9600,1.3433945178985596,0.6061482223399727,0.2581846677261741,33.22303547945776,6.25
178,1.731818437576294,31.75272837728714,88.16786696999866,409.5087543549866,-22.17815752896696,9.375,3.755041356264844,0.1,0.008492231369018555,0.18947863578796387,0.047991734,0.030459324,28.155272896035456,-0.08284055615972045,0.3175761105069462,9.375,9600,1.3341648578643799,0.31155124564893594,0.17520052326393812,31.00908455583972,6.25
179,1.732914924621582,30.025069815698174,84.2781005979151,321.39939580849193,-20.37683052672834,7.291666666666667,3.4615040064601432,0.1,0.008633136749267578,0.19362115859985352,0.05359572,0.029345859,28.342252588001728,-0.0834587583092043,0.3002912416907957,7.291666666666667,9600,1.3492650985717773,0.24154443588542193,0.14033380963243267,38.75563336877403,6.25
180,1.9326002597808838,35.43707411335286,89.39705845605482,413.5998156543133,-17.660852591713677,9.375,3.328059828019519,0.1,0.008789539337158203,0.19383955001831055,0.050362956,0.03110042,29.051734740536844,-0.0747815865344338,0.35438508013223285,9.375,9600,1.3694779872894287,0.24527657989825394,0.17521023862376903,38.76006107785273,0.0
181,1.7165372371673584,26.27767564647171,74.37879433119272,309.2698613233593,-21.79510854814908,6.25,4.337902526171643,0.1,0.008570671081542969,0.2001941204071045,0.048028197,0.025066074,28.774328831130333,-0.08510708028860103,0.26280958637806556,6.25,9600,1.3424384593963623,0.24624211468884985,0.19180936665385132,18.93791898650256,0.0
182,1.717940330505371,41.12293615626073,88.2403860453642,353.4852082211384,-21.63553530927181,11.458333333333334,3.772197781859154,0.1,0.008669376373291016,0.1953427791595459,0.050338585,0.028123004,30.00918956364337,-0.07122196188714554,0.41127803811285446,11.458333333333334,9600,1.3110296726226807,0.22102993061132492,0.17938964312128408,20.64088818836423,0.0
183,1.7582721710205078,62.5202629035311,117.75893405978022,453.7016797358233,-21.292373154035623,15.625,4.357655833114244,0.1,0.00854349136352539,0.19652223587036133,0.049781647,0.021307886,33.260296897632145,-0.0722673256790082,0.6235660076543251,15.625,9600,1.304450511932373,0.20713905713609027,0.16458367249027664,18.247245647908457,0.0
184,1.759422779083252,27.68293358624329,81.18433901422192,337.50134919997384,-19.138251424860666,7.291666666666667,3.9229800771115717,0.1,0.008485555648803711,0.18683266639709473,0.05005251,0.025945846,32.70256056649326,-0.08479393575956706,0.2768727309070996,7.291666666666667,9600,1.2645351886749268,0.2713650267590311,0.18760968056713634,20.520774963573885,6.25
185,1.7313528060913086,20.125689731518737,71.82348038064859,385.6918499551496,-21.959839247396683,6.25,3.9735779013149153,0.1,0.009295225143432617,0.1956324577331543,0.05234049,0.026543316,31.44487348299581,-0.07867789666322196,0.2013221033367781,6.25,9600,1.2781829833984375,0.3562571903785541,0.20644710320710424,22.035067003878197,0.0
186,1.8310801982879639,46.34025596872738,104.15987152131609,493.9120219998612,-20.189405314628885,11.458333333333334,4.012023471935725,0.1,0.008680105209350586,0.19529128074645996,0.051021986,0.024027854,32.934411731568964,-0.07698041643098393,0.46260291690234934,11.458333333333334,9600,1.2753314971923828,0.35354636723248983,0.20125726487851717,22.10371821702115,0.0
187,1.7347559928894043,43.30043921539495,99.34450589542386,505.65291934688963,-19.501863517303462,8.333333333333334,4.450722950097879,0.1,0.008449077606201172,0.1986079216003418,0.052069254,0.022956138,33.97101447995156,-0.07318374100494811,0.4322329256617185,8.333333333333334,9600,1.2860536575317383,0.3195241331257364,0.2517830450424578,21.391896746745335,0.0
188,1.7151520252227783,22.931139432998236,78.10593105065223,409.64206675170607,-18.328131357763912,6.25,3.758687047401166,0.1,0.008433818817138672,0.18788766860961914,0.050600562,0.031110713,32.86702697525623,-0.07936547358356043,0.22938452641643958,6.25,9600,1.2607958316802979,0.33423635309583327,0.2242683135466038,24.06996716367121,6.25
189,1.702179193496704,73.00710513857693,137.94882668453704,577.9774481368839,-18.270898171207165,19.791666666666668,3.5298509376909646,0.1,0.008331060409545898,0.20499944686889648,0.05142975,0.030514447,36.8810347915883,-0.07199046838788825,0.7296761982787784,19.791666666666668,9600,1.2612786293029785,0.2897021140918392,0.17324184136277346,40.16790217000528,6.25
190,1.6969945430755615,50.706672416675985,114.61482164538609,489.85696413758404,-21.07133111336267,11.458333333333334,4.315477039756043,0.1,0.017926454544067383,0.19645214080810547,0.04797095,0.01996126,38.26359855409707,-0.07039071610425901,0.5066926172290743,11.458333333333334,9600,1.2936022281646729,0.26360980461203776,0.17425863803891528,31.08009534796959,0.0
191,1.6929574012756348,31.742302799955763,90.10491769123959,469.43893923989606,-22.11666189320286,8.333333333333334,3.5083007065267364,0.1,0.008514642715454102,0.20541596412658691,0.04987472,0.028401494,37.61146897868294,-0.08297100470434515,0.3170289952956548,8.333333333333334,9600,1.3134119510650635,0.27364090389051327,0.19383050224424375,19.782642446918864,6.25
192,1.8220906257629395,42.816949646975615,111.73901687247144,585.9858785579956,-18.888619371756782,7.291666666666667,3.805131128925094,0.1,0.008661746978759766,0.19292211532592773,0.054048754,0.027006092,38.132017045512214,-0.07387485006331712,0.4282084832700162,7.291666666666667,9600,1.2927820682525635,0.3063734236404284,0.2423475309699344,32.49613504371916,6.25
193,1.7286326885223389,40.22175166806,110.92205476717183,505.9636767836439,-19.06861340133524,8.333333333333334,3.9839247202829693,0.1,0.008501529693603516,0.18827152252197266,0.05067087,0.025617832,38.340990507766996,-0.07481038797817696,0.4018562786884898,8.333333333333334,9600,1.286287784576416,0.24724633233482993,0.19460741472136414,22.488205386717237,0.0
194,1.7289481163024902,50.08377303843767,111.54621616418314,465.804007257477,-19.28203817745986,11.458333333333334,3.764614848483176,0.1,0.008817195892333984,0.1938157081604004,0.048415184,0.024837568,39.51526876083406,-0.07954236511977986,0.5004576348802202,11.458333333333334,9600,1.2586956024169922,0.1985625838353504,0.14436365221433775,30.841550252113052,0.0
195,1.7361361980438232,34.20248056630668,90.71628757716957,397.2967478955119,-22.436640070204977,9.375,4.314221246037476,0.1,0.008428812026977539,0.18792510032653809,0.05343357,0.023424178,38.983989941381324,-0.08416419875219232,0.3412524679144744,9.375,9600,1.2764801979064941,0.22666979938822088,0.1331940962735313,24.62599078945177,0.0
196,1.8853039741516113,39.57829469808038,105.9636820792574,489.96237384149794,-20.793458516051665,10.416666666666666,3.7222118471642034,0.1,0.008723735809326172,0.19951915740966797,0.051525746,0.02716389,39.04342041705123,-0.07582968971058975,0.3954203102894103,10.416666666666666,9600,1.3118007183074951,0.24444658761400986,0.1634989362867552,24.72317091405828,6.25
197,1.7354614734649658,42.04015609416542,103.28263245613502,465.52888604873124,-21.26060620506847,11.458333333333334,3.9926039281423966,0.1,0.008460044860839844,0.1951601505279541,0.05090188,0.023415297,39.34309398476265,-0.07873028047577625,0.42001971952422384,11.458333333333334,9600,1.298680305480957,0.22551373545191633,0.1510218596514012,21.14185911429788,0.0
198,1.694962739944458,24.95683807734035,80.9478232975334,449.5776754372885,-20.712257757761453,9.375,3.6797753844313092,0.1,0.008508443832397461,0.18706440925598145,0.046871103,0.026864445,37.90446839402042,-0.08250109848965521,0.24833223484367814,9.375,9600,1.2861433029174805,0.42311211309991026,0.23304439220419626,21.360724665626286,6.25
199,1.8113713264465332,41.7840534491239,96.21036576369896,373.4328656845085,-22.74923190561281,11.458333333333334,3.7277880299591377,0.1,0.008392810821533203,0.19845223426818848,0.050563887,0.02490135,38.29242689953077,-0.07917896138146104,0.4179043719518723,11.458333333333334,9600,1.3001279830932617,0.18492829305472278,0.10909551047599793,38.92578053659128,6.25
200,1.7439627647399902,49.51158247027235,113.81689446508476,481.65975661769284,-21.025232085404113,11.458333333333334,4.068461983825526,0.1,0.008669376373291016,0.19193768501281738,0.048976414,0.023846656,39.41434245660493,-0.08235660036771138,0.4951433996322887,11.458333333333334,9600,1.2959563732147217,0.1924659786775713,0.12366284213753785,37.129230509954986,6.25
201,1.7271318435668945,27.557572961494103,77.93876091010316,409.48032388461456,-19.934578386637256,3.125,3.741076108701449,0.1,0.00878286361694336,0.19616031646728516,0.04982173,0.027656745,38.22866550709385,-0.08852712615837809,0.2756395405082886,3.125,9600,1.3206100463867188,0.36143568950091864,0.2100986077191539,33.12803494036593,6.25
202,1.7263364791870117,47.47304789386097,119.99295695722712,590.0829776471851,-17.88644145687561,12.5,4.3634329421487585,0.1,0.008803606033325195,0.19588351249694824,0.051167447,0.024289422,39.153103745770565,-0.07523613409810999,0.4743471992352233,12.5,9600,1.3343782424926758,0.26498072023307484,0.175171943369676,39.92261109981557,12.5
203,1.7146596908569336,31.715914856854837,85.73805514004275,337.4337875782097,-20.82159197496225,9.375,3.545683549607475,0.1,0.008800268173217773,0.20899009704589844,0.048757765,0.029116789,38.409384856878994,-0.07696967579855347,0.3171969908681132,9.375,9600,1.3278861045837402,0.24784389039332003,0.1175465905513089,41.46036489445169,12.5
204,1.722215175628662,31.040163197806823,97.05452040479408,473.91590523707964,-21.564204665925867,7.291666666666667,4.719200156073253,0.1,0.008672237396240234,0.1882619857788086,0.049491547,0.022351498,37.67246269097178,-0.08124212738391771,0.310424539282749,7.291666666666667,9600,1.3040258884429932,0.16125228222845403,0.12043016739310392,40.49983041493913,12.5
205,1.8112545013427734,47.339224690701705,113.02732888934378,505.7757960859208,-19.741294441200914,10.416666666666666,3.6886764861846824,0.1,0.008576393127441406,0.19305729866027832,0.04949924,0.03135933,38.63913889094477,-0.0699137976054873,0.47341953572784606,10.416666666666666,9600,1.2878222465515137,0.18813268436368752,0.151157600665767,38.74851298861467,12.5
206,1.7018787860870361,38.002913900632755,99.9192455267719,437.67734420190794,-20.81909763287522,7.291666666666667,3.9958295570051545,0.1,0.008967399597167969,0.19459295272827148,0.049641706,0.027096547,38.57551639191357,-0.08535835042237609,0.37922498291095724,7.291666666666667,9600,1.3439998626708984,0.18725388722202888,0.13156151514044864,38.65122690123311,6.25
207,1.7349791526794434,31.43740083149252,87.86846068992175,325.5268195291922,-20.778079487651326,7.291666666666667,3.5935737691335636,0.1,0.008466720581054688,0.18864130973815918,0.050012752,0.027036617,37.861704835871464,-0.08476071825604785,0.3135726150772855,7.291666666666667,9600,1.3263235092163086,0.29557304651100763,0.18234713731068172,42.1220653832638,6.25
208,1.7021617889404297,16.723228289912342,66.55417339709943,285.3865621903407,-20.670204984733896,4.166666666666667,3.60875454634814,0.1,0.008635759353637695,0.1886284351348877,0.05002015,0.026016546,35.747857181275556,-0.0827075923987869,0.16645907426787984,4.166666666666667,9600,1.3123619556427002,0.2197249614232265,0.16224907467403865,49.06812955963135,12.5
209,1.7259812355041504,38.430550350413505,101.14632136393824,469.75989517111947,-20.05904569664886,13.541666666666666,3.745203151379823,0.1,0.008857488632202148,0.1969301700592041,0.049829695,0.025750984,36.01612649818935,-0.07733382308521068,0.3834995102481226,13.541666666666666,9600,1.3062808513641357,0.21199508010521312,0.12505068547007714,55.75612048065754,12.5
210,1.7225699424743652,48.00958685349352,101.16789635797272,445.7225321199254,-20.515215821074648,9.375,3.3767663061549027,0.1,0.008741378784179688,0.1893913745880127,0.050335634,0.03252845,37.21547253371977,-0.0731815288215867,0.4801518045117466,9.375,9600,1.3156518936157227,0.1867634482719562,0.14307406846479354,52.18415708459963,6.25
211,1.7976067066192627,47.39705557159368,108.38442531513775,465.77489071194697,-21.742149738725836,14.583333333333334,3.4844811140727585,0.1,0.008800983428955078,0.1939549446105957,0.04954293,0.028398767,38.233630837507164,-0.08018655375787392,0.4727301129087927,14.583333333333334,9600,1.3585903644561768,0.19564599040977412,0.11928687725033497,50.00868769442401,12.5
212,1.7336125373840332,32.310043808809446,106.0362544603796,533.9831210035237,-18.880309482978674,8.333333333333334,4.543348083453081,0.1,0.008062362670898438,0.17784786224365234,0.051082864,0.01977551,37.6412721346374,-0.07435629801707357,0.3231437019829264,8.333333333333334,9600,1.345517635345459,0.3196737233670076,0.1759429902039407,41.33200305266621,6.25
213,1.7154603004455566,61.15044217381154,129.56844154125594,545.879325146275,-19.458759408948243,17.708333333333332,4.258354791549856,0.1,0.009030818939208984,0.190596342086792,0.051463973,0.02194418,39.992189138554814,-0.08049805381348057,0.611168612853186,17.708333333333332,9600,1.3885293006896973,0.15767925207492137,0.11961555832603896,35.708222578176624,0.0
214,1.7163267135620117,48.82167149057435,126.94618979950494,594.1779236019745,-20.808296061409635,10.416666666666666,3.457768811291099,0.1,0.00901651382446289,0.19899392127990723,0.047840036,0.02904846,40.87513737375677,-0.08634648622090964,0.487820180445757,10.416666666666666,9600,1.365232229232788,0.20671783703458874,0.19735113802946538,43.81797033318674,6.25
215,1.7253093719482422,43.971400529815185,107.9776852740005,522.0365567218131,-21.817524595071127,8.333333333333334,4.434184375074185,0.1,0.008710384368896484,0.19755268096923828,0.050698336,0.02160395,41.18476368936262,-0.0810734765710377,0.4393431900956289,8.333333333333334,9600,1.3650290966033936,0.41034694311045633,0.2328537447905922,46.4624732336256,6.25
216,1.7488491535186768,44.65406142760764,96.7609336432257,405.5390937036198,-20.26838287601489,9.375,3.672673537304168,0.1,0.008722305297851562,0.1912086009979248,0.04802746,0.026100457,41.53169346318712,-0.07261240427185135,0.44613759572814876,9.375,9600,1.3523991107940674,0.17631627876315148,0.12600217772880387,39.489985957593916,6.25
217,1.7363409996032715,23.983531011822148,79.00296329483159,325.4617381738282,-21.986469301206185,8.333333333333334,3.5150802868917057,0.1,0.008809328079223633,0.20150494575500488,0.048574302,0.03173062,39.77687721805062,-0.0817648660858813,0.23948513391411866,8.333333333333334,9600,1.3766515254974365,0.26238716594000633,0.12066260034601933,46.786361001716905,6.25
218,1.8090746402740479,38.157474430871105,100.42159634696229,457.7965684681495,-20.36923502168521,11.458333333333334,3.5482063787155087,0.1,0.008376359939575195,0.20464277267456055,0.05076783,0.029102193,39.61493693933267,-0.07507678090416872,0.3807565524291647,11.458333333333334,9600,1.3421757221221924,0.19496963523755456,0.11691187414857551,46.13332775039883,6.25
219,1.7168757915496826,36.918571327238034,104.57598821868451,445.8080249617769,-19.585999230748875,12.5,3.7232777077223984,0.1,0.008177518844604492,0.1820201873779297,0.05099903,0.026824404,39.34530037812321,-0.07867068430712224,0.3692459823595445,12.5,9600,1.3419556617736816,0.23819197764224861,0.16709732277843048,39.24846599822426,6.25
220,1.7222788333892822,49.279741254421744,99.54625326312352,421.77655691625745,-22.26173789315685,10.416666666666666,3.9623105000146834,0.1,0.009052753448486328,0.19156885147094727,0.046273142,0.023272058,40.33874446575307,-0.07756203834740742,0.4924379616525925,10.416666666666666,9600,1.343729019165039,0.2713170311455065,0.13201236691556634,42.951644166438065,6.25
221,1.7337756156921387,44.6044138675915,105.37135331188782,441.5677900410865,-20.801667207873546,13.541666666666666,3.7970853980745227,0.1,0.008855581283569336,0.19727826118469238,0.049042597,0.027993297,40.76531140593691,-0.08267064168695203,0.44607935831304796,13.541666666666666,9600,1.3930137157440186,0.2879441254048911,0.14372625283415472,47.320381207224116,6.25
222,1.7607967853546143,42.36010519778548,107.3144059101587,558.1224385745398,-22.492951093697247,10.416666666666666,4.260049784926983,0.1,0.008922100067138672,0.18469882011413574,0.049558483,0.02190191,40.92479078512177,-0.07675551720027234,0.42366114946639427,10.416666666666666,9600,1.379197597503662,0.3158490616730027,0.17089135019680013,52.31909897877734,6.25
223,1.7355127334594727,48.73339895455742,103.2344422863735,417.61937827861465,-22.47803363406063,12.5,3.9115577887239463,0.1,0.008716821670532227,0.1964404582977295,0.051592868,0.025838489,41.70565160206534,-0.07759002066960792,0.4865766459970587,12.5,9600,1.393331527709961,0.1560548479996285,0.11710277970308433,49.54729778522843,6.25
224,1.812753438949585,29.267850620173125,96.47776124980119,465.89913594339845,-21.433299828433537,8.333333333333334,3.2857976616557147,0.1,0.008913516998291016,0.19369006156921387,0.053238768,0.024052484,40.46187150387611,-0.08267971621198517,0.29273695045468157,8.333333333333334,9600,1.377051830291748,0.1735532866476181,0.12301646869371283,55.98249481786879,6.25
225,1.7171037197113037,39.152932073702566,101.36841578200307,538.0234777583515,-21.422679578172428,9.375,3.31265730610577,0.1,0.008601188659667969,0.1917574405670166,0.050003506,0.032485075,40.330977560858756,-0.07260378501213448,0.3911462149878655,9.375,9600,1.3802189826965332,0.22207462766040334,0.13997739923324273,56.18397453965046,6.25
226,1.7178831100463867,51.90983525308112,112.43266492363162,425.677068264409,-18.79321361288507,13.541666666666666,3.8080378793840834,0.1,0.008780479431152344,0.19321870803833008,0.04974028,0.025076352,41.488863330080996,-0.07376160591589807,0.5187383940841019,13.541666666666666,9600,1.3839612007141113,0.12913968592306685,0.08702157985937978,51.94049403171559,6.25
227,1.7552735805511475,40.23544635803088,106.26403325841902,513.8945732954384,-18.937429947946153,7.291666666666667,4.198826560426959,0.1,0.008591175079345703,0.18891668319702148,0.04950119,0.02226432,41.36352163287599,-0.08133667292464215,0.40199666040869114,7.291666666666667,9600,1.3780629634857178,0.19777329424183215,0.1343891446127081,52.09674410581803,6.25
228,1.7468478679656982,29.939877573225928,81.40144707853429,389.9577304796239,-20.993567940008848,5.208333333333333,3.526737937997116,0.1,0.008365869522094727,0.1905198097229004,0.049940053,0.025400396,40.22115722691098,-0.0751444944680929,0.2994388388652404,5.208333333333333,9600,1.3708767890930176,0.27614543915604006,0.17349467222619763,53.31961400416205,12.5
229,1.730515956878662,51.560393442035775,111.69175659224966,486.0210526090513,-19.50860089826139,11.458333333333334,3.6958749291044293,0.1,0.008799314498901367,0.19564270973205566,0.050868146,0.026828742,41.35508084842346,-0.07520441908617324,0.5147955809138267,11.458333333333334,9600,1.3967399597167969,0.22698976519151334,0.11686180711706692,55.27730439054103,12.5
230,1.7411131858825684,28.68869941470852,85.4824150315395,333.61695081183404,-19.839339781484473,5.208333333333333,4.2978253670597955,0.1,0.008589744567871094,0.18922042846679688,0.048201945,0.021964835,40.088442705051975,-0.08140591033551521,0.28609408966448474,5.208333333333333,9600,1.3591673374176025,0.18624536667401245,0.13340588522718644,51.31616505016125,12.5
231,1.8439586162567139,69.52347577990612,128.68613599593186,477.7146757099623,-20.100963273459147,19.791666666666668,3.928434530667489,0.1,0.008739948272705078,0.19177985191345215,0.048978336,0.024829,43.0319460125374,-0.06808867793812033,0.6944113220618796,19.791666666666668,9600,1.4072723388671875,0.20579475634351108,0.12269456912942207,49.9591013465481,12.5
232,1.728142499923706,56.567653096633705,120.30701096992534,465.73892869647113,-19.68165142059459,12.5,3.8289881692305316,0.1,0.008830070495605469,0.19584202766418457,0.04895041,0.022512157,44.38551672094703,-0.0709461785629731,0.5648871547703602,12.5,9600,1.4005775451660156,0.20707663305481966,0.1434122406020921,46.955770973179916,12.5
233,1.7241270542144775,38.028827624827926,98.71245812537364,502.0550810503789,-21.26335378748153,8.333333333333334,4.948859256156091,0.1,0.00852656364440918,0.18692588806152344,0.050090414,0.02032491,43.74984781133512,-0.07172852142120019,0.38035481191213316,8.333333333333334,9600,1.3613295555114746,0.22220915733142751,0.16131287176283796,51.89542910334464,12.5
234,1.7336301803588867,42.51570549678895,111.16663104181107,453.7953941328755,-23.474926842793263,7.291666666666667,3.6904935399074468,0.1,0.008455276489257812,0.19535398483276367,0.050111033,0.026488116,43.626433579880505,-0.0752214045784752,0.4243619287548581,7.291666666666667,9600,1.3426625728607178,0.1390609444918707,0.09170012873573864,48.1577343541514,12.5
235,1.7452361583709717,53.04712907458773,116.68307142796584,481.7063788417399,-18.83719540963138,12.5,4.103024428568632,0.1,0.008801937103271484,0.19802021980285645,0.050218567,0.02259674,44.56850312935123,-0.0728390325371638,0.5300776341295029,12.5,9600,1.3838179111480713,0.16076995132446106,0.1152187280108206,57.21076214646641,12.5
236,1.7658138275146484,45.92189727071341,119.698972783789,502.0377801668892,-19.099100310832558,9.375,4.551084334941381,0.1,0.010116815567016602,0.20231342315673828,0.05115496,0.021908779,44.70384254348745,-0.07200759744554608,0.45882573588778736,9.375,9600,1.3638267517089844,0.16225402255224552,0.118958480920645,54.72842159767258,12.5
237,1.7798709869384766,57.97833746979311,122.46909070234854,490.0451488547372,-19.962557783835912,14.583333333333334,4.187391667918862,0.1,0.008647918701171875,0.18615102767944336,0.051336713,0.020096362,46.03129203611802,-0.07140936954848297,0.5794239637848505,14.583333333333334,9600,1.338862657546997,0.14752264956602482,0.10735344831714252,52.46077317103211,12.5
238,1.729292869567871,40.648469772628346,96.87981069691762,389.6123676221629,-22.3491142472727,10.416666666666666,4.086632552936278,0.1,0.008738994598388672,0.20143556594848633,0.049310595,0.024035163,45.49300980976905,-0.07800809243175122,0.40657524090158215,10.416666666666666,9600,1.3478755950927734,0.2147223808791124,0.1487199482444298,50.614070768843284,12.5
239,1.7611396312713623,59.85566060551014,122.53947039173136,442.0884048075819,-21.304146396178776,12.5,3.6520592935711376,0.1,0.008678674697875977,0.19522905349731445,0.04879782,0.026917813,46.92927488934316,-0.07391762867689804,0.5981657046564353,12.5,9600,1.3577134609222412,0.1581631865914025,0.09627822415919574,51.90988997823255,12.5
240,1.7595868110656738,59.87576378344153,120.24128284709577,546.3481499504221,-22.229246516513125,11.458333333333334,3.6328829427417793,0.1,0.008506298065185547,0.18913817405700684,0.04957127,0.024944019,48.223923778753,-0.07162712664801733,0.5987895400186493,11.458333333333334,9600,1.3345422744750977,0.1584121736398323,0.11116970164326585,56.18657656350123,12.5
241,1.7554333209991455,44.06583791188468,119.01225322356929,518.1156618318246,-21.46447196414025,10.416666666666666,3.947528655295187,0.1,0.008527994155883789,0.19890666007995605,0.050141614,0.044955067,47.80811519206617,-0.08012194907177668,0.44071138426155665,10.416666666666666,9600,1.315619945526123,0.15613737120430912,0.12318726464168603,55.00083620816075,12.5
242,1.7441167831420898,32.4056494947671,93.2376673087005,466.07089290861325,-21.117872773924677,7.291666666666667,3.8406691836729534,0.1,0.008462905883789062,0.18956279754638672,0.052048504,0.026546672,46.267868622336266,-0.07800705323896732,0.3236596134276994,7.291666666666667,9600,1.2942636013031006,0.2702621014327761,0.15511603643560654,54.71733794754816,12.5
243,1.750443458557129,60.332321716748616,122.63781563955568,522.1677038565552,-23.605785097397202,11.458333333333334,3.3431967740953463,0.1,0.009155035018920898,0.1881091594696045,0.049766276,0.028959991,47.674313931777505,-0.0699489909323295,0.6033843424010038,11.458333333333334,9600,1.3210482597351074,0.1524635165256879,0.10204930136755337,59.800311132951514,12.5
244,1.8086140155792236,36.19921992640576,99.88131064035954,446.0148368741915,-24.079297951351055,8.333333333333334,4.557941711876436,0.1,0.008415699005126953,0.19012856483459473,0.04971175,0.0252669,46.52680453124033,-0.08338072381147617,0.3616192761885238,8.333333333333334,9600,1.3067541122436523,0.16450438534076153,0.09202041619984612,54.35876842151463,12.5
245,1.7203378677368164,64.06643685682012,128.69320552821475,482.16166727207764,-19.39410371675835,12.5,3.7563157092673376,0.1,0.008526325225830078,0.19156384468078613,0.050241563,0.027326373,48.28076776379831,-0.06973698313511285,0.6390130168648872,12.5,9600,1.2834336757659912,0.14816433107010507,0.11029152487952272,61.25289340175623,12.5
246,1.7208881378173828,52.08319127424954,122.54299436295133,526.105161515815,-22.156949004020877,12.5,4.365853029288376,0.1,0.008614540100097656,0.18854379653930664,0.051334802,0.023367284,48.661010114843435,-0.07577823581791991,0.5204717641820801,12.5,9600,1.304582118988037,0.1307488051372256,0.09089751634503886,62.95419556134763,12.5
247,1.810060977935791,22.97358441259509,87.00466111506655,369.8353800695114,-22.010656585750976,5.208333333333333,3.551340960448719,0.1,0.01017451286315918,0.19139385223388672,0.049610414,0.026016379,46.09226754461861,-0.08147704663728177,0.22977295336271827,5.208333333333333,9600,1.3541665077209473,0.36549098110349443,0.14283569705121396,64.3898160497251,12.5
248,1.7491614818572998,54.99604667999981,127.32128276708549,530.1864318534757,-18.91658927757149,9.375,3.169852529670688,0.1,0.008571386337280273,0.19401240348815918,0.04994483,0.03352084,46.98264545815673,-0.0762298105085638,0.5496035228247695,9.375,9600,1.3495440483093262,0.20300187157745384,0.11417685687041386,60.91805331182976,12.5
249,1.7165112495422363,45.74963085212776,110.40414342665021,498.13425461777234,-21.24076348271258,12.5,3.7029660053816635,0.1,0.008544683456420898,0.18901634216308594,0.050006237,0.027457995,46.859343997553836,-0.07745480621844482,0.4567118604482219,12.5,9600,1.3132355213165283,0.18662020730082854,0.11347668836383606,62.41954352104877,12.5
250,1.8359806537628174,70.3211347377467,133.243054518346,510.25375853086126,-19.355988391989325,12.5,4.411276911478646,0.1,0.009011268615722656,0.19652414321899414,0.05042939,0.01906133,49.205523071573126,-0.06968918143063818,0.7023941519026952,12.5,9600,1.3238379955291748,0.11414301824282565,0.08483796707759285,65.11957021520817,12.5
251,1.7282662391662598,65.08119988429331,130.88406673835675,514.0471716218864,-20.5045690991903,8.333333333333334,3.346297111235395,0.1,0.010088682174682617,0.20874309539794922,0.049916,0.027433323,50.793090752845146,-0.06834602358403329,0.6491539764159667,8.333333333333334,9600,1.340522050857544,0.14217253938875238,0.0957883227056979,62.06326097987957,12.5
252,1.7290308475494385,40.499056850166625,104.34951712529406,550.1919175352731,-23.441765909142703,4.166666666666667,3.9648532776518977,0.1,0.008566141128540039,0.1861257553100586,0.04767486,0.021336125,49.76368736257729,-0.07455470159027827,0.40419529840972174,4.166666666666667,9600,1.281416893005371,0.20836036386660545,0.15924060853552982,60.654198966942694,12.5
253,1.712174892425537,66.51073203350528,124.91361758545487,437.8941036654593,-22.43758526843772,12.5,4.146864492092583,0.1,0.008498430252075195,0.19393110275268555,0.050253835,0.026372997,51.438391829670095,-0.07110456050923143,0.6651454394907684,12.5,9600,1.3065662384033203,0.15445475445322931,0.09457173529284248,63.47671846932062,12.5
254,1.7131788730621338,32.95759994352458,103.6170338024249,449.88528992315065,-22.31854561116274,6.25,3.5531211728362777,0.1,0.008873462677001953,0.19574737548828125,0.049968943,0.023105897,49.59031264105555,-0.07580883279560946,0.3291911672043905,6.25,9600,1.3404948711395264,0.14556515642363657,0.07861926567988839,63.74422251334765,12.5
255,1.7550859451293945,59.584745613168906,134.3747688534511,586.3772587791501,-21.595598119792975,10.416666666666666,3.818109986664797,0.1,0.008797645568847656,0.1960134506225586,0.049857903,0.025925571,50.58975593826688,-0.08538724377951017,0.5954460895538232,10.416666666666666,9600,1.340404748916626,0.12540223311658064,0.09138823286049849,56.98785902020431,12.5
256,1.8126842975616455,68.21705878169863,139.4323984337139,525.9808879450661,-22.0846001037633,12.5,3.4664327376127275,0.1,0.008504152297973633,0.19332242012023926,0.050256196,0.029230343,52.35248622261006,-0.07782466352285403,0.6800920031438125,12.5,9600,1.3138258457183838,0.16250854157657932,0.07867575341829758,59.75788097690536,12.5
257,1.7232375144958496,38.180342787334105,115.72395537321187,550.1420310422126,-20.858346737719618,7.291666666666667,3.82338917753076,0.1,0.008971691131591797,0.1937880516052246,0.04992126,0.025046658,50.935271879082464,-0.08110193540880517,0.38098139792452806,7.291666666666667,9600,1.322380542755127,0.17615863026657855,0.1061730078892932,58.763408353215404,12.5
258,1.7374475002288818,50.43892860830751,119.74048870143343,502.1099149441511,-23.37358206095381,12.5,4.384345550445971,0.1,0.009078025817871094,0.1890394687652588,0.04991143,0.022835698,50.88563755200497,-0.08264590576614057,0.5036040942338594,12.5,9600,1.3424880504608154,0.1417526329768702,0.09429631823219976,59.01065980387206,12.5
259,1.731590986251831,59.67547210538379,136.01709186782713,558.1010193013565,-20.217389042482463,12.5,3.654135001280961,0.1,0.008784294128417969,0.1947779655456543,0.050580684,0.025555534,51.76462100734285,-0.08317823403583577,0.5968217659641643,12.5,9600,1.359464168548584,0.16748228778298999,0.1086093202831145,61.29770698725525,12.5
260,1.7231972217559814,82.03433467040327,148.41947012347427,546.2258633851009,-20.48959075197112,20.833333333333332,4.226871450179447,0.1,0.00878596305847168,0.19492816925048828,0.049446207,0.019520111,54.791592373648896,-0.07505799336925846,0.8195253399640748,20.833333333333332,9600,1.355504035949707,0.14908551938836237,0.08749334900069687,67.47872559921122,12.5
261,1.7419798374176025,50.444597139930295,118.00647716432454,497.9663642544317,-20.39347000303293,10.416666666666666,3.8937748822008555,0.1,0.009699344635009766,0.19112086296081543,0.050218116,0.022508778,54.356892850277035,-0.07511613924717914,0.5040505274194876,10.416666666666666,9600,1.3544158935546875,0.1347460201172369,0.08484969037833516,64.83033018777296,12.5
262,1.7586297988891602,76.72014010609163,140.142458256955,566.2117647228179,-22.24338490497909,17.708333333333332,3.4598233974140014,0.1,0.008389949798583984,0.19135808944702148,0.049609113,0.024192479,56.5932175758585,-0.07191739200452107,0.7664159413288122,17.708333333333332,9600,1.3327620029449463,0.11382362427593076,0.07199623574143124,64.73215628703326,12.5
263,1.8286709785461426,54.411149796544805,122.89894380316271,450.0166795226222,-20.282405392973793,12.5,4.135182505874273,0.1,0.008383512496948242,0.19936609268188477,0.049273893,0.027897472,56.37501079792713,-0.07170348366274959,0.5432965163372504,12.5,9600,1.3241033554077148,0.13707453697794178,0.06980195562020405,64.69001071951139,12.5
264,1.7615692615509033,43.191546683375854,124.46644764687832,566.0196968267946,-23.95877879516224,9.375,4.5153515720099575,0.1,0.008655548095703125,0.19072437286376953,0.049929682,0.022757793,55.05666438647201,-0.09096574180946225,0.431117591523871,9.375,9600,1.352677822113037,0.15699936888431185,0.1149136071307001,55.28101576993898,12.5
265,1.7607038021087646,56.85406903579507,124.40087312237257,462.083374027664,-20.67982641483166,12.5,3.8508901261680903,0.1,0.008658885955810547,0.19070005416870117,0.049876425,0.026735255,55.236404851404316,-0.07807140825275481,0.5677619250805784,12.5,9600,1.3637633323669434,0.13981650027568227,0.08258797709809546,61.790386807587616,6.25
266,1.7213387489318848,70.9333612699122,140.3897108958808,546.1894665933232,-21.4963362823876,11.458333333333334,3.9062895294708655,0.1,0.008603096008300781,0.1922292709350586,0.049863268,0.023719124,56.8061004932551,-0.07523364357227773,0.7085163564277224,11.458333333333334,9600,1.3452234268188477,0.12541540162282877,0.09321777694192784,60.742311137020934,6.25
267,1.7296009063720703,105.7182822667993,172.79810926541478,586.4739997024061,-19.80797780599935,23.958333333333332,3.6200679008297114,0.1,0.00878143310546875,0.19582724571228027,0.050769016,0.023524977,61.697318670609526,-0.061525372318622464,1.0555579610147108,23.958333333333332,9600,1.323009967803955,0.09804742285182799,0.07211219602441468,70.45459378898583,12.5
268,1.7396907806396484,87.61664594676627,163.57432307134428,606.3325877441221,-20.48357864266409,15.625,4.695681970657539,0.1,0.008565664291381836,0.1898341178894043,0.049267422,0.021760056,64.2892513982252,-0.067978755043751,0.8753545782895822,15.625,9600,1.3585121631622314,0.13351793986986749,0.07082619553290637,61.23729872794971,6.25
269,1.8383021354675293,33.47576059623767,108.8692664350482,486.33238141971515,-22.12821884768555,7.291666666666667,3.8751489065633007,0.1,0.00881814956665039,0.18862390518188477,0.049321156,0.025374338,61.207902318026456,-0.08188740031882706,0.3339459330145063,7.291666666666667,9600,1.4020652770996094,0.15489041533690132,0.07522778185397412,64.4819281029464,12.5
270,1.7450640201568604,68.40844955320325,142.90232943820172,530.3419148924278,-19.357706948722278,13.541666666666666,3.0741111141811044,0.1,0.008978843688964844,0.19300270080566406,0.050557856,0.044523127,61.92795704154414,-0.07590966179067447,0.6820070048759921,13.541666666666666,9600,1.3827192783355713,0.0898760444148785,0.05243640276524134,62.0236976383232,12.5
271,1.7208099365234375,59.289835341572484,134.26827664984938,542.2196673072405,-22.050457140734714,10.416666666666666,3.4504252197554823,0.1,0.008949041366577148,0.19022178649902344,0.049942657,0.02918944,61.66414487154697,-0.0724753382241612,0.5925246617758387,10.416666666666666,9600,1.3674967288970947,0.1380848272031551,0.09803306829491952,60.50548078234281,12.5
272,1.7185745239257812,61.04311982986888,151.9817683846172,650.586712910704,-23.740749442249044,10.416666666666666,3.9185164993559902,0.1,0.008644580841064453,0.2029283046722412,0.048780784,0.030689208,61.60204236737916,-0.07660345758617877,0.6104798757471547,10.416666666666666,9600,1.393629550933838,0.16564281510698606,0.061735824565698844,55.27518371034261,12.5
273,1.7293987274169922,36.973791820804756,109.19322719242422,538.0134649554209,-20.297476080257546,7.291666666666667,3.7847548413790504,0.1,0.008916854858398438,0.1881272792816162,0.049208578,0.026682192,59.13921731272172,-0.07895091675658807,0.36979908324341193,7.291666666666667,9600,1.3883624076843262,0.2896603552032219,0.1180551037467649,57.72579066192661,12.5
274,1.7005369663238525,65.06598592262444,148.46503654350977,614.32629923517,-24.699340202487146,12.5,3.7272698643771367,0.1,0.008773088455200195,0.19304299354553223,0.0495157,0.027524421,59.73189417371199,-0.08052577151038413,0.6507242284896159,12.5,9600,1.3671307563781738,0.14706541459539524,0.07468037666207603,61.64785183734325,12.5
275,1.7304036617279053,54.21886781404013,128.93352806416033,558.1108431387935,-23.352826012899545,13.541666666666666,4.366864963176862,0.1,0.00877833366394043,0.18877696990966797,0.049101245,0.01995742,59.18059153774481,-0.0773532436612772,0.5418134230053894,13.541666666666666,9600,1.3862097263336182,0.15122900322559743,0.10297997642792972,57.82282615921897,12.5
276,2.0384998321533203,54.738427284820325,150.1031487681555,618.4476929682086,-20.573875876753075,13.541666666666666,4.130714792086042,0.1,0.009084701538085938,0.1934201717376709,0.049162112,0.025264844,58.736375112452365,-0.08504371413681455,0.5474562858631854,13.541666666666666,9600,1.4306578636169434,0.14572707484218125,0.08684323529089517,58.23023038988479,12.5
277,1.7393877506256104,70.36950336164817,137.15005843582696,502.26590274229625,-22.15767749947731,13.541666666666666,3.7530291113695307,0.1,0.008652210235595703,0.19322824478149414,0.048765715,0.023371464,59.89968793737195,-0.06625418600576086,0.7024958139942391,13.541666666666666,9600,1.4121947288513184,0.13511658712901167,0.07093561274037694,59.11443722343362,12.5
278,1.705946683883667,65.50423271738417,141.07033778549115,494.1089768306921,-21.624288868099605,14.583333333333334,4.431486016298548,0.1,0.009194612503051758,0.18979334831237793,0.05077396,0.020752659,60.46014241537318,-0.07573557618956964,0.6550977571437636,14.583333333333334,9600,1.3867011070251465,0.15360167777570546,0.07703413591503357,61.7561864959403,12.5
279,1.7272632122039795,51.43033743863617,135.42978770308534,558.371000380907,-22.9055681114322,9.375,4.409767918584934,0.1,0.008505821228027344,0.1945648193359375,0.04863168,0.023763001,59.55716191769948,-0.07730121089443776,0.5135321224388956,9.375,9600,1.3605444431304932,0.11904831830640909,0.06643209952765392,58.53327282513069,12.5
280,1.7380659580230713,92.39922336757569,162.52249679872574,574.3073879335627,-21.080276284914827,18.75,3.583796934134568,0.1,0.00863337516784668,0.1946415901184082,0.05054315,0.029198535,62.84136806268711,-0.06930742899335976,0.9231925710066403,18.75,9600,1.3903889656066895,0.08045574796258687,0.05208898288069741,59.59900761066691,12.5
281,1.763631820678711,64.79409536327694,137.6626625886579,586.3489472783039,-22.08427427406577,14.583333333333334,3.292021283422704,0.1,0.008540153503417969,0.19366025924682617,0.049045403,0.036779556,63.03664079274609,-0.07036996946854568,0.6467133638647876,14.583333333333334,9600,1.3491389751434326,0.1094312759770259,0.0909740060672367,70.96114645861952,12.5
282,1.7877984046936035,57.29332306503215,136.387500315891,530.3149049734924,-21.95467554908745,13.541666666666666,4.06709072520896,0.1,0.008559226989746094,0.19082069396972656,0.049982585,0.021935089,62.4623090199747,-0.08161226745576321,0.5725543992109035,13.541666666666666,9600,1.3332316875457764,0.1396615335258261,0.07297346228767168,55.21349339128407,12.5
283,1.7092421054840088,80.42573751847738,166.9845502028435,630.3991222242573,-20.6103181902914,15.625,3.2025378058147664,0.1,0.008751153945922852,0.19460344314575195,0.049295675,0.04007245,64.25865186982496,-0.07989156416773123,0.8026084358322688,15.625,9600,1.3799550533294678,0.09721206797965301,0.06121323883865779,63.13456715058774,12.5
284,1.7440338134765625,67.53683430306042,146.22268382630534,610.2841537366082,-23.65272322473543,15.625,3.83012371642571,0.1,0.008704662322998047,0.1921525001525879,0.04971804,0.03159654,64.58647011314851,-0.06959875877856601,0.674151241221434,15.625,9600,1.3806836605072021,0.18995064525297,0.1319001326766856,62.75899442507709,12.5
285,1.711484670639038,44.20397570065821,127.8607373561127,570.3015343973385,-20.822719270095178,8.333333333333334,3.5617424969226654,0.1,0.008480548858642578,0.19165539741516113,0.04961143,0.027416613,62.54822067189948,-0.08042794771807996,0.44040538561525344,8.333333333333334,9600,1.3480963706970215,0.10792780488403451,0.07354900550327761,61.58267704274943,12.5
286,1.7309691905975342,43.504820142278874,110.5945747309989,526.0224968389723,-21.88172665429401,10.416666666666666,3.381503062478656,0.1,0.008794784545898438,0.18676066398620605,0.050236057,0.03363565,60.643880618937416,-0.07949013697309826,0.4350931963602351,10.416666666666666,9600,1.3723185062408447,0.10904558528880377,0.07171678416632214,59.54015099378041,12.5
287,1.7246909141540527,65.5049799976855,152.90109083950043,630.3360131962648,-19.971893485864992,11.458333333333334,3.922100975278482,0.1,0.009700536727905273,0.18950390815734863,0.050434925,0.023791226,61.12999055681223,-0.07741569168833011,0.6538343083116699,11.458333333333334,9600,1.4291203022003174,0.10645788494669828,0.06975048406509461,60.40015268866463,12.5
288,1.7326555252075195,80.7910384843209,162.96833227647747,578.2015793049542,-20.343211663661805,17.708333333333332,4.0394027369034635,0.1,0.008353233337402344,0.1869356632232666,0.049859837,0.023134312,63.0960953495631,-0.08248606359636988,0.8066806030702969,17.708333333333332,9600,1.3864436149597168,0.13441679624152814,0.0766736283972933,60.370927546237496,12.5
289,1.8785204887390137,60.6464465575618,128.8797264267075,429.97893919666535,-20.52548001990408,12.5,3.4493004220064023,0.1,0.009314775466918945,0.1948709487915039,0.050118405,0.026288776,62.851130470362975,-0.07850028868017751,0.6056663779864891,12.5,9600,1.3716235160827637,0.16011588733836046,0.05940703483586825,56.46178487476985,12.5
290,1.729616403579712,77.71233508804346,155.20076976374958,634.3971102090911,-20.984768682655172,20.833333333333332,4.065459559407537,0.1,0.008746147155761719,0.1922142505645752,0.050868206,0.026524166,64.33725093213103,-0.07408513144243749,0.7767482018908959,20.833333333333332,9600,1.3728814125061035,0.10055534928141437,0.0567767506661736,59.07562141999976,12.5
291,1.7506368160247803,55.409035253497954,137.4584741219044,590.2034920482319,-20.981303036525734,10.416666666666666,3.369706453932155,0.1,0.008677244186401367,0.19076132774353027,0.05025247,0.025791984,63.44442936426773,-0.07049354304938528,0.552839790283948,10.416666666666666,9600,1.3690288066864014,0.10217735186623052,0.06876524246693874,56.06937965093825,6.25
292,1.703521728515625,55.448875805251326,138.319552707698,602.3596335846556,-21.349410836998157,8.333333333333334,3.688769974716171,0.1,0.008620738983154297,0.19580292701721191,0.049236804,0.02589217,62.64487400836609,-0.07833455818575792,0.554165441814242,8.333333333333334,9600,1.337371826171875,0.13958627047900093,0.10905798350331511,53.30964987733681,6.25
293,1.730726718902588,49.8115093411809,120.25994726434668,542.1199508645274,-20.681140134337056,11.458333333333334,3.2313972789024894,0.1,0.008929014205932617,0.20564842224121094,0.05057989,0.033650916,61.36153754164757,-0.07558247128992586,0.49816752871007414,11.458333333333334,9600,1.3631579875946045,0.09941301523689806,0.07055746404483412,60.059623409008026,12.5
294,1.7337446212768555,56.37772747287371,127.47823773924722,433.97998850303276,-20.849632918813242,13.541666666666666,4.515360360210843,0.1,0.009663105010986328,0.19273090362548828,0.05014089,0.022247655,60.863156534770184,-0.07076426414850094,0.5634024025181658,13.541666666666666,9600,1.3327431678771973,0.18717058563603842,0.09497168769053956,70.35860960528885,12.5
295,1.9370529651641846,54.82047082134539,133.74995031076546,570.3747180223069,-18.229302776152633,8.333333333333334,3.8333537207766404,0.1,0.008948802947998047,0.1941976547241211,0.05041267,0.026637007,60.25888796342771,-0.0738283972276939,0.5474216027723061,8.333333333333334,9600,1.3320996761322021,0.14482248521772684,0.10829404156262169,65.84644737853178,6.25
296,1.729442834854126,61.260823708896055,135.11565321221576,538.2682838804534,-20.124856967679843,13.541666666666666,3.32743760009237,0.1,0.008748292922973633,0.2040092945098877,0.049929403,0.02569664,60.35908153797455,-0.07777796392530213,0.6126387027413646,13.541666666666666,9600,1.3585474491119385,0.11839289732480897,0.06223929969541682,65.6482959918667,6.25
297,1.7632079124450684,54.09409083380657,136.73203609928598,489.93259321694154,-20.24344029072876,10.416666666666666,3.879638006975307,0.1,0.008422374725341797,0.1863691806793213,0.050162464,0.025642863,59.732582467557755,-0.08028592589185164,0.540130740774815,10.416666666666666,9600,1.3219108581542969,0.12492949975781967,0.07928403079519954,77.47889605062535,12.5
298,1.7293384075164795,54.75996259001946,142.42775740502051,650.5524347584874,-21.181885447859667,14.583333333333334,3.9011552949587496,0.1,0.008887529373168945,0.20425868034362793,0.052576456,0.019557659,59.235320479803924,-0.0798528154906385,0.5472305178426948,14.583333333333334,9600,1.306102991104126,0.07336664865977398,0.05665670930507186,73.9506576724199,12.5
299,1.7385408878326416,56.195842441682906,132.7973975171359,578.3426616636049,-20.945697913366526,10.416666666666666,3.526876027894234,0.1,0.008966922760009766,0.18997526168823242,0.05007304,0.028300555,58.931372675991824,-0.07260455860114486,0.561145441398855,10.416666666666666,9600,1.29624342918396,0.1026313974496849,0.06189711586128243,79.24563587487957,12.5
300,1.694622278213501,58.212084375577945,141.44849177522582,542.2470385929038,-23.278504226266538,14.583333333333334,4.689148037044976,0.1,0.009016752243041992,0.1934034824371338,0.05117137,0.02299063,58.85944384595044,-0.07739419644538939,0.5821891368879438,14.583333333333334,9600,1.3073220252990723,0.09550446152927895,0.054372229262626255,75.78270748556555,12.5
301,1.796152114868164,72.29239313630306,154.1125345136723,546.1562238866878,-20.729231084411563,14.583333333333334,3.9215726182646278,0.1,0.0086212158203125,0.1879291534423828,0.046011243,0.02428269,60.202738774985704,-0.07159667886916736,0.7221533211308327,14.583333333333334,9600,1.2999584674835205,0.11796151297913832,0.0790740898881465,71.2986033347335,12.5
302,1.7764976024627686,62.44827039345131,129.30473823163817,454.0311835863683,-19.59524712845664,10.416666666666666,3.8676762518715893,0.1,0.00884246826171875,0.18596673011779785,0.05030117,0.023772927,60.42729193683227,-0.06920919804375042,0.6241241352895831,10.416666666666666,9600,1.2601256370544434,0.16582370937956503,0.07323302108274925,75.28408424673917,12.5
303,1.7359521389007568,58.94423203908707,125.2111327431633,522.0360292506284,-20.42070824716319,12.5,3.752203151021175,0.1,0.008585453033447266,0.19255709648132324,0.049245335,0.028252501,60.27898594705775,-0.07216673268199615,0.5890832673180039,12.5,9600,1.258180856704712,0.17679125277221142,0.1092503970046709,74.53330475448428,12.5
304,1.724956750869751,71.71214833248173,159.29578516402043,626.3982117248631,-20.792938155621368,14.583333333333334,3.9712717293022957,0.1,0.00876760482788086,0.18636846542358398,0.05067838,0.030299397,61.422302185600145,-0.07405941426466135,0.716773919068672,14.583333333333334,9600,1.2665443420410156,0.10168270986747643,0.06169485859917351,82.07793992369632,12.5
305,1.8687565326690674,81.14011337936391,148.53503514574646,542.1774490989296,-20.418303622512703,14.583333333333334,4.1120103444130525,0.1,0.008793830871582031,0.19574379920959473,0.05125364,0.021300018,63.39408330497652,-0.07441159068481214,0.8110050759818547,14.583333333333334,9600,1.3346526622772217,0.07625213154467253,0.060892450272432036,80.56834063600682,12.5
306,1.7272837162017822,80.23189129312124,158.16151327127932,542.326436973078,-19.031044431852656,14.583333333333334,3.961066773606707,0.1,0.008245468139648438,0.18729805946350098,0.050603747,0.024439631,65.077864103791,-0.06759450917514534,0.8024054908248548,14.583333333333334,9600,1.2845494747161865,0.09881943571088496,0.06718932596611087,82.63452715476888,12.5
307,1.7994401454925537,43.3334577591898,120.6191489679408,489.9909821599246,-21.143243723427634,6.25,3.6641596286917695,0.1,0.008597373962402344,0.19560575485229492,0.049230304,0.025411204,62.90342346933088,-0.07992603390640629,0.4329906327602604,6.25,9600,1.2956469058990479,0.13583580596405287,0.0752183421369521,86.81016795965002,12.5
308,1.7433314323425293,57.952120939233,139.47771689370916,554.1634466295852,-21.359866690318913,10.416666666666666,3.9701968598101685,0.1,0.008737325668334961,0.19058990478515625,0.05028927,0.022971697,62.4082932163211,-0.07583816579566112,0.5783285008710055,10.416666666666666,9600,1.3062841892242432,0.15092316757350788,0.10830656035563897,77.06985111784577,12.5
309,1.7251741886138916,73.43133349365769,142.36534278447084,506.01341127688016,-18.458103321578093,14.583333333333334,3.769372647233235,0.1,0.00888514518737793,0.19713616371154785,0.04958957,0.02818181,63.510597244054765,-0.07063066254015464,0.7335360041265121,14.583333333333334,9600,1.3620946407318115,0.1282663200762601,0.07451399235152942,71.35599214294716,12.5
310,1.7729825973510742,84.39628577012324,161.52116702757863,642.5445891057767,-19.32040942813663,15.625,3.815607782151746,0.1,0.008944034576416016,0.1951284408569336,0.050069034,0.028540542,65.59916609666162,-0.06184189223012454,0.8427414411032089,15.625,9600,1.3416101932525635,0.09705863165011668,0.067472535076058,75.05355953068124,12.5
311,1.7285537719726562,58.26739503176456,148.65520136807703,610.3483044006558,-23.895023424418568,10.416666666666666,3.7732926653416627,0.1,0.008606910705566406,0.20171260833740234,0.04860989,0.02784052,64.86598899017191,-0.08106562116884292,0.5822677121644905,10.416666666666666,9600,1.327054738998413,0.11492882561425383,0.07362431289430488,74.75235288548716,12.5
312,1.7447001934051514,49.74039398583117,129.66681614892602,570.4159411100339,-22.059323514954922,6.25,3.1784415732456917,0.1,0.008584976196289062,0.1876075267791748,0.05037747,0.024004225,63.35342948973784,-0.07714440720541847,0.4970222594612482,6.25,9600,1.3178212642669678,0.09962439918044905,0.06993499928158743,74.05554046801724,12.5
313,1.8302030563354492,87.5431412877238,164.6429550287937,626.344311137797,-19.87891978297394,18.75,4.15972721746104,0.1,0.008856773376464844,0.19766736030578613,0.048603285,0.027505703,65.77240066953644,-0.06497188688515419,0.8746114464481792,18.75,9600,1.32879638671875,0.11911758511844392,0.06606757053392616,75.26596916631223,12.5
314,1.9450111389160156,54.75279172798767,134.70506619377838,502.22814575033993,-22.691583513637706,7.291666666666667,3.152746730411484,0.1,0.008410215377807617,0.19494342803955078,0.049583316,0.037617236,64.67043977538157,-0.0782466072789379,0.5475867260543955,7.291666666666667,9600,1.3486220836639404,0.12345162577902029,0.07156370870391755,72.48588232191264,12.5
315,1.7075755596160889,83.91638061323829,153.0804791415614,542.1634207055077,-20.39164660932509,16.666666666666668,3.460066999579302,0.1,0.008642435073852539,0.1892697811126709,0.050705906,0.027163165,66.59503385916724,-0.07287524038519112,0.8392080929481422,16.666666666666668,9600,1.334097146987915,0.13212067439259836,0.07014574194797375,67.5494918990732,12.5
316,1.7156190872192383,42.7493559779361,115.92859721368896,461.94464234098893,-22.6821944312498,8.333333333333334,4.19776146707336,0.1,0.008481264114379883,0.1876850128173828,0.050540745,0.0225905,64.21046607104414,-0.0799727736690235,0.42669389299764315,8.333333333333334,9600,1.3298156261444092,0.24541335255223357,0.0829049897227879,76.57471553022688,12.5
317,1.7159171104431152,75.76373291319278,156.69489378600045,582.1746227897416,-20.491919173170047,15.625,3.980237510970142,0.1,0.008741140365600586,0.19875216484069824,0.049351662,0.027657969,65.36579275525901,-0.07151504587422731,0.755568287459106,15.625,9600,1.3524889945983887,0.12585450917393226,0.05447765990375715,74.81124343277664,12.5
318,1.7573823928833008,72.7920713701969,158.38240758607935,606.464267022727,-19.98671960146784,14.583333333333334,3.8060956259477776,0.1,0.008715152740478516,0.1943037509918213,0.051442713,0.044608522,66.1084206167528,-0.06870506449297643,0.7267116021736904,14.583333333333334,9600,1.3596770763397217,0.09379729738833202,0.06015481243024003,75.46680518738587,12.5
319,1.7353651523590088,72.22784336193202,143.1937540908958,482.0397585849702,-20.025727974674446,11.458333333333334,4.046220019723932,0.1,0.009075641632080078,0.19065093994140625,0.05092611,0.022365788,66.72036289127072,-0.07893248049386818,0.7214841861727984,11.458333333333334,9600,1.3597311973571777,0.2300596827141693,0.0828437106027681,73.26392677055918,12.5
320,1.7801198959350586,76.3185888745295,167.37356779948468,570.224636097292,-22.9744540874403,18.75,3.3491020263387714,0.1,0.008491992950439453,0.18687033653259277,0.05034283,0.027034374,67.6801854895966,-0.0834380927663013,0.7623952405670321,18.75,9600,1.3321826457977295,0.10347971477462686,0.05665100326189069,66.98741136495231,12.5
321,1.7294886112213135,65.78688922601378,156.7108214935669,626.5068088453513,-22.424242547822605,13.541666666666666,3.3792611179880785,0.1,0.009510517120361328,0.20920133590698242,0.049223825,0.028263109,67.49085586323831,-0.07958932158196226,0.6558273450847043,13.541666666666666,9600,1.3345754146575928,0.08442043012372594,0.059481655270451156,75.46762271187444,12.5
322,1.7122178077697754,66.90181549359153,146.6212039346151,506.0251128364951,-19.68421367253408,12.5,3.1528011628092067,0.1,0.008995771408081055,0.19109797477722168,0.049845457,0.031172058,67.43195182627363,-0.06595733188253568,0.668209334784131,12.5,9600,1.3668427467346191,0.09356454807538142,0.061353949551041204,78.66793820115106,12.5
323,1.8501174449920654,67.61120169451247,152.8074256010819,626.4570934995671,-21.187992351380636,13.541666666666666,3.973119733335387,0.1,0.008814334869384766,0.19892311096191406,0.05058885,0.024085095,67.44987681309752,-0.07509469748745955,0.6757386358458738,13.541666666666666,9600,1.3923265933990479,0.0984507185358309,0.046134559985796124,75.35633934060077,12.5
324,1.7324955463409424,67.15581050397235,150.33404250353857,670.4957628030834,-22.03076046440391,12.5,3.4390389747182297,0.1,0.009533166885375977,0.19501376152038574,0.05049316,0.027915306,67.420470182185,-0.07464320531423475,0.6703567946857653,12.5,9600,1.3358228206634521,0.10650711319023627,0.058800310272120605,72.44400079405254,12.5
325,1.721820592880249,48.01932692351405,125.10716810613754,558.209008405703,-24.378040798495324,8.333333333333334,3.455421977750323,0.1,0.008856773376464844,0.1923825740814209,0.047656182,0.019897921,65.4803558563179,-0.08891938986543997,0.4789972768012267,8.333333333333334,9600,1.3492932319641113,0.1009961156369089,0.06023365097900448,72.0187785044963,12.5
326,1.7258174419403076,75.6609578430838,144.4815930198664,522.3497588774566,-21.82450904154309,15.625,3.3639662858491817,0.1,0.008752584457397461,0.1886425018310547,0.049029592,0.032966312,66.4984160549945,-0.07293573343333365,0.7566475998999999,15.625,9600,1.3790671825408936,0.10343074396726196,0.07550262922073975,67.57606767015962,12.5
327,1.9181263446807861,84.51966924140854,148.37179402204,618.4603355811369,-22.052985200906935,14.583333333333334,3.637970251681482,0.1,0.00854182243347168,0.1997678279876709,0.050178453,0.027189318,68.3005413736359,-0.0714408801055064,0.8448091198944936,14.583333333333334,9600,1.3861441612243652,0.11876199252501071,0.06359287537550518,75.35145949874527,12.5
328,1.7084593772888184,57.5013547766421,143.5832019692934,526.0672195934209,-22.43223197042423,10.416666666666666,3.239519978897016,0.1,0.008660554885864258,0.19234061241149902,0.051273447,0.027364712,67.22062271393652,-0.08491440268174755,0.5742522639849191,10.416666666666666,9600,1.3882977962493896,0.10088984655679037,0.07011868095438424,74.15221725601378,12.5
329,1.7306454181671143,59.077318679872626,145.85998378696445,642.5643048986188,-22.565136022782834,12.5,4.111974568614187,0.1,0.008847713470458984,0.21280336380004883,0.05037228,0.025096396,66.40629231053013,-0.0775074321670794,0.5904092344995872,12.5,9600,1.3823087215423584,0.13382939564461097,0.08024050104798297,69.35470918108503,18.75
330,1.7704534530639648,36.53684628669948,125.05152286352542,634.5330777691825,-20.206550979934086,8.333333333333334,3.6496128791403213,0.1,0.008829355239868164,0.19173455238342285,0.049261454,0.02511565,63.41934770814707,-0.08331298279177785,0.3646036838748888,8.333333333333334,9600,1.4152090549468994,0.11282788294960899,0.0863850856191691,79.37351959106931,18.75
331,1.993818998336792,56.21370784402804,132.85711407786349,501.9480312400211,-19.41400694552081,12.5,3.1101846691088593,0.1,0.008984088897705078,0.18888473510742188,0.049840216,0.03270818,62.698783721735175,-0.07323636991349637,0.561346963419837,12.5,9600,1.3899452686309814,0.0748702025088327,0.055819487061354894,85.92273967585648,18.75
332,1.719940423965454,60.662509112553245,139.827994987343,510.10914483445686,-21.218145573855004,12.5,3.6086985226183796,0.1,0.008598804473876953,0.19858002662658691,0.05042378,0.03041758,62.495156260816984,-0.07334456430352959,0.6058221023631369,12.5,9600,1.3358538150787354,0.09294238930189953,0.05461284396430764,69.40508518666077,12.5
333,1.811964511871338,83.31002824203644,163.0536431714712,646.5037168267427,-20.54095743329499,16.666666666666668,3.9025179055178985,0.1,0.008861780166625977,0.19295859336853027,0.049501203,0.023170788,64.57664345893893,-0.07520769211993827,0.8310423078800618,16.666666666666668,9600,1.3627474308013916,0.09751272773925064,0.07437818339535374,80.91639044813446,12.5
334,1.7510249614715576,72.72111417852143,158.37781020529695,534.2724168930831,-22.280742334362536,13.541666666666666,3.3650914245323094,0.1,0.008905887603759766,0.19816923141479492,0.05022143,0.03172634,65.39109053089719,-0.07898359208717487,0.7260164079128252,13.541666666666666,9600,1.316617727279663,0.13275996079803448,0.06927488384931568,77.42862599395156,12.5
335,1.7143259048461914,61.891877372066574,146.09530569496346,542.4355055804655,-22.50364308562104,12.5,3.755943087076204,0.1,0.00906515121459961,0.19211220741271973,0.05056024,0.027961021,65.04116921501412,-0.08058447211292288,0.6185821945537437,12.5,9600,1.2965185642242432,0.07505241258446951,0.048156084165682636,80.18212455912297,18.75
