iteration,time_sampling,stoc_pol_mean,stoc_pol_std,stoc_pol_max,stoc_pol_min,rollout_success,alpha,delta,time_vpg,time_npg,kl_dist,surr_improvement,running_score,rwd_sparse,rwd_dense,success_percentage,num_samples,time_VF,VF_error_before,VF_error_after,eval_score,eval_success
0,3.0423903465270996,-219.63781347346898,0.6676461967935297,-217.86951028943488,-221.2428969973377,0.0,7.7504536306373835,0.1,0.028515338897705078,0.4918959140777588,0.7076223,-0.022192005,-219.63781347346898,-1.0980942705980172,-1.0980942705980172,0.0,19200,2.007798671722412,0.9992828366645079,0.005768903847229226,-212.88828375809953,0.0
1,2.738640785217285,-213.5480784031935,0.7001624433320043,-212.26321138825347,-215.73584771421227,0.0,11.441644002060057,0.1,0.01668238639831543,0.45165371894836426,0.04719485,0.008306361,-219.02883996644144,-1.0676933825429584,-1.0676933825429584,0.0,19200,2.2130191326141357,0.02174855763247222,0.0034505413809661043,-212.85567025262625,0.0
2,2.7847890853881836,-213.34201246432758,0.6833179208951082,-211.77618094727168,-215.0105481889221,0.0,7.1991141547710535,0.1,0.02014780044555664,0.6282720565795898,0.05068183,0.013466012,-218.46015721623007,-1.0666654274841407,-1.0666654274841407,0.0,19200,2.7645890712738037,0.007958757812033595,0.0010543692268063782,-213.21990352761793,0.0
3,2.875229835510254,-213.72127352449945,0.6484643724469117,-211.37603628148426,-215.440315606865,0.0,5.040701374252904,0.1,0.019192934036254883,0.5560669898986816,0.053163745,0.01976859,-217.98626884705703,-1.068569836012461,-1.068569836012461,0.0,19200,3.569031000137329,0.006179049456526207,0.0005757871778664042,-213.0429269661231,0.0
4,2.8523340225219727,-213.7147988967822,0.48601460121017875,-212.67093455308975,-215.2115296136053,0.0,6.4493291635036565,0.1,0.0476987361907959,0.5621812343597412,0.048549227,0.014879338,-217.55912185202956,-1.0685451190394137,-1.0685451190394137,0.0,19200,3.9104814529418945,0.0032293381739297382,0.00021401482457461077,-213.11448409858139,0.0
5,3.064535617828369,-213.8507497297986,0.4806364984088488,-212.53952487910385,-215.09800260867115,0.0,5.381484485714349,0.1,0.014777660369873047,0.36618852615356445,0.053815573,0.017160658,-217.18828463980645,-1.0692282202084116,-1.0692282202084116,0.0,19200,3.888726234436035,0.00058559169543833,0.0001008208047970095,-212.742951702762,0.0
6,2.839569330215454,-213.4991793940119,0.4286316512316556,-212.50854564152453,-214.43771828853525,0.0,5.907644649174231,0.1,0.018240690231323242,0.3609464168548584,0.051886484,0.016296694,-216.81937411522702,-1.0674751466762027,-1.0674751466762027,0.0,19200,3.2656362056732178,0.0007256813917087028,5.068359836772885e-05,-212.2555834791862,0.0
7,2.787930727005005,-212.97907517261243,0.3995156776491968,-211.95072764473036,-213.8896416849957,0.0,6.252310054494732,0.1,0.01820683479309082,0.5392143726348877,0.04951147,0.015722,-216.43534422096556,-1.0648785145356572,-1.0648785145356572,0.0,19200,3.0101935863494873,0.000263369554309313,3.617681680965679e-05,-212.09399176537855,0.0
8,2.7843611240386963,-212.70643323484674,0.35850261492472213,-211.88800955544144,-213.59987953112707,0.0,4.904384759968386,0.1,0.014814138412475586,0.330949068069458,0.04855255,0.01761183,-216.06245312235367,-1.0635169683855261,-1.0635169683855261,0.0,19200,3.009514331817627,0.00017864803714085,2.2859586068534244e-05,-211.97951922935306,0.0
9,2.8398075103759766,-212.4456690891462,0.3436776847690803,-211.71787796079354,-213.24733153710926,0.0,5.312557603811111,0.1,0.01533055305480957,0.42066144943237305,0.048068415,0.016771993,-215.70077471903295,-1.0622147527023125,-1.0622147527023125,0.0,19200,3.2011358737945557,8.657357377753883e-05,2.041842034774605e-05,-211.9163142596293,0.0
10,2.852003335952759,-212.2403769718501,0.3025300508607109,-211.43595425775843,-212.9198866661167,0.0,5.917053908700652,0.1,0.019715070724487305,0.464144229888916,0.05308729,0.015709754,-215.35473494431466,-1.0611888551917446,-1.0611888551917446,0.0,19200,3.499605894088745,7.865781493245888e-05,1.5235958516288948e-05,-211.85068236183437,0.0
11,3.090176820755005,-212.14005816078202,0.24691890685018333,-211.23536050975136,-212.76446137889127,0.0,6.964676919757134,0.1,0.01497197151184082,0.3958873748779297,0.03660705,0.010594908,-215.0332672659614,-1.0606876002456216,-1.0606876002456216,0.0,19200,3.321268320083618,4.044524284619569e-05,1.3264338590566336e-05,-211.845305482372,0.0
12,2.7998814582824707,-212.04969703587017,0.21000667968923026,-211.53368212586912,-212.60802514386071,0.0,5.342911606263943,0.1,0.030174732208251953,0.4993128776550293,0.046383467,0.015088277,-214.73491024295228,-1.060235846805644,-1.060235846805644,0.0,19200,3.9411938190460205,3.51168843012694e-05,1.0709280109520031e-05,-211.85040949761847,0.0
13,2.8201279640197754,-211.97656475586749,0.23728857419113084,-211.43304090406824,-212.48642045121224,0.0,6.672729702770525,0.1,0.024076461791992188,0.5115540027618408,0.04252443,0.011018864,-214.4590756942438,-1.0598702395096875,-1.0598702395096875,0.0,19200,3.0814743041992188,2.318674834936627e-05,9.104485110270072e-06,-211.8524817619794,0.0
14,2.8829219341278076,-211.9117025263225,0.22622447249431926,-211.18283801202315,-212.38421426687705,0.0,4.628389399621861,0.1,0.016222476959228516,0.48978209495544434,0.030582963,0.01220112,-214.20433837745168,-1.0595458119687982,-1.0595458119687982,0.0,19200,3.0099306106567383,9.892797216099062e-06,7.32305843117112e-06,-211.93875231601865,0.0
15,2.837390184402466,-211.84918365145657,0.19065593527669913,-211.27632976068585,-212.14942613336342,0.0,5.242159399390847,0.1,0.016926288604736328,0.4474501609802246,0.03849448,0.013560947,-213.96882290485217,-1.0592330940755768,-1.0592330940755768,0.0,19200,3.091463327407837,6.9672305258882916e-06,7.3867449535280664e-06,-211.9842807397834,0.0
16,2.885561227798462,-211.88679750653466,0.1928090609325102,-211.4050286644399,-212.4488298535961,0.0,5.352982244691312,0.1,0.02612471580505371,0.5241611003875732,0.04045925,0.013001833,-213.76062036502043,-1.0594208612034732,-1.0594208612034732,0.0,19200,3.1262667179107666,5.60085757710099e-06,4.837432351571006e-06,-212.19100336323106,0.0
17,3.176823854446411,-212.03792075791898,0.1625921951130383,-211.60789965737766,-212.52897112224326,0.0,7.918319046820725,0.1,0.02054595947265625,0.40471482276916504,0.04308556,0.00959847,-213.5883504043103,-1.0601764492006611,-1.0601764492006611,0.0,19200,2.934410333633423,7.278198666605475e-06,3.952832510299555e-06,-212.23109883713443,0.0
18,2.8398120403289795,-211.99402944151188,0.15142746542902463,-211.58732929652678,-212.33535067523601,0.0,6.934984908532097,0.1,0.020298480987548828,0.436521053314209,0.043429293,0.01024004,-213.42891830803046,-1.0599570526777498,-1.0599570526777498,0.0,19200,3.127401828765869,3.84834036921918e-06,6.300338152680341e-06,-212.2371251569478,0.0
19,2.878096580505371,-211.99021116987626,0.15386128199602736,-211.61421312490216,-212.4481373607156,0.0,7.152703146025509,0.1,0.030202150344848633,0.6432123184204102,0.04701238,0.010679823,-213.28504759421506,-1.0599378395360606,-1.0599378395360606,0.0,19200,3.1859312057495117,1.0498128974068027e-05,3.4934449160984817e-06,-212.16880007576088,0.0
20,2.8427655696868896,-211.92870614937655,0.16523163671487825,-211.5006536211966,-212.25247300428734,0.0,7.001637475329632,0.1,0.017884492874145508,0.3987865447998047,0.03894528,0.010311773,-213.1494134497312,-1.0596301876204255,-1.0596301876204255,0.0,19200,2.8711533546447754,3.5152537874069953e-06,3.2508233532281083e-06,-212.04821443204744,0.0
21,2.8566980361938477,-211.86310114430452,0.15242170259434498,-211.45049666120133,-212.17048553041653,0.0,7.500769181720296,0.1,0.020334959030151367,0.4368619918823242,0.04057423,0.009621516,-213.02078221918856,-1.0593022214284877,-1.0593022214284877,0.0,19200,3.168658494949341,3.385758358351566e-06,3.8540732023469405e-06,-212.13525883958405,0.0
22,2.8299882411956787,-211.90264281273335,0.16100442103535295,-211.52959002125567,-212.25463251443134,0.0,6.979264922010387,0.1,0.015069723129272461,0.34772706031799316,0.046954032,0.011820401,-212.90896827854303,-1.059499752010803,-1.059499752010803,0.0,19200,2.683126926422119,3.4580703455664794e-06,4.0867116556356625e-06,-211.94141500630445,0.0
23,3.070643186569214,-211.7387971070551,0.14977959085324566,-211.43753558155694,-212.1103553895219,0.0,8.214591994235047,0.1,0.02442455291748047,0.4107475280761719,0.034505595,0.0063154097,-212.79195116139422,-1.0586804819802624,-1.0586804819802624,0.0,19200,2.777413845062256,4.168595921154701e-06,3.4527017267090463e-06,-211.83575662095643,0.0
24,2.844162940979004,-211.6605632571226,0.15899824572040633,-211.29199013289286,-212.09237323320662,0.0,6.978902823707474,0.1,0.024042606353759766,0.4630894660949707,0.03937347,0.010644856,-212.67881237096708,-1.0582891022147891,-1.0582891022147891,0.0,19200,3.0630528926849365,4.578931367356439e-06,6.687144253139581e-06,-211.67373845564356,0.0
25,2.8488106727600098,-211.54626758269467,0.1731263225075205,-211.17633612967953,-211.96971790171372,0.0,7.86908147941803,0.1,0.021454811096191406,0.4243144989013672,0.034340926,0.008744467,-212.56555789213985,-1.0577176001889315,-1.0577176001889315,0.0,19200,2.9661550521850586,9.088605033566584e-06,2.878507691206975e-06,-211.35958840621174,0.0
26,2.942513942718506,-211.27136618593963,0.17923030866130554,-210.67915095509585,-211.71562016611077,0.0,7.397720915907309,0.1,0.019024133682250977,0.5830402374267578,0.05045498,0.013802949,-212.43613872151982,-1.056343033725028,-1.056343033725028,0.0,19200,3.5456383228302,5.966623018335743e-06,5.1245727851530325e-06,-211.22232905630446,0.0
27,2.87217116355896,-211.1596606042045,0.16294333845895842,-210.6462492533063,-211.4953220161166,0.0,9.152318378174341,0.1,0.027485132217407227,0.45950984954833984,0.04804078,0.008301345,-212.3084909097883,-1.0557845073239267,-1.0557845073239267,0.0,19200,2.7644288539886475,4.7033106209488915e-06,7.0395533844764685e-06,-210.98162398172204,0.0
28,3.043118953704834,-210.92488845260195,0.184672932329798,-210.41096884995113,-211.30977381564776,0.0,11.565582773846522,0.1,0.01549077033996582,0.4210081100463867,0.04211985,0.0070443414,-212.17013066406966,-1.0546107844334314,-1.0546107844334314,0.0,19200,2.494468927383423,5.86272281518663e-06,2.6718503602040173e-06,-210.82550610612998,0.0
29,2.8377766609191895,-210.7580999111706,0.2073290260343493,-210.24596355941608,-211.34678688644775,0.0,8.280241393868797,0.1,0.022134780883789062,0.5026342868804932,0.048153277,0.011939998,-212.02892758877977,-1.0537769076815968,-1.0537769076815968,0.0,19200,3.269543409347534,4.302775215653871e-06,5.188198207422864e-06,-210.34003412464324,0.0
30,2.8952255249023438,-210.312644881015,0.23708181502117012,-209.7773271635471,-210.79136226872606,0.0,9.265721016665893,0.1,0.016239404678344727,0.7202200889587402,0.051937535,0.012056772,-211.8572993180033,-1.051549502753659,-1.051549502753659,0.0,19200,2.838845729827881,9.7533922251236e-06,3.336914175811216e-06,-209.85858919923933,0.0
31,2.873445987701416,-209.87432610139285,0.24752875676221386,-209.29472722566246,-210.47773507818945,0.0,10.610699149795321,0.1,0.018541574478149414,0.46337437629699707,0.046941478,0.008864709,-211.65900199634225,-1.049357863290669,-1.049357863290669,0.0,19200,2.808983564376831,1.3606874265221197e-05,3.620322356054111e-06,-209.3098097179771,0.0
32,2.821359395980835,-209.31743357165942,0.24921783963348537,-208.69817017860595,-209.9197761038069,0.0,8.928827463753276,0.1,0.019845247268676758,0.46072888374328613,0.049450245,0.011323332,-211.42484515387397,-1.0465734054109326,-1.0465734054109326,0.0,19200,2.8573055267333984,1.693033868646704e-05,4.6403893955916434e-06,-208.6822284140669,0.0
33,2.857905626296997,-208.6820038226224,0.2351915386239834,-208.10722150073178,-209.32660055126848,0.0,8.060108410112123,0.1,0.018412351608276367,0.580258846282959,0.0523253,0.012909729,-211.15056102074882,-1.0433962226306948,-1.0433962226306948,0.0,19200,2.296246290206909,1.3526311528008492e-05,3.3612322575475523e-06,-208.15514107030128,0.0
34,3.0743894577026367,-208.13009807658406,0.27778726028342143,-207.21496824307698,-208.79203688375244,0.0,5.6701096865124665,0.1,0.015598058700561523,0.432081937789917,0.051231973,0.018054036,-210.84851472633235,-1.0406366680531351,-1.0406366680531351,0.0,19200,2.8704802989959717,1.3750874052971057e-05,6.368512992264174e-06,-207.3907989080094,0.0
35,2.8474955558776855,-207.3998472688464,0.2794548315957425,-206.67538961464092,-208.10513806594858,0.0,8.051623934967289,0.1,0.016531944274902344,0.4847571849822998,0.05205861,0.011956348,-210.50364798058376,-1.0369854496237862,-1.0369854496237862,0.0,19200,2.5489869117736816,1.5602042868551984e-05,7.993850280197135e-06,-206.57497544453258,0.0
36,2.8471572399139404,-206.68601124681246,0.21669305056726118,-206.05076389600458,-207.33472433550043,0.0,8.362940422521566,0.1,0.02023148536682129,0.6058292388916016,0.05211165,0.011102756,-210.12188430720664,-1.0334162458518577,-1.0334162458518577,0.0,19200,2.64574933052063,1.7053839087887074e-05,3.908639339731097e-06,-206.02251709380621,0.0
37,2.8494670391082764,-206.09685475747483,0.24052272924550525,-205.54852739121003,-206.68807634554472,0.0,8.723071319018395,0.1,0.019690752029418945,0.406191349029541,0.051399384,0.011269853,-209.71938135223346,-1.0304703700329623,-1.0304703700329623,0.0,19200,2.6415696144104004,1.6062017630463746e-05,4.655739044333385e-06,-205.30765499712146,0.0
38,2.821469306945801,-205.53687447914194,0.2312224455231344,-204.92815818245728,-206.03429123945338,0.0,7.573644235881937,0.1,0.01674365997314453,0.5209953784942627,0.048800934,0.012754605,-209.3011306649243,-1.027670491449343,-1.027670491449343,0.0,19200,2.790266990661621,1.961702321589147e-05,3.520576759724008e-06,-204.4534762940291,0.0
39,2.809202194213867,-204.87278033861196,0.20926982878864211,-204.48325565456793,-205.51708864770984,0.0,7.518000023726656,0.1,0.021481990814208984,0.4653010368347168,0.04844942,0.011735444,-208.85829563229308,-1.024350008120394,-1.024350008120394,0.0,19200,2.5489931106567383,2.6957201466425136e-05,4.628119046993524e-06,-203.90023880631452,0.0
40,2.97885799407959,-204.47298123210058,0.2158815332980262,-203.6263098920876,-205.0535524620021,0.0,8.077806949534022,0.1,0.01692342758178711,0.5205090045928955,0.053396072,0.011488975,-208.41976419227385,-1.0223511027406669,-1.0223511027406669,0.0,19200,2.807976484298706,6.8765184875705715e-06,3.708502210480903e-06,-203.2727431045507,0.0
41,2.793177843093872,-203.98722966510786,0.16846080987520776,-203.61649117827943,-204.40364782076114,0.0,10.15162487528637,0.1,0.01928567886352539,0.48270463943481445,0.05160293,0.007959491,-207.97651073955723,-1.0199223066124472,-1.0199223066124472,0.0,19200,2.583580493927002,1.1986579200523557e-05,3.996416857013517e-06,-203.05222111872393,0.0
42,2.849968194961548,-203.78207654152592,0.18245844513178708,-203.35427131645108,-204.1846310354851,0.0,7.422677928315325,0.1,0.030087709426879883,0.4308750629425049,0.05172226,0.012152481,-207.5570673197541,-1.0188965771662548,-1.0188965771662548,0.0,19200,2.3445730209350586,3.2449931662229287e-06,3.183809693788222e-06,-202.56578123522206,0.0
43,2.801553964614868,-203.46900415439947,0.1440228773305286,-203.0402908807186,-203.79939092228773,0.0,8.943960484137362,0.1,0.016946077346801758,0.40373826026916504,0.050277703,0.011696741,-207.14826100321864,-1.0173311636791658,-1.0173311636791658,0.0,19200,2.9408316612243652,4.062561263869999e-06,2.6945375381586503e-06,-202.42535627458568,0.0
44,2.9077565670013428,-203.27297712617164,0.13162596013329403,-202.90960397516372,-203.63790859533236,0.0,7.370555736818799,0.1,0.030353546142578125,0.6108043193817139,0.04495665,0.011786913,-206.76073261551394,-1.0163509614391188,-1.0163509614391188,0.0,19200,3.1184072494506836,2.758292663050525e-06,2.1820536386207955e-06,-202.3482516981142,0.0
45,2.937619924545288,-203.19956080951658,0.1458691579624854,-202.84427707790672,-203.55563717418568,0.0,7.17921112304661,0.1,0.02131962776184082,0.468585729598999,0.054065175,0.012516566,-206.40461543491423,-1.0159838971150137,-1.0159838971150137,0.0,19200,2.1468687057495117,2.3848588122256397e-06,4.843814758948899e-06,-202.22726037867008,0.0
46,2.876364231109619,-203.02313469464934,0.14510585569491039,-202.694554294818,-203.4767824390984,0.0,7.108200793360276,0.1,0.014514446258544922,0.481748104095459,0.050062124,0.014461274,-206.06646736088774,-1.0151016715147516,-1.0151016715147516,0.0,19200,2.303938627243042,3.831816794951757e-06,2.2429980478640216e-06,-202.11882420601103,0.0
47,2.832693576812744,-202.90200119583173,0.14163823767977524,-202.63069787826336,-203.26724395041032,0.0,10.905613094539717,0.1,0.015596866607666016,0.42651844024658203,0.050691362,0.007873742,-205.75002074438214,-1.014495901910561,-1.014495901910561,0.0,19200,2.2522711753845215,2.9539395683242097e-06,2.7871134774281447e-06,-202.00005992215296,0.0
48,2.8774912357330322,-202.6424901955704,0.11857612841806714,-202.42502363499707,-202.90578359587468,0.0,9.623235483746017,0.1,0.025315523147583008,0.39875197410583496,0.051370505,0.010279907,-205.43926768950098,-1.013198179958655,-1.013198179958655,0.0,19200,2.0291495323181152,2.467148485263163e-06,3.4256366483010713e-06,-201.87271114322078,0.0
49,2.8539159297943115,-202.46979389279159,0.10926787964310689,-202.1970082186146,-202.78627072354564,0.0,8.22779290308566,0.1,0.018900394439697266,0.5092885494232178,0.047867827,0.010959837,-205.14232030983004,-1.0123348049489396,-1.0123348049489396,0.0,19200,2.4335854053497314,6.4517723910982e-06,1.8695859703602236e-06,-201.79628048240693,0.0
50,2.7970876693725586,-202.3378986436787,0.09326700736548145,-202.01776187924787,-202.57458230185117,0.0,7.359586500913836,0.1,0.01611042022705078,0.34098005294799805,0.049518928,0.013116833,-204.8618781432149,-1.011675292635721,-1.011675292635721,0.0,19200,2.532639741897583,2.952339550507397e-06,1.5243921212249722e-06,-201.77986842344285,0.0
51,3.080361843109131,-202.3020818555228,0.09857576447303332,-202.04388093754832,-202.5851962741945,0.0,8.455844873284333,0.1,0.01642131805419922,0.4790980815887451,0.049035907,0.010339837,-204.6058985144457,-1.011496089470722,-1.011496089470722,0.0,19200,2.572441577911377,1.6323607886548643e-06,1.5481262418168e-06,-201.71867532320442,0.0
52,2.8114442825317383,-202.19227009238048,0.08990295620041644,-201.9792273128976,-202.41143476525681,0.0,8.97284573260642,0.1,0.01949453353881836,0.621955394744873,0.051344663,0.0075597586,-204.36453567223919,-1.0109470526658242,-1.0109470526658242,0.0,19200,2.4485867023468018,1.873356877764465e-06,2.3606003397491066e-06,-201.7301167168995,0.0
53,2.918891429901123,-202.2190833101428,0.09007219307612511,-202.0169697610863,-202.41845276521587,0.0,7.554473467482145,0.1,0.025706052780151367,0.5210983753204346,0.04952304,0.013745322,-204.14999043602955,-1.0110809946080355,-1.0110809946080355,0.0,19200,2.4180221557617188,1.8761372262657046e-06,1.4415782005836974e-06,-201.6842502194386,0.0
54,2.914879083633423,-202.1905011459428,0.0832167119393845,-202.01392966984787,-202.42786021233465,0.0,9.700693504415948,0.1,0.013823986053466797,0.34484410285949707,0.048852496,0.009862062,-203.95404150702086,-1.0109380047746503,-1.0109380047746503,0.0,19200,2.403710126876831,1.3785432007821846e-06,1.2189853644818639e-06,-201.67064728449853,0.0
55,2.949215888977051,-202.1833668223829,0.092384342331909,-201.93849823772405,-202.4431952648798,0.0,7.199106119170782,0.1,0.01781010627746582,0.35310864448547363,0.04904742,0.017194614,-203.77697403855706,-1.010902342570619,-1.010902342570619,0.0,19200,2.386002540588379,1.3141614381628884e-06,1.8093176791463313e-06,-201.752873483175,0.0
56,2.8512439727783203,-202.2975670245794,0.09905876388601338,-202.00753616951943,-202.56347413085524,0.0,7.811542840478573,0.1,0.017559528350830078,0.47801756858825684,0.04928509,0.00979107,-203.62903333715929,-1.011473192898081,-1.011473192898081,0.0,19200,2.1568374633789062,1.582963237292209e-06,2.66385358588598e-06,-201.7837802434964,0.0
57,3.0730082988739014,-202.2078806964205,0.09543882112404073,-201.99664590009854,-202.4246389018007,0.0,10.187701524740929,0.1,0.025865554809570312,0.36222362518310547,0.050892733,0.011095029,-203.4869180730854,-1.0110248657112928,-1.0110248657112928,0.0,19200,2.146559953689575,1.826019030415529e-06,3.6233086811163744e-06,-201.77896654197082,0.0
58,2.892296075820923,-202.18799922360913,0.08825034537818939,-202.01174189062172,-202.4685194015213,0.0,6.626261077145762,0.1,0.0313572883605957,0.48422741889953613,0.050896112,0.01595279,-203.35702618813778,-1.010925426976791,-1.010925426976791,0.0,19200,2.1834192276000977,4.157771670390788e-06,2.1496088262456766e-06,-201.77095655111907,0.0
59,2.891575813293457,-202.1892737934849,0.08354732300952225,-202.00098929824458,-202.3786444156289,0.0,6.618598083585004,0.1,0.022264719009399414,0.35917091369628906,0.047457017,0.015376147,-203.2402509486725,-1.0109317279289174,-1.0109317279289174,0.0,19200,2.2090706825256348,1.9101642679433804e-06,1.694260486221489e-06,-201.7227691826996,0.0
60,2.93449330329895,-202.11085258107377,0.08415681489808503,-201.93640716920603,-202.302857092692,0.0,8.259441049245718,0.1,0.015095949172973633,0.4347503185272217,0.049801726,0.01207814,-203.12731111191263,-1.0105398576818574,-1.0105398576818574,0.0,19200,2.225053310394287,2.4072243832253337e-06,1.45879689692549e-06,-201.68011510415778,0.0
61,2.8880960941314697,-202.02101509175836,0.07169418116951282,-201.86150982745463,-202.23591586758744,0.0,11.139498971344572,0.1,0.016516923904418945,0.5373380184173584,0.049166027,0.008646256,-203.0166815098972,-1.010090726653574,-1.010090726653574,0.0,19200,2.3471200466156006,1.1594453533236258e-06,1.2957430786473e-06,-201.66780682193678,0.0
62,2.875053644180298,-201.98033846502963,0.06696610959916119,-201.80777996584962,-202.13821554051492,0.0,11.345214914753283,0.1,0.017511367797851562,0.4603080749511719,0.049760398,0.0061877123,-202.91304720541046,-1.009887356837296,-1.009887356837296,0.0,19200,2.5296051502227783,1.2118107645390976e-06,1.4871617853586519e-06,-201.66085503989348,0.0
63,3.1176350116729736,-202.0009580415758,0.07598641866386095,-201.8138560163287,-202.1782762830645,0.0,7.200560566676672,0.1,0.03458881378173828,0.5018010139465332,0.049283914,0.009743461,-202.82183828902703,-1.0099903162306958,-1.0099903162306958,0.0,19200,2.999344825744629,1.641949722599295e-06,1.3264436565062446e-06,-201.66402665417718,0.0
64,2.9539356231689453,-201.98988180099488,0.07074880480052251,-201.81300454810756,-202.14905902165793,0.0,7.542339314477552,0.1,0.01836562156677246,0.4185781478881836,0.046836793,0.011165729,-202.73864264022382,-1.0099348277706908,-1.0099348277706908,0.0,19200,2.180847406387329,1.3218098406420068e-06,1.132435108550414e-06,-201.66525750120485,0.0
65,2.9451773166656494,-201.97703698455507,0.07436012264233208,-201.81192071928697,-202.13164657604952,0.0,7.750637642895592,0.1,0.014904260635375977,0.4186980724334717,0.049133316,0.010746503,-202.66248207465696,-1.0098706274640843,-1.0098706274640843,0.0,19200,2.102125644683838,1.182152842861821e-06,1.5288494764170957e-06,-201.67108761083244,0.0
66,3.008204936981201,-201.9657202957967,0.07257083887430942,-201.81474290097344,-202.1717949734911,0.0,10.022333550067874,0.1,0.014739751815795898,0.42200469970703125,0.048778966,0.008603493,-202.59280589677095,-1.0098139438772478,-1.0098139438772478,0.0,19200,2.2322895526885986,1.7062930153780093e-06,4.141456592985879e-06,-201.68698025307742,0.0
67,2.8556082248687744,-201.94338787244735,0.07102841546650557,-201.76255221817232,-202.15554601777393,0.0,10.249484410608062,0.1,0.015257120132446289,0.36031246185302734,0.04492893,0.008066433,-202.52786409433858,-1.009702423545875,-1.009702423545875,0.0,19200,2.101724147796631,5.7826555181398396e-06,1.909664411022694e-06,-201.63667137940735,0.0
68,2.9116697311401367,-201.8859780646293,0.057311657295830265,-201.7581234257532,-202.01588336848835,0.0,9.82131855823635,0.1,0.015908241271972656,0.45265650749206543,0.047122587,0.009633773,-202.46367549136764,-1.0094153033459334,-1.0094153033459334,0.0,19200,3.50602126121521,1.6641033474695384e-06,1.810348329673807e-06,-201.6179250243637,0.0
69,3.092015266418457,-201.8894947096011,0.06169208397342553,-201.7653301640869,-202.04581665233223,0.0,7.4893702971249985,0.1,0.025828838348388672,0.44448423385620117,0.036068622,0.008394944,-202.40625741319099,-1.0094329082751703,-1.0094329082751703,0.0,19200,2.199004888534546,1.473283911824118e-06,1.0761918473979688e-06,-201.60209102345382,0.0
70,2.888688564300537,-201.85898795806142,0.07073567700415581,-201.68554178138288,-202.11893608615145,0.0,8.097711454447893,0.1,0.01735687255859375,0.40645456314086914,0.04792855,0.010242492,-202.35153046767803,-1.0092803770404692,-1.0092803770404692,0.0,19200,2.256643533706665,1.2276106433005956e-06,1.2209220283379146e-06,-201.59177668291147,0.0
71,2.9233903884887695,-201.80470771034186,0.05413785945028015,-201.67924491904384,-201.93116550457023,0.0,6.969194315492643,0.1,0.016216278076171875,0.3722081184387207,0.0491612,0.016219847,-202.2968481919444,-1.0090089472569683,-1.0090089472569683,0.0,19200,2.116887331008911,1.152340151105588e-06,1.2766332833784326e-06,-201.61153016883898,0.0
72,2.8840882778167725,-201.81146036455263,0.06315152355395857,-201.652485658223,-201.94470050352533,0.0,8.5384833911529,0.1,0.016244888305664062,0.4490025043487549,0.048655067,0.00914868,-202.24830940920523,-1.0090425599922204,-1.0090425599922204,0.0,19200,2.2325949668884277,1.3878898864536808e-06,1.4025518391639551e-06,-201.5683017142332,0.0
73,2.8897860050201416,-201.7884445740992,0.060145194260414724,-201.61970015320932,-201.96135255785669,0.0,7.517944868433222,0.1,0.02017831802368164,0.5633449554443359,0.04844424,0.013633416,-202.20232292569463,-1.0089275981066264,-1.0089275981066264,0.0,19200,2.4335334300994873,1.642646600174325e-06,3.3577608686858208e-06,-201.56977705685318,0.0
74,2.877305507659912,-201.75840598784416,0.06019585334823861,-201.60299234468732,-201.92608762753179,0.0,12.723455791054404,0.1,0.01587653160095215,0.501171350479126,0.05097631,0.007774611,-202.1579312319096,-1.0087773789382055,-1.0087773789382055,0.0,19200,3.075547218322754,3.4353985533751415e-06,1.1536545292813354e-06,-201.59754486889904,0.0
75,3.0674891471862793,-201.7962751072987,0.0494954502632239,-201.69547380176334,-201.92268718593664,0.0,8.336199319448006,0.1,0.01424717903137207,0.3502962589263916,0.048761364,0.009480434,-202.12176561944852,-1.0089667652305347,-1.0089667652305347,0.0,19200,2.439816474914551,1.3383227606785572e-06,9.62803942297524e-07,-201.61757175279737,0.0
76,2.8835208415985107,-201.8103388999606,0.06649856876944177,-201.67748138136574,-202.01644737874503,0.0,9.686631421925004,0.1,0.017072439193725586,0.43607234954833984,0.04587296,0.0034345929,-202.09062294749972,-1.009036968781536,-1.009036968781536,0.0,19200,2.22503399848938,1.155361221015515e-06,1.2040817550360102e-06,-201.5898377976015,0.0
77,2.9082958698272705,-201.77068388554403,0.0488258596110635,-201.652110344348,-201.923401096381,0.0,9.410472109739857,0.1,0.019275426864624023,0.46448802947998047,0.049350314,0.008563656,-202.05862904130416,-1.0088385317387194,-1.0088385317387194,0.0,19200,2.6735498905181885,1.35449353533368e-06,5.220402152203503e-06,-201.60327635818382,0.0
78,2.9440410137176514,-201.77280214479723,0.05921299165645169,-201.6250992232809,-201.96208321754025,0.0,8.87673496003955,0.1,0.02140951156616211,0.4667012691497803,0.050122276,0.010425538,-202.03004635165348,-1.0088490149454188,-1.0088490149454188,0.0,19200,2.698535203933716,5.5772764980387145e-06,3.1084237396269767e-06,-201.66832811660143,0.0
79,2.9075803756713867,-201.83819732224197,0.06121972339836291,-201.64808441752504,-201.9839014093823,0.0,8.509468255626146,0.1,0.013359308242797852,0.3680269718170166,0.047990136,0.01169126,-202.01086144871235,-1.0091758086634741,-1.0091758086634741,0.0,19200,2.7192165851593018,2.0889379488542213e-06,3.871763882870139e-06,-201.67918860641507,0.0
80,2.9473860263824463,-201.84250629330313,0.05310504907466354,-201.7362682210878,-201.94729464780963,0.0,11.211634825874244,0.1,0.01694321632385254,0.4436030387878418,0.046213444,0.0074178777,-201.99402593317143,-1.0091973080293049,-1.0091973080293049,0.0,19200,2.6538476943969727,3.31784648107044e-06,3.6837033415126977e-06,-201.6905748792524,0.0
81,3.1541335582733154,-201.85620759402886,0.06401521265814979,-201.70904222818143,-202.0163532523108,0.0,8.261545114907376,0.1,0.016706228256225586,0.46253204345703125,0.04884755,0.012021748,-201.9802440992572,-1.009265712612003,-1.009265712612003,0.0,19200,2.40181303024292,4.092945275277063e-06,1.0682484552900123e-06,-201.6888386344071,0.0
82,2.993435859680176,-201.83776133680462,0.049878163938988924,-201.73591379899187,-202.01088831801093,0.0,8.781058595505472,0.1,0.023909568786621094,0.49253225326538086,0.049432177,0.009087931,-201.96599582301192,-1.009173462184668,-1.009173462184668,0.0,19200,2.7461507320404053,9.63349094280005e-07,1.4106478893370698e-06,-201.69741902246724,0.0
83,2.920769453048706,-201.84412764248123,0.05704214369313653,-201.69850072212805,-202.0120179001356,0.0,6.55062112729637,0.1,0.019044160842895508,0.5945310592651367,0.049202245,0.013970366,-201.95380900495886,-1.0092052431012728,-1.0092052431012728,0.0,19200,4.192936182022095,1.5241524924458358e-06,5.256544584706189e-06,-201.6962241999454,0.0
84,2.83125376701355,-201.84058478258976,0.05818617053264348,-201.67800313793978,-201.97523032808252,0.0,13.230592338922227,0.1,0.01531219482421875,0.40921735763549805,0.0476671,0.0066197403,-201.94248658272195,-1.0091873183509819,-1.0091873183509819,0.0,19200,2.2848470211029053,5.249467356804585e-06,1.1822197041840727e-06,-201.69683316349187,0.0
85,2.92191219329834,-201.84833113729937,0.05468899145834011,-201.7546010906152,-202.04329417576417,0.0,8.76123543446945,0.1,0.017499685287475586,0.4708108901977539,0.047786877,0.00848569,-201.93307103817972,-1.0092261442937254,-1.0092261442937254,0.0,19200,2.184356212615967,1.1031824765896146e-06,1.0089755430592782e-06,-201.72287262157357,0.0
86,2.89030385017395,-201.87539736990766,0.0722225165398761,-201.68181745651802,-202.08855958435075,0.0,9.483200992848568,0.1,0.01920461654663086,0.4719278812408447,0.046579678,0.01186417,-201.92730367135252,-1.0093615340140782,-1.0093615340140782,0.0,19200,2.342918634414673,1.252137892932129e-06,3.2757024218790246e-06,-201.7369415695132,0.0
87,3.051145076751709,-201.8867834764434,0.05884665219610568,-201.76935923101257,-202.0802342712397,0.0,9.390544905820686,0.1,0.013226747512817383,0.3574507236480713,0.04320614,0.008431565,-201.92325165186162,-1.0094182631397313,-1.0094182631397313,0.0,19200,2.7663257122039795,2.5842145066632468e-06,2.373492953352027e-06,-201.73526107004096,0.0
88,2.961365222930908,-201.8678174749276,0.05951303516612122,-201.72155155929866,-202.00774007956048,0.0,9.332022377219236,0.1,0.01627206802368164,0.40677571296691895,0.047498714,0.009160985,-201.91770823416823,-1.0093234531339548,-1.0093234531339548,0.0,19200,2.7478811740875244,2.073074493157247e-06,2.205270514510478e-06,-201.78364794525862,0.0
89,2.8793063163757324,-201.9100556177651,0.06379500186879171,-201.7331647521159,-202.05070906445349,0.0,9.525468199786491,0.1,0.018198251724243164,0.35749125480651855,0.050479945,0.010991896,-201.91694297252792,-1.0095343705755397,-1.0095343705755397,0.0,19200,2.288114547729492,1.6173893587920672e-06,1.3199514866751554e-06,-201.79827905558898,0.0
90,2.933168649673462,-201.9094980916224,0.056523318086842106,-201.76361550628977,-202.06694900601937,0.0,8.619326607955317,0.1,0.01994919776916504,0.4420590400695801,0.048701014,0.00943472,-201.9161984844374,-1.0095313848264227,-1.0095313848264227,0.0,19200,2.277764320373535,1.2288399280773087e-06,1.2199962390821283e-06,-201.78107289201512,0.0
91,2.928619861602783,-201.8919113503557,0.055264138555976276,-201.77236071761055,-202.01898757087778,0.0,8.613979858181738,0.1,0.020775556564331055,0.5462660789489746,0.05004067,0.012551105,-201.91376977102922,-1.0094432096318418,-1.0094432096318418,0.0,19200,2.210343837738037,1.2652307527374501e-06,1.3756487540896909e-06,-201.76608609562942,0.0
92,2.9743921756744385,-201.88135447133212,0.058028701174657915,-201.74469531556744,-202.0127433458878,0.0,8.099659653041634,0.1,0.014466524124145508,0.39403629302978516,0.049366366,0.014077709,-201.91052824105952,-1.009390478842943,-1.009390478842943,0.0,19200,2.3388519287109375,1.2456222736366187e-06,1.0765811095740446e-06,-201.79143125625689,0.0
93,2.8850209712982178,-201.91256338005056,0.06018043692053599,-201.78236618490772,-202.07256482496106,0.0,10.76697543499207,0.1,0.01854562759399414,0.4840052127838135,0.048241127,0.009590709,-201.91073175495862,-1.0095465735138947,-1.0095465735138947,0.0,19200,2.3527984619140625,1.2287844233513913e-06,3.602360958320903e-06,-201.76012789220107,0.0
94,2.9432899951934814,-201.86760807797341,0.056290063152694386,-201.74764670159405,-202.02180719035135,0.0,6.981055663534481,0.1,0.014858007431030273,0.42478394508361816,0.047491014,0.01669973,-201.9064193872601,-1.0093213608904021,-1.0093213608904021,0.0,19200,2.3130056858062744,2.748051273845127e-06,4.547739188347708e-06,-201.81576980392686,0.0
95,2.8518218994140625,-201.9167978191474,0.07274927948488788,-201.7354882713308,-202.08757716013403,0.0,12.68206164949377,0.1,0.014380931854248047,0.432680606842041,0.051605735,0.007542965,-201.9074572304488,-1.0095672171885095,-1.0095672171885095,0.0,19200,2.399506092071533,6.110665283692748e-06,1.4585947369356051e-06,-201.85097990229764,0.0
96,2.9311399459838867,-201.95499602423035,0.06558244920388595,-201.77896814445924,-202.12134463730607,0.0,6.390718471947653,0.1,0.017693519592285156,0.5812211036682129,0.051130496,0.013889463,-201.91221110982698,-1.009758030152661,-1.009758030152661,0.0,19200,2.7054367065429688,1.5779645651075095e-06,1.8015281803742778e-06,-201.9403441405226,0.0
97,2.878178596496582,-202.06360055432242,0.0668497106166766,-201.90236413624172,-202.19789500694404,0.0,9.345933668319205,0.1,0.020631074905395508,0.43027329444885254,0.049231753,0.010520517,-201.92735005427653,-1.0103006920369357,-1.0103006920369357,0.0,19200,2.7212531566619873,4.538756937594155e-06,1.438003663464729e-06,-202.00474890282123,0.0
98,3.0924770832061768,-202.13624478965758,0.06132078769998108,-202.01508966626974,-202.30744975074688,0.0,10.56603855491707,0.1,0.01410055160522461,0.37291574478149414,0.050702,0.008762468,-201.94823952781465,-1.010663665659167,-1.010663665659167,0.0,19200,2.6330974102020264,2.278472875003711e-06,1.775791927449968e-06,-202.0085882394053,0.0
99,2.9087750911712646,-202.16022666744584,0.07040711629024354,-202.00717517159046,-202.33215327436565,0.0,7.51820729976274,0.1,0.018146753311157227,0.3525972366333008,0.050565504,0.011989251,-201.96943824177777,-1.01078364349403,-1.01078364349403,0.0,19200,2.775829792022705,1.3586480341816676e-06,2.0399642747874316e-06,-201.9988688784311,0.0
100,2.93324875831604,-202.14497599954373,0.07634108602500621,-201.99670941159678,-202.40820161541848,0.0,11.067099856154988,0.1,0.025411128997802734,0.5002970695495605,0.046971418,0.010198962,-201.98699201755437,-1.010707304395255,-1.010707304395255,0.0,19200,2.6371843814849854,2.245082313410743e-06,1.3820795896276354e-06,-202.03015237196584,0.0
101,2.860053062438965,-202.1673468831566,0.0717268992236764,-202.00244478544042,-202.34667505501625,0.0,8.673248801257904,0.1,0.019333600997924805,0.44817256927490234,0.05060004,0.010865213,-202.0050275041146,-1.0108189563007266,-1.0108189563007266,0.0,19200,2.4111669063568115,1.5320051829981727e-06,1.979249789609031e-06,-202.13978466951096,0.0
102,2.895106554031372,-202.31203503736472,0.08099469737556184,-202.10866555475388,-202.53944133948147,0.0,9.921713384666644,0.1,0.016098499298095703,0.41634297370910645,0.04870118,0.010513734,-202.03572825743962,-1.0115419673719723,-1.0115419673719723,0.0,19200,2.55018949508667,1.5753727942084463e-06,1.567457662989981e-06,-202.0123544027362,0.0
103,2.911855459213257,-202.1778278579362,0.07423728586747019,-202.02205109490444,-202.39981507466038,0.0,7.695294649746872,0.1,0.023562192916870117,0.4428079128265381,0.052764904,0.010775495,-202.04993821748928,-1.0108715063499378,-1.0108715063499378,0.0,19200,2.2829535007476807,1.456027691448494e-06,2.212311907872774e-06,-202.06928299187578,0.0
104,3.095984935760498,-202.2456606257159,0.08636687054005592,-202.00736602317983,-202.52389578923425,0.0,7.9268614511273,0.1,0.023581981658935547,0.5475006103515625,0.050755206,0.0141508365,-202.06951045831195,-1.0112105325303136,-1.0112105325303136,0.0,19200,2.7053191661834717,1.3121885471708897e-06,1.213994514583479e-06,-202.08468182170571,0.0
105,2.9086313247680664,-202.2621387017317,0.07040738557730254,-202.11734477453783,-202.5203821477353,0.0,8.468548404954303,0.1,0.017781972885131836,0.514747142791748,0.050882675,0.014955122,-202.0887732826539,-1.0112931091706991,-1.0112931091706991,0.0,19200,3.30145525932312,1.1095556045932371e-06,1.1057471387435435e-06,-201.97195119962362,0.0
106,2.914276361465454,-202.12577780658899,0.07679360683722003,-201.95176688168763,-202.3343369582897,0.0,9.280740015856404,0.1,0.019812345504760742,0.43412256240844727,0.048434842,0.0109610865,-202.09247373504743,-1.010611407084123,-1.010611407084123,0.0,19200,2.544304609298706,2.844135425193317e-06,2.7625170500699154e-06,-201.99665938508787,0.0
107,2.929583787918091,-202.15388785837035,0.07023040322299247,-201.9935125947669,-202.33933606969063,0.0,7.747204275424671,0.1,0.021544694900512695,0.4338805675506592,0.05031651,0.012838492,-202.09861514737972,-1.0107516065320512,-1.0107516065320512,0.0,19200,2.3916900157928467,2.340363001283237e-06,1.1595206040673534e-06,-202.08778885379365,0.0
108,2.9834070205688477,-202.25733644869092,0.06972005056725794,-202.0893939283917,-202.48079873307526,0.0,8.320610676053223,0.1,0.013212919235229492,0.46103405952453613,0.050335947,0.011580544,-202.11448727751082,-1.0112682886772755,-1.0112682886772755,0.0,19200,2.4409220218658447,1.9772629927281363e-06,1.1688975912253432e-06,-202.05210486703805,0.0
109,3.0103139877319336,-202.2121196082302,0.07802969086227693,-202.04744090973531,-202.4189318654474,0.0,9.549440215482521,0.1,0.0164334774017334,0.3975095748901367,0.04987668,0.010384305,-202.12425051058275,-1.0110426982308485,-1.0110426982308485,0.0,19200,3.519867420196533,1.2798961347650958e-06,1.121315728591217e-06,-202.08492048553038,0.0
110,2.957303524017334,-202.21656220825977,0.07086246687876456,-202.01764530971263,-202.40163412992706,0.0,7.781138658076565,0.1,0.015646934509277344,0.39008307456970215,0.050363813,0.0133899255,-202.13348168035049,-1.0110645998230205,-1.0110645998230205,0.0,19200,3.143171548843384,1.2261092064274045e-06,1.707228387020558e-06,-202.03573405771294,0.0
111,2.8520050048828125,-202.17480438382532,0.07134500267783449,-201.98092433332982,-202.36051877758766,0.0,8.515847081451842,0.1,0.01714468002319336,0.4983186721801758,0.05110918,0.011983252,-202.13761395069795,-1.0108558111929942,-1.0108558111929942,0.0,19200,2.6059858798980713,1.4693346177741241e-06,1.5338042221043995e-06,-202.04454713367127,0.0
112,2.8849575519561768,-202.17821393362178,0.07449639159699746,-201.9529059180965,-202.3668020825085,0.0,7.941246526199044,0.1,0.02402353286743164,0.5118660926818848,0.049668107,0.013100777,-202.14167394899036,-1.010872428873122,-1.010872428873122,0.0,19200,1.9804365634918213,1.3802481896965274e-06,1.1172097895844984e-06,-201.97203484896738,0.0
113,2.887686014175415,-202.10419689002967,0.06861574686681046,-201.91749787613804,-202.2682192389649,0.0,8.024517610148019,0.1,0.02188253402709961,0.5335142612457275,0.046904895,0.012205576,-202.1379262430943,-1.0105025405580716,-1.0105025405580716,0.0,19200,2.4312644004821777,1.1480483865694046e-06,1.7499174794879134e-06,-202.00019187008962,0.0
114,2.88775634765625,-202.11116470964075,0.06292403012104103,-201.9738953519301,-202.27290360438954,0.0,11.592919451588921,0.1,0.018715620040893555,0.43131375312805176,0.050733667,0.0066745756,-202.13525008974895,-1.0105373398560136,-1.0105373398560136,0.0,19200,2.340728759765625,1.8314717113512884e-06,2.040769589925151e-06,-201.93776243811016,0.0
115,3.152151584625244,-202.0746271492344,0.06582021491715061,-201.91694685854495,-202.23572724705866,0.0,9.768374751556873,0.1,0.016602754592895508,0.39845943450927734,0.049185246,0.010666908,-202.1291877956975,-1.0103545646669898,-1.0103545646669898,0.0,19200,2.569138765335083,2.6246263302746244e-06,1.8012002799372204e-06,-201.9936792305114,0.0
116,2.8964760303497314,-202.11098888294063,0.0673549360400646,-201.96245230680282,-202.2599657023398,0.0,7.806836210397736,0.1,0.017877578735351562,0.3747093677520752,0.050187066,0.013185729,-202.12736790442182,-1.0105361797791208,-1.0105361797791208,0.0,19200,2.2498695850372314,2.7458129106924618e-06,1.8266961028808519e-06,-202.0642000772521,0.0
117,2.911048173904419,-202.1695334412627,0.06385004874700292,-202.01990606176048,-202.32042350586073,0.0,8.478135354490227,0.1,0.013635873794555664,0.3370962142944336,0.05032873,0.011109873,-202.13158445810592,-1.010828533971034,-1.010828533971034,0.0,19200,2.253972053527832,2.7372118785400016e-06,1.246949091524094e-06,-202.16206243266748,0.0
118,2.8743669986724854,-202.28538706513032,0.06627019784424218,-202.1294026223231,-202.44017446326933,0.0,10.465272473390753,0.1,0.021593093872070312,0.523862361907959,0.047736287,0.0090677645,-202.14696471880836,-1.011407196333593,-1.011407196333593,0.0,19200,2.2908663749694824,1.4151929626238803e-06,1.1687948318690644e-06,-202.1679811614149,0.0
119,2.9257004261016846,-202.24401913669735,0.05856376541821562,-202.117925547608,-202.41530223793617,0.0,9.722226067529677,0.1,0.014719247817993164,0.39025354385375977,0.050238796,0.010825897,-202.15667016059726,-1.011200390964896,-1.011200390964896,0.0,19200,2.490995407104492,1.4261788230719124e-06,1.1803365618176575e-06,-202.25087338644528,0.0
120,2.93021559715271,-202.3193052810653,0.0640505105196856,-202.16901564444734,-202.48702735192677,0.0,6.960874953035711,0.1,0.027033567428588867,0.5244297981262207,0.05131544,0.013592451,-202.1729336726441,-1.0115764910543954,-1.0115764910543954,0.0,19200,2.515364170074463,1.0495626348455935e-06,1.8389751312904935e-06,-202.26750341139154,0.0
121,3.1644866466522217,-202.3619469453832,0.06348865777367851,-202.19612054588086,-202.60756082205359,0.0,8.475358226586067,0.1,0.01803755760192871,0.42931461334228516,0.048785005,0.013043836,-202.191834999918,-1.0117897000096916,-1.0117897000096916,0.0,19200,2.634983777999878,1.802819658492835e-06,1.2291788355437062e-06,-202.26343485219306,0.0
122,2.874889612197876,-202.35087853509972,0.07305208954561114,-202.19098625168053,-202.53716351222798,0.0,10.357083531676773,0.1,0.023535966873168945,0.42720818519592285,0.050888725,0.009560714,-202.20773935343618,-1.0117344041920282,-1.0117344041920282,0.0,19200,2.784074544906616,1.355513554874758e-06,2.3034470207032056e-06,-202.32806516651988,0.0
123,2.8803465366363525,-202.40974263195093,0.07312579376676384,-202.20623352200843,-202.59481689210165,0.0,7.607993025682372,0.1,0.015534162521362305,0.47260165214538574,0.049665865,0.01493092,-202.22793968128767,-1.012028350931923,-1.012028350931923,0.0,19200,2.9349124431610107,3.862087599085543e-06,1.2294423302409356e-06,-202.37973569464722,0.0
124,2.9285902976989746,-202.47380464428815,0.07218791779122147,-202.27383399601882,-202.66299208406159,0.0,7.481245635583474,0.1,0.030851364135742188,0.4855690002441406,0.04983185,0.00963813,-202.2525261775877,-1.0123483149620969,-1.0123483149620969,0.0,19200,2.642512321472168,1.6689176747039496e-06,1.480988902254537e-06,-202.2905261200272,0.0
125,2.904076099395752,-202.38479259525798,0.061752236704461644,-202.2251422102183,-202.5362246967229,0.0,7.016922754819134,0.1,0.016328096389770508,0.43483781814575195,0.05178689,0.011911753,-202.26575281935473,-1.011903289862566,-1.011903289862566,0.0,19200,2.913090229034424,1.0841403895092466e-06,1.36252704435061e-06,-202.37679170005475,0.0
126,2.9208970069885254,-202.4701427699507,0.06813016768311869,-202.2800384640727,-202.61939233728828,0.0,7.2660963430427925,0.1,0.014015674591064453,0.41936540603637695,0.050847735,0.015147805,-202.28619181441434,-1.0123298884462448,-1.0123298884462448,0.0,19200,2.2554306983947754,1.0370978592200407e-06,2.5406184661862182e-06,-202.44755882824794,0.0
127,3.0820744037628174,-202.5456761736646,0.07157259102902813,-202.30768974884134,-202.70414866167482,0.0,8.607212217383685,0.1,0.01525735855102539,0.41673827171325684,0.050011016,0.011921437,-202.31214025033938,-1.012707277601417,-1.012707277601417,0.0,19200,2.408723831176758,3.5169282793100186e-06,2.042455485762717e-06,-202.4681054082182,0.0
128,2.972294569015503,-202.5569095834352,0.0817053681400262,-202.32323242380883,-202.75616635388823,0.0,10.175596475472446,0.1,0.017004728317260742,0.4461519718170166,0.049021125,0.009606384,-202.33661718364897,-1.0127632994527576,-1.0127632994527576,0.0,19200,3.3706820011138916,1.7974424102841597e-06,2.2282768250546586e-06,-202.43282656257088,0.0
129,2.919405221939087,-202.50937723409447,0.06981087813616033,-202.3144024239791,-202.6919507945718,0.0,8.784783756139912,0.1,0.02278304100036621,0.4560086727142334,0.04966819,0.011059139,-202.35389318869352,-1.012525311271508,-1.012525311271508,0.0,19200,2.4690310955047607,2.249613757347814e-06,1.991176687486716e-06,-202.36719518182946,0.0
130,2.8644168376922607,-202.43294042079978,0.08230485905606243,-202.19260596749876,-202.62451492607497,0.0,7.860404010372329,0.1,0.02083611488342285,0.47359538078308105,0.049045306,0.011841346,-202.36179791190415,-1.0121434265376639,-1.0121434265376639,0.0,19200,2.9346115589141846,1.566282635960267e-06,2.001160430589436e-06,-202.31527304961685,0.0
131,2.906741142272949,-202.38245121439982,0.06171570196767447,-202.23213188192602,-202.5227263312844,0.0,10.059707688648873,0.1,0.02423572540283203,0.42137575149536133,0.043618843,0.010752006,-202.3638632421537,-1.0118910243052017,-1.0118910243052017,0.0,19200,2.4046239852905273,1.907031763737286e-06,1.993820096829547e-06,-202.3543552104067,0.0
132,2.919588804244995,-202.44488435533424,0.06764548219445735,-202.2536647909388,-202.64309805364132,0.0,9.32521365206719,0.1,0.027924537658691406,0.4280130863189697,0.048877683,0.010855751,-202.37196535347175,-1.0122029529403245,-1.0122029529403245,0.0,19200,2.636906147003174,2.947474701972565e-06,1.1315693567828968e-06,-202.39394271435796,0.0
133,2.8828721046447754,-202.47883621346932,0.06386965308727928,-202.331910748028,-202.6030033256817,0.0,8.501030705011136,0.1,0.018711090087890625,0.449596643447876,0.05061103,0.0099539105,-202.3826524394715,-1.0123728668284113,-1.0123728668284113,0.0,19200,2.722059965133667,1.0980392892994924e-06,1.169550535270232e-06,-202.36619616941744,0.0
134,2.8353259563446045,-202.4540160804437,0.0636264549272554,-202.31117487465764,-202.59302476400953,0.0,7.814992209288229,0.1,0.018839597702026367,0.4446408748626709,0.050847933,0.011275886,-202.38978880356873,-1.01224870052317,-1.01224870052317,0.0,19200,3.4802262783050537,1.1730154996908011e-06,4.720219527860585e-06,-202.33671440606997,0.0
135,2.8778538703918457,-202.38946986765765,0.05488963373053986,-202.27691880150616,-202.51516646275238,0.0,8.538402227013655,0.1,0.017258405685424805,0.5550742149353027,0.05021559,0.010998393,-202.38975690997762,-1.0119260841034543,-1.0119260841034543,0.0,19200,2.391047239303589,2.948230932660448e-06,9.931380216326655e-07,-202.2727635796233,0.0
136,2.920098304748535,-202.34302731169137,0.06674576295871382,-202.18745659146683,-202.53257515697842,0.0,10.339275892897192,0.1,0.01517629623413086,0.4494438171386719,0.047653146,0.010455244,-202.385083950149,-1.0116938749259194,-1.0116938749259194,0.0,19200,2.449331045150757,1.5230163863832983e-06,1.4858958846028792e-06,-202.29107007800422,0.0
137,2.8874895572662354,-202.360949148897,0.06396899032292327,-202.23169969781674,-202.54101837294354,0.0,8.311222835280825,0.1,0.026354074478149414,0.4783906936645508,0.046625275,0.007948135,-202.3826704700238,-1.011783405099608,-1.011783405099608,0.0,19200,2.387237310409546,1.310631002881278e-06,1.3290292343053857e-06,-202.2924468244833,0.0
138,3.1558854579925537,-202.37421607802284,0.06775055327295557,-202.18096896904743,-202.5217175411725,0.0,9.47826254405288,0.1,0.027505159378051758,0.4850168228149414,0.049680635,0.010856072,-202.3818250308237,-1.0118497943561915,-1.0118497943561915,0.0,19200,3.709895133972168,1.5554701177389303e-06,1.2219932876146984e-06,-202.25059098314875,0.0
139,2.988150119781494,-202.3542616190441,0.05975676903274788,-202.20442541087635,-202.50182835163247,0.0,7.429611216077728,0.1,0.017276525497436523,0.5188276767730713,0.05013304,0.01340234,-202.37906868964575,-1.0117501186279425,-1.0117501186279425,0.0,19200,2.8561930656433105,1.005850430547124e-06,1.2136929337228823e-06,-202.35856325959014,0.0
140,2.896048069000244,-202.45006183322587,0.056866376742819254,-202.2673849195439,-202.56615606468574,0.0,7.412400227585617,0.1,0.023602724075317383,0.48255157470703125,0.0484407,0.010949612,-202.38616800400376,-1.0122287365300575,-1.0122287365300575,0.0,19200,2.475311517715454,2.165128105462332e-06,9.810813205042157e-07,-202.32163717333023,0.0
141,2.9143738746643066,-202.39992658586888,0.07352367767591636,-202.20880842949074,-202.5678443360633,0.0,8.758866557796372,0.1,0.023227691650390625,0.5429506301879883,0.046684716,0.0100862,-202.38754386219028,-1.0119780573690267,-1.0119780573690267,0.0,19200,2.5850424766540527,1.1531497702338962e-06,1.262941763210373e-06,-202.26768860172666,0.0
142,2.857318162918091,-202.3496666365661,0.06717315312256261,-202.18672779320323,-202.47974929071387,0.0,8.712809277906745,0.1,0.016462326049804688,0.4406745433807373,0.047846638,0.009133446,-202.38375613962788,-1.0117268635166967,-1.0117268635166967,0.0,19200,2.808441638946533,1.5447731938059396e-06,1.562748283073281e-06,-202.36041313366027,0.0
143,2.847151756286621,-202.47180642240872,0.07717215528650857,-202.22389238641549,-202.65414973825767,0.0,8.648724845697418,0.1,0.015189409255981445,0.40463852882385254,0.04960441,0.011474104,-202.39256116790597,-1.0123372612713377,-1.0123372612713377,0.0,19200,2.3579342365264893,1.302936680488637e-06,1.2563721941012307e-06,-202.29295956895572,0.0
144,3.1081602573394775,-202.40243073795696,0.06654438178356088,-202.2579917506784,-202.56489129475725,0.0,11.605201568262611,0.1,0.016173601150512695,0.40500521659851074,0.051552147,0.0070714657,-202.3935481249111,-1.01199058992417,-1.01199058992417,0.0,19200,3.167370080947876,9.951788272517293e-07,1.4161381705433613e-06,-202.26884389508027,0.0
145,2.8826823234558105,-202.35477717950425,0.06661102385943314,-202.20076408290907,-202.52157435185313,0.0,7.514945062729756,0.1,0.013893604278564453,0.3690781593322754,0.049321212,0.011968931,-202.3896710303704,-1.0117521693383156,-1.0117521693383156,0.0,19200,2.7528176307678223,1.5706578081153565e-06,1.766903783392801e-06,-202.27211783055077,0.0
146,2.8738982677459717,-202.35243632570283,0.05877645521784349,-202.20387454974872,-202.53491423110168,0.0,8.801763014875112,0.1,0.01953125,0.4476795196533203,0.05096507,0.010246065,-202.38594755990366,-1.011740319900128,-1.011740319900128,0.0,19200,2.5088448524475098,1.638902331848537e-06,2.863016059099546e-06,-202.299604374527,0.0
147,2.837209463119507,-202.4027415345654,0.06426612541405519,-202.2628818896819,-202.5567377792015,0.0,9.240844297208485,0.1,0.015780925750732422,0.4296834468841553,0.047821317,0.009583208,-202.38762695736983,-1.0119919135350075,-1.0119919135350075,0.0,19200,2.456645965576172,2.1198506624255703e-06,2.4973640469626536e-06,-202.28114351071187,0.0
148,2.8561084270477295,-202.372618321631,0.05781008014121043,-202.22334336164695,-202.5409480569716,0.0,8.22728620523604,0.1,0.01708531379699707,0.46285486221313477,0.051085755,0.010510171,-202.38612609379595,-1.0118411458629089,-1.0118411458629089,0.0,19200,2.6205639839172363,2.909324685212723e-06,1.3610744705600107e-06,-202.33638788263636,0.0
149,2.832200288772583,-202.44184529118616,0.06593801644275701,-202.29112511594116,-202.60017232676836,0.0,10.496152473273531,0.1,0.017224550247192383,0.5781564712524414,0.050763313,0.007905915,-202.39169801353498,-1.012187069640423,-1.012187069640423,0.0,19200,2.588714838027954,1.2147018682664835e-06,1.3577253644223737e-06,-202.36454886857604,0.0
150,3.0138731002807617,-202.46485298626547,0.06823707445367888,-202.26997880345326,-202.6420856413192,0.0,9.875458348202967,0.1,0.01908087730407715,0.4799671173095703,0.04941785,0.0117322635,-202.39901351080803,-1.0123020577337487,-1.0123020577337487,0.0,19200,2.503851890563965,1.587042328985973e-06,2.0614335606924033e-06,-202.42372299324126,0.0
151,2.8534562587738037,-202.53325686398446,0.07313930163183163,-202.34891925848208,-202.7114270621006,0.0,9.909981363216003,0.1,0.015950441360473633,0.43514513969421387,0.05022274,0.009526871,-202.4124378461257,-1.0126436493122535,-1.0126436493122535,0.0,19200,2.3900351524353027,1.1186869874520897e-06,1.2181442844242292e-06,-202.34917059130876,0.0
152,2.8991308212280273,-202.4555633173159,0.06487465295736355,-202.23156560258792,-202.62594365275947,0.0,6.918270988726652,0.1,0.014490604400634766,0.4149641990661621,0.048279833,0.013520803,-202.4167503932447,-1.0122555142756455,-1.0122555142756455,0.0,19200,2.464855909347534,1.0334764541906123e-06,9.305984775861685e-07,-202.32141631933973,0.0
153,2.907346487045288,-202.41110161552183,0.0590350633298256,-202.2954410706941,-202.58267479429333,0.0,10.113850014838837,0.1,0.017469167709350586,0.41588377952575684,0.04602428,0.009392797,-202.41618551547242,-1.0120331836940748,-1.0120331836940748,0.0,19200,2.5968165397644043,9.221018583055742e-07,8.896463347023154e-07,-202.34148866198498,0.0
154,2.9008047580718994,-202.40789545440722,0.05769208132670225,-202.2880338264558,-202.53305065612,0.0,6.734682007115967,0.1,0.021559715270996094,0.4674990177154541,0.04976945,0.013742542,-202.4153565093659,-1.0120171641097568,-1.0120171641097568,0.0,19200,2.898535966873169,9.488735589974787e-07,4.970992316964024e-06,-202.37619757058894,0.0
155,2.9418976306915283,-202.45391941816365,0.062441668738426805,-202.26233427483973,-202.59863810314263,0.0,8.069309336484531,0.1,0.021327972412109375,0.6584575176239014,0.050745923,0.0104748495,-202.41921280024567,-1.012247052589367,-1.012247052589367,0.0,19200,2.7947943210601807,6.53706815916757e-06,2.386396139693793e-06,-202.38260542615427,0.0
156,2.877171516418457,-202.48460246024828,0.059963355270990955,-202.3375206488874,-202.63316130635894,0.0,8.585434609862707,0.1,0.01867842674255371,0.4642646312713623,0.048919305,0.011989915,-202.42575176624592,-1.0124003765902676,-1.0124003765902676,0.0,19200,2.5611562728881836,1.9401878842030225e-06,1.0576933802357733e-06,-202.44741082055805,0.0
157,2.8479163646698,-202.54736821880886,0.07410089928764167,-202.40220361313908,-202.74735528907456,0.0,12.04986002413158,0.1,0.014621496200561523,0.3426327705383301,0.050887547,0.008136002,-202.43791341150222,-1.0127140247379467,-1.0127140247379467,0.0,19200,2.4130842685699463,1.985310102429553e-06,6.912581156287488e-06,-202.49382478122394,0.0
158,2.92388653755188,-202.57275756737593,0.06372377594909172,-202.4593025995503,-202.850872770617,0.0,12.102923339291317,0.1,0.013439416885375977,0.42302465438842773,0.04977355,0.0063264472,-202.45139782708958,-1.0128408253165213,-1.0128408253165213,0.0,19200,3.7764172554016113,7.924795010444828e-06,1.5974745483575933e-06,-202.45053750430822,0.0
159,2.9088070392608643,-202.4978162686086,0.05716763644099705,-202.33178009250213,-202.67064221663782,0.0,9.82991060550829,0.1,0.01732635498046875,0.3731985092163086,0.049157023,0.009681722,-202.45603967124148,-1.0124663039753778,-1.0124663039753778,0.0,19200,2.5567386150360107,1.0352387611864158e-06,9.569068483051938e-07,-202.4856806054509,0.0
160,2.9112260341644287,-202.54928320939757,0.06415257070206179,-202.3989602162227,-202.68614790910684,0.0,9.598826852346145,0.1,0.013879060745239258,0.3267946243286133,0.05058032,0.009690607,-202.4653640250571,-1.0127234537973964,-1.0127234537973964,0.0,19200,2.5881621837615967,1.5580976073927938e-06,1.238747698678106e-06,-202.49061458236832,0.0
161,2.895994186401367,-202.57522191968812,0.064843774639206,-202.4083214982278,-202.73945914609803,0.0,7.632757500167857,0.1,0.01461172103881836,0.41915178298950195,0.049969412,0.0123010995,-202.4763498145202,-1.0128530966187732,-1.0128530966187732,0.0,19200,2.757082939147949,1.4776166675580584e-06,1.142175589958946e-06,-202.45069481024672,0.0
162,3.1331520080566406,-202.54779952327453,0.06256248894450951,-202.39379682636746,-202.7122660657721,0.0,9.963470126400072,0.1,0.01937389373779297,0.5452392101287842,0.050106805,0.010023075,-202.48349478539564,-1.0127158506789256,-1.0127158506789256,0.0,19200,3.24055552482605,1.2522512087868924e-06,1.165817547272064e-06,-202.5067450217224,0.0
163,2.9295082092285156,-202.58685894251153,0.06576472529398335,-202.37899456898094,-202.76641650080674,0.0,8.90195625275207,0.1,0.018923282623291016,0.4290168285369873,0.045438122,0.0088753505,-202.49383120110724,-1.012910857219304,-1.012910857219304,0.0,19200,2.3944759368896484,1.9569930599432982e-06,1.2256075272536828e-06,-202.5155056949383,0.0
164,2.914095640182495,-202.59852421211895,0.06085980910353642,-202.4202580936058,-202.83502907747703,0.0,8.135177838737008,0.1,0.023614168167114258,0.4454789161682129,0.052684963,0.014464723,-202.50430050220842,-1.0129689221470128,-1.0129689221470128,0.0,19200,2.2135016918182373,1.4653223666250478e-06,3.0653778437355406e-06,-202.56961667491964,0.0
165,2.961414098739624,-202.64761096158574,0.06268792878044456,-202.4882067807092,-202.81349008896788,0.0,9.36140883970936,0.1,0.03360700607299805,0.4617328643798828,0.0486504,0.010201115,-202.51863154814615,-1.0132144035590331,-1.0132144035590331,0.0,19200,3.043180227279663,2.0666476318417842e-06,3.035220758264636e-06,-202.53108734511983,0.0
166,2.9605774879455566,-202.61800189793576,0.06395228078474904,-202.43913980157117,-202.8256974774921,0.0,6.576651775034042,0.1,0.0201263427734375,0.3727757930755615,0.0507482,0.0143019045,-202.52856858312512,-1.0130664260822677,-1.0130664260822677,0.0,19200,3.38553786277771,2.3216158467288164e-06,9.115599950428103e-07,-202.60952018718413,0.0
167,2.9401233196258545,-202.69011334257868,0.05517416267884431,-202.58015455047936,-202.8426393645553,0.0,6.688266952140192,0.1,0.020688533782958984,0.4094827175140381,0.05073511,0.016268644,-202.5447230590705,-1.0134266801309515,-1.0134266801309515,0.0,19200,2.2949609756469727,1.1016312133695232e-06,4.868814264186402e-06,-202.640673226626,0.0
168,3.1071908473968506,-202.71706803437283,0.062402794360000985,-202.54570586941801,-202.87847236933138,0.0,9.412144630183912,0.1,0.021860599517822266,0.44928669929504395,0.04872892,0.010993446,-202.5619575566007,-1.0135614664936579,-1.0135614664936579,0.0,19200,2.408557415008545,5.69821509031884e-06,1.3987500764038725e-06,-202.60009911959747,0.0
169,2.876039981842041,-202.67928067416156,0.05370569597954251,-202.56495677542128,-202.79399878314436,0.0,8.888373818710884,0.1,0.026854753494262695,0.5188212394714355,0.051035356,0.012147344,-202.5736898683568,-1.0133727064125269,-1.0133727064125269,0.0,19200,2.3621432781219482,9.955463441629545e-07,1.009765212346737e-06,-202.61440248261007,0.0
170,2.885281801223755,-202.7194424473179,0.054819898832803936,-202.56796804835005,-202.88519666140175,0.0,10.316298739729909,0.1,0.01884150505065918,0.4394855499267578,0.047946226,0.007115028,-202.58826512625294,-1.0135733657914043,-1.0135733657914043,0.0,19200,3.013425350189209,1.2831107423132945e-06,1.5506303013352069e-06,-202.638669633729,0.0
171,2.845054864883423,-202.72106463104956,0.06154742277391172,-202.58855198640154,-202.87127959811033,0.0,8.179722376584635,0.1,0.018315792083740234,0.5072462558746338,0.04982102,0.011062604,-202.6015450767326,-1.0135810997818508,-1.0135810997818508,0.0,19200,2.574481248855591,1.4096354574920639e-06,1.2247096423051692e-06,-202.60887168670652,0.0
172,2.859933853149414,-202.70412414465184,0.06530701300861903,-202.56746757943736,-202.85200818546733,0.0,9.504164413667958,0.1,0.01911020278930664,0.4729912281036377,0.04894275,0.010074216,-202.6118029835245,-1.0134966955238431,-1.0134966955238431,0.0,19200,3.1432247161865234,1.0466312771972387e-06,3.827024911634537e-06,-202.588449728731,0.0
173,2.99541974067688,-202.67384347902842,0.060856136926132204,-202.50915740677445,-202.86337776658667,0.0,8.904150166851254,0.1,0.015157938003540039,0.3868236541748047,0.048401363,0.011144698,-202.6180070330749,-1.0133454422745654,-1.0133454422745654,0.0,19200,2.5047860145568848,4.47734096187985e-06,1.0746953872503371e-06,-202.5625301885017,0.0
174,2.8841240406036377,-202.64993892837194,0.05971992182492426,-202.48259853639487,-202.82304985055373,0.0,8.79226454291648,0.1,0.02005290985107422,0.502387285232544,0.049855802,0.010564912,-202.6212002226046,-1.0132259138780755,-1.0132259138780755,0.0,19200,2.5259501934051514,1.0175726381408716e-06,2.199139318729611e-06,-202.57637537169288,0.0
175,2.8784966468811035,-202.6654768172816,0.06500149752112427,-202.49187387990602,-202.82231946122945,0.0,11.189398107316844,0.1,0.016015291213989258,0.4060549736022949,0.048457917,0.008919203,-202.6256278820723,-1.013303511154392,-1.013303511154392,0.0,19200,2.8353309631347656,2.4955815062530675e-06,1.1042098002191657e-06,-202.5325695685847,0.0
176,2.8771371841430664,-202.64081251006908,0.06348236554889969,-202.46498495279155,-202.8438184760573,0.0,10.372100784507747,0.1,0.016252756118774414,0.41158151626586914,0.049913246,0.007800115,-202.627146344872,-1.0131804376101294,-1.0131804376101294,0.0,19200,2.2538583278656006,1.48047133940457e-06,2.1571605444734193e-06,-202.4702867310002,0.0
177,2.874502420425415,-202.57536610790166,0.060231686959491416,-202.43901065747397,-202.7352556924516,0.0,8.295664301304212,0.1,0.014741659164428711,0.40865087509155273,0.048266437,0.010836213,-202.62196832117496,-1.012853623106443,-1.012853623106443,0.0,19200,2.404858112335205,1.1649846852383903e-06,1.974225346551309e-06,-202.53362059543232,0.0
178,2.9226348400115967,-202.64739386813713,0.06656294387987258,-202.4745501850314,-202.83747568139395,0.0,12.015351045094866,0.1,0.04264569282531738,0.6373684406280518,0.04863311,0.008070179,-202.62451087587118,-1.0132132890047105,-1.0132132890047105,0.0,19200,3.0072662830352783,3.5820262330519968e-06,1.5870248206016444e-06,-202.49858341904104,0.0
179,2.949362277984619,-202.61176369654038,0.0641673738447107,-202.4472223420556,-202.76316702065128,0.0,9.890261092614445,0.1,0.016062498092651367,0.43938517570495605,0.0493049,0.009778061,-202.6232361579381,-1.0130352863483605,-1.0130352863483605,0.0,19200,2.6254732608795166,2.079497484604693e-06,1.6841173446389842e-06,-202.55015062656759,0.0
180,2.9137771129608154,-202.6940198923502,0.07046555335846179,-202.51972003579567,-202.87786684841865,0.0,14.16223154465005,0.1,0.016911029815673828,0.3777632713317871,0.049163204,0.006880307,-202.63031453137933,-1.0134464262717968,-1.0134464262717968,0.0,19200,2.539856195449829,1.4276136983759732e-06,5.0807180129594436e-06,-202.504071496363,0.0
181,2.8510901927948,-202.65054177132288,0.07069468565730996,-202.4833603097649,-202.80983906016255,0.0,6.858502806365279,0.1,0.017960309982299805,0.41455531120300293,0.04849003,0.01458173,-202.6323372553737,-1.0132291563590539,-1.0132291563590539,0.0,19200,2.6356618404388428,6.813599408543578e-06,1.0657023580594296e-06,-202.51063544735715,0.0
182,2.8692033290863037,-202.65311129333296,0.06522048564915252,-202.4964141261308,-202.80398648583267,0.0,12.41736592912926,0.1,0.02503204345703125,0.3921694755554199,0.049970582,0.008342155,-202.63441465916964,-1.0132418769625204,-1.0132418769625204,0.0,19200,2.5747857093811035,1.03594779376585e-06,9.881344517324555e-07,-202.49339409491284,0.0
183,2.964783191680908,-202.64414727490654,0.07038339415028809,-202.52997428144948,-202.8305274634018,0.0,10.29739394816788,0.1,0.0194857120513916,0.4727315902709961,0.05106259,0.0100846635,-202.6353879207433,-1.0131970464545559,-1.0131970464545559,0.0,19200,2.615966796875,1.0419502410694107e-06,1.4770061125897426e-06,-202.51320633429881,0.0
184,2.8596577644348145,-202.6711928885602,0.06922098596385941,-202.5192816946617,-202.87346371204723,0.0,9.888019498350902,0.1,0.017026185989379883,0.3720703125,0.049928308,0.009352434,-202.638968417525,-1.01333204427168,-1.01333204427168,0.0,19200,2.6197543144226074,1.0699889604257017e-06,9.770706214444475e-07,-202.49960909409913,0.0
185,2.9298815727233887,-202.63426074621603,0.06770601584971192,-202.4639708247443,-202.81079319183326,0.0,10.827932137249821,0.1,0.015822172164916992,0.3692820072174072,0.048939824,0.010403833,-202.63849765039413,-1.01314740953978,-1.01314740953978,0.0,19200,2.782707929611206,1.0693312269833625e-06,9.224003557291375e-07,-202.57105592118984,0.0
186,2.850158452987671,-202.7194586806595,0.07020995063828266,-202.56303205573175,-202.96015637091614,0.0,8.47990949288071,0.1,0.022616147994995117,0.3901698589324951,0.048878122,0.010884525,-202.6465937534207,-1.0135728686305148,-1.0135728686305148,0.0,19200,2.627789258956909,1.5762321610421678e-06,3.277046306335681e-06,-202.50918460530056,0.0
187,2.961033821105957,-202.6691818987721,0.05969202841523876,-202.52865750736956,-202.799902206426,0.0,9.65665904838147,0.1,0.023403167724609375,0.47189879417419434,0.049790736,0.008919261,-202.64885256795583,-1.013321749268174,-1.013321749268174,0.0,19200,3.2171828746795654,2.1996358207028277e-06,1.5150340784898794e-06,-202.50942985635726,0.0
188,2.9305057525634766,-202.63376630888808,0.06613045756590524,-202.4830448539138,-202.80606985806622,0.0,7.445983445323932,0.1,0.023561954498291016,0.5041885375976562,0.04550829,0.013111061,-202.64734394204908,-1.0131444157743525,-1.0131444157743525,0.0,19200,2.4193286895751953,1.4643142713780716e-06,1.682010776622032e-06,-202.5239866200262,0.0
189,2.9178361892700195,-202.64541563128296,0.06167458900447108,-202.49927295294512,-202.87867176617323,0.0,8.595324702062204,0.1,0.03805279731750488,0.47243332862854004,0.048649345,0.011461489,-202.64715111097246,-1.0132025716270583,-1.0132025716270583,0.0,19200,2.3386571407318115,1.8089619486364404e-06,1.1598587201415367e-06,-202.5576889409403,0.0
190,2.9384849071502686,-202.67284332244972,0.05706646528419642,-202.54186446817567,-202.82271402053797,0.0,9.027607868894167,0.1,0.013754606246948242,0.4061729907989502,0.051264536,0.0111175915,-202.64972033212018,-1.0133395909316005,-1.0133395909316005,0.0,19200,2.27091646194458,1.2788217543612342e-06,8.471350193335022e-07,-202.5506738166261,0.0
191,3.074876308441162,-202.67248008521787,0.058464837169613135,-202.52137596927864,-202.82812053016622,0.0,10.225582381636144,0.1,0.014348506927490234,0.34718871116638184,0.049575135,0.008060242,-202.65199630742995,-1.0133377174900031,-1.0133377174900031,0.0,19200,2.277204751968384,9.408271415690628e-07,1.1323846171253382e-06,-202.61929959717207,0.0
192,2.9102399349212646,-202.74715067097858,0.0615349512399519,-202.61104371888723,-202.9144741244907,0.0,9.10482811452646,0.1,0.021359920501708984,0.44637036323547363,0.049060307,0.010391858,-202.66151174378484,-1.0137106271743692,-1.0137106271743692,0.0,19200,2.1869399547576904,2.1802482653444167e-06,2.768757502461187e-06,-202.65465664115098,0.0
193,2.947450637817383,-202.78805706753897,0.0638038303977477,-202.5908004919477,-202.93880687671336,0.0,11.022275904823935,0.1,0.013484001159667969,0.3543694019317627,0.04000075,0.0068611344,-202.67416627616026,-1.0139150504888235,-1.0139150504888235,0.0,19200,2.3584306240081787,3.8082019061415538e-06,1.1557527861491285e-06,-202.68348366199382,0.0
194,2.958961009979248,-202.8138399314245,0.06945521721847309,-202.6556730419083,-202.97751446548997,0.0,10.219135815405112,0.1,0.01410531997680664,0.3890388011932373,0.045662887,0.0067131543,-202.68813364168668,-1.0140438472758377,-1.0140438472758377,0.0,19200,2.33158540725708,1.091213939112401e-06,1.4718344750930826e-06,-202.6710614174782,0.0
195,2.9435176849365234,-202.81589067470983,0.0705076869675737,-202.5840795402394,-203.00225451852148,0.0,6.085519069852315,0.1,0.01785898208618164,0.3869669437408447,0.0493219,0.014579236,-202.700909344989,-1.0140541431203598,-1.0140541431203598,0.0,19200,2.3688902854919434,1.4502966508368095e-06,4.949321211593061e-06,-202.72534599462955,0.0
196,2.905343532562256,-202.84390104015722,0.052058970086518344,-202.66476778341067,-202.99390483437946,0.0,8.356249028032273,0.1,0.016106128692626953,0.43804287910461426,0.04927963,0.009397081,-202.71520851450583,-1.0141937429656045,-1.0141937429656045,0.0,19200,2.392083168029785,2.694486860405841e-06,8.522749807355815e-07,-202.75902651843745,0.0
197,3.1252171993255615,-202.8597098814712,0.05667816789493599,-202.74747810314597,-202.97296948574134,0.0,10.299547928745389,0.1,0.016725778579711914,0.3545093536376953,0.050078034,0.010443999,-202.72965865120236,-1.014272898804284,-1.014272898804284,0.0,19200,3.774383783340454,1.005291947599581e-06,1.2425348325361417e-06,-202.73386464670475,0.0
198,2.8908121585845947,-202.84922135137677,0.06961050778544642,-202.58644783896264,-203.03887054005685,0.0,8.089602029560139,0.1,0.017390966415405273,0.3918941020965576,0.04654979,0.011382438,-202.74161492121982,-1.0142203380238373,-1.0142203380238373,0.0,19200,2.671815872192383,1.3069551527339588e-06,1.2387308423287847e-06,-202.77387816191606,0.0
199,2.887798547744751,-202.8979041443297,0.06417733037205854,-202.74963169657332,-203.0449172540485,0.0,11.058547854328724,0.1,0.014133214950561523,0.3671753406524658,0.049320932,0.010923191,-202.75724384353083,-1.0144636739905522,-1.0144636739905522,0.0,19200,2.7114946842193604,1.0031089192978202e-06,9.436742368026477e-07,-202.7981197120732,0.0
200,2.853803873062134,-202.91483501974471,0.06765691268461713,-202.74213090174183,-203.0820921154638,0.0,9.373637558978732,0.1,0.023685216903686523,0.6064200401306152,0.049866427,0.00845755,-202.77300296115223,-1.0145481221759083,-1.0145481221759083,0.0,19200,2.725243330001831,1.0089569200131447e-06,2.3284407904042947e-06,-202.81294001761552,0.0
201,2.8934004306793213,-202.92583932143677,0.06716813334177421,-202.71618850850098,-203.08568825760122,0.0,7.3554330061100055,0.1,0.014612674713134766,0.4509556293487549,0.049315453,0.012841164,-202.7882865971807,-1.0146031222598442,-1.0146031222598442,0.0,19200,3.400489330291748,2.0060380441655177e-06,1.2685996603283206e-06,-202.82981448531194,0.0
202,3.071483612060547,-202.96323001658936,0.0744299686512972,-202.75631716251243,-203.13523436373924,0.0,12.573924240744462,0.1,0.02459549903869629,0.4114205837249756,0.049388114,0.008306856,-202.80578093912158,-1.0147900309390099,-1.0147900309390099,0.0,19200,1.6678097248077393,1.177382588306915e-06,1.1994667649280485e-06,-202.81121365616298,0.0
203,3.055535078048706,-202.9367184627753,0.07270758023583919,-202.68292546475226,-203.13377820950274,0.0,9.767892452202286,0.1,0.02292323112487793,0.4928569793701172,0.047378745,0.008385071,-202.81887469148697,-1.014657444627315,-1.014657444627315,0.0,19200,2.9394586086273193,1.3862882476152557e-06,2.260622587804647e-06,-202.85765790336345,0.0
204,2.99828839302063,-202.97135508147562,0.06746914664932997,-202.8257452933264,-203.14845693877447,0.0,10.589916487576833,0.1,0.014830350875854492,0.37192201614379883,0.048004393,0.010187904,-202.83412273048583,-1.014830343269587,-1.014830343269587,0.0,19200,3.356861114501953,1.5001764068893092e-06,4.160166473004111e-06,-202.81327851221994,0.0
205,2.925868511199951,-202.91112506116522,0.06662942397603026,-202.74183658907467,-203.0747745619637,0.0,10.21423910014147,0.1,0.015221357345581055,0.39110732078552246,0.0476648,0.010622477,-202.84182296355377,-1.0145292946658162,-1.0145292946658162,0.0,19200,2.44222092628479,3.070550459677981e-06,1.8321738532207706e-06,-202.8778450230886,0.0
206,2.921879291534424,-202.96270880925022,0.06545953227475376,-202.80742235995538,-203.1134007468298,0.0,8.979158274805165,0.1,0.016846418380737305,0.4038684368133545,0.049038652,0.011021806,-202.85391154812342,-1.0147869954906734,-1.0147869954906734,0.0,19200,2.6893489360809326,2.8734222147532374e-06,3.6957007903755936e-06,-202.85425020404537,0.0
207,2.8955156803131104,-202.94904153248308,0.06108500075537552,-202.80809145069156,-203.08797452732,0.0,9.114752631068848,0.1,0.021006345748901367,0.4149594306945801,0.050307438,0.009616297,-202.86342454655937,-1.0147188551808564,-1.0147188551808564,0.0,19200,2.685779571533203,3.959630624332072e-06,3.984620518792283e-06,-202.8796724766381,0.0
208,3.1006712913513184,-202.98452645509897,0.0766477713390741,-202.82560915941687,-203.16698633134277,0.0,7.920657992042826,0.1,0.01872849464416504,0.36368298530578613,0.046781253,0.012205895,-202.87553473741332,-1.0148959612745774,-1.0148959612745774,0.0,19200,2.78098726272583,3.4629935599952605e-06,1.101155127269208e-06,-202.90969106588682,0.0
209,2.8211216926574707,-203.01648820659383,0.07221190010661982,-202.7917059409303,-203.21511096153193,0.0,9.236918697701611,0.1,0.01578211784362793,0.4051640033721924,0.048176035,0.011521483,-202.88963008433137,-1.015055935636189,-1.015055935636189,0.0,19200,2.702662467956543,1.0734706229099875e-06,1.0910031241401246e-06,-202.96681094702151,0.0
210,2.882814407348633,-203.0585777051023,0.06059979070796212,-202.9200216449927,-203.2682063297893,0.0,10.709478959675762,0.1,0.017482757568359375,0.4726855754852295,0.04971989,0.00981794,-202.90652484640844,-1.0152660816840404,-1.0152660816840404,0.0,19200,2.741603136062622,1.5799656223468845e-06,1.0543128459621118e-06,-203.02141044327863,0.0
211,2.918452739715576,-203.12677003972453,0.06073721441383176,-202.97014047861205,-203.26472249161273,0.0,8.869675096657051,0.1,0.018538475036621094,0.5338008403778076,0.051128525,0.010299172,-202.92854936574005,-1.0156067117060854,-1.0156067117060854,0.0,19200,2.4636950492858887,1.5834836005916586e-06,1.2211643363097967e-06,-203.07604240150778,0.0
212,2.927579164505005,-203.1468261879912,0.06597918369001914,-202.99757781572478,-203.35124512499328,0.0,8.627664098346731,0.1,0.029897212982177734,0.578834056854248,0.04620113,0.010419675,-202.95037704796516,-1.0157067652548102,-1.0157067652548102,0.0,19200,2.6114938259124756,1.1231625236640078e-06,2.46110068362422e-06,-203.0883945342831,0.0
213,2.9530210494995117,-203.1411437547478,0.05863703585292791,-203.01657148169303,-203.28879615382016,0.0,11.983945414791464,0.1,0.023715496063232422,0.468858003616333,0.049014453,0.008779615,-202.96945371864345,-1.0156783291450446,-1.0156783291450446,0.0,19200,2.2432351112365723,2.136977774486309e-06,1.2160735191132712e-06,-203.1089041051419,0.0
214,3.114506483078003,-203.15590231835645,0.06255977520885589,-203.0214807776099,-203.30089999048153,0.0,6.938434644077608,0.1,0.01487112045288086,0.3734776973724365,0.047992937,0.012353904,-202.98809857861474,-1.0157520976852605,-1.0157520976852605,0.0,19200,3.0580530166625977,1.304284315462371e-06,1.5734216353560093e-06,-203.11829543146447,0.0
215,2.875744104385376,-203.18988249889193,0.06486100886554523,-203.02144911850363,-203.38522568870982,0.0,8.439887386321175,0.1,0.024161577224731445,0.5643818378448486,0.048423346,0.011753853,-203.00827697064247,-1.015921845607153,-1.015921845607153,0.0,19200,2.6356654167175293,1.2669101342439358e-06,1.5352397753555591e-06,-203.0775889434429,0.0
216,2.8851327896118164,-203.13452340996878,0.053624822609637364,-202.99976538968912,-203.2415934418664,0.0,12.200586754878255,0.1,0.014909744262695312,0.380068302154541,0.04666617,0.008922501,-203.0209016145751,-1.0156451555702295,-1.0156451555702295,0.0,19200,2.5558083057403564,2.2330617808820405e-06,1.310716721693955e-06,-203.03483401163052,0.0
217,2.9600613117218018,-203.09825190780384,0.07106324004413654,-202.932913307326,-203.2964695972018,0.0,8.795309261856039,0.1,0.01580977439880371,0.3848001956939697,0.050028495,0.012680022,-203.02863664389798,-1.0154639614811785,-1.0154639614811785,0.0,19200,2.914886951446533,1.1041029079368178e-06,1.2940216645883633e-06,-202.9435546317423,0.0
218,2.8712170124053955,-202.99883220328886,0.06494257583321114,-202.83402450214479,-203.16811024044523,0.0,9.372593584369902,0.1,0.0209805965423584,0.4459254741668701,0.049487542,0.011231688,-203.02565619983707,-1.0149672646341767,-1.0149672646341767,0.0,19200,2.475710153579712,1.859096486904171e-06,1.0602296484952142e-06,-202.9512917739964,0.0
219,2.919330596923828,-203.01532842144164,0.0685342055006909,-202.85364080325942,-203.21139828348834,0.0,10.111353077930941,0.1,0.027467966079711914,0.48076677322387695,0.04766935,0.009525911,-203.02462342199752,-1.015049723313239,-1.015049723313239,0.0,19200,3.264810085296631,1.1576247925369192e-06,1.455679169678644e-06,-203.01135549699956,0.0
220,3.042121410369873,-203.07492136874157,0.06923424101165482,-202.89486629180814,-203.20688117363406,0.0,10.073144909642098,0.1,0.029600858688354492,0.5347485542297363,0.040693693,0.00932917,-203.02965321667193,-1.0153475902595552,-1.0153475902595552,0.0,19200,2.880403757095337,2.9475991743144734e-06,1.7532983074838444e-06,-203.00831848498333,0.0
221,2.8814101219177246,-203.08434731206307,0.0648387131308275,-202.89969198211577,-203.2588363588533,0.0,9.055967817439276,0.1,0.017055511474609375,0.4375603199005127,0.040725794,0.010361877,-203.03512262621106,-1.0153946691528564,-1.0153946691528564,0.0,19200,2.9250237941741943,1.6786218756105263e-06,9.72366741421609e-07,-203.03101813300134,0.0
222,2.8835535049438477,-203.12434603677556,0.07175559144791,-202.8955084467329,-203.28026724698302,0.0,10.15040657110621,0.1,0.030043363571166992,0.4826507568359375,0.04780982,0.00862285,-203.04404496726752,-1.015594509780434,-1.015594509780434,0.0,19200,2.18801212310791,1.0353370718106169e-06,1.3937315150984982e-06,-203.0602739435675,0.0
223,2.947397470474243,-203.13413635430092,0.07996262968525013,-202.92105743782062,-203.36731219907185,0.0,12.205147062414614,0.1,0.015996932983398438,0.43966197967529297,0.042453118,0.006593672,-203.05305410597086,-1.0156433525815183,-1.0156433525815183,0.0,19200,2.4202630519866943,1.7442141167158186e-06,1.3048019062781918e-06,-203.03427154440425,0.0
224,2.8864572048187256,-203.1105355448002,0.07114566404633349,-202.93798691405496,-203.27742454373484,0.0,7.291598568014736,0.1,0.018455982208251953,0.47454071044921875,0.04923094,0.015653623,-203.0588022498538,-1.015525548807352,-1.015525548807352,0.0,19200,2.5212199687957764,1.5005648220352702e-06,1.515745027317141e-06,-203.0587059719458,0.0
225,2.910645008087158,-203.11902720345336,0.07150238867606706,-202.97144619300585,-203.32025017341195,0.0,9.851490604329193,0.1,0.01799798011779785,0.45456981658935547,0.050148066,0.010092906,-203.06482474521377,-1.0155680132086564,-1.0155680132086564,0.0,19200,2.2839293479919434,1.582967953569171e-06,1.3094786957541622e-06,-203.06793725996795,0.0
226,2.9954097270965576,-203.14298088122374,0.07598183722259179,-202.98377594314724,-203.33576073365697,0.0,10.192114251904483,0.1,0.019208431243896484,0.4517033100128174,0.05192609,0.0099252565,-203.07264035881477,-1.0156875031394064,-1.0156875031394064,0.0,19200,3.987929105758667,1.2260893542451111e-06,7.4858926681108095e-06,-203.0908503534557,0.0
227,2.8633973598480225,-203.1621873095631,0.07677512299431774,-202.99419866383062,-203.3013351256612,0.0,12.987995123394306,0.1,0.017917394638061523,0.39429259300231934,0.048228674,0.0085385805,-203.0815950538896,-1.0157835571396505,-1.0157835571396505,0.0,19200,2.6186976432800293,8.301909327203563e-06,1.2670867572546639e-06,-203.06794575906002,0.0
228,2.8618218898773193,-203.15295538490034,0.07836080803117308,-202.8981711834677,-203.36391610099935,0.0,11.212643964251493,0.1,0.01553034782409668,0.42907190322875977,0.047644928,0.009587149,-203.0887310869907,-1.0157374951034102,-1.0157374951034102,0.0,19200,2.708064317703247,1.4272046055313653e-06,1.2373056165512055e-06,-203.0468204896623,0.0
229,2.911618709564209,-203.14471399223126,0.07937709753490715,-202.95339397187476,-203.3835615221095,0.0,8.880703942955694,0.1,0.016489028930664062,0.40538668632507324,0.050517485,0.00865392,-203.09432937751475,-1.0156962995228886,-1.0156962995228886,0.0,19200,2.8558545112609863,1.3548252714395396e-06,1.4636969775056247e-06,-203.06364564232464,0.0
230,2.95161771774292,-203.1375770852945,0.07338146204849388,-202.94937888426023,-203.32370424257303,0.0,8.272432294720062,0.1,0.019082307815551758,0.5245518684387207,0.051924586,0.0110740755,-203.09865414829272,-1.0156606065927216,-1.0156606065927216,0.0,19200,2.8866169452667236,1.3700927296259476e-06,1.0682386916585667e-06,-203.084822198543,0.0
231,3.0449275970458984,-203.1640280390858,0.079006779950256,-202.993854960184,-203.37758621935697,0.0,9.709342839536713,0.1,0.01615166664123535,0.5422101020812988,0.04921301,0.009276062,-203.10519153737204,-1.015792921110568,-1.015792921110568,0.0,19200,2.7611896991729736,1.3804974141782122e-06,3.1361537685484404e-06,-203.17056617371657,0.0
232,2.883396625518799,-203.26436022529893,0.07077709406403528,-203.1026501716924,-203.4037436104528,0.0,10.418106945962437,0.1,0.028728246688842773,0.4478616714477539,0.04618472,0.006443688,-203.12110840616472,-1.016294216902349,-1.016294216902349,0.0,19200,2.545801877975464,1.261751928746405e-06,1.5021968179737397e-06,-203.16880636776938,0.0
233,2.927929639816284,-203.2831283812891,0.08311593458002295,-203.07732430754606,-203.5606161282839,0.0,10.712782556484719,0.1,0.013721704483032227,0.44547414779663086,0.05083756,0.008184031,-203.13731040367716,-1.0163877313899377,-1.0163877313899377,0.0,19200,3.0078678131103516,1.738011141163905e-06,1.395316378968179e-06,-203.12732868893906,0.0
234,2.9778051376342773,-203.20790023868105,0.08271041585764126,-202.93614257546187,-203.3892392849375,0.0,9.982734205546349,0.1,0.021349191665649414,0.5125231742858887,0.048210125,0.009221315,-203.14436938717756,-1.0160118460282492,-1.0160118460282492,0.0,19200,2.7577428817749023,1.7252086777641822e-06,1.3591851162848123e-06,-203.1847180630058,0.0
235,2.896507978439331,-203.25326727903135,0.07559165326657563,-203.03993983155382,-203.47749652087873,0.0,9.244520128548999,0.1,0.019420385360717773,0.42331719398498535,0.050039116,0.009946768,-203.15525917636293,-1.0162386614917764,-1.0162386614917764,0.0,19200,2.776381492614746,1.972683129325614e-06,2.7470810031437154e-06,-203.15085623893088,0.0
236,2.9079675674438477,-203.2237105298358,0.07676788874462132,-203.05333335561014,-203.42997604869942,0.0,8.943275491709457,0.1,0.017347097396850586,0.44097328186035156,0.04991076,0.011723175,-203.16210431171024,-1.0160907793176686,-1.0160907793176686,0.0,19200,2.846078395843506,3.3455364379583122e-06,3.268636546565609e-06,-203.17405475767794,0.0
237,3.272674798965454,-203.2674505757913,0.06714965245456672,-203.10965653344846,-203.4183353102742,0.0,11.721230818534567,0.1,0.018485307693481445,0.4569542407989502,0.04689315,0.008893766,-203.17263893811835,-1.0163095703638543,-1.0163095703638543,0.0,19200,3.154986619949341,3.821088645923591e-06,5.559128080138723e-06,-203.14242110369173,0.0
238,2.9221436977386475,-203.23162592514436,0.07916737712018666,-203.08222723424285,-203.46845624925322,0.0,9.97491210931149,0.1,0.022786617279052734,0.490293025970459,0.0533264,0.011363285,-203.17853763682098,-1.0161304234083899,-1.0161304234083899,0.0,19200,2.6445460319519043,6.8528669755236165e-06,1.0867141047398022e-06,-203.10398583974285,0.0
239,2.8905386924743652,-203.176055787722,0.08917888002181219,-202.9963298126518,-203.3752749972117,0.0,6.499983077236415,0.1,0.017490863800048828,0.39952969551086426,0.050195422,0.015346764,-203.1782894519111,-1.0158528824479978,-1.0158528824479978,0.0,19200,2.5410237312316895,1.2133762132893464e-06,1.074737927439327e-06,-203.10853183286918,0.0
240,2.8826744556427,-203.19376708358539,0.08889079750511432,-202.99499830463634,-203.39510819373353,0.0,7.270159070769659,0.1,0.019423961639404297,0.4388604164123535,0.05019316,0.013435383,-203.17983721507852,-1.015941368074375,-1.015941368074375,0.0,19200,2.469780445098877,1.194504242883631e-06,2.9856828585382013e-06,-203.15879315233374,0.0
241,2.9600231647491455,-203.22978348723316,0.07821502074893921,-203.02250683518966,-203.4285644649714,0.0,9.113147760417238,0.1,0.01595902442932129,0.42477893829345703,0.048749264,0.010704506,-203.184831842294,-1.0161212494194247,-1.0161212494194247,0.0,19200,2.652848958969116,1.991414913324112e-06,1.396384919745995e-06,-203.12622414809135,0.0
242,2.8824198246002197,-203.1926867735855,0.0718532309098132,-202.9839212501675,-203.33342894343028,0.0,14.938181455132858,0.1,0.020032405853271484,0.4223020076751709,0.049655598,0.0067451494,-203.18561733542316,-1.015935948284352,-1.015935948284352,0.0,19200,2.828169822692871,1.8119421959983605e-06,9.919606414369414e-07,-203.11815251275016,0.0
243,3.214303970336914,-203.1768487501739,0.0815621289125802,-202.94637557207395,-203.40940920732453,0.0,7.242034628561573,0.1,0.018077611923217773,0.4581165313720703,0.05065263,0.01421309,-203.18474047689824,-1.015856839097415,-1.015856839097415,0.0,19200,3.1741650104522705,1.0764120287239563e-06,1.0485059848233576e-06,-203.1465781327638,0.0
244,2.874044418334961,-203.19220490491207,0.07323783092409171,-203.01552140490864,-203.33077234595538,0.0,11.001247548066655,0.1,0.020868539810180664,0.5042984485626221,0.049297098,0.0077764383,-203.18548691969963,-1.0159336177801552,-1.0159336177801552,0.0,19200,2.386678457260132,1.0369867637268023e-06,1.040118512037777e-06,-203.1304785286991,0.0
245,2.9168646335601807,-203.2002255952906,0.0743226803624224,-202.97427209896077,-203.4940877841658,0.0,9.97475151073626,0.1,0.024168729782104492,0.5276858806610107,0.04593722,0.006865382,-203.18696078725873,-1.0159736349293056,-1.0159736349293056,0.0,19200,2.5218536853790283,1.0144042429175011e-06,1.1530192082471833e-06,-203.07605647787247,0.0
246,2.8890583515167236,-203.13573839310956,0.0677531737487645,-202.96036704021714,-203.27875220370774,0.0,14.990211029806673,0.1,0.025035858154296875,0.49527645111083984,0.04906159,0.006001854,-203.1818385478438,-1.0156513297574585,-1.0156513297574585,0.0,19200,2.4296443462371826,1.791292599573246e-06,1.5940955941410617e-06,-203.0134507752138,0.0
247,2.9677517414093018,-203.07515264821123,0.06388990467423457,-202.94509530891122,-203.26923227896208,0.0,9.841609888365992,0.1,0.01821112632751465,0.47687435150146484,0.047187738,0.009843739,-203.17116995788055,-1.0153486613775506,-1.0153486613775506,0.0,19200,2.236419200897217,9.39948827729792e-07,1.3145896380438373e-06,-203.0300115388223,0.0
248,3.035571813583374,-203.09370514937805,0.08408829484407733,-202.92738000605226,-203.3407191695801,0.0,9.32269363764284,0.1,0.019071102142333984,0.4654273986816406,0.04919548,0.010485701,-203.1634234770303,-1.0154413537905997,-1.0154413537905997,0.0,19200,2.3262462615966797,1.7026130806925054e-06,1.1822414192376163e-06,-203.00136317087177,0.0
249,3.1057686805725098,-203.06890886856945,0.07639021045555103,-202.89377691814013,-203.221246938699,0.0,9.125805246051797,0.1,0.01564931869506836,0.3707878589630127,0.047534645,0.010472574,-203.15397201618424,-1.0153177045192756,-1.0153177045192756,0.0,19200,2.434605360031128,1.0632057466916235e-06,3.976913798318812e-06,-203.04472988529994,0.0
250,2.936913251876831,-203.10143440133615,0.07196439446885904,-202.9640246596268,-203.34126803888702,0.0,7.982515483219913,0.1,0.015125751495361328,0.3706824779510498,0.050951056,0.009205024,-203.14871825469942,-1.0154800735554148,-1.0154800735554148,0.0,19200,3.23494291305542,3.1726979910443313e-06,1.4892451960468692e-06,-203.01429453259067,0.0
251,2.89540433883667,-203.07886430434687,0.07143043156188558,-202.903850197898,-203.26053055010274,0.0,11.377427999669187,0.1,0.01991415023803711,0.46844029426574707,0.04830729,0.009482937,-203.14173285966416,-1.0153673306601856,-1.0153673306601856,0.0,19200,2.652477264404297,1.8746481297394517e-06,1.1158103704216472e-06,-203.0056055144202,0.0
252,2.96124005317688,-203.05376826238887,0.07559427827351126,-202.84096876324128,-203.2345346211696,0.0,8.056126823551208,0.1,0.01796555519104004,0.4062526226043701,0.049493,0.011967343,-203.13293639993665,-1.0152421466052537,-1.0152421466052537,0.0,19200,2.5185365676879883,9.787919864673648e-07,9.874591366098458e-07,-202.94991297233491,0.0
253,2.9029786586761475,-202.99412019007818,0.07366657711492089,-202.83103465290168,-203.15507989040228,0.0,9.058590420578803,0.1,0.013624429702758789,0.31362390518188477,0.04828903,0.011257882,-203.11905477895078,-1.0149439989294007,-1.0149439989294007,0.0,19200,2.607405185699463,1.1008897220649677e-06,1.264802074316612e-06,-202.98543082677105,0.0
254,3.1285762786865234,-203.02705043972188,0.07678492837993779,-202.83985178717415,-203.21131036306258,0.0,14.656898760243262,0.1,0.0177767276763916,0.44791364669799805,0.050307427,0.005891775,-203.1098543450279,-1.015108445052107,-1.015108445052107,0.0,19200,2.6472108364105225,1.1091774201999933e-06,1.0941513709298967e-06,-202.9306941003276,0.0
255,2.869377374649048,-202.96952324338199,0.07212324125793702,-202.81411329201293,-203.16170467243944,0.0,8.907699351625615,0.1,0.02794647216796875,0.526531457901001,0.05299668,0.010678025,-203.09582123486334,-1.0148211527009001,-1.0148211527009001,0.0,19200,2.67820143699646,9.796810024076804e-07,1.8821702644407772e-06,-202.90757811622797,0.0
256,2.885951042175293,-202.94000005009852,0.07440696957514224,-202.74659721765087,-203.1111542289942,0.0,8.809756889801688,0.1,0.020111083984375,0.3815574645996094,0.05029909,0.009975465,-203.08023911638685,-1.0146732922384005,-1.0146732922384005,0.0,19200,2.5190393924713135,2.334023459383981e-06,1.3906837159619137e-06,-202.87614620489768,0.0
257,2.955948829650879,-202.90523047502688,0.0762141420807515,-202.73454638970756,-203.08272359821368,0.0,10.460238695495402,0.1,0.022055864334106445,0.5185506343841553,0.043449264,0.008931134,-203.06273825225085,-1.014499849742015,-1.014499849742015,0.0,19200,2.8420298099517822,1.1845512362935117e-06,1.643438296305394e-06,-202.81835579233552,0.0
258,2.8951187133789062,-202.85178067342483,0.07872352205327875,-202.64056875536164,-203.0522849783025,0.0,8.570683613973905,0.1,0.01311492919921875,0.41024160385131836,0.047259804,0.013363601,-203.04164249436826,-1.0142325970431545,-1.0142325970431545,0.0,19200,2.4463768005371094,2.513726582004631e-06,1.0779637799534898e-06,-202.83000679146608,0.0
259,2.9366705417633057,-202.84078651936065,0.0683203840331765,-202.67494647131466,-203.00062346359942,0.0,11.433291608783273,0.1,0.017223358154296875,0.42159175872802734,0.04846826,0.009750495,-203.0215568968675,-1.014178258959329,-1.014178258959329,0.0,19200,2.358428955078125,9.23473603209602e-07,1.1472208677468806e-06,-202.7577151255125,0.0
260,3.0931589603424072,-202.7561392532194,0.07458272068161718,-202.56054016174548,-202.9483937238964,0.0,9.053980758412628,0.1,0.019214630126953125,0.4178323745727539,0.050208442,0.011678446,-202.99501513250272,-1.013755144314245,-1.013755144314245,0.0,19200,2.796781539916992,1.0291115466287506e-06,1.0405770974254798e-06,-202.6912968431709,0.0
261,2.995819091796875,-202.7058063578786,0.05824519694055736,-202.5388948416474,-202.86333479944815,0.0,10.45855228383051,0.1,0.0478668212890625,0.5354349613189697,0.04775863,0.0060687666,-202.9660942550403,-1.013503535587313,-1.013503535587313,0.0,19200,3.289534091949463,9.951392783808287e-07,2.9890516391639656e-06,-202.69384055834263,0.0
262,2.9156856536865234,-202.70196732801432,0.0701092652790566,-202.49283950178017,-202.8577170234803,0.0,11.80963265583891,0.1,0.022275924682617188,0.4711730480194092,0.050691668,0.00954567,-202.9396815623377,-1.0134843479018558,-1.0134843479018558,0.0,19200,2.724764108657837,3.2023575199482735e-06,1.4936341365112127e-06,-202.733969458177,0.0
263,2.9937546253204346,-202.75568466035497,0.07352932798681089,-202.56454225012095,-202.90299591478063,0.0,7.848201778658991,0.1,0.017974853515625,0.41525936126708984,0.050370142,0.012230146,-202.92128187213945,-1.0137527835425484,-1.0137527835425484,0.0,19200,2.323517322540283,2.3457358882162513e-06,4.394143915923873e-06,-202.6986164537122,0.0
264,2.914623498916626,-202.73930245764197,0.06638935016625483,-202.58345117324328,-202.94894560271288,0.0,9.85339169309528,0.1,0.02154231071472168,0.4535713195800781,0.04984809,0.009442708,-202.90308393068972,-1.0136709379762945,-1.0136709379762945,0.0,19200,3.6233890056610107,4.061958645645955e-06,1.6478199262169552e-06,-202.65745845671188,0.0
265,3.0728061199188232,-202.69444824423212,0.06540883878029352,-202.54946911160835,-202.8527436697824,0.0,11.582061919760882,0.1,0.018128633499145508,0.5306839942932129,0.048894178,0.00748998,-202.88222036204397,-1.0134468587843777,-1.0134468587843777,0.0,19200,2.5043561458587646,1.1457865504473387e-06,1.7889485778625689e-06,-202.6723384497913,0.0
266,2.8794257640838623,-202.70472734834075,0.0714613517369932,-202.4842810615894,-202.88044698013314,0.0,7.923655679362119,0.1,0.01756000518798828,0.4771873950958252,0.048527133,0.011137113,-202.86447106067365,-1.0134981117357105,-1.0134981117357105,0.0,19200,2.6965816020965576,1.587311070813678e-06,3.277643278004179e-06,-202.7164692283718,0.0
267,2.8675830364227295,-202.74838464776494,0.065697384483687,-202.6149233766943,-202.93117266479612,0.0,7.571691581608398,0.1,0.01816701889038086,0.4309546947479248,0.05178767,0.010199317,-202.8528624193828,-1.013716133394383,-1.013716133394383,0.0,19200,2.4650661945343018,2.2184605430820937e-06,9.27245836805628e-07,-202.67009212015975,0.0
268,2.897127866744995,-202.7109374960909,0.07261490626402771,-202.5255562295036,-202.91727776645766,0.0,7.343094330569815,0.1,0.03539323806762695,0.6420972347259521,0.052453123,0.011986719,-202.83866992705362,-1.0135292075902094,-1.0135292075902094,0.0,19200,3.358355760574341,1.3247482272884153e-06,1.5478652282782972e-06,-202.6863549980141,0.0
269,2.881568193435669,-202.71642170920526,0.05742324416077108,-202.56255406502882,-202.86759677679424,0.0,9.171539634484706,0.1,0.017879962921142578,0.5578505992889404,0.049364578,0.011096833,-202.8264451052688,-1.0135566312261732,-1.0135566312261732,0.0,19200,2.640564203262329,1.4788217107182495e-06,1.052992638591215e-06,-202.68261608266351,0.0
270,2.7996082305908203,-202.72201858400243,0.0641964242770006,-202.55963098812288,-202.84497174579613,0.0,8.92191178043197,0.1,0.022204160690307617,0.44953155517578125,0.05083923,0.011110563,-202.81600245314218,-1.0135843795034571,-1.0135843795034571,0.0,19200,2.886535167694092,1.020249280657284e-06,1.1226353627064592e-06,-202.71143734759477,0.0
271,3.136378049850464,-202.7533087649334,0.07321331964923686,-202.58715950871837,-202.9032558533572,0.0,7.647089390630436,0.1,0.022073745727539062,0.5433700084686279,0.048618633,0.013168312,-202.8097330843213,-1.0137409103617052,-1.0137409103617052,0.0,19200,2.720113754272461,1.4863803571571965e-06,1.0932561232389528e-06,-202.73358531740462,0.0
272,2.9985947608947754,-202.7721373085282,0.06194375215252455,-202.6073385341756,-202.90549395821296,0.0,7.7185763933262646,0.1,0.018815994262695312,0.46756768226623535,0.049882963,0.012542889,-202.805973506742,-1.0138351079407266,-1.0138351079407266,0.0,19200,2.2695722579956055,1.08977898650005e-06,9.213047420645289e-07,-202.70259843735917,0.0
273,2.958286762237549,-202.723678569806,0.062096915755316166,-202.56632627774792,-202.85025729690838,0.0,7.755518069663408,0.1,0.01722264289855957,0.4040713310241699,0.050411858,0.013673531,-202.7977440130484,-1.0135931248828975,-1.0135931248828975,0.0,19200,2.285914659500122,9.406190609970066e-07,2.117103726258874e-06,-202.65687348421454,0.0
274,2.9480252265930176,-202.68417884233722,0.06359894590391897,-202.55462771191353,-202.8474433290441,0.0,10.13803774391932,0.1,0.017435312271118164,0.48506832122802734,0.05118308,0.011858851,-202.78638749597727,-1.0133957220099978,-1.0133957220099978,0.0,19200,2.7906148433685303,2.790103594603593e-06,1.0349890953256537e-06,-202.65613761343894,0.0
275,2.9268527030944824,-202.67780520543124,0.05608682563068104,-202.56667970976756,-202.84329280180745,0.0,11.759608762862344,0.1,0.015136480331420898,0.40528297424316406,0.051430773,0.007756548,-202.77552926692266,-1.013363811919822,-1.013363811919822,0.0,19200,2.7073476314544678,9.999666830135518e-07,1.4531009058398515e-06,-202.6207959229841,0.0
276,2.920924425125122,-202.64455859572956,0.05472105306551985,-202.50197971877526,-202.7591788167173,0.0,11.222348868202497,0.1,0.015345096588134766,0.4527602195739746,0.049598575,0.00854611,-202.76243219980336,-1.0131976311678432,-1.0131976311678432,0.0,19200,2.276211977005005,1.1046651806083756e-06,3.055406551378843e-06,-202.65466316534622,0.0
277,3.138436794281006,-202.67722327782158,0.06389946951108273,-202.54384964082095,-202.8418950744592,0.0,11.926760051260056,0.1,0.013212919235229492,0.3417696952819824,0.04736576,0.008939885,-202.7539113076052,-1.0133608727690817,-1.0133608727690817,0.0,19200,2.3502166271209717,3.5903507592257607e-06,1.4876467660466052e-06,-202.6905767592637,0.0
278,2.911933660507202,-202.7242636312635,0.06644426898702056,-202.583938382932,-202.86662336320114,0.0,9.393653942443697,0.1,0.018999576568603516,0.48943638801574707,0.051338363,0.011014533,-202.75094653997104,-1.0135959395884546,-1.0135959395884546,0.0,19200,2.8281185626983643,2.002810555208379e-06,9.462893540094507e-07,-202.65188391615212,0.0
279,2.868056535720825,-202.67675211291984,0.06762940846373547,-202.49194218520515,-202.91485457297398,0.0,9.922471298945759,0.1,0.01766800880432129,0.42209959030151367,0.052024167,0.008877939,-202.74352709726594,-1.0133585513805963,-1.0133585513805963,0.0,19200,2.597054958343506,9.606819866095428e-07,9.864769176887555e-07,-202.65990568718883,0.0
280,2.9082653522491455,-202.68446108230174,0.054848684113920076,-202.5547785746732,-202.82697210534428,0.0,10.201104611759531,0.1,0.04106855392456055,0.6467845439910889,0.050379187,0.008292477,-202.7376204957695,-1.0133970851766463,-1.0133970851766463,0.0,19200,2.6366331577301025,9.023238889382217e-07,1.430221377135836e-06,-202.60832235748023,0.0
281,2.899758815765381,-202.60943897508187,0.06592929687824173,-202.4616397313649,-202.77232586581334,0.0,8.946174773063422,0.1,0.014170169830322266,0.4281654357910156,0.049161077,0.009039936,-202.72480234370073,-1.0130222401642912,-1.0130222401642912,0.0,19200,2.891455888748169,2.822680476730497e-06,1.389594037822991e-06,-202.62306648154282,0.0
282,2.8646931648254395,-202.64309208493123,0.05361514901695259,-202.54247786179732,-202.7789663107401,0.0,7.900677115945767,0.1,0.015355110168457031,0.4084610939025879,0.04547379,0.011343323,-202.71663131782378,-1.0131904001953413,-1.0131904001953413,0.0,19200,2.5977091789245605,1.6839296422257583e-06,1.0092884053683628e-06,-202.61011939517516,0.0
283,3.0822556018829346,-202.61463293699,0.06283772077735802,-202.4558861133218,-202.77212120046335,0.0,10.444630645869003,0.1,0.0176546573638916,0.4511110782623291,0.04919157,0.010267491,-202.70643147974042,-1.0130484088163063,-1.0130484088163063,0.0,19200,3.2812182903289795,9.467731121111289e-07,1.0933502385255017e-06,-202.59554947174092,0.0
284,2.8415279388427734,-202.6159541240529,0.054125013879101534,-202.50773762157039,-202.7701174295539,0.0,10.122408274280279,0.1,0.015604496002197266,0.3740677833557129,0.048929345,0.01097322,-202.69738374417167,-1.0130550549982784,-1.0130550549982784,0.0,19200,3.275927782058716,1.0466067507443973e-06,8.463175648117089e-06,-202.61339388963472,0.0
285,2.9909393787384033,-202.6223562064985,0.06457055178390106,-202.4740798697294,-202.77884638878865,0.0,7.951431160343297,0.1,0.024163246154785156,0.5155532360076904,0.050556175,0.012466104,-202.68988099040436,-1.0130870748990535,-1.0130870748990535,0.0,19200,2.807633876800537,8.295805703875004e-06,1.2054353164869947e-06,-202.5798063086304,0.0
286,2.8767008781433105,-202.59941109684874,0.061198659712366564,-202.43305746977668,-202.7373116280586,0.0,8.796868866105157,0.1,0.021304607391357422,0.5505926609039307,0.050906606,0.010141644,-202.68083400104882,-1.0129722518795337,-1.0129722518795337,0.0,19200,2.297800302505493,1.0266835419255626e-06,1.115340724829515e-06,-202.61305727179024,0.0
287,2.874300718307495,-202.62068719723297,0.06578909087683107,-202.50525615889183,-202.74884490356487,0.0,11.253253377227017,0.1,0.014946699142456055,0.440981388092041,0.04739226,0.009266905,-202.67481932066724,-1.0130787064343918,-1.0130787064343918,0.0,19200,2.4083797931671143,1.0475356159334003e-06,2.1839989450433148e-06,-202.6205354688206,0.0
288,2.8895230293273926,-202.62609630933989,0.06735649556659574,-202.4854540662339,-202.76412730434888,0.0,9.509820730635939,0.1,0.015068531036376953,0.428605318069458,0.049626656,0.010176285,-202.6699470195345,-1.0131058384253595,-1.0131058384253595,0.0,19200,2.861295461654663,2.4427673600057762e-06,1.1797734760486968e-06,-202.66984249615902,0.0
289,3.0932512283325195,-202.67259774093372,0.0644470292967285,-202.49938165465846,-202.8207937333666,0.0,10.440565144141125,0.1,0.024765968322753906,0.4847266674041748,0.050318882,0.008435651,-202.67021209167444,-1.0133378641437762,-1.0133378641437762,0.0,19200,2.7065699100494385,9.634530903015997e-07,1.0612281269889458e-06,-202.62628300040853,0.0
290,2.921963930130005,-202.62071883123136,0.06221507218659059,-202.44502753244424,-202.79771181145264,0.0,10.600661924495899,0.1,0.032569169998168945,0.5259556770324707,0.050442383,0.009849634,-202.66526276563013,-1.01307880603271,-1.01307880603271,0.0,19200,2.8753960132598877,1.2212536150393737e-06,1.9667629287990936e-06,-202.6103967844826,0.0
291,2.8475825786590576,-202.60385277470974,0.06186040134262675,-202.4370544004083,-202.7428092858545,0.0,8.303238865525586,0.1,0.017297029495239258,0.41461873054504395,0.0498445,0.00960461,-202.65912176653808,-1.0129944808419662,-1.0129944808419662,0.0,19200,3.0362870693206787,1.938010297529817e-06,4.300568711289857e-06,-202.5396589867822,0.0
292,2.885758399963379,-202.55908252243898,0.061600414486748765,-202.41759030856963,-202.72593347830482,0.0,9.290530860823488,0.1,0.017360925674438477,0.40728330612182617,0.048487976,0.010281814,-202.64911784212816,-1.0127708456028943,-1.0127708456028943,0.0,19200,2.3326737880706787,5.552279597067147e-06,9.82615427064403e-07,-202.52771541125662,0.0
293,2.8820016384124756,-202.54136527490496,0.05376724181951435,-202.41045527135017,-202.65274380786315,0.0,8.11913673521185,0.1,0.015328407287597656,0.4469470977783203,0.049571812,0.010382915,-202.63834258540584,-1.012682143734035,-1.012682143734035,0.0,19200,2.362431049346924,1.1432461873691705e-06,3.850167994018395e-06,-202.5489112385237,0.0
294,2.886402130126953,-202.57560889449869,0.05931872003868194,-202.42112724016104,-202.71597691586672,0.0,8.35903747971691,0.1,0.018401145935058594,0.4445064067840576,0.047655094,0.011424803,-202.63206921631513,-1.0128533471854289,-1.0128533471854289,0.0,19200,2.7827861309051514,5.173483818262076e-06,8.828340896003746e-07,-202.56362053459836,0.0
295,3.135632038116455,-202.58997331696023,0.05694231454607492,-202.46236361336878,-202.74538167120474,0.0,10.545800008985228,0.1,0.01692032814025879,0.5333752632141113,0.049740132,0.0100600105,-202.62785962637963,-1.0129248769988695,-1.0129248769988695,0.0,19200,2.692176342010498,9.246730115855127e-07,3.038251671848592e-06,-202.56726841692108,0.0
296,2.92142915725708,-202.57432230321032,0.05777838575681547,-202.4578401712994,-202.72555434993131,0.0,11.837527669886896,0.1,0.02437281608581543,0.4118621349334717,0.04646932,0.008518709,-202.6225058940627,-1.0128470155248621,-1.0128470155248621,0.0,19200,2.6670591831207275,3.4853654824220397e-06,9.364625524582453e-07,-202.57027648954255,0.0
297,2.8808348178863525,-202.57234202221835,0.04691100714605625,-202.47722683349096,-202.67436702084535,0.0,10.113595902497773,0.1,0.016379356384277344,0.3731832504272461,0.05298239,0.009467804,-202.61748950687826,-1.0128368056495782,-1.0128368056495782,0.0,19200,2.653073787689209,9.450915478025776e-07,1.9027944391089332e-06,-202.59860958175722,0.0
298,2.9120543003082275,-202.60793960135433,0.05513330106910383,-202.4831850598783,-202.76165907714844,0.0,11.388660140216247,0.1,0.020012855529785156,0.3386569023132324,0.048804924,0.008198514,-202.61653451632586,-1.0130145819777714,-1.0130145819777714,0.0,19200,2.5676968097686768,1.1551123856880475e-06,1.4021308552963621e-06,-202.56935654495183,0.0
299,2.912167549133301,-202.55618410819918,0.0539634726624693,-202.41098401340543,-202.66481225221247,0.0,7.106161718746286,0.1,0.021093130111694336,0.520094633102417,0.051655248,0.013441284,-202.6104994755132,-1.0127560111647702,-1.0127560111647702,0.0,19200,3.0491678714752197,2.4467936662839938e-06,1.2499753709291978e-06,-202.57040830733598,0.0
300,2.88649320602417,-202.56686986491187,0.05829566145330622,-202.40287456714057,-202.68919170113023,0.0,9.726841845138102,0.1,0.03127121925354004,0.5207719802856445,0.050480094,0.008471512,-202.60613651445306,-1.0128094021695937,-1.0128094021695937,0.0,19200,3.224942207336426,1.3989389068829886e-06,9.659541996739715e-07,-202.60255060064225,0.0
301,2.8987205028533936,-202.60161688262056,0.05363488687319326,-202.436852818446,-202.7431128473234,0.0,10.787320213662362,0.1,0.030431032180786133,0.42992377281188965,0.050423943,0.009356536,-202.6056845512698,-1.0129829977803708,-1.0129829977803708,0.0,19200,2.462153911590576,9.483434779227134e-07,3.515395864143889e-06,-202.62571811740955,0.0
302,2.8852031230926514,-202.62098678855958,0.06056969504173523,-202.46944438031068,-202.80006778510028,0.0,9.018031167323885,0.1,0.015852928161621094,0.4671669006347656,0.046945304,0.011026734,-202.60721477499877,-1.0130799635620147,-1.0130799635620147,0.0,19200,2.40286922454834,4.086632546510964e-06,9.195936196775926e-07,-202.65688538239638,0.0
303,2.939404249191284,-202.63726923948855,0.06156124588341002,-202.48775296236775,-202.7722499729125,0.0,9.153507406914082,0.1,0.018803834915161133,0.5142719745635986,0.04486021,0.007858662,-202.61022022144775,-1.0131610430785554,-1.0131610430785554,0.0,19200,2.7285501956939697,9.703393092198146e-07,1.0293700208731683e-06,-202.624414419029,0.0
304,2.9565584659576416,-202.6321582616096,0.05300466657562656,-202.4999801117127,-202.75805821151334,0.0,8.340981858530016,0.1,0.020929813385009766,0.39971494674682617,0.050166346,0.012812637,-202.61241402546392,-1.013135635258988,-1.013135635258988,0.0,19200,2.9414937496185303,1.0167894945486658e-06,1.0225949943701301e-06,-202.6421756254612,0.0
305,2.916079521179199,-202.66094107062182,0.05819590443343171,-202.50866980894907,-202.83429299842692,0.0,8.947350701765222,0.1,0.013228654861450195,0.37223005294799805,0.048669536,0.01100306,-202.61726672997972,-1.013279412710924,-1.013279412710924,0.0,19200,2.347546100616455,1.221232396350214e-06,3.994698485078523e-06,-202.68071325073248,0.0
306,3.1184446811676025,-202.69384937809664,0.06436817748657316,-202.54605955576653,-202.8575079412362,0.0,8.309619589894659,0.1,0.014494180679321289,0.42553091049194336,0.04832865,0.011587107,-202.6249249947914,-1.0134437800386549,-1.0134437800386549,0.0,19200,2.631523609161377,5.424863636852315e-06,1.3496640215250255e-06,-202.6529486855336,0.0
307,2.9132273197174072,-202.67077987496467,0.053663888148233585,-202.52438258502,-202.82157624529754,0.0,7.873261544171402,0.1,0.020232200622558594,0.5318846702575684,0.052032743,0.012567251,-202.62951048280874,-1.01332846253341,-1.01332846253341,0.0,19200,2.531407356262207,1.4070250455852862e-06,1.329867688921938e-06,-202.62309042519792,0.0
308,2.927388906478882,-202.64782410458557,0.05310607660751776,-202.54280801203495,-202.80200927115902,0.0,10.194607065207222,0.1,0.02253866195678711,0.44315338134765625,0.049952388,0.009940891,-202.63134184498642,-1.0132136754724614,-1.0132136754724614,0.0,19200,2.696126699447632,1.0907385263336236e-06,1.0059166703002203e-06,-202.65337470299858,0.0
309,2.922431707382202,-202.66883134186583,0.056113945786470415,-202.55061783974324,-202.79605503406324,0.0,6.720785273618643,0.1,0.029713153839111328,0.6729860305786133,0.05091926,0.014468569,-202.6350907946744,-1.0133185843460832,-1.0133185843460832,0.0,19200,2.5771775245666504,9.472032512887358e-07,1.1352677602320418e-06,-202.64007675982475,0.0
310,2.9206595420837402,-202.6643592676996,0.05830352463008754,-202.5346409889774,-202.81173505358953,0.0,9.955573723820525,0.1,0.021903038024902344,0.46968555450439453,0.049576793,0.010291019,-202.63801764197692,-1.013296318289577,-1.013296318289577,0.0,19200,2.655827760696411,1.093688775796465e-06,2.3165249014154703e-06,-202.65393243814293,0.0
311,3.0176098346710205,-202.6779851734564,0.05799297861431281,-202.5322956045432,-202.79268919580778,0.0,8.604258518244709,0.1,0.01957249641418457,0.4265880584716797,0.0494361,0.01287546,-202.64201439512487,-1.0133642613878149,-1.0133642613878149,0.0,19200,2.7204017639160156,2.620557885369537e-06,2.5675473544418027e-06,-202.6396146054732,0.0
312,2.873328447341919,-202.66392932593752,0.061706735896279494,-202.5569278399641,-202.810293728183,0.0,8.735083186589083,0.1,0.016201496124267578,0.4062802791595459,0.049595725,0.012234022,-202.64420588820616,-1.0132940607969358,-1.0132940607969358,0.0,19200,2.8433263301849365,3.1119071428082897e-06,1.0753081209125276e-06,-202.59247228651262,0.0
313,2.864973306655884,-202.6110956008558,0.06269646293198614,-202.44718121686043,-202.78496482318914,0.0,8.256375267758926,0.1,0.023957490921020508,0.48027801513671875,0.048965227,0.012825583,-202.64089485947113,-1.013030325201094,-1.013030325201094,0.0,19200,2.660306692123413,1.1226856089131307e-06,1.6918906075048932e-06,-202.67627283416243,0.0
314,2.8870744705200195,-202.69989756576362,0.06471922455243298,-202.52839262477897,-202.8536546222535,0.0,10.376477622967176,0.1,0.03158855438232422,0.4076697826385498,0.05207149,0.0071882186,-202.6467951301004,-1.01347392785853,-1.01347392785853,0.0,19200,2.5767300128936768,9.586889998540083e-07,1.8085946182105316e-06,-202.63538598466042,0.0
315,2.875983953475952,-202.64809661930238,0.057269205267822074,-202.548018880442,-202.84620643893922,0.0,9.83300320199137,0.1,0.016755342483520508,0.4354562759399414,0.05061507,0.010388052,-202.6469252790206,-1.0132151579535622,-1.0132151579535622,0.0,19200,3.3119618892669678,1.1891551384808385e-06,3.067201870688698e-06,-202.62737842664717,0.0
316,2.879685640335083,-202.6430988242887,0.057795050322212195,-202.51244826049523,-202.78936441191672,0.0,7.845097205156696,0.1,0.023900985717773438,0.4926021099090576,0.048154525,0.013835693,-202.64654263354743,-1.0131899635926906,-1.0131899635926906,0.0,19200,2.6543684005737305,2.9980950387790324e-06,1.8780036856363627e-06,-202.62036224752038,0.0
317,2.960772752761841,-202.63985948551758,0.056499163703081806,-202.46496720331396,-202.78545118553876,0.0,9.409070053583386,0.1,0.01886773109436035,0.5629513263702393,0.052217726,0.010698619,-202.64587431874443,-1.0131739339591148,-1.0131739339591148,0.0,19200,2.487553119659424,1.9247800141171043e-06,9.611492419198915e-07,-202.63610817743103,0.0
318,2.958261489868164,-202.65068527893297,0.061248801254056906,-202.50920258528794,-202.8004659606181,0.0,11.381669519837027,0.1,0.017565011978149414,0.4403116703033447,0.052511826,0.008645156,-202.6463554147633,-1.0132279488422136,-1.0132279488422136,0.0,19200,2.4104881286621094,1.0886480787576315e-06,1.3941017649754414e-06,-202.68714689784395,0.0
319,2.8679871559143066,-202.69376050498508,0.05886907205030492,-202.55850716216582,-202.83291223599028,0.0,9.559747256451574,0.1,0.02837681770324707,0.5269742012023926,0.04955282,0.01048394,-202.65109592378548,-1.0134432975024323,-1.0134432975024323,0.0,19200,2.4436001777648926,1.154670504404424e-06,1.7531958670209413e-06,-202.67175895297146,0.0
320,2.953178644180298,-202.68199244193133,0.05542142329576374,-202.5630944511768,-202.8142039721991,0.0,7.584300312361696,0.1,0.01834893226623535,0.5397078990936279,0.048935167,0.013349972,-202.65418557560008,-1.0133844914745909,-1.0133844914745909,0.0,19200,2.597951889038086,1.8379683625803258e-06,9.870711102907348e-07,-202.67415812136616,0.0
321,2.8901782035827637,-202.68318157628616,0.05251817267228345,-202.55796827891217,-202.79849429473728,0.0,8.258595348416259,0.1,0.0229034423828125,0.4467294216156006,0.048628744,0.010486382,-202.6570851756687,-1.0133905179692067,-1.0133905179692067,0.0,19200,2.5637552738189697,9.746251209138478e-07,8.869937195191311e-07,-202.68557208464387,0.0
322,2.912522792816162,-202.69129501088105,0.05655299326919976,-202.58249060675558,-202.81848714028968,0.0,9.514704910897178,0.1,0.017821073532104492,0.4829850196838379,0.04990696,0.010280099,-202.66050615918994,-1.013430967782815,-1.013430967782815,0.0,19200,2.5267093181610107,9.119060189110429e-07,3.1062200268216127e-06,-202.65414438037322,0.0
323,2.9349703788757324,-202.65343180236346,0.05345481939534817,-202.49038137120382,-202.78826777690824,0.0,10.333259669163544,0.1,0.02019786834716797,0.531160831451416,0.05224913,0.0091621885,-202.6597987235073,-1.0132417371594469,-1.0132417371594469,0.0,19200,2.338226795196533,4.206655696096577e-06,8.035469776347544e-06,-202.66106115704926,0.0
324,2.8894991874694824,-202.66265237029566,0.054449453068246584,-202.52431298002932,-202.83776063074427,0.0,7.908160487623934,0.1,0.013294696807861328,0.4007573127746582,0.048363686,0.012645335,-202.66008408818612,-1.0132879491480302,-1.0132879491480302,0.0,19200,2.4041941165924072,7.493254414907868e-06,1.646332826072176e-06,-202.64513174894844,0.0
325,2.8832859992980957,-202.64487078030666,0.045311323942076265,-202.51592289158742,-202.73354618834412,0.0,10.697414313006329,0.1,0.020587921142578125,0.44950294494628906,0.05089592,0.01002604,-202.6585627573982,-1.013199118375458,-1.013199118375458,0.0,19200,2.7744882106781006,1.8488577987148816e-06,1.7775193771017638e-06,-202.6854495143313,0.0
326,2.903294801712036,-202.68890805643045,0.05462762469479596,-202.53270601837752,-202.80390928219842,0.0,10.17797500106951,0.1,0.017754554748535156,0.3930525779724121,0.048049394,0.0097732805,-202.66159728730142,-1.0134190349993426,-1.0134190349993426,0.0,19200,2.3274500370025635,2.723404658077172e-06,2.4039916493200995e-06,-202.70581101937253,0.0
327,2.9251673221588135,-202.6982337003843,0.05024201055731386,-202.58707510738748,-202.83726396598917,0.0,10.76581424390442,0.1,0.01858687400817871,0.4878706932067871,0.050320882,0.009173722,-202.6652609286097,-1.0134656608272095,-1.0134656608272095,0.0,19200,2.439767599105835,2.6572156162254976e-06,1.2477743500577872e-06,-202.65679359600983,0.0
328,2.898189067840576,-202.6567270534075,0.055991676933007925,-202.4845198324471,-202.79337654289282,0.0,10.751364800551078,0.1,0.01464223861694336,0.4164886474609375,0.047960162,0.009250499,-202.6644075410895,-1.0132581479646914,-1.0132581479646914,0.0,19200,2.7963194847106934,1.8390122401919028e-06,9.113766851698554e-07,-202.6541066561755,0.0
329,2.8802878856658936,-202.6546904251477,0.058393672959059756,-202.4960104255735,-202.83705502147734,0.0,10.056598755088311,0.1,0.025480985641479492,0.5167510509490967,0.049605075,0.010053921,-202.66343582949534,-1.0132481155888962,-1.0132481155888962,0.0,19200,2.583254814147949,9.278514951302511e-07,9.498371191164998e-07,-202.65895859784808,0.0
330,2.8463010787963867,-202.65776052666698,0.05685408031950295,-202.53755692887643,-202.81014161283477,0.0,11.380363535527911,0.1,0.016196012496948242,0.43851566314697266,0.04816599,0.007008208,-202.6628682992125,-1.0132635534162995,-1.0132635534162995,0.0,19200,2.584510087966919,1.0133259332864962e-06,9.112494178785455e-07,-202.66097303988667,0.0
331,2.832740545272827,-202.66540936338438,0.06637049468599272,-202.51955347982076,-202.86867003520143,0.0,9.052611581431542,0.1,0.014743804931640625,0.3824653625488281,0.04856586,0.012393166,-202.66312240562968,-1.013301789872873,-1.013301789872873,0.0,19200,5.105260372161865,9.861436248955265e-07,4.2359554504667666e-06,-202.62000633360066,0.0
332,2.8730008602142334,-202.61848282404912,0.06235931191881216,-202.47322381433852,-202.82009985042157,0.0,9.951177092713886,0.1,0.04067564010620117,0.6217401027679443,0.05368051,0.009737889,-202.65865844747162,-1.0130670952095215,-1.0130670952095215,0.0,19200,2.720902919769287,5.427258139213243e-06,2.317629304087152e-06,-202.6316087838943,0.0
333,2.8724632263183594,-202.6297049090148,0.05439289983096055,-202.49447723438183,-202.74742095146942,0.0,9.69144038124753,0.1,0.017911911010742188,0.4956076145172119,0.047584705,0.00929496,-202.65576309362592,-1.0131232194649267,-1.0131232194649267,0.0,19200,2.516381025314331,2.414125869967197e-06,1.315808092462997e-06,-202.63900375120966,0.0
334,2.9208755493164062,-202.63138738345856,0.052285996521073755,-202.49281329054992,-202.81541246869043,0.0,11.5896387796481,0.1,0.015047550201416016,0.4479258060455322,0.049650524,0.011284457,-202.65332552260918,-1.0131315826452567,-1.0131315826452567,0.0,19200,2.5349645614624023,1.225373646262746e-06,1.1242291216078754e-06,-202.66891832495924,0.0
335,2.937453269958496,-202.65828656136182,0.06500247029960157,-202.52824911222902,-202.83114707163836,0.0,10.162027217820949,0.1,0.017203569412231445,0.47829699516296387,0.050622094,0.010296834,-202.65382162648447,-1.0132660584315092,-1.0132660584315092,0.0,19200,2.5701851844787598,1.2441482739957249e-06,2.6024223910944343e-06,-202.70554516344714,0.0
336,2.945662021636963,-202.72596945736333,0.06132835630351048,-202.56934034055033,-202.87821850607983,0.0,9.332031838242667,0.1,0.0364079475402832,0.6292643547058105,0.05076299,0.009389215,-202.66103640957235,-1.013604106824909,-1.013604106824909,0.0,19200,2.577863931655884,4.330032106224649e-06,2.7787158691859517e-06,-202.74588946998267,0.0
337,2.93814754486084,-202.75748436897547,0.0637997894278696,-202.5983888985758,-202.9196423632451,0.0,11.635727932333065,0.1,0.016456127166748047,0.40096449851989746,0.048741855,0.006227418,-202.67068120551266,-1.0137614974281517,-1.0137614974281517,0.0,19200,2.240305185317993,3.575927253730863e-06,1.0379772854682925e-06,-202.752830104735,0.0
338,2.868253231048584,-202.771719302972,0.0651392926693354,-202.6269321245397,-202.95074225612709,0.0,9.451542013846122,0.1,0.022389888763427734,0.5816202163696289,0.047651518,0.010547718,-202.6807850152586,-1.013832605475103,-1.013832605475103,0.0,19200,2.439047336578369,1.0582583534677114e-06,9.733459906283975e-07,-202.80218719466487,0.0
339,2.894068717956543,-202.8118292792185,0.07072058320950919,-202.59050974781806,-202.99080803043114,0.0,7.695352740223548,0.1,0.018879413604736328,0.49099087715148926,0.049949568,0.011784578,-202.69388944165462,-1.0140331483405187,-1.0140331483405187,0.0,19200,2.69490909576416,1.0751319995821243e-06,2.49587785713051e-06,-202.81359684473398,0.0
340,2.964691162109375,-202.8206340529259,0.0649819568088624,-202.64721824787136,-203.0082306234296,0.0,11.122061791037966,0.1,0.01633000373840332,0.45409226417541504,0.04546141,0.008823094,-202.70656390278174,-1.0140770479996124,-1.0140770479996124,0.0,19200,2.4841737747192383,2.7162125867775153e-06,1.0987973266690707e-06,-202.73393262658576,0.0
341,2.8984391689300537,-202.73498204871467,0.056782683597689204,-202.61529310187504,-202.85403219993444,0.0,8.764968728449729,0.1,0.014075279235839844,0.36427950859069824,0.04472387,0.009368968,-202.70940571737503,-1.013649047221758,-1.013649047221758,0.0,19200,2.465676784515381,2.0197769750938065e-06,1.3994792214448757e-06,-202.72455703921636,0.0
342,2.859631299972534,-202.72497732694126,0.05920130986119717,-202.56284248005235,-202.85414867446337,0.0,10.944916584020916,0.1,0.018741369247436523,0.41278886795043945,0.049361262,0.008483079,-202.71096287833166,-1.0135991480837838,-1.0135991480837838,0.0,19200,3.355015516281128,1.5914353118010613e-06,1.1278887179750165e-06,-202.74126267791823,0.0
343,2.8746232986450195,-202.75776621435293,0.06550307766984405,-202.59325148921903,-202.9351943154365,0.0,10.100370011075837,0.1,0.013721227645874023,0.3956573009490967,0.05039081,0.009544464,-202.71564321193378,-1.0137627523309434,-1.0137627523309434,0.0,19200,2.5829272270202637,1.02926203808325e-06,1.270682222922738e-06,-202.67855020031868,0.0
