iteration,time_sampling,stoc_pol_mean,stoc_pol_std,stoc_pol_max,stoc_pol_min,rollout_success,alpha,delta,time_vpg,time_npg,kl_dist,surr_improvement,running_score,rwd_sparse,rwd_dense,success_percentage,num_samples,time_VF,VF_error_before,VF_error_after,eval_score,eval_success
0,1.5379917621612549,-29.94678485131696,7.622326459491445,-7.26816716093542,-42.836286363262616,0.0,0.34051132854193317,0.1,0.23701882362365723,0.2541928291320801,0.058130328,0.45135522,-29.94678485131696,-0.14382946293912155,-0.2596786927735133,0.0,939,0.13780760765075684,1.0011052895659271,0.9635903649824333,-7.436472249019072,0.0
1,1.2278470993041992,-29.47825265058886,7.493720553373556,-7.707489374812923,-42.83231841032776,0.0,0.4676800678642053,0.1,0.012197017669677734,0.19544100761413574,0.050216068,0.26817283,-29.899931631244147,-0.13945106517603773,-0.2549931043701819,0.0,909,0.1098172664642334,0.9633762636955866,0.7714923173972249,7.454420965166448,0.0
2,1.3173506259918213,-30.038476842370738,7.779533698738855,-7.835142804396654,-43.10525347528505,0.0,0.5428949598317305,0.1,0.0248870849609375,0.19305419921875,0.053297263,0.21179979,-29.913786152356806,-0.14151951199610768,-0.26059471491192443,0.0,970,0.1187751293182373,0.7722712578866147,0.25055286540578314,31.52364162374917,0.0
3,1.3500862121582031,-28.518766590201484,11.589485692378755,22.30793415163994,-44.10802921636438,0.0,0.5398227433571466,0.1,0.0054628849029541016,0.18300318717956543,0.05321612,0.23873422,-29.774284196141277,-0.1397036747452107,-0.24539977424589396,0.0,1049,0.1136939525604248,0.2564097681376589,0.04358769848482161,88.63137582587638,0.0
4,1.5224652290344238,-25.982685727300183,9.315375364649807,15.981436996281026,-42.815238527918375,0.0,0.5304032844345385,0.1,0.0077533721923828125,0.276198148727417,0.055928823,0.237148,-29.395124349257166,-0.1402001184310311,-0.22003939098932787,0.0,1134,0.10322976112365723,0.03960302993485443,0.030705183106115586,-2.518385671845097,0.0
5,1.4979596138000488,-23.235757340493887,13.486374694289589,39.39029038452175,-39.21361911862452,0.0,0.5634734905620886,0.1,0.007605314254760742,0.26346564292907715,0.05406658,0.24098952,-28.779187648380837,-0.13839872133353742,-0.19256758220647482,0.0,1266,0.16438555717468262,0.062331989791238114,0.06035234931015293,-11.647233395931611,0.0
6,1.6790437698364258,-23.111713727509425,10.055489146332624,31.57197850610121,-41.00703496079188,0.0,0.5882810325803579,0.1,0.018631458282470703,0.25898289680480957,0.05239303,0.19800001,-28.212440256293696,-0.13876170374720426,-0.1913276597031397,0.0,1380,0.19751787185668945,0.0364166672936995,0.03389956400468005,-21.933153815976837,0.0
7,1.7402520179748535,-19.117715929228225,10.62373443665794,12.423276225152463,-40.31205863649836,0.0,0.6089941516653218,0.1,0.017525672912597656,0.25285792350769043,0.05148327,0.20078431,-27.30296782358715,-0.1365727819267216,-0.15138728392072173,0.0,1476,0.22234296798706055,0.04631311926988894,0.039361706327106914,-27.440327096542795,0.0
8,1.7499301433563232,-20.376552359370933,9.60509679643871,11.678819731233766,-35.74392341980585,0.0,0.6775898800878764,0.1,0.022531986236572266,0.26314687728881836,0.049858056,0.17361256,-26.61032627716553,-0.13488621060094783,-0.16397899646191647,0.0,1478,0.10877037048339844,0.03281228791110166,0.027632645894477333,-28.539794970963055,0.0
9,1.6592073440551758,-18.19853423328293,14.678849321143478,41.21382615238972,-39.656782395449284,0.0,0.6778940979148976,0.1,0.013298511505126953,0.3153076171875,0.050174378,0.17986578,-25.769147072777272,-0.1349081822313534,-0.1421980882283988,0.0,1723,0.2236926555633545,0.06909852963261545,0.06081408866106354,-29.26835518575644,0.0
10,1.687187671661377,-15.470438188689707,12.870192273793036,22.726355249926264,-36.23589513147107,0.0,0.6232598854450322,0.1,0.013795137405395508,0.29487109184265137,0.051823817,0.19841936,-24.739276184368517,-0.13219379614120874,-0.11491766274718085,0.0,1683,0.22131633758544922,0.042531062934426496,0.03851246568562203,-31.383358148999783,0.0
11,1.8832545280456543,-13.916438978184729,14.908466077908715,39.46394667767454,-38.07715179883739,0.0,0.6825632235165597,0.1,0.023273706436157227,0.3249542713165283,0.050822146,0.16500306,-23.65699246375014,-0.13376736774730233,-0.09937770920979204,0.0,1874,0.21405410766601562,0.05955320757212185,0.055738338359011076,-31.19328266762068,0.0
12,1.6792314052581787,-14.666630085780186,15.445572370913075,34.32437792591226,-39.05039540862907,0.0,0.7392761761404529,0.1,0.03582620620727539,0.44922351837158203,0.050484452,0.1693343,-22.757956225953144,-0.13341917396305317,-0.10687822902753168,0.0,1950,0.2078232765197754,0.062059138606237144,0.06123907927153503,-31.159652999600375,0.0
13,1.860924482345581,-9.142180737693215,20.636050258914093,77.62497820299552,-35.43865563800047,0.0,0.742568889705238,0.1,0.026288270950317383,0.282470703125,0.052654773,0.16040754,-21.396378677127153,-0.1310491731517618,-0.05163545952882548,0.0,2058,0.23012351989746094,0.11411583309717373,0.10750270088322955,-32.36589400783399,0.0
14,2.14911150932312,-10.793148123326889,19.7080110643102,62.19272103226283,-35.51827203320415,0.0,0.7512123384572195,0.1,0.013775348663330078,0.32643604278564453,0.05180899,0.14933066,-20.33605562174713,-0.13341990989707894,-0.06814363669890093,0.0,2152,0.22979307174682617,0.0896244158424516,0.08665928161727442,-32.58025071674979,0.0
15,2.314275026321411,-4.133111242463737,28.659020240508664,141.44727703649892,-43.154323768459534,1.0416666666666667,0.7873893782990334,0.1,0.012568950653076172,0.47647714614868164,0.051389586,0.15075728,-18.71576118381879,-0.13381188800688046,-0.0015439702386762487,1.0416666666666667,2512,0.31594085693359375,0.22737411519078962,0.21412195144037582,-33.80952785768758,0.0
16,2.274550676345825,-4.752368617049446,22.082112989343912,53.28459487250734,-44.16321587273612,1.0416666666666667,0.8016019362613209,0.1,0.04849672317504883,0.292036771774292,0.050541356,0.14445688,-17.319421927141857,-0.13317002084962917,-0.0077365353695561315,1.0416666666666667,2690,0.3792252540588379,0.11261390781693054,0.11089310454062669,-34.30416496844556,0.0
17,2.41493558883667,-4.384268526747452,30.39737899273485,185.37196100052773,-38.07376454495076,3.125,0.8578119576568519,0.1,0.02839207649230957,0.6136527061462402,0.050375454,0.14164948,-16.025906587102416,-0.13424541827452166,-0.004053793965319765,3.125,2839,0.28275609016418457,0.21974743010635386,0.21715994744773198,-33.80041285200386,0.0
18,2.6041083335876465,0.9384586150028665,28.155358862189914,84.57876606390252,-43.05498726835417,2.0833333333333335,0.876246060081973,0.1,0.03635692596435547,0.3165585994720459,0.05074107,0.12925267,-14.329470066891888,-0.1326147653717783,0.04917081943111005,2.0833333333333335,3049,0.27370619773864746,0.1611078586995117,0.15583142073672646,-32.36190672930965,0.0
19,2.526505947113037,5.955321259911973,31.444413470467577,92.66255135275975,-36.56038659084477,3.125,0.9553156916095465,0.1,0.02779698371887207,0.5628616809844971,0.050647266,0.11416287,-12.300990934211503,-0.1306367653295211,0.09933958415601209,3.125,3124,0.30031657218933105,0.22770503343795945,0.2206978615267828,-32.141485387414754,0.0
20,2.7803292274475098,4.263800096959208,33.299970777223955,147.79655581789513,-35.33272403131441,2.0833333333333335,0.9089122007085151,0.1,0.05786633491516113,1.1059703826904297,0.050732408,0.12484372,-10.644511831094432,-0.13061465538921466,0.08242450569310349,2.0833333333333335,3278,0.4088401794433594,0.2647781977072786,0.26030300485609326,-30.667586802944555,0.0
21,3.4880642890930176,18.791104615233923,43.74949411419065,187.27810484336408,-46.31247521547721,7.291666666666667,0.9536837276303736,0.1,0.02822422981262207,0.5549547672271729,0.051492054,0.11954454,-7.700950186461597,-0.13061098140453858,0.22769742888035907,7.291666666666667,4022,0.4872000217437744,0.37798017632618786,0.37452908730672174,-30.64078371028055,0.0
22,3.5553841590881348,16.372584022316882,47.880730439045095,241.63716556402755,-41.46174522334991,7.291666666666667,0.9933944388091871,0.1,0.030063390731811523,0.8370707035064697,0.05042539,0.11224131,-5.293596765583749,-0.1324414229346019,0.20351328792992054,7.291666666666667,3910,0.4551565647125244,0.4379989430602133,0.4237474474316835,-29.900004371799692,0.0
23,3.7915244102478027,17.20577943636071,41.13876506702903,213.58793205244322,-34.55559399292263,3.125,1.1596410228270262,0.1,0.01670384407043457,0.819979190826416,0.05013181,0.10683055,-3.043659145389303,-0.13212583208301823,0.21184423097929997,3.125,4362,0.6346378326416016,0.30483459562794707,0.29793076438602234,-29.677811036275262,0.0
24,3.8636233806610107,28.78991465606384,49.336970546333305,232.47259335111931,-39.29443717931076,8.333333333333334,1.033534448519808,0.1,0.03709220886230469,0.7079975605010986,0.05037461,0.11158894,0.13969823475601117,-0.13058081007639097,0.3276851947469566,8.333333333333334,4586,0.9855544567108154,0.42466472612316114,0.4063034836985868,-26.499324518679177,0.0
25,4.540300607681274,27.472790716429717,51.11209708428713,212.98905247641017,-37.08385076114304,9.375,1.1846815965093425,0.1,0.06253981590270996,0.9773776531219482,0.04977928,0.09051167,2.873007482923382,-0.13164198889621656,0.3145146153388874,9.375,5339,1.387099266052246,0.4237794865579448,0.41176432300434046,-25.024194620164476,0.0
26,4.789266347885132,37.5283913172409,68.06658817230823,389.36488798707876,-39.541320551405065,5.208333333333333,1.3008344636744809,0.1,0.023785829544067383,0.32484912872314453,0.05008104,0.08565914,6.338545866355135,-0.13306044333802733,0.4098604144952466,5.208333333333333,6171,1.7247881889343262,0.6593133073404874,0.616494015125702,-24.112478240020806,0.0
27,5.166971445083618,67.55818549755108,87.35138571420154,381.42616445280834,-32.20106596337922,4.166666666666667,1.3676410852585885,0.1,0.024757862091064453,0.3689265251159668,0.05059315,0.078100465,12.46050982947473,-0.13323831632620103,0.7153675181715732,4.166666666666667,6936,2.0080621242523193,0.8129061530215016,0.7231147515832194,-24.854424589028383,0.0
28,6.01084041595459,116.34674571281478,119.24754991774586,435.47690541866666,-39.04485073045413,8.333333333333334,1.4863932708647583,0.1,0.013015985488891602,0.4397726058959961,0.050348822,0.0694285,22.849133417808737,-0.12914319509328306,1.1871986811135653,8.333333333333334,8173,2.4036264419555664,0.7875776179000509,0.6371228351005571,-24.602548603852735,0.0
29,6.461814880371094,140.74474145861765,128.50168623692323,413.6155641987256,-42.072696143866864,3.125,1.5307185429514525,0.1,0.018857717514038086,0.47359490394592285,0.05026664,0.064867124,34.63869422188963,-0.12789842808771745,1.42117732075182,3.125,8606,2.472273111343384,0.6434903773912037,0.6050243310408598,-24.364580087371646,0.0
30,6.179176092147827,136.71911667243322,126.23769257970747,437.82777079101965,-40.88396875114293,5.208333333333333,1.597937345112534,0.1,0.01582646369934082,0.39989757537841797,0.049881715,0.06285774,44.84673646694399,-0.12756510156847659,1.364446837556698,5.208333333333333,8700,2.8818182945251465,0.6570778694484871,0.5679828446113928,-22.41118034497289,0.0
31,6.677016019821167,143.72434956771642,126.94143318841087,423.1115225500666,-39.09095245187086,5.208333333333333,1.5011728946946121,0.1,0.020475149154663086,0.42757225036621094,0.050608758,0.06392025,54.73449777702123,-0.1306930172391534,1.4397105728751018,5.208333333333333,8543,2.5118370056152344,0.5606764672782885,0.4962615706994729,-19.15325112318517,0.0
32,6.80724573135376,173.19431296676817,122.44207428706848,459.95399660039476,-33.25227017301779,2.0833333333333335,1.6659394536599856,0.1,0.02375483512878418,0.41774582862854004,0.050397538,0.060273204,66.58047929599593,-0.12421547477277523,1.7352492701820228,2.0833333333333335,9047,2.634429931640625,0.47055278430591974,0.43803115980813395,-18.98759291093251,0.0
33,6.808964490890503,195.69155601508032,129.68418870692537,435.3582902983393,-25.70239271561759,4.166666666666667,1.5390253397492246,0.1,0.019684314727783203,0.4312107563018799,0.051070344,0.06430876,79.49158696790437,-0.12262917657869259,1.9654314606039602,4.166666666666667,9072,2.3778865337371826,0.43501507393139927,0.3549831650286593,-17.63549097513825,0.0
34,6.506906509399414,206.5196737261118,138.29801060358648,418.3926475727647,-36.17198309043748,6.25,1.6247333566573043,0.1,0.021067142486572266,0.399982213973999,0.05096365,0.06127992,92.19439564372512,-0.12251201662507738,2.0628668669214525,6.25,9114,2.8174242973327637,0.30879595413560823,0.2670599779335684,-14.928242712875566,0.0
35,6.905961751937866,249.38638744375496,130.8537291846445,422.7684444880033,-32.52035017461576,5.208333333333333,1.5873601596210838,0.1,0.016156435012817383,0.46962523460388184,0.050266847,0.060888026,107.9135948237281,-0.11574100021239127,2.490274390383204,5.208333333333333,9343,2.6610336303710938,0.2566535186405207,0.20362310414405918,-10.283799887214109,0.0
36,6.449540853500366,262.92437789874407,123.66870739947626,488.54543567887976,-16.86003018078604,6.25,1.567975977512514,0.1,0.024992942810058594,0.4186897277832031,0.050739635,0.061231136,123.4146731312297,-0.1144729828690878,2.6312842924693576,6.25,9151,2.1747779846191406,0.20202744051278032,0.17108413907923792,-8.55292150998261,0.0
37,6.60220742225647,277.95337716551876,123.5327441076302,480.3469016312853,-22.610595410517433,4.166666666666667,1.5866873307120741,0.1,0.02203059196472168,0.427905797958374,0.05018377,0.06179768,138.8685435346586,-0.1120987338451875,2.7755291568158023,4.166666666666667,9411,2.09102725982666,0.16918161348924085,0.15046117664116537,-5.358129274847899,0.0
38,6.341373920440674,307.2987954904309,107.50285748103525,431.8329684703852,5.780967782830563,5.208333333333333,1.5899132390713313,0.1,0.013205289840698242,0.4010641574859619,0.050462764,0.061069354,155.71156873023585,-0.1080386686572297,3.069399994817497,5.208333333333333,9483,1.9649548530578613,0.1281916097451399,0.11331406544754599,-5.384921490896109,0.0
39,6.184799432754517,313.8719750200093,102.93579937079888,451.56143899485517,-12.283302693434841,7.291666666666667,1.6084522800235943,0.1,0.0199587345123291,0.44102954864501953,0.050474264,0.061703417,171.52760935921322,-0.10830013597812958,3.1347054447099745,7.291666666666667,9482,2.1400225162506104,0.1405141638511302,0.11975502031849462,-7.431150649761689,0.0
40,6.268745422363281,334.80294129540954,103.34545588604725,682.1759035467467,-14.069441237063494,7.291666666666667,1.7494312065060473,0.1,0.02104949951171875,0.3559095859527588,0.05051845,0.058181293,187.85514255283286,-0.10633985041206495,3.343604154935869,7.291666666666667,9530,2.2499537467956543,0.10985044756603095,0.08828440912599644,-5.362056402461729,0.0
41,6.179624080657959,346.39633951774323,87.75317942951321,476.39552578011444,75.3136426498597,8.333333333333334,1.6218459650134052,0.1,0.02190375328063965,0.3981335163116455,0.04921272,0.05852934,203.7092622493239,-0.10358634923942389,3.4591170039589034,8.333333333333334,9575,1.92158842086792,0.07721399734322053,0.06618272642455059,-7.270084579682369,0.0
42,6.201510906219482,345.5641949148929,102.88274583057951,569.490507380705,18.00587566784594,12.5,1.747684383148766,0.1,0.02100229263305664,0.40973758697509766,0.05129566,0.055761684,217.8947555158808,-0.10338410105291485,3.450782565613752,12.5,9600,2.071161985397339,0.0985495087416086,0.08572815191142037,-12.725546518318845,0.0
43,6.045816659927368,330.8206748204397,106.32043967273471,488.6175982076388,26.25363014694789,4.166666666666667,1.6524444865125913,0.1,0.018013954162597656,0.40322136878967285,0.049837667,0.05823595,229.1873474463367,-0.10569649033437656,3.3041918200683553,4.166666666666667,9542,2.0307223796844482,0.10480928886814507,0.09160224246984622,-11.260037178278026,0.0
44,5.967535495758057,331.92495977369293,96.90444001872521,435.93831022587403,10.234981017207675,6.25,1.762162503312522,0.1,0.015317678451538086,0.40674829483032227,0.050616056,0.05705444,239.46110867907234,-0.10511977405067234,3.314812964913237,6.25,9588,2.1165921688079834,0.09249631360718084,0.08648593108349636,-7.6954092720963345,0.0
45,5.56869101524353,362.67219060577617,76.38391336924316,605.5541078970301,108.71977054172277,10.416666666666666,1.7471738330433004,0.1,0.021405935287475586,0.3936278820037842,0.048730463,0.053780705,251.78221687174272,-0.10068477139235689,3.622710300308666,10.416666666666666,9578,2.1101744174957275,0.06509428347231071,0.05514141699707367,-7.856344487517799,0.0
46,6.129766225814819,352.63669504491423,95.44231671922284,564.9198111790377,5.225630378123717,9.375,1.6606716503751244,0.1,0.024311065673828125,0.4044332504272461,0.050371516,0.058222994,261.8676646890599,-0.10154178308192408,3.5215186745998053,9.375,9573,2.245074510574341,0.0837573692478583,0.07201563066441384,25.751352827486667,0.0
47,6.5766143798828125,367.28616327663616,78.90823019114058,581.5174983240323,74.40885068040737,12.5,1.604794259225716,0.1,0.018893957138061523,0.42446160316467285,0.05092441,0.058766205,272.40951454781754,-0.1003225257421203,3.66842747425788,12.5,9600,2.1620655059814453,0.05516756767088437,0.049402537687628506,2.6557941945180428,0.0
48,6.605192422866821,376.18551791510237,85.71002867178571,669.8382607703071,38.46879935968334,14.583333333333334,1.620430854678081,0.1,0.0238492488861084,0.3889195919036865,0.04978965,0.061661005,282.78711488454604,-0.09847928855676617,3.757416897325678,14.583333333333334,9575,2.3912353515625,0.061003748122679766,0.054359999707687116,11.24636899383125,0.0
49,6.9082982540130615,368.141458763055,77.9139901842596,681.8888833613563,34.55692783591142,11.458333333333334,1.6448128795469075,0.1,0.018807172775268555,0.4284708499908447,0.049381625,0.05657107,291.32254927239694,-0.10136280651284398,3.6765538601538226,11.458333333333334,9600,2.375077486038208,0.05046334535460035,0.044723977892489636,-2.298329415302276,0.0
50,6.871615648269653,383.13822758890245,76.22064528614604,670.0607205712608,131.32577401078854,12.5,1.703940435158252,0.1,0.022020339965820312,0.37460756301879883,0.050246645,0.057017047,300.5041171040475,-0.09764534228376916,3.8261046577162308,12.5,9600,2.5848305225372314,0.060847026083812955,0.0538139686060343,-5.701594071037766,0.0
51,6.944597959518433,387.3400830892263,61.53371607366519,609.7430601586516,212.02521097814972,15.625,1.6482760589618213,0.1,0.014723062515258789,0.4085988998413086,0.052239347,0.061354283,309.1877137025654,-0.09604778738756788,3.8681188792790984,15.625,9600,2.451040029525757,0.03406638676003955,0.03025886854506388,-6.541924918810915,0.0
52,6.680736780166626,379.3603421222842,77.46716738803303,754.5583416352428,87.55592754724621,13.541666666666666,1.5137894552916091,0.1,0.014472246170043945,0.4248158931732178,0.048643015,0.061594233,316.2049765445373,-0.09875738518993395,3.7879092814767326,13.541666666666666,9600,2.5211384296417236,0.04870920784909222,0.04484996666517774,-2.613908737356281,0.0
53,6.587826251983643,400.8209975203537,58.41708250284811,658.043756761165,191.87120227933931,19.791666666666668,1.6628363445891818,0.1,0.02285146713256836,0.3784770965576172,0.05039667,0.059351955,324.66657864211896,-0.09331785528825116,4.002932144711749,19.791666666666668,9600,2.5056097507476807,0.03693927694532264,0.029455426785525127,40.39792567347257,0.0
54,6.542178630828857,372.80336861194365,90.2112210437564,618.029171381131,38.63779902626327,13.541666666666666,1.6343330377436482,0.1,0.020138025283813477,0.46284985542297363,0.05062691,0.056017768,329.48025763910147,-0.09813043669347414,3.722755131124679,13.541666666666666,9584,2.567540168762207,0.057092583963215836,0.04678735982988938,45.48358257027621,0.0
55,7.05612325668335,383.9338393084251,64.09315056214707,581.669956941597,18.724911187930836,15.625,1.6272349537723856,0.1,0.0176849365234375,0.37186217308044434,0.0504737,0.059729412,334.9256158060338,-0.09718792688872147,3.834478739777945,15.625,9600,2.817812204360962,0.03187225975271036,0.027217437707142737,40.02326756915011,0.0
56,6.087802171707153,401.3835589845821,61.411119201860274,621.681112104564,183.7147772484505,19.791666666666668,1.6057006407377903,0.1,0.017650604248046875,0.42451906204223633,0.05036035,0.06286956,341.57141012388865,-0.0939374549580052,4.008562545041995,19.791666666666668,9600,3.03305721282959,0.031929859779810485,0.027202815358492633,40.20040552123696,0.0
57,7.474713325500488,393.6329475365032,54.77623447972977,621.6964579882967,95.42383807043699,9.375,1.7186542957941102,0.1,0.0191192626953125,0.4441821575164795,0.049250834,0.05681605,346.7775638651501,-0.09519884033300106,3.9310511596669984,9.375,9600,2.8093690872192383,0.021884048165794503,0.020211477160495855,23.998473659583958,0.0
58,6.70672869682312,388.36685248514505,71.82146962834261,629.7593727680573,50.91507358729784,11.458333333333334,1.6219756623885768,0.1,0.013293743133544922,0.4492299556732178,0.050763465,0.058812212,350.93649272714964,-0.09660871800559227,3.877974615327741,11.458333333333334,9600,3.1004934310913086,0.04171242285628589,0.040012586215415764,2.2627613146273515,0.0
59,7.289366245269775,403.61427298300765,51.38227920904746,734.3602672738335,336.42464522465264,14.583333333333334,1.7832358610317833,0.1,0.020624637603759766,0.45775890350341797,0.050175313,0.060497046,356.20427075273545,-0.09287921468834197,4.0308707853116585,14.583333333333334,9600,3.0927622318267822,0.022661224450653793,0.018603969716980744,57.2865627059406,0.0
60,7.032071352005005,410.13855604926795,77.69501769574715,750.6543006807457,179.9282877838462,16.666666666666668,1.7663011080609456,0.1,0.016545772552490234,0.4096086025238037,0.049368326,0.060718726,361.5976992823887,-0.09431181603258004,4.096104850634087,16.666666666666668,9600,2.5496346950531006,0.03633578658051256,0.03201323734105633,60.70312649704607,6.25
61,7.1863439083099365,397.42039027929326,53.099070573411716,613.9216961166484,74.532112720599,16.666666666666668,1.6578989871114809,0.1,0.01593303680419922,0.3983168601989746,0.050762795,0.056686275,365.17996838207915,-0.09524028882720686,3.968509711172793,16.666666666666668,9600,3.1271591186523438,0.022825726028390957,0.018850274144864267,33.56978627642047,6.25
62,7.356244087219238,379.4963506713695,67.78808413317032,481.0265170246358,18.817198132934966,12.5,1.7269525171151365,0.1,0.016710996627807617,0.4454357624053955,0.050202228,0.053837378,366.6116066110082,-0.09490361857043365,3.7896797147628996,12.5,9600,3.0407729148864746,0.03637850454144737,0.029427220162597807,25.802979606124737,0.0
63,7.341235876083374,393.69649969864196,49.39000660061507,581.5822122516275,199.98475283117892,10.416666666666666,1.6123315101592202,0.1,0.014397144317626953,0.4259521961212158,0.050033927,0.06386043,369.3200959197716,-0.0949709088881529,3.9316957577785137,10.416666666666666,9600,3.0264737606048584,0.01722347794436742,0.016736956552320992,32.320618108735346,6.25
64,7.485955238342285,400.406451212882,59.62785523020191,674.0461539110522,17.583194229445773,19.791666666666668,1.5818903101765098,0.1,0.013359308242797852,0.47622013092041016,0.050714802,0.06261303,372.42873144908265,-0.0924646582335729,3.998785341766427,19.791666666666668,9600,3.0898172855377197,0.019584947902964688,0.017263183227533823,66.5628213921151,6.25
65,7.208618402481079,400.96251329529167,80.22701430299252,738.1913465948104,98.8917280234046,19.791666666666668,1.6297583816770378,0.1,0.021436691284179688,0.4343583583831787,0.050380062,0.0632343,375.2821096337036,-0.09190956325665223,4.004340436743347,19.791666666666668,9600,3.057072401046753,0.04086513188745881,0.038808920951426254,88.97834796358345,12.5
66,8.962750673294067,401.1632537216611,53.78454234039867,662.3208049431046,224.30684317808527,17.708333333333332,1.705426538182278,0.1,0.02464890480041504,0.5045435428619385,0.05038831,0.058600213,377.8702240424994,-0.09240380099606078,4.005512865670606,17.708333333333332,9600,3.4747488498687744,0.025946782444557157,0.024130356711537425,81.96717703160272,12.5
67,7.50792121887207,398.6272810719175,72.07861832081494,710.493678199389,26.625443644596807,19.791666666666668,1.4950087506725875,0.1,0.023425817489624023,0.4503607749938965,0.049972307,0.0670291,379.9459297454412,-0.0919144403834561,3.9814188929498777,19.791666666666668,9600,3.5623397827148438,0.02772768496792322,0.024548936307705334,52.64352498919314,12.5
68,9.215903520584106,409.75684254818344,52.08224958710529,657.8894259311511,296.7261768841085,18.75,1.6816959572095465,0.1,0.022726058959960938,0.5191218852996826,0.049683653,0.06408289,382.9270210257155,-0.09021093976231842,4.092289060237682,18.75,9600,3.31803560256958,0.020732955078639374,0.017026984659932347,45.44360630285928,12.5
69,8.862627029418945,399.46778496105276,62.311698417849186,625.8749770860192,78.60944510424872,21.875,1.6099495253563354,0.1,0.022882699966430664,0.5373380184173584,0.048958518,0.060500767,384.5810974192492,-0.09268857151803489,3.9893947618152983,21.875,9600,3.6333541870117188,0.02453379662437831,0.021658679195794464,45.76482843429828,6.25
70,7.40919303894043,404.6042686375393,69.5656861803086,722.5262478310003,94.94743479730712,23.958333333333332,1.715273374021124,0.1,0.02175283432006836,0.49912023544311523,0.050289266,0.05968616,386.58341454107824,-0.09048813049746231,4.040761869502538,23.958333333333332,9600,3.2460591793060303,0.027095203236626356,0.025277121177015065,38.993503405459364,6.25
71,7.404466390609741,399.46435993036084,64.98667591944518,572.7751656522095,31.029276422588495,18.75,1.6581774629879407,0.1,0.02270364761352539,0.5152082443237305,0.05078121,0.058982007,387.8715090800065,-0.0923027096009838,3.988947290399016,18.75,9600,4.212067365646362,0.028481492282303348,0.025062432283711255,20.694457890048824,6.25
72,7.5776262283325195,401.8974581965117,59.350185499709795,666.1955993947222,183.4573964977328,18.75,1.7430092993222102,0.1,0.02272963523864746,0.5506067276000977,0.05064568,0.059019707,389.27410399165706,-0.09255453573142829,4.013695464268571,18.75,9600,3.820598602294922,0.020375709627972968,0.019078443985489548,41.28126017072373,6.25
73,7.033734083175659,407.4590874027745,61.73646660288641,690.1616989288384,123.4123772758081,16.666666666666668,1.589173613692129,0.1,0.021068334579467773,0.4953155517578125,0.04939181,0.06053044,391.0926023327688,-0.08901776401572786,4.069315569317606,16.666666666666668,9600,3.931162118911743,0.028824073679102363,0.024819552676469882,54.61045801710067,18.75
74,9.61104130744934,423.74614702314466,96.77026524127388,710.2910750700422,54.47551204192306,31.25,1.635670543956706,0.1,0.02570629119873047,0.5512876510620117,0.049724784,0.061543025,394.35795680180644,-0.08823035363347682,4.23218631303319,31.25,9600,3.6671302318573,0.050144423323648095,0.04175489495673036,71.0843605171566,12.5
75,7.615479946136475,420.1869751877064,71.53762704588942,642.0927964176477,232.16261708619163,27.083333333333332,1.6577312052289463,0.1,0.04263758659362793,0.5947518348693848,0.05063431,0.060119275,396.9408586403964,-0.0892452010876914,4.196171465578975,27.083333333333332,9600,3.2289412021636963,0.028965438945934275,0.0251614509693732,83.79972044603953,25.0
76,6.715569257736206,425.554013224742,73.64417516877222,775.0710663788878,304.0233166019174,29.166666666666668,1.6658425762755475,0.1,0.022346973419189453,0.49483680725097656,0.04975233,0.06620826,399.802174098831,-0.08807540783265244,4.250257925500681,29.166666666666668,9600,3.287174701690674,0.025565802382300537,0.023410125261534562,72.48626465845193,18.75
77,6.255702495574951,409.89290600210205,89.45281377517108,734.2368196509099,26.874780459916064,28.125,1.6122774092547363,0.1,0.025555133819580078,0.4901001453399658,0.049755916,0.062333692,400.81124728915813,-0.0892687703577079,4.093231229642292,28.125,9600,3.1982569694519043,0.05006803956020966,0.045491558852546986,98.5212510876042,6.25
78,6.904467344284058,417.45733356084594,77.0506583180623,742.7631581341867,199.73624584948075,22.916666666666668,1.836066524567478,0.1,0.02557682991027832,0.48053979873657227,0.050744914,0.057135824,402.4758559163269,-0.08862683530307187,4.169289831363595,22.916666666666668,9600,2.823697328567505,0.032891099577009045,0.030174837324214207,111.68995052780471,6.25
79,6.720513820648193,411.68607328610307,72.67586327222641,746.4121971265522,243.99172328499492,17.708333333333332,1.695888159842965,0.1,0.014740943908691406,0.4054441452026367,0.048128106,0.061498202,403.3968776533045,-0.08925327145424143,4.111580061879092,17.708333333333332,9600,2.6273131370544434,0.027928439039766016,0.026763069469614077,88.07632741880671,6.25
80,6.63878321647644,411.62064628638956,63.54227620297548,758.6427560987387,223.96088956336874,18.75,1.7610263572231093,0.1,0.019112110137939453,0.44719672203063965,0.049817428,0.060719285,404.21925451661303,-0.0907438461095869,4.11092282055708,18.75,9600,2.913658380508423,0.025953504121301416,0.02352929782503673,83.19119977706369,6.25
81,7.267897605895996,414.66249147006937,53.00841524465862,645.7255819216357,324.718760769744,26.041666666666668,1.6363013167520346,0.1,0.0197145938873291,0.5510349273681641,0.049900245,0.06548352,405.26357821195865,-0.08907365109136979,4.141343015575297,26.041666666666668,9600,2.97983980178833,0.0174794894386202,0.015359487940210085,114.7267501864983,6.25
82,9.508056163787842,412.580471017081,62.38007009059324,714.1910546748303,143.6009265358063,26.041666666666668,1.7101382490055346,0.1,0.02369832992553711,0.48650074005126953,0.050625484,0.058692142,405.9952674924709,-0.08823252874003147,4.120517471259968,26.041666666666668,9600,2.6443839073181152,0.022275469953838917,0.02133392477007551,139.20944184495102,6.25
83,9.714885950088501,415.21696767938914,64.92069380462351,694.384385036072,232.53703073422122,25.0,1.660556839913841,0.1,0.02603912353515625,0.4163367748260498,0.051132146,0.06427364,406.9174375111627,-0.08769016279140755,4.146893170541925,25.0,9600,2.5776684284210205,0.023999555484635726,0.02298179586932735,138.00076588471268,6.25
84,7.044356822967529,417.91896830510706,69.81159766024739,694.0202451253253,272.28525686501274,25.0,1.7069468282299554,0.1,0.020423173904418945,0.4508345127105713,0.0492568,0.062340077,408.0175905905572,-0.08775841181548653,4.17390825485118,25.0,9600,2.7730791568756104,0.030550199132159523,0.02889248753261434,132.97287367517583,6.25
85,7.187247276306152,419.3428947738484,67.7575129115879,722.1874526547149,256.22235807432367,27.083333333333332,1.7739441825013789,0.1,0.026569128036499023,0.45101332664489746,0.047645435,0.058477815,409.1501210088863,-0.08685229534666762,4.188147704653333,27.083333333333332,9600,2.8199284076690674,0.026548750799443823,0.02460487952140901,140.95515756568355,6.25
86,6.384522199630737,419.4199623591156,61.7761372834459,734.601209746251,324.4539069278882,28.125,1.6537695317809145,0.1,0.02345871925354004,0.4608640670776367,0.05051185,0.06478044,410.1771051439092,-0.08775449610633786,4.188078837226995,28.125,9600,2.3227760791778564,0.024422609546768163,0.023101019628252954,139.1845576338549,6.25
87,7.049317359924316,422.5606653862542,79.03283611400727,734.2863379699928,276.17254068614454,29.166666666666668,1.8088650758243356,0.1,0.03849148750305176,0.42016172409057617,0.048754588,0.056279846,411.41546116814374,-0.08758815537117648,4.220328511295491,29.166666666666668,9600,2.858086347579956,0.03421674401461504,0.03125368866971815,142.3602253717678,6.25
88,7.1341423988342285,408.057917055123,80.1199121422471,698.4991348010068,79.20468932916238,25.0,1.575028905217776,0.1,0.02804398536682129,0.4425058364868164,0.051891815,0.0630411,411.0797067568417,-0.08846337472491343,4.075286625275086,25.0,9600,2.896995782852173,0.03623772919103458,0.03368463307777203,145.56811704042525,6.25
89,6.529033184051514,407.83078542135036,55.875169306926054,742.4934432680016,228.12449124495694,19.791666666666668,1.6936714292039796,0.1,0.02051520347595215,0.44373059272766113,0.050189707,0.06596128,410.7548146232926,-0.08988616921497529,4.073030497451691,19.791666666666668,9600,2.5436904430389404,0.023614871581079017,0.02130020163933358,148.25079097760653,6.25
90,5.704917907714844,432.73807238860917,82.29001927903093,738.4733243819167,187.4432658393304,36.458333333333336,1.7247452916652841,0.1,0.020754337310791016,0.40247273445129395,0.050954614,0.062258452,412.95314039982424,-0.0858271152035983,4.321672884796402,36.458333333333336,9600,2.246424674987793,0.037947302644146204,0.029186138508678794,148.24017284877155,6.25
91,6.281003475189209,407.2500962193596,47.29084791462407,666.110301186146,332.5737245071363,13.541666666666666,1.7278105158247639,0.1,0.028044462203979492,0.4702160358428955,0.0516628,0.06424478,412.38283598177776,-0.08902985341179975,4.0672201465882,13.541666666666666,9600,2.424760341644287,0.01698101496009398,0.011669231513173995,146.58360360051358,6.25
92,6.3427958488464355,422.6888591062234,96.61674191742544,754.4141064001205,-42.95628252155202,28.125,1.6071861095932183,0.1,0.01812291145324707,0.4156477451324463,0.049812492,0.060975745,413.4134382942224,-0.08649248507937962,4.222031103251994,28.125,9507,2.069643259048462,0.037779503059488004,0.03476811573709156,148.73031425564895,6.25
93,6.713177919387817,421.85647909480207,70.49672775634677,730.6462887029744,284.63930290552946,30.208333333333332,1.6696142057908747,0.1,0.020604372024536133,0.39997410774230957,0.050259557,0.06281313,414.2577423742804,-0.08671923269463717,4.213280767305363,30.208333333333332,9600,2.2698464393615723,0.032340577401900585,0.029247723267328506,155.35108440316614,6.25
94,6.75000786781311,416.0260297958868,83.40293022777223,674.3235052585156,67.1390820270096,29.166666666666668,1.5433625655763492,0.1,0.02445220947265625,0.42397570610046387,0.04807811,0.06262532,414.434571116441,-0.08752130429396587,4.154978695706034,29.166666666666668,9600,2.293757438659668,0.03431442752034027,0.0324631753697494,152.8653812427163,6.25
95,6.7200767993927,412.99260939594086,76.20394030232846,722.6611654976222,220.57435439221604,19.791666666666668,1.672000565349656,0.1,0.019958972930908203,0.4331941604614258,0.049383774,0.06256593,414.29037494439103,-0.0882722370615157,4.124227762938484,19.791666666666668,9600,2.312826633453369,0.030682370788954617,0.028395736159735126,154.0216742757586,6.25
96,6.805729150772095,407.90039401571283,63.7813983453239,650.1468683580252,139.7065925270957,23.958333333333332,1.6657065459029465,0.1,0.02456808090209961,0.4548604488372803,0.049731568,0.058676083,413.6513768515232,-0.09001405280424325,4.074152613862423,23.958333333333332,9600,2.368548631668091,0.02373459197228391,0.021963156171106005,164.42715987922486,6.25
97,6.504073858261108,412.5271089834439,54.20118105813043,657.9403201937215,268.3705692743106,20.833333333333332,1.7211371653054615,0.1,0.025451183319091797,0.40259337425231934,0.04987603,0.059725605,413.53895006471527,-0.08834560381398586,4.119571062852681,20.833333333333332,9600,2.7057952880859375,0.015214032906003927,0.01710699621914771,272.07742528576705,6.25
98,6.937938213348389,415.98446902151437,64.19284575088658,762.9364566443741,244.44299575494702,22.916666666666668,1.6695897592121145,0.1,0.022083759307861328,0.4555838108062744,0.05015121,0.062174693,413.78350196039514,-0.08710711918739582,4.154559547479271,22.916666666666668,9600,2.569474697113037,0.02795899816710922,0.023899957885634524,352.5937667193435,6.25
99,7.1461341381073,411.18502062898693,49.10674659976168,734.3952116758516,324.56297780782677,22.916666666666668,1.7557439394254957,0.1,0.017153263092041016,0.5047948360443115,0.050682507,0.062808365,413.52365382725435,-0.08759611026428017,4.106570556402387,22.916666666666668,9600,2.2908377647399902,0.017010005130331057,0.015498475433787259,261.2995401864803,6.25
100,7.010047912597656,409.77463678019666,63.03598562616726,657.7757967131441,203.90454199888,23.958333333333332,1.671233014234324,0.1,0.025480031967163086,0.43443751335144043,0.047902647,0.06114721,413.14875212254856,-0.08878746155442636,4.092462538445573,23.958333333333332,9600,2.422621965408325,0.021263666433322108,0.019676660670332618,239.34899271385527,6.25
101,6.993168830871582,416.7664845417825,65.56867811556974,767.0607630774384,300.76325387150797,22.916666666666668,1.652955127081305,0.1,0.022708892822265625,0.4872138500213623,0.049188342,0.06596267,413.51052536447196,-0.08678700103041814,4.161962998969582,22.916666666666668,9600,2.48879337310791,0.02296516277105009,0.021494320936566808,246.52745008802782,18.75
102,6.966256141662598,428.3506698889327,98.13945222177124,754.2835905352696,91.06251601292338,41.666666666666664,1.7820599678804763,0.1,0.024414539337158203,0.4712252616882324,0.04949389,0.054266047,414.99453981691806,-0.08511905042229133,4.277797616244375,41.666666666666664,9600,2.4833295345306396,0.04681807017073409,0.042760025720727866,158.5674171774302,12.5
103,7.1923301219940186,430.3637985179009,87.43418347775767,778.9471296713436,203.85124103978652,35.416666666666664,1.6462696223702125,0.1,0.01618480682373047,0.40548157691955566,0.05010848,0.06490808,416.5314656870164,-0.08539798568029822,4.297935347653035,35.416666666666664,9600,2.364898681640625,0.03796289558926744,0.03533661984717997,212.57713460429932,6.25
104,7.145994663238525,432.6506547381263,84.5174968144277,738.7363035469581,308.5253226745051,29.166666666666668,1.8491502772302013,0.1,0.019261837005615234,0.41463351249694824,0.04829502,0.056387324,418.1433845921274,-0.08627481541293758,4.320808517920396,29.166666666666668,9600,2.362947463989258,0.030129438076094982,0.02835353746758388,246.26211978309027,6.25
105,7.184988737106323,429.1013073120312,80.23391395600979,778.900316210597,191.98023700206332,33.333333333333336,1.670889168705431,0.1,0.013173818588256836,0.4482424259185791,0.049245223,0.06420031,419.23917686411784,-0.08427512848802737,4.285724871511973,33.333333333333336,9600,2.467320680618286,0.034068823669978564,0.03175668596312573,187.33492948772076,12.5
106,7.176181793212891,428.14178534280563,71.09388722183402,766.6255582398012,376.8594670121619,32.291666666666664,1.7954736422882798,0.1,0.019306182861328125,0.45316028594970703,0.048463635,0.059036367,420.12943771198667,-0.08345126376141716,4.2757154029052495,32.291666666666664,9600,2.376760721206665,0.028327627107463112,0.024933964924962963,192.39784972876743,12.5
107,7.11589789390564,448.4166973672374,98.28033104352976,767.4411662810197,385.44992091576654,35.416666666666664,1.7143163105338985,0.1,0.01579737663269043,0.4551966190338135,0.046905614,0.060439292,422.9581636775118,-0.08278002035229388,4.478886646314373,35.416666666666664,9600,2.592764377593994,0.04306279348126323,0.03701456025125577,170.0655885198844,12.5
108,6.969719409942627,426.2070507180228,74.94067075263884,762.6274866243502,356.83207007852474,25.0,1.727719730418211,0.1,0.028899669647216797,0.451369047164917,0.04323124,0.059660137,423.28305238156287,-0.08446450622941772,4.257202160437249,25.0,9600,2.540376663208008,0.03196681737666032,0.02777371701025098,181.8848265352394,25.0
109,6.903670787811279,424.85858606716783,83.9015835329748,738.2532438911916,264.7387546094343,22.916666666666668,1.7451344149622234,0.1,0.030916452407836914,0.5282185077667236,0.04741708,0.05949145,423.4406057501234,-0.0866940590409821,4.243305940959018,22.916666666666668,9600,2.4531590938568115,0.031229396154668188,0.029606872030951453,162.62499543136772,31.25
110,7.017393589019775,421.6161714916146,73.64327325761073,778.8876538446534,260.1889038815757,31.25,1.7392553954964152,0.1,0.020908117294311523,0.4365866184234619,0.04816949,0.06039524,423.25816232427246,-0.08661572639592201,4.210467606937411,31.25,9600,2.6689207553863525,0.028471554237487283,0.025392823186572388,178.55646539258095,12.5
111,6.467989683151245,417.6966262610822,58.1668950810102,646.0415818381754,264.6719758003153,30.208333333333332,1.7680919511426283,0.1,0.01993584632873535,0.4795875549316406,0.049593568,0.05986414,422.70200871795345,-0.08623375240082692,4.1716829142658405,30.208333333333332,9600,2.4234018325805664,0.017867262263855106,0.01531729324397333,162.41872520923732,12.5
112,6.85443639755249,435.5296897642318,79.56935803086623,730.5293558900465,354.37806665373614,34.375,1.6727624618333252,0.1,0.01664137840270996,0.47504591941833496,0.049806662,0.06762108,423.9847768225813,-0.08457510581410886,4.349174894185892,34.375,9600,2.5083305835723877,0.030692108298649427,0.027614976223070985,161.40392952982143,12.5
113,7.037089824676514,451.87201614403756,107.11961722175148,771.2559759237178,159.5963098903431,36.458333333333336,1.7513963784167894,0.1,0.03411245346069336,0.45906853675842285,0.05046656,0.06104709,426.7735007547269,-0.08323610929663282,4.513013890703367,36.458333333333336,9600,2.3218700885772705,0.046504117269956104,0.041734178999656375,178.24141736690396,6.25
114,7.073694229125977,441.3667526561187,102.12680183888574,786.8696917400484,147.6181449268644,39.583333333333336,1.643929532761885,0.1,0.018718957901000977,0.49330592155456543,0.04844937,0.060819358,428.2328259448661,-0.08329024906907036,4.407543084264263,39.583333333333336,9600,2.458641529083252,0.0465172915357874,0.040875766489330036,183.0608126397877,6.25
115,6.814246416091919,444.3169308345921,92.84746395235528,778.7648166369247,333.04128254164624,39.583333333333336,1.699685386028655,0.1,0.014140605926513672,0.427401065826416,0.049472664,0.06127656,429.8412364338387,-0.08294504569773237,4.437888287635601,39.583333333333336,9600,2.4632515907287598,0.03639304476932081,0.03354794190924723,175.75418669613848,6.25
116,6.860916376113892,429.53139969424114,75.90000103622458,722.3636452245859,378.9230604073826,31.25,1.800152854420068,0.1,0.02975940704345703,0.4853391647338867,0.048752885,0.0588439,429.81025275987895,-0.08455117659004213,4.290448823409958,31.25,9600,2.5731146335601807,0.03182223841645259,0.029269488097440937,164.3374597165131,6.25
117,7.170433044433594,424.65112672322147,82.22400321677982,742.3524893486593,223.8070985726738,28.125,1.7033206989132124,0.1,0.02859354019165039,0.4618070125579834,0.049594313,0.060459364,429.29434015621325,-0.08752033108868251,4.241229668911317,28.125,9600,2.518477201461792,0.03000727765904918,0.027514253685878377,172.71204855600217,6.25
118,7.06698203086853,422.8146255355482,75.22816350168749,734.5627283497419,280.0249455708416,23.958333333333332,1.7375579985367844,0.1,0.015875816345214844,0.41816163063049316,0.050739776,0.06122572,428.64636869414676,-0.08546970112130885,4.2232802988786915,23.958333333333332,9600,2.6811275482177734,0.03233491870333307,0.02939880841786555,178.00459874622032,6.25
119,6.440195083618164,412.446332478366,56.314948682334666,686.2576857821113,292.63727797994176,26.041666666666668,1.8079908814176324,0.1,0.024040699005126953,0.4467017650604248,0.051273912,0.05695953,427.0263650725687,-0.08623406833828674,4.119599264995046,26.041666666666668,9600,2.7194759845733643,0.02245245033367223,0.019684491044980334,178.56405124611535,6.25
120,6.935575008392334,425.1074424352103,64.81034761061777,710.2854063606119,374.1339901779745,31.25,1.821820325881405,0.1,0.024152755737304688,0.4403808116912842,0.04841548,0.05959434,426.83447280883286,-0.08463427424741225,4.244949059085921,31.25,9600,2.7454967498779297,0.024422601403976275,0.02197782922181661,185.1214231573755,6.25
121,7.018904685974121,418.39925364672627,55.56576231401523,678.0058250158478,357.3202841797169,22.916666666666668,1.6482747243977378,0.1,0.023813486099243164,0.45305562019348145,0.04928577,0.06579292,425.9909508926222,-0.08420833034678195,4.178291669653219,22.916666666666668,9600,2.755502462387085,0.021838513128383173,0.019696914754227236,200.01926479151575,6.25
122,5.7718658447265625,435.8501652924745,94.94907086586758,726.5829788204869,187.82152536834124,29.166666666666668,1.8335064912981094,0.1,0.021663904190063477,0.4318540096282959,0.050000038,0.057580225,426.97687233260746,-0.0842775125316108,4.353222487468389,29.166666666666668,9600,2.664111614227295,0.04745047725523151,0.04306277372716978,213.4120737258284,6.25
123,7.367202043533325,420.130999275837,78.12049360771925,754.7399063383593,119.55280445339717,31.25,1.7791988822292957,0.1,0.023529052734375,0.44327259063720703,0.050249893,0.05612455,426.2922850269304,-0.0848088194937456,4.19560784717292,31.25,9600,2.6854703426361084,0.03138360610730807,0.02915047198699296,185.96525123674525,6.25
124,7.106775999069214,437.1666067932086,72.68996158974663,710.3448840220673,381.4890765326681,41.666666666666664,1.6893045074257127,0.1,0.026142597198486328,0.4885592460632324,0.050198287,0.060338363,427.37971720355824,-0.08279002561600461,4.365959974383995,41.666666666666664,9600,2.558682918548584,0.02614573287179974,0.024282822724437953,153.70985189553875,6.25
125,7.170289039611816,427.11589316674645,78.7869843297651,722.7159033945575,247.71788136488976,28.125,1.628519294700096,0.1,0.02370619773864746,0.4430820941925049,0.048010305,0.06275466,427.3533347998771,-0.08619306789589883,4.266723598770768,28.125,9600,2.471766710281372,0.02876703836474915,0.02601299583121205,180.87414079682134,25.0
126,7.52307653427124,439.96289188703827,89.55270754625239,795.3936786021097,220.42575085148366,38.541666666666664,1.76702332806841,0.1,0.02716374397277832,0.4385404586791992,0.049230322,0.058101553,428.61429050859323,-0.08398771491674346,4.393928951749923,38.541666666666664,9600,2.373563766479492,0.03622528030309897,0.03212358488855856,175.78367645532626,18.75
127,7.075110197067261,439.36318425245355,88.20276232071643,754.4513100105285,260.4990945935649,32.291666666666664,1.8167883041823834,0.1,0.016152620315551758,0.48219728469848633,0.04875827,0.05709897,429.68917988297926,-0.08206995502218427,4.387930044977815,32.291666666666664,9600,2.4126040935516357,0.03463714958637459,0.03305995350995302,239.57968323221658,31.25
128,7.069063901901245,438.75954946644606,81.71577117434525,751.0260997557872,349.5051280903261,35.416666666666664,1.763696289436903,0.1,0.018466472625732422,0.4864645004272461,0.04865813,0.059681468,430.59621684132594,-0.08269088153625141,4.381892451797082,35.416666666666664,9600,2.2657477855682373,0.03208454891054575,0.028930981116796182,243.40264743357466,31.25
129,7.232039928436279,434.18449449529277,108.82378304997846,774.4984304647462,195.82260855382313,33.333333333333336,1.8101056960137087,0.1,0.01764082908630371,0.46747446060180664,0.047718164,0.0574501,430.9550446067226,-0.08677163681908366,4.336145029847583,33.333333333333336,9600,2.353260040283203,0.04883670999744363,0.046414550316513745,278.1128887082475,43.75
130,7.746043682098389,426.73685812316916,79.8400969902777,746.7754091002529,345.3756553154018,22.916666666666668,1.7144211430490124,0.1,0.01604604721069336,0.4273836612701416,0.04945847,0.061469898,430.53322595836727,-0.08458033197904817,4.262086334687619,22.916666666666668,9600,2.076859951019287,0.031526753979389886,0.029365321150853815,291.5102432044864,31.25
131,7.2225635051727295,424.8895356718601,81.81467345675043,795.3383570378029,297.3609623367753,30.208333333333332,1.7362113350666257,0.1,0.017589569091796875,0.47291088104248047,0.048111226,0.06252965,429.96885692971654,-0.086802966701314,4.243613699965352,30.208333333333332,9600,2.3757126331329346,0.030632070213093946,0.028851028892964457,295.10085128046694,31.25
132,7.270393133163452,437.52563638167277,90.2564779137714,734.245683810782,164.2849574569649,39.583333333333336,1.7389441372804577,0.1,0.023862600326538086,0.4875471591949463,0.04757365,0.057803888,430.72453487491214,-0.08377917350754356,4.369970826492456,39.583333333333336,9600,2.4609005451202393,0.03762599228248723,0.03473711705204216,329.448811811668,31.25
133,7.251805067062378,436.98743712401637,97.03021910152198,758.8573881352934,147.67716172559074,31.25,1.727044237064386,0.1,0.016972780227661133,0.4254732131958008,0.049594626,0.06102049,431.3508250998226,-0.0833312730220434,4.364168726977957,31.25,9600,2.480651378631592,0.04138817549136192,0.03862819424903711,349.0247684596062,31.25
134,6.958368301391602,428.5820064108769,83.76470312224765,714.3313792769699,236.0710273439161,32.291666666666664,1.694685686296999,0.1,0.019179344177246094,0.47513628005981445,0.049415037,0.060128473,431.0739432309281,-0.08654271221225011,4.280957287787749,32.291666666666664,9600,2.1526646614074707,0.033487119169420265,0.03053711467122731,382.04669045866206,31.25
135,7.062644958496094,458.4319729508208,118.97407657875651,758.584790297056,114.43479570784501,40.625,1.6997428264220173,0.1,0.02139902114868164,0.44266629219055176,0.04900827,0.060537376,433.8097462029173,-0.08220751655258819,4.579042483447412,40.625,9600,2.4135231971740723,0.052085685160049,0.04213743001124503,420.6026418737754,37.5
136,7.025420665740967,424.72001481954914,70.28129120038676,758.9585863561623,316.6483426807028,30.208333333333332,1.6974104799289318,0.1,0.016964197158813477,0.47153544425964355,0.050668195,0.061247468,432.9007730645805,-0.08433001603509506,4.241919983964904,30.208333333333332,9600,2.5200815200805664,0.03456671125896304,0.02520228492995937,378.2439596770769,37.5
137,7.15504002571106,437.07927997819866,104.58346172403711,787.1000879649217,163.6989229507592,31.25,1.7692668005880414,0.1,0.024645090103149414,0.4683506488800049,0.05077338,0.056439128,433.3186237559423,-0.08489688550423263,4.3659364478291005,31.25,9600,3.222203254699707,0.04463982342243576,0.0408377788158662,439.94450167145067,37.5
138,7.864088773727417,415.9611345134992,57.533130237343535,625.8716158831965,304.7551571765971,25.0,1.7193950646487777,0.1,0.030054807662963867,0.4479343891143799,0.050596606,0.06073161,431.58287483169806,-0.0865018375741255,4.154331495759208,25.0,9600,2.592381715774536,0.022549159403980456,0.016905120193779464,417.0982056427391,31.25
139,7.099517345428467,448.7987607203536,105.18048089929232,794.7680650487865,271.9182141547252,38.541666666666664,1.6724166260618516,0.1,0.015235424041748047,0.49768710136413574,0.048181687,0.061933074,433.30446342056365,-0.0822989508822435,4.4827010491177575,38.541666666666664,9600,2.5350611209869385,0.04588855025450372,0.040285881772611026,441.5630224700173,37.5
140,7.089655876159668,413.32729300284836,43.5965596051691,658.1071455822455,273.71074975715794,28.125,1.6676404424470193,0.1,0.015374898910522461,0.4183192253112793,0.04660656,0.058960866,431.3067463787921,-0.08493160322215283,4.127568396777847,28.125,9600,2.646660089492798,0.017943322970509493,0.010929278573934754,471.2023379027325,37.5
141,7.171030044555664,418.0057070219582,55.251966608670074,661.8806544245521,340.8058574979092,27.083333333333332,1.6980768618966338,0.1,0.020502328872680664,0.45354151725769043,0.05050817,0.064760275,429.97664244310874,-0.08606457631473959,4.174768757018594,27.083333333333332,9600,2.660588026046753,0.015671338200076455,0.013574613088656616,423.17304642619496,31.25
142,7.2145562171936035,415.2819494835433,71.32409923229083,754.582564967873,106.85488887780197,27.083333333333332,1.6576678229051525,0.1,0.020055294036865234,0.49260640144348145,0.050073896,0.061465397,428.50717314715223,-0.08621579174733825,4.147117541585995,27.083333333333332,9600,2.608827829360962,0.02902312011550909,0.024993512769451866,329.05600597154387,37.5
143,6.959495544433594,432.72434690543963,84.22297877188691,766.9929435013762,377.3289344685581,30.208333333333332,1.786562113959909,0.1,0.015007257461547852,0.4188117980957031,0.048647147,0.05928914,428.92889052298096,-0.08304251474263713,4.321957485257363,30.208333333333332,9600,2.852694511413574,0.037293174295478446,0.0315309572213876,291.08643004114646,6.25
144,7.1840479373931885,444.8037717384309,100.62415671921217,779.2539697316136,373.0921513475865,34.375,1.7888642981170724,0.1,0.016731977462768555,0.42723822593688965,0.04846403,0.058838088,430.51637864452596,-0.08266695971539409,4.442749706951272,34.375,9600,2.7772228717803955,0.039462212230402235,0.035058762200610036,275.7382322318829,6.25
145,6.737061500549316,426.37088710174993,83.87638629981183,778.8941546974557,326.52563547411233,20.833333333333332,1.7140990109112466,0.1,0.019275426864624023,0.43339085578918457,0.05020437,0.059767023,430.1018294902484,-0.08573894191234448,4.258011058087655,20.833333333333332,9600,2.828195095062256,0.034075100498034444,0.030370255946489757,282.7167797382764,6.25
146,7.267151594161987,424.97472574905305,76.28900852687165,750.1391948092806,301.4664487910306,26.041666666666668,1.7866321135382834,0.1,0.020919084548950195,0.4462573528289795,0.050740458,0.059379183,429.58911911612887,-0.08346382358318538,4.244036176416814,26.041666666666668,9600,2.948014497756958,0.03149573762401259,0.02948050169811866,304.42409544173194,6.25
147,7.3835766315460205,421.40629313528353,78.18327364533927,795.3727448640306,252.82064988269244,25.0,1.6566084552824378,0.1,0.01524972915649414,0.45380473136901855,0.050026678,0.06402701,428.77083651804435,-0.08622339766688229,4.208776602333118,25.0,9600,2.9598536491394043,0.030295397599278337,0.028873571211306615,270.33382863305076,6.25
148,7.68312931060791,448.5706258808366,99.1708926823436,782.6805840767108,353.8806059679533,36.458333333333336,1.742502341527108,0.1,0.019299745559692383,0.45111513137817383,0.050424907,0.060957793,430.75081545432363,-0.08249958976276306,4.479583743570569,36.458333333333336,9600,2.809659481048584,0.03737211014882979,0.032426494889996806,284.73332582979214,6.25
149,8.031234502792358,450.30190198428613,103.26512556384539,770.6741240514543,288.7129987694578,35.416666666666664,1.8138645488174132,0.1,0.02459859848022461,0.45319652557373047,0.0492732,0.058017667,432.7059241073199,-0.08226112398002311,4.49732220935331,35.416666666666664,9600,2.97390079498291,0.042581392050000534,0.03879802730187008,234.03588500570274,6.25
150,6.705031156539917,426.9719778504286,76.43568646209863,694.1031261148225,220.3274785938271,33.333333333333336,1.6902492282570014,0.1,0.021145105361938477,0.45621490478515625,0.04957911,0.06222562,432.1325294816308,-0.08472462141566599,4.264442045251001,33.333333333333336,9600,3.296520948410034,0.030304106820723896,0.026746935074227974,217.21612779532657,6.25
151,7.183022737503052,435.75799745565837,96.38487219346347,786.7615291224263,337.3748451673896,28.125,1.7217323524640666,0.1,0.02287888526916504,0.4904763698577881,0.0499954,0.06161918,432.4950762790336,-0.08311672242183274,4.352299944244834,28.125,9600,2.853161096572876,0.0352205978924857,0.03171091608803826,214.88592111534808,6.25
152,7.015690326690674,435.9212664269371,95.17315088547554,767.059148714165,260.6133564046098,32.291666666666664,1.7772132831806673,0.1,0.016780853271484375,0.46355223655700684,0.05013547,0.058391113,432.8376952938239,-0.08357779140335016,4.353088875263317,32.291666666666664,9600,2.6757593154907227,0.04204706862429563,0.040795999509229505,209.30407980051467,6.25
153,7.216007232666016,434.1349714619525,112.80455727463094,774.3434538082049,123.58041374746644,35.416666666666664,1.7029900629060253,0.1,0.017134904861450195,0.431621789932251,0.050766703,0.058235187,432.9674229106368,-0.08476875772829777,4.335647908938369,35.416666666666664,9600,2.4722111225128174,0.05834589699291229,0.052783424237543626,222.85068637807603,6.25
154,6.543409585952759,438.37058911272925,114.51592568462725,771.1386832642563,63.14727581463331,36.458333333333336,1.77522149982722,0.1,0.0275113582611084,0.4716317653656006,0.04915492,0.056690816,433.5077395308461,-0.08241129141949648,4.378838708580504,36.458333333333336,9600,2.2664084434509277,0.055818193812231395,0.05056987462410706,254.7090314192116,6.25
155,7.295836925506592,432.95605821925363,90.93995109168327,795.5126051018028,380.6822497406874,27.083333333333332,1.6556283725074408,0.1,0.03091144561767578,0.46135687828063965,0.049372617,0.061544605,433.4525713996868,-0.083226802391816,4.323856530941517,27.083333333333332,9600,2.8860630989074707,0.03508738528551404,0.029672906383015403,258.52751154829883,18.75
156,7.103286266326904,437.36582825407027,94.94531556119868,795.8641602650524,275.9268400271609,31.25,1.790853409825469,0.1,0.024195194244384766,0.5419023036956787,0.048953068,0.058926925,433.84389708512515,-0.0832853016298936,4.368798031703439,31.25,9600,2.305551052093506,0.03416613312978091,0.03157320707745909,305.19020958785563,37.5
157,7.194458961486816,423.2677323575687,76.51423826727232,758.625443903864,251.956534620472,27.083333333333332,1.7840512976972036,0.1,0.020770788192749023,0.5047681331634521,0.05024079,0.057824597,432.7862806123695,-0.08427919383195685,4.226970806168043,27.083333333333332,9600,2.3389129638671875,0.027805172520307873,0.024510985729074227,390.2077487188839,37.5
158,7.292588949203491,435.0736523303451,92.39603796951621,766.9837965902985,369.56101424559785,27.083333333333332,1.8420740065491827,0.1,0.04323935508728027,0.465008020401001,0.049979866,0.05768235,433.0150177841671,-0.08371305268677802,4.345453613979889,27.083333333333332,9600,2.2775814533233643,0.037917416277690276,0.03549678852702486,422.0361350727743,37.5
159,6.613582611083984,447.96899444378727,103.78337362923378,754.3368586908359,361.13644869293006,30.208333333333332,1.7705671165806374,0.1,0.016164779663085938,0.44553518295288086,0.048431948,0.055909507,434.51041545012913,-0.08267270491440552,4.473993961752261,30.208333333333332,9600,2.166224956512451,0.043089584872269,0.03891311696491042,394.3368183938005,25.0
160,7.135263204574585,447.6542424477769,105.77711324563555,779.0910700559137,383.07204415774254,29.166666666666668,1.6791561599286515,0.1,0.020416259765625,0.45751404762268066,0.049037352,0.06455341,435.8247981498939,-0.08249375676624619,4.470839576567087,29.166666666666668,9600,2.2645537853240967,0.03752699805608665,0.03522530714204217,419.5998116028414,25.0
161,7.125379323959351,441.7717877369041,91.93494839837624,787.3961804034423,369.52704183405996,34.375,1.825055832456584,0.1,0.019840478897094727,0.49586963653564453,0.049759485,0.060351767,436.41949710859495,-0.08215691720409617,4.411593082795903,34.375,9600,2.3322675228118896,0.03171539690650202,0.026080409799316542,424.9772093444891,18.75
162,7.131022214889526,435.1520933389104,96.67210716946113,770.9368009721378,316.3919788039585,25.0,1.855723401985621,0.1,0.023925304412841797,0.45026326179504395,0.047816675,0.056825634,436.2927567316265,-0.08501477264451063,4.345818560688823,25.0,9600,2.455984592437744,0.0337712376551993,0.030016834212714175,417.3575982205607,25.0
163,8.45259952545166,449.83654933024974,101.09717845888206,778.5187210548103,358.4247653593613,38.541666666666664,1.8334587324500524,0.1,0.025797128677368164,0.4271533489227295,0.047329605,0.055743825,437.6471359914889,-0.08067228852845988,4.492661044804873,38.541666666666664,9600,1.980959415435791,0.040451780316259074,0.038053757552875156,346.6695481322456,25.0
164,7.087432861328125,442.22470978964157,96.36014920756413,794.9646809510562,324.58668943592744,38.541666666666664,1.7196844790549455,0.1,0.030220746994018555,0.49300217628479004,0.050549842,0.06047549,438.1048933713042,-0.08220811463635842,4.416541885363642,38.541666666666664,9600,2.054560899734497,0.03247452067364093,0.0331987267767278,343.83263413022655,25.0
165,6.935261964797974,441.85879315569264,91.51881902182025,795.2575137340958,365.2245735386486,33.333333333333336,1.739658702282868,0.1,0.027621746063232422,0.44544029235839844,0.04961597,0.06047007,438.480283349743,-0.08211911962855191,4.413297547038115,33.333333333333336,9600,2.0702476501464844,0.0349897876441354,0.029000427262151282,323.2405881561023,12.5
166,7.2480692863464355,451.73084323402367,99.92263888785865,775.8365581857175,390.0142469327891,38.541666666666664,1.9340974218875895,0.1,0.02163100242614746,0.48006558418273926,0.048917454,0.053702313,439.80533933817105,-0.08006260496747002,4.512020728365863,38.541666666666664,9600,2.4298148155212402,0.03373308874671993,0.02976742158196658,317.16710729760104,6.25
167,7.150751829147339,440.5245548737248,94.93910767111095,795.0105392711449,276.0726273786875,32.291666666666664,1.6487465279048414,0.1,0.019763708114624023,0.5004034042358398,0.04917261,0.06121341,439.87726089172645,-0.08338052583340982,4.3995361408332565,32.291666666666664,9600,2.1198534965515137,0.037320421657300686,0.03219675468363624,285.9198525121819,6.25
168,7.190913915634155,429.307772465952,79.50291458965859,738.4123949883174,219.87668653524807,32.291666666666664,1.8018612547848352,0.1,0.031288862228393555,0.4767124652862549,0.04966854,0.05858814,438.82031204914904,-0.08387374810324948,4.28737625189675,32.291666666666664,9600,2.295728921890259,0.0314136123191373,0.027675702638180668,328.7496984565647,31.25
169,7.95832371711731,451.8758887430306,106.90550085803206,787.6069220234401,352.5216814796012,36.458333333333336,1.8089172227329684,0.1,0.026337862014770508,0.5067336559295654,0.048592564,0.05811313,440.1258697185372,-0.08153199075554927,4.513468009244451,36.458333333333336,9600,1.9629151821136475,0.038900333897033346,0.03467040501786588,244.40747642165286,12.5
170,7.07944130897522,451.1392698888899,111.98227524660791,795.9293438274656,349.31902048197463,32.291666666666664,1.8607982541836208,0.1,0.02263927459716797,0.4434053897857666,0.049276773,0.053215925,441.2272097355725,-0.08181009569556992,4.506106570971097,32.291666666666664,9600,1.965747356414795,0.04872415740287424,0.04236713257529009,263.09572115952983,12.5
171,7.240031003952026,455.41901358876186,122.47429862147575,795.0430753759285,22.96720392483382,40.625,1.8680039448535324,0.1,0.03344368934631348,0.4647202491760254,0.049432874,0.056123316,442.64639012089145,-0.08067664618892645,4.5484900204777405,40.625,9600,1.9291951656341553,0.04613074544551093,0.041172049971188236,290.434976718786,12.5
172,7.258880138397217,448.0848091552663,110.59738901787144,795.5302451839593,295.98980483142066,34.375,1.8157575447760639,0.1,0.023558616638183594,0.49189090728759766,0.048978396,0.055936694,443.1902320243289,-0.08194569961102237,4.474720967055644,34.375,9600,2.228442430496216,0.0398484033648235,0.037382633513524846,287.6181732591922,12.5
173,7.225649356842041,434.11355423324466,90.27137380501452,783.5249337090539,345.1557648528121,30.208333333333332,1.9598562146059948,0.1,0.038925886154174805,0.5187256336212158,0.049040284,0.05259167,442.28256424522044,-0.08206872444028929,4.335431275559711,30.208333333333332,9600,2.1219427585601807,0.04212715321800108,0.03638621390225399,388.57422764961484,25.0
174,5.496882200241089,455.2368186888254,96.93363753952168,794.7181947217657,377.62290696704,40.625,1.7331111535633899,0.1,0.022250652313232422,0.5462934970855713,0.05003345,0.0602998,443.57798968958093,-0.08041885051503761,4.547081149484963,40.625,9600,2.139693021774292,0.03803142305471866,0.03385092077767856,393.3668206571559,25.0
175,6.224942207336426,446.422936545412,101.4324469703262,794.6786904309665,308.48376056352316,34.375,1.7725750004378897,0.1,0.014203786849975586,0.4435403347015381,0.04888355,0.061217193,443.86248437516406,-0.08189739312572658,4.458102606874274,34.375,9600,2.022289991378784,0.04007965703086654,0.037448717660912845,406.5161207625748,37.5
176,6.858797073364258,461.08470582380625,112.68914030386024,770.6900360272033,360.5456766660085,40.625,1.8882732753424407,0.1,0.01753067970275879,0.5725407600402832,0.04943765,0.050349265,445.5847065200283,-0.08068697180807674,4.6055630281919235,40.625,9600,2.354807138442993,0.0453454937400392,0.04258217219309431,391.3183757304186,25.0
177,7.375524044036865,448.1527839651024,95.90095076997169,779.27462491444,376.957957993173,40.625,1.6228808334335365,0.1,0.021622419357299805,0.47762370109558105,0.04903082,0.062198993,445.8415142645357,-0.07918205345352723,4.475817946546473,40.625,9600,2.138826847076416,0.04873992396385512,0.03715533565773759,401.21665913044785,25.0
178,7.189382314682007,444.35407932437175,93.55202789304944,795.6023376566972,380.9565910786312,33.333333333333336,1.7899536218933738,0.1,0.030457258224487305,0.4608016014099121,0.049209334,0.05946916,445.6927707705193,-0.08216747188389718,4.437415861449437,33.333333333333336,9600,2.7597694396972656,0.03295151836505595,0.0282310023721575,375.88351023935684,12.5
179,7.017532825469971,461.6358534440648,119.16089748916531,795.2444013594001,358.091853034865,34.375,1.8483701699107218,0.1,0.02332448959350586,0.4615485668182373,0.048706535,0.054681055,447.28707903787387,-0.07935480810686424,4.610645191893135,34.375,9600,2.464510440826416,0.046329492320426574,0.04124650404653542,365.65859337370284,12.5
180,6.920892238616943,432.6175960964271,88.80660569364977,794.7684720905602,385.1152694747013,25.0,1.8235198940349089,0.1,0.0183713436126709,0.4342787265777588,0.049353827,0.05729454,445.8201307437292,-0.08327762674467044,4.320889039921997,25.0,9600,2.5805466175079346,0.03453332076629483,0.03408575592204324,380.90601991636595,12.5
181,6.84011697769165,440.48892604381746,92.15826588650008,778.9372007655812,312.59447191409754,34.375,1.7925056215711737,0.1,0.023084640502929688,0.4378855228424072,0.04821529,0.05686245,445.287010273738,-0.08122781036455619,4.399605522968777,34.375,9600,2.58868145942688,0.032722132461380816,0.027620272746592074,327.9940988384725,6.25
182,7.120762586593628,454.1280052765497,116.24990059197594,786.9638799745987,119.21797642489832,39.583333333333336,1.84111575081093,0.1,0.04479193687438965,0.49621081352233887,0.04929276,0.054778837,446.17110977401916,-0.08109610568018799,4.535987227653146,39.583333333333336,9600,2.6697371006011963,0.046642856003782825,0.04283097569684266,340.7202557304326,6.25
183,6.9606475830078125,448.1720426646666,105.17252000407693,746.547900360786,325.4871827712237,33.333333333333336,1.8429578526859067,0.1,0.0211179256439209,0.4440619945526123,0.04809424,0.052917257,446.3712030630839,-0.08066175269006402,4.47517158064327,33.333333333333336,9600,2.7652530670166016,0.04349813822135987,0.040099281217119406,358.3763173740457,6.25
184,8.426902294158936,427.3396173386206,77.36883826688633,754.609000923801,389.01278274613134,25.0,1.9840299597264557,0.1,0.018361568450927734,0.5601413249969482,0.048437238,0.05150231,444.46804449063757,-0.08189290193773675,4.268107098062264,25.0,9600,3.495396614074707,0.03655294495231465,0.02819434354175871,375.3708455243505,12.5
185,7.695799827575684,441.4440894621196,105.34708141733302,762.8664394744138,170.91165278680467,27.083333333333332,1.6770200385432572,0.1,0.023457765579223633,0.5018072128295898,0.04879966,0.062224686,444.1656489877858,-0.08210189029111836,4.408731443042215,27.083333333333332,9600,3.09014630317688,0.04475941542643194,0.039457510034534654,403.8994433307023,12.5
186,8.34410572052002,441.0768916699167,90.13326580309065,726.3687255239157,368.71278378768244,30.208333333333332,1.914521925388237,0.1,0.02274155616760254,0.46135568618774414,0.048559092,0.055008765,443.8567732559989,-0.08244778589362572,4.404635547439708,30.208333333333332,9600,3.311096429824829,0.035227182478939245,0.03116167233618124,412.9044987598833,12.5
187,8.912740230560303,439.08151710336523,95.3633875155962,795.1914087955037,300.2074531344196,32.291666666666664,1.7354582660987121,0.1,0.03349900245666504,0.5089225769042969,0.048180662,0.06012481,443.37924764073557,-0.08280816519707936,4.385108501469587,32.291666666666664,9600,3.4231529235839844,0.03949739284948036,0.03389336191163807,432.74934826032836,25.0
188,9.184646129608154,443.815100677123,111.72889152218293,795.3336226515669,106.95534311341693,35.416666666666664,1.8034266935310646,0.1,0.028214693069458008,0.46843957901000977,0.048408624,0.058049884,443.42283294437436,-0.08130145945100502,4.432448540548995,35.416666666666664,9600,3.2284510135650635,0.04587688382811856,0.040594452241858446,433.3830148303763,37.5
189,9.244852304458618,457.41146426063125,112.69291493136599,791.3183156298525,387.1113473552778,34.375,1.7245454016018154,0.1,0.032332658767700195,0.5339834690093994,0.04901605,0.058538932,444.8216960760001,-0.08034827318022988,4.56840172681977,34.375,9600,3.108701705932617,0.047837324993439435,0.044099304223196044,437.02195984138984,37.5
190,7.74873685836792,461.70376246935484,113.78190670979014,775.0722372066248,317.37742232897,39.583333333333336,1.6378402818311633,0.1,0.024156570434570312,0.5476000308990479,0.04927274,0.062152255,446.50990271533556,-0.08033752562325525,4.610912474376745,39.583333333333336,9600,3.722334384918213,0.03961509330222783,0.036198268460581856,433.36347487870074,31.25
191,7.814839601516724,452.2922056177179,107.88172467506949,762.536983714597,374.02979111404994,33.333333333333336,1.6882658153892842,0.1,0.021141529083251953,0.462918758392334,0.05058984,0.062186364,447.0881330055738,-0.08153565322284365,4.516797680110489,33.333333333333336,9600,3.170103073120117,0.03179741532553495,0.028120569864036712,440.62724651183635,25.0
192,7.215970754623413,452.0204825959474,97.31181854712476,795.423709576227,382.5174256392297,48.958333333333336,1.7696121772403717,0.1,0.019807815551757812,0.4695100784301758,0.04914551,0.05893963,447.58136796461116,-0.07966093588095269,4.514922397452381,48.958333333333336,9600,3.3762142658233643,0.03783405557661917,0.036861728120335224,449.3427733812375,43.75
193,7.024742841720581,467.2744682130774,115.94406733409893,786.9768929833292,388.9027668740697,40.625,1.8515306470097985,0.1,0.024535655975341797,0.4077744483947754,0.0494867,0.0563699,449.5506779894578,-0.0792207421499172,4.6661959245167495,40.625,9600,2.7730674743652344,0.0482466667109965,0.039681304138184,465.8240596165822,56.25
194,7.582596778869629,437.383179336874,85.86979621383806,754.7510881948074,385.871738532677,35.416666666666664,1.721636343431705,0.1,0.02664351463317871,0.42624616622924805,0.05002356,0.060404815,448.3339281241995,-0.08146057278335715,4.3681227605499755,35.416666666666664,9600,2.8249924182891846,0.035339660875968244,0.02902190838299219,452.1652964710562,62.5
195,7.087740898132324,439.95599870214375,93.65290409216735,774.8642180901657,389.2692130274567,33.333333333333336,1.8539544752666677,0.1,0.016976594924926758,0.4020273685455322,0.04937661,0.05469321,447.4961351819939,-0.08155933231734554,4.393440667682655,33.333333333333336,9600,2.7925033569335938,0.03099494914977314,0.029804217576817626,450.404544201534,62.5
196,7.4087300300598145,455.1356061234108,107.9533828098275,790.9423237310341,380.86753956750255,37.5,1.7638805639684823,0.1,0.022093534469604492,0.4641265869140625,0.049238063,0.059094027,448.26008227613556,-0.08101621902044394,4.545233780979555,37.5,9600,2.334768295288086,0.04717642468063158,0.03317008105541414,456.6540734941377,56.25
197,6.612723350524902,454.1303994288965,118.90956597056419,795.0597770019014,389.8788078089061,31.25,1.8804421979516606,0.1,0.020531415939331055,0.41686391830444336,0.049521003,0.05346485,448.8471139914117,-0.08024046843116676,4.5351761982355,31.25,9600,2.5568034648895264,0.042076103939152905,0.039342150706537855,471.6596553177751,50.0
198,7.099310636520386,443.0912836518487,95.46722810438301,782.7413625811306,380.8060690499754,30.208333333333332,1.7837054328871584,0.1,0.021728992462158203,0.45721006393432617,0.05009194,0.058060233,448.2715309574554,-0.08311913154416602,4.425630868455834,30.208333333333332,9600,2.681990385055542,0.03379219393459065,0.03283074034673808,469.78689060657206,50.0
199,6.6448986530303955,446.14028559784657,102.83947012500043,771.2419852055987,352.59978113760417,37.5,1.9167920227283715,0.1,0.01768970489501953,0.460857629776001,0.048371058,0.053263392,448.0584064214945,-0.08055400244461729,4.455695997555383,37.5,9600,2.6201870441436768,0.047705952280181416,0.04076724766262718,456.3173031662885,50.0
200,7.1188201904296875,455.5240915881657,108.70135222934054,795.0785612125476,386.1455026360983,35.416666666666664,1.8231896237404386,0.1,0.022486209869384766,0.44968461990356445,0.05066776,0.057149418,448.80497493816165,-0.08004614361097602,4.549953856389025,35.416666666666664,9600,2.7260429859161377,0.04211261438045162,0.0384783318508844,428.94383091090435,50.0
201,6.8447792530059814,444.49951890742994,93.18069593626079,782.8246317220267,320.97464714112726,36.458333333333336,1.9134190924747736,0.1,0.02275872230529785,0.46813416481018066,0.050274704,0.053081162,448.3744293350885,-0.08237451600149408,4.439708817331839,36.458333333333336,9600,2.664909601211548,0.031493175312812684,0.03013572216406709,425.6868296600304,50.0
202,7.14829421043396,431.61420096762185,82.75079778703588,767.0340972444075,389.1414389338584,29.166666666666668,1.9037009983218331,0.1,0.02296161651611328,0.46390867233276367,0.050507966,0.053768907,446.69840649834185,-0.08289294370449919,4.310857056295501,29.166666666666668,9600,2.7575814723968506,0.03379175243208667,0.030607097993997103,448.5806936917799,43.75
203,7.166212320327759,434.4576884909091,74.21267925607532,759.1388981657659,381.25827760404957,34.375,1.9392468616886807,0.1,0.02077198028564453,0.44937562942504883,0.049660116,0.052951615,445.4743346975986,-0.08236667937273412,4.339299987293932,34.375,9600,2.8204867839813232,0.021771886822748214,0.01955048087393483,435.5501897943239,43.75
204,7.30831503868103,448.9723712375223,111.15240436510366,791.0571354082746,380.8057512048046,29.166666666666668,1.7940713047496435,0.1,0.01381993293762207,0.4402337074279785,0.050391912,0.05944041,445.824138351591,-0.08222062502070478,4.484446041645962,29.166666666666668,9600,2.716500759124756,0.04662015688113326,0.04269191628654151,412.2987656203209,43.75
205,7.250878095626831,430.0099095734037,72.34391637769141,685.8707203545883,361.76275617516376,32.291666666666664,1.6412874307697107,0.1,0.016927242279052734,0.49764513969421387,0.049488604,0.05740268,444.24271547377225,-0.08185459808621968,4.294812068580447,32.291666666666664,9600,2.707592725753784,0.030182030963940003,0.017406826955602663,409.48237060464646,31.25
206,7.3017027378082275,455.06776905487976,101.27975270828637,771.0386418899377,389.19845410028,38.541666666666664,1.8225626042596919,0.1,0.0229799747467041,0.5184381008148193,0.049357288,0.055481795,445.32522083188303,-0.08002275354140455,4.545393913125262,38.541666666666664,9600,2.72357439994812,0.029088490114906412,0.023619077017688814,330.43239590290193,43.75
207,6.981868505477905,445.9642972687414,91.70803761794946,778.5306276685743,389.9265633659844,34.375,1.8518518396632275,0.1,0.02846670150756836,0.5363898277282715,0.050697222,0.058038615,445.3891284755689,-0.07981200750608818,4.4535213258272455,34.375,9600,2.3247430324554443,0.03093701975628064,0.027872163440865027,233.65579237410128,25.0
208,6.336241722106934,450.9578912564079,100.65753694290188,771.1115828841538,382.04297858174687,38.541666666666664,1.7258364517076574,0.1,0.022212982177734375,0.409299373626709,0.049645822,0.05837692,445.9460047536528,-0.08071138429302951,4.503871949040303,38.541666666666664,9600,2.372286319732666,0.03867281195383847,0.03191644481759591,275.68028135202394,31.25
209,6.359644412994385,430.90812938051704,72.09087301626934,746.8952327360537,386.1514603514072,32.291666666666664,1.7612973134175236,0.1,0.02016162872314453,0.4565420150756836,0.04882159,0.057483558,444.44221721633926,-0.08203578255969114,4.303797550773642,32.291666666666664,9600,2.3643548488616943,0.02818582713586343,0.024066901454946606,262.8041970622035,31.25
210,6.138402700424194,456.95958775790405,107.93069180717372,778.9728039635271,382.49035326005,41.666666666666664,1.782101502331396,0.1,0.017327308654785156,0.43482422828674316,0.05066686,0.060187954,445.69395427049574,-0.08068169534539804,4.564318304654602,41.666666666666664,9600,2.3408994674682617,0.03987391867170192,0.03395241761544058,213.0518459269112,25.0
211,6.537904739379883,441.74508100230724,96.9891461961037,795.0520518953228,360.43432021490145,34.375,1.8742117980714619,0.1,0.017522573471069336,0.4680659770965576,0.04973395,0.05316428,445.29906694367685,-0.08200838202638354,4.4117416179736155,34.375,9600,2.448054075241089,0.0412171051516339,0.03613066843665409,178.34215124631686,18.75
212,6.890475749969482,458.9680526587663,120.9548750196354,795.5213697331563,373.27790514965284,35.416666666666664,1.793604570672434,0.1,0.028025150299072266,0.47179388999938965,0.049248178,0.054542344,446.6659655151858,-0.07978076829361073,4.584385898373056,35.416666666666664,9600,2.626265287399292,0.04976900733339452,0.04368597026549108,174.01144865735947,18.75
213,6.651268243789673,455.03497548321076,110.51919106349719,786.7633773926361,389.8155460084088,38.541666666666664,1.76971747117437,0.1,0.02178025245666504,0.43643784523010254,0.05036603,0.059109353,447.5028665119883,-0.07910956724830019,4.544223766085032,38.541666666666664,9600,2.4851062297821045,0.049023581027866935,0.04679914975584296,170.79713150696867,12.5
214,6.693909645080566,456.42821536826176,117.05098088762414,794.9004048913532,256.4050073902466,39.583333333333336,1.6892082550151468,0.1,0.022864341735839844,0.41437292098999023,0.050317403,0.059882816,448.3954013976156,-0.08059996394317614,4.558150036056824,39.583333333333336,9600,2.5835156440734863,0.04732352906539627,0.042556663814912424,162.7205031752745,18.75
215,6.687302589416504,467.24636877716057,113.93403227117895,795.6699527073939,389.4829639484968,46.875,1.7131514028631811,0.1,0.022541284561157227,0.4806206226348877,0.049178526,0.058588844,450.28049813557016,-0.07949392764389754,4.666756072356103,46.875,9600,2.4880709648132324,0.03403130380154206,0.03091288372610449,217.01827863720084,18.75
216,5.826173543930054,448.657611510712,107.68217408564276,795.6184258229929,341.0984160235597,35.416666666666664,1.9224904426525358,0.1,0.021175384521484375,0.4116690158843994,0.049721535,0.054370243,450.11820947308433,-0.08079309231394241,4.481290241019391,35.416666666666664,9600,2.1577491760253906,0.041814272843522814,0.03652953474172736,246.77109313707385,50.0
217,6.409247636795044,461.71925598752586,112.65514699028614,795.2321593442041,280.9024385322102,43.75,1.8001032001608748,0.1,0.021624088287353516,0.44777345657348633,0.048842773,0.057079855,451.2783141245285,-0.07934441239249128,4.611072254274176,43.75,9600,2.3011550903320312,0.0503773704099695,0.04166252657068628,186.7764014403007,43.75
218,6.459667205810547,451.06647431270795,108.52453118524181,795.673213934098,366.6647663735054,35.416666666666664,1.8254335692101007,0.1,0.01956963539123535,0.40668487548828125,0.050140943,0.056844935,451.25713014334644,-0.08045605513367404,4.504960611532993,35.416666666666664,9600,2.4007678031921387,0.04831862186979531,0.04102988590186324,217.56967932849471,62.5
219,6.467775344848633,452.6775913763201,109.15311646680095,795.5126029504191,389.4626802239452,37.5,1.9558162397197403,0.1,0.01496267318725586,0.47252845764160156,0.049569737,0.054339528,451.39917626664385,-0.0793500646547841,4.521066602011882,37.5,9600,2.2785472869873047,0.03811622871528257,0.034369398868283725,253.09358867394693,62.5
220,6.536988019943237,442.8627589523351,99.85218623992412,795.3326904351059,344.6124978830981,35.416666666666664,1.9372283028981854,0.1,0.016523361206054688,0.41834425926208496,0.04952329,0.054341763,450.545534535213,-0.08081930646164617,4.42334736020502,35.416666666666664,9600,2.332348346710205,0.03443335877510071,0.030941448840510692,239.0960633797229,62.5
221,6.782765626907349,458.28907602114396,110.7036226419839,795.5310002294941,388.64338425853776,40.625,1.9260359467096442,0.1,0.026439905166625977,0.4579765796661377,0.049386945,0.055150867,451.3198886838061,-0.07906690186292585,4.576766431470407,40.625,9600,2.5181884765625,0.04592463936344568,0.04269750640150405,327.8654287324372,43.75
222,6.805108070373535,446.24391485833775,98.34090524741252,790.6570067362755,389.3989792960029,35.416666666666664,1.9015574671253712,0.1,0.019888877868652344,0.4436330795288086,0.050005794,0.05319793,450.8122913012593,-0.08034448413632266,4.457155515863678,35.416666666666664,9600,2.569561004638672,0.03523394946261681,0.03291638350727829,361.2872455478569,37.5
223,6.8420233726501465,448.85235539691166,110.74626666782638,794.8999376621318,388.8430011628313,35.416666666666664,1.8465023671495755,0.1,0.025058269500732422,0.4429507255554199,0.04967217,0.05648662,450.61629771082454,-0.08176891760372325,4.481981082396277,35.416666666666664,9600,2.4531781673431396,0.032658474943652406,0.027536394022306086,170.422983772969,31.25
224,6.827265024185181,433.86596270660704,91.20176455612761,767.2501021669625,123.17462507107825,30.208333333333332,1.847662067173649,0.1,0.03335714340209961,0.4659759998321533,0.049872804,0.056778833,448.9412642104028,-0.08204654558446596,4.333370121082201,30.208333333333332,9600,2.1449201107025146,0.03502707259378129,0.031516269713274786,167.85560841733604,31.25
225,6.114493370056152,442.60684639501983,105.7524801387834,795.8619842065282,337.21065486202724,31.25,1.7422148480249058,0.1,0.017216920852661133,0.4289681911468506,0.05051108,0.059727848,448.3078224288645,-0.08255200515637931,4.419531328176954,31.25,9600,1.9052813053131104,0.03429976328651138,0.03079860667207628,169.12357473744194,25.0
226,6.28214955329895,459.2936926913796,115.15631729287503,779.0651458624452,369.65630603853475,36.458333333333336,1.7550791574140014,0.1,0.014354705810546875,0.47136831283569336,0.049821083,0.062706776,449.40640945511603,-0.0802669420069081,4.586399724659758,36.458333333333336,9600,2.225180149078369,0.04394059486828585,0.03991326036102346,148.96974051202594,31.25
227,6.3857457637786865,445.0892836856012,85.61971626771127,758.8401108022024,373.6518422885605,39.583333333333336,1.8081945687159369,0.1,0.01769709587097168,0.438068151473999,0.049788393,0.055819232,448.9746968781646,-0.08022503918783518,4.445608294145498,39.583333333333336,9600,2.1051876544952393,0.03438080016851979,0.02982149299680229,162.26406936037012,43.75
228,6.03491997718811,445.6017196800153,101.03507224579778,767.7660872382579,389.64217666383934,27.083333333333332,1.615930289328816,0.1,0.020089387893676758,0.46660852432250977,0.0497542,0.0621537,448.6373991583497,-0.08051630513142775,4.450733694868572,27.083333333333332,9600,2.0013363361358643,0.0388477577593738,0.03228184350277465,144.16522542448786,18.75
229,6.294258117675781,451.0978004197338,97.73630408403783,786.7920418561578,389.26257899601507,38.541666666666664,1.6532230389493572,0.1,0.029691219329833984,0.40195536613464355,0.05021973,0.06251713,448.8834392844881,-0.0793134886962537,4.505686511303746,38.541666666666664,9600,2.28546404838562,0.041024084191397865,0.037229910327457164,168.33905504210304,25.0
230,6.126880407333374,478.7039161040889,125.15360593238822,787.4909577371159,389.5774914321159,45.833333333333336,1.8721829225286757,0.1,0.03334951400756836,0.4353599548339844,0.049577568,0.055373985,451.86548696644815,-0.07616632359275055,4.7817503430739166,45.833333333333336,9600,2.247312068939209,0.048476736705970074,0.0414074221003622,199.119014742336,18.75
231,6.572738885879517,454.3571458944623,101.52862649739055,758.6297635437573,356.90213326357434,37.5,1.7510416546872656,0.1,0.01832127571105957,0.46125340461730957,0.04968706,0.05742337,452.11465285924953,-0.08088706540669234,4.537446267926641,37.5,9600,2.155787229537964,0.03645794169768421,0.03247655285701372,161.07144739659583,12.5
232,6.426111221313477,449.49680417161886,105.63142594802436,794.9229296658634,272.2872940902395,33.333333333333336,1.7331277346016032,0.1,0.02210092544555664,0.4261481761932373,0.04961208,0.0593998,451.8528679904865,-0.081148330301806,4.4892683363648604,33.333333333333336,9600,2.343088150024414,0.031020222151469014,0.026598888579343602,147.6641354987901,12.5
233,6.11799430847168,446.9002601128796,97.8085665012414,758.1343241946765,377.2281374471476,32.291666666666664,1.7429787234042553,0.1,0.022536516189575195,0.4200284481048584,0.04940286,0.058539137,451.35760720272583,-0.0804516849479237,4.46288164838541,32.291666666666664,9600,2.381978988647461,0.034801272950645515,0.032079088501902886,126.75816942487994,6.25
234,5.629658222198486,442.1234734948392,97.54184763187156,795.2637365564644,389.0389198323068,31.25,1.775745882284097,0.1,0.017700672149658203,0.3803260326385498,0.049551465,0.059403542,450.4341938319372,-0.08197016707645595,4.41594649959021,31.25,9600,2.254307270050049,0.03880740633291146,0.03730554880287091,142.6536860719433,6.25
235,6.120540380477905,466.11551265976595,107.98734457518167,795.8534816062021,374.1579450419972,48.958333333333336,1.7229099110579826,0.1,0.021953105926513672,0.39241671562194824,0.050528396,0.05978007,452.0023257147201,-0.07788530587852109,4.6554480274548125,48.958333333333336,9600,2.598409414291382,0.03967073550716328,0.035091369453817335,144.53748634825314,0.0
236,6.172347784042358,447.5347790647549,119.02423299220048,795.106924276259,147.47170265625996,32.291666666666664,1.8879998202704116,0.1,0.019275426864624023,0.44252610206604004,0.04988833,0.057648726,451.5555710497236,-0.08203345236867027,4.468799880964663,32.291666666666664,9600,2.6751420497894287,0.042563080801839216,0.03851504832153604,159.8708791505187,6.25
237,6.108136415481567,450.5891789892733,99.54817243639553,782.9123344368222,369.2446358341155,37.5,1.8599003677669241,0.1,0.03561544418334961,0.37897443771362305,0.049211793,0.052923124,451.4589318436786,-0.08064786585717153,4.500185467476162,37.5,9600,2.554722785949707,0.04123048841075894,0.03291012216594723,140.88193677121097,6.25
238,6.309717655181885,460.75489262736255,115.13427644006562,786.9979660777062,384.7600525655773,36.458333333333336,1.895109837693423,0.1,0.017958402633666992,0.392575740814209,0.05037757,0.05466408,452.388527922047,-0.08065757737120068,4.6018424226288,36.458333333333336,9600,2.7008414268493652,0.045414226869814465,0.04228398763737121,150.12215629384403,0.0
239,6.335141658782959,434.6684227316339,92.58227937559008,795.0560053979144,388.95705813145435,30.208333333333332,1.9089978448725058,0.1,0.018053770065307617,0.40903496742248535,0.04924589,0.052105084,450.6165174030057,-0.08235480000960312,4.340978533323731,30.208333333333332,9600,2.3833229541778564,0.03189960658773423,0.02581915517779146,134.84143151574176,0.0
240,6.332728147506714,457.85866175710163,108.39203343626002,750.7627977902874,389.25000562074877,41.666666666666664,1.8949742031107375,0.1,0.024553537368774414,0.3737781047821045,0.04970366,0.05440045,451.3407318384153,-0.08003695859501837,4.572879708071649,41.666666666666664,9600,2.538362503051758,0.04427384083677979,0.040176366048147436,162.28180832512558,6.25
241,6.301424980163574,454.6617054682832,111.61311790406779,795.4554834298747,263.9017510933472,36.458333333333336,1.8556171140418847,0.1,0.01965045928955078,0.41878247261047363,0.049154866,0.055041403,451.6728292014021,-0.07993187808726922,4.5404847885793975,36.458333333333336,9600,2.542085647583008,0.04737603046787117,0.03688572321608239,148.34521151633854,0.0
242,6.3035454750061035,425.5638985289971,74.33738173010929,754.7607321839445,380.88680638448034,25.0,1.7593798088657473,0.1,0.019962310791015625,0.43080973625183105,0.049296558,0.057461035,449.0619361341616,-0.08423715698981203,4.249929509676854,25.0,9600,2.212435245513916,0.029107410546000103,0.025445421368670316,121.16015302231682,0.0
243,6.172820568084717,437.3141923551619,86.71107546185044,790.8844031325118,382.50463098599266,31.25,1.6820497101967988,0.1,0.016852140426635742,0.4450652599334717,0.049311567,0.0625539,447.8871617562616,-0.08256336678085724,4.36785329988581,31.25,9600,2.3874731063842773,0.02628605932382747,0.02442582678826076,118.76315484869053,0.0
244,6.350801706314087,429.71212701090354,79.62150960180844,783.0161369446217,360.9186435154723,30.208333333333332,1.707266983258425,0.1,0.020628929138183594,0.3959040641784668,0.049977887,0.06280155,446.06965828172576,-0.08233619312752648,4.29183047353914,30.208333333333332,9600,2.612300157546997,0.030141122058006436,0.02842159147842377,104.18691825326276,12.5
245,5.730799674987793,453.6733693936017,108.99512153521322,794.904965598113,369.1441326867777,34.375,1.7242561045522207,0.1,0.019425630569458008,0.4196739196777344,0.049305536,0.060392443,446.8300293929134,-0.08063615557895941,4.531030511087708,34.375,9600,2.2876365184783936,0.04434421747943089,0.03695263395783592,90.42628137045398,0.0
246,6.26203727722168,465.43385405160126,112.44119130503263,794.8758642974774,280.8794830790258,47.916666666666664,1.7603450935356757,0.1,0.02082347869873047,0.41710734367370605,0.050006133,0.055946123,448.69041185878217,-0.07886060208716818,4.649056064579498,47.916666666666664,9600,2.5181686878204346,0.048159318455264846,0.04606273089413348,93.83662659308996,12.5
247,6.423141002655029,457.6463740982039,110.29824489865052,794.9192195028444,364.916890471034,36.458333333333336,1.7964359909489764,0.1,0.0271456241607666,0.47326016426086426,0.04908153,0.058964692,449.5860080827244,-0.08090292266626285,4.571180410667071,36.458333333333336,9600,2.754638433456421,0.0451184392995478,0.040181451498922376,109.17652561045014,25.0
248,6.656311511993408,452.13668306348,100.73990125810599,774.5909866962998,377.31549185444953,38.541666666666664,1.8200364986481319,0.1,0.0251767635345459,0.422304630279541,0.048141383,0.053821824,449.84107558079995,-0.07975130778191021,4.516082025551423,38.541666666666664,9600,2.445089340209961,0.029528545748151443,0.02419643046646915,117.53013710651203,25.0
249,6.379000902175903,439.19856310780506,89.81146508078862,795.2848470401016,378.3870187722648,31.25,1.7911845570905223,0.1,0.01861572265625,0.42416810989379883,0.04978348,0.056870766,448.7768243335005,-0.08163989760095675,4.385860102399043,31.25,9600,2.6054210662841797,0.03180204507599581,0.024814933813168988,125.7153897342501,31.25
250,6.482774257659912,437.6210231209522,88.86604117740785,778.336495984065,368.96220690918176,33.333333333333336,1.7809704630822303,0.1,0.021534442901611328,0.44176578521728516,0.048059363,0.06097664,447.66124421224566,-0.08158365812793918,4.370499675205394,33.333333333333336,9600,2.3799450397491455,0.027387682625151104,0.026014294688347126,164.6429711188469,37.5
251,6.512935638427734,459.11145234068243,112.68681078878674,795.5331469353334,369.3490695598983,43.75,1.7837047986516545,0.1,0.02618861198425293,0.45906805992126465,0.050311014,0.057820976,448.8062650250894,-0.08001122044985225,4.584988779550148,43.75,9600,2.325761556625366,0.0336882076846612,0.03083976568664488,143.6859697798345,25.0
252,6.260205268859863,452.71054223244823,104.08243076496751,762.9984655670397,344.605955363772,38.541666666666664,1.772687049678845,0.1,0.023998022079467773,0.501598596572876,0.04874467,0.05841849,449.1966927458253,-0.0811063673161936,4.52097696601714,38.541666666666664,9600,2.632107734680176,0.03910236377015197,0.03712845134731915,203.27091227093223,25.0
253,6.404643535614014,461.44715436925463,99.10477148170604,766.5965159761613,377.2527301937894,53.125,1.9047620664365477,0.1,0.01922154426574707,0.43488144874572754,0.04873479,0.05419576,450.42173890816827,-0.07832113786546957,4.60917886213453,53.125,9600,2.764444589614868,0.03525503676132727,0.031142193593485967,201.97630727845512,43.75
254,6.45697283744812,452.9366990027301,104.83708690454046,775.5982886159188,389.15661187647663,35.416666666666664,1.9001687545587953,0.1,0.012981414794921875,0.42016172409057617,0.050602455,0.05380002,450.6732349176245,-0.08050576510400449,4.5240775682293295,35.416666666666664,9600,2.704225540161133,0.043011782359850724,0.039941341971189544,208.8402586256183,25.0
255,6.332730770111084,455.0407855784221,102.56726810758289,795.2900509544023,336.7397179274465,42.708333333333336,1.7772782159877967,0.1,0.019369125366210938,0.4171316623687744,0.049970888,0.055882376,451.1099899837042,-0.08071124368267359,4.54512208965066,42.708333333333336,9600,2.7591185569763184,0.03399981029470857,0.03136766770475626,144.21103306496755,18.75
256,7.236735582351685,445.76323395206435,93.6984148354034,795.230452825443,389.7832867748304,41.666666666666664,1.9086423697367605,0.1,0.01703023910522461,0.4652845859527588,0.049452655,0.05663857,450.57531438054025,-0.08098565111076911,4.451931015555898,41.666666666666664,9600,3.207508087158203,0.03230405206245928,0.027566521099659527,114.60817519168538,12.5
257,5.7900025844573975,446.3508211652268,108.56828517771962,795.7405197477481,362.01649972249794,35.416666666666664,1.7113841172699429,0.1,0.022985219955444336,0.3897392749786377,0.05018758,0.060667556,450.15286505900895,-0.0801220754956531,4.457377924504347,35.416666666666664,9600,2.870598793029785,0.04433876050590427,0.039085394712955676,99.64045052649652,18.75
258,6.453172445297241,445.99072939754984,99.8492647013717,786.7366306847401,364.7350620228149,34.375,1.7828239703623645,0.1,0.01440739631652832,0.45310187339782715,0.049242314,0.056534413,449.7366514928631,-0.08038789685176077,4.454195436481572,34.375,9600,2.8687760829925537,0.04414479239578514,0.03710148211334435,95.2504090497399,18.75
259,6.767843246459961,444.51449826417024,102.97400607289194,750.4465942009712,171.65591593135827,33.333333333333336,1.8201262872114747,0.1,0.029051780700683594,0.44887566566467285,0.049042884,0.053877056,449.2144361699938,-0.08263847211149662,4.439861527888503,33.333333333333336,9600,2.6544899940490723,0.04115107653745213,0.038148016718031814,146.92789273734002,31.25
260,6.612695217132568,453.5678251457402,112.080801003438,796.4099719125331,370.1142545702409,37.5,1.9064939970977262,0.1,0.012655019760131836,0.3965601921081543,0.048856694,0.054800715,449.64977506756844,-0.07961293046730215,4.529970402866031,37.5,9600,2.5668325424194336,0.046954111386223824,0.041995497390978694,116.32261651908922,37.5
261,6.372412204742432,449.42425832353564,95.84609720188796,762.269917791353,364.52791823118133,42.708333333333336,1.7895413296241514,0.1,0.022516727447509766,0.4102463722229004,0.049892627,0.057023533,449.6272233931652,-0.07938066104291593,4.48853600562375,42.708333333333336,9600,2.895465850830078,0.031890045195673226,0.028078541669011355,135.25502883062686,31.25
262,6.071313381195068,452.60331397922647,109.30364658711547,790.6929949424177,389.5851946638275,36.458333333333336,1.693279366350596,0.1,0.018210887908935547,0.4277176856994629,0.049188036,0.058854755,449.92483245177135,-0.08092022315035347,4.520329776849646,36.458333333333336,9600,2.8702685832977295,0.036956305219193776,0.032927066781408415,154.42901634624712,56.25
263,6.098247051239014,455.69191048506127,111.52225858444437,775.1050356220221,340.85260234658494,36.458333333333336,1.6983212435607067,0.1,0.014956474304199219,0.45172548294067383,0.04892578,0.061439093,450.50154025510034,-0.0796224290755177,4.551627570924482,36.458333333333336,9600,2.906461715698242,0.03584009646297658,0.03177977384477963,162.58366677656056,43.75
264,6.415498971939087,468.76317992032773,117.49400778637578,791.1290701031901,224.0867452255706,40.625,1.8064268775497223,0.1,0.018529891967773438,0.3967726230621338,0.049437985,0.054026492,452.3277042216231,-0.07848947812303902,4.682343855210294,40.625,9600,2.981605291366577,0.04725227683840754,0.04261966089842121,154.8683382862586,56.25
265,6.297901153564453,474.99006899135867,124.6693898201313,795.1037292450803,320.83729778386623,43.75,1.912851605002645,0.1,0.016835927963256836,0.41666722297668457,0.048780367,0.052272666,454.59394069859667,-0.07747518230136392,4.744191484365302,43.75,9600,2.955368995666504,0.05364013398022371,0.0471896212113187,139.18834850520298,62.5
266,6.549391269683838,458.97680194891404,108.20573813846246,795.1149119839162,389.891921866828,35.416666666666664,1.8492578725057245,0.1,0.02347731590270996,0.4185159206390381,0.04916436,0.054808583,455.0322268236284,-0.0792733815959828,4.584476618404018,35.416666666666664,9600,2.9679512977600098,0.03502406565620306,0.031233147433053852,100.39721618887239,56.25
267,6.326234579086304,442.96263216481066,101.14492227619299,792.4713760459662,288.9403165687389,33.333333333333336,2.04040786679528,0.1,0.021013736724853516,0.4556088447570801,0.0499878,0.048766512,453.8252673577466,-0.08107602459679052,4.424340642069876,33.333333333333336,9600,2.883579730987549,0.0359938033356164,0.031026884828417672,94.24554903823199,50.0
268,6.764319658279419,458.7211015749728,117.98232710329816,794.5904146822438,300.2785804952591,36.458333333333336,1.8967711227528363,0.1,0.02004861831665039,0.4102668762207031,0.049890794,0.054539897,454.3148507794692,-0.08016233065235494,4.581087669347645,36.458333333333336,9600,2.790631055831909,0.04664426947426124,0.04210820304490161,90.76739866440884,56.25
269,6.497055530548096,457.30151489130384,111.59135113616514,774.9808687805647,370.09556326866965,43.75,1.7511698745427131,0.1,0.0238494873046875,0.42100048065185547,0.04940281,0.05707981,454.6135171906527,-0.07935541279855844,4.566894587201442,43.75,9600,3.2176976203918457,0.0391202334253293,0.03515592987734268,120.3983520328938,50.0
270,6.674920082092285,457.84419315273635,116.82081914141125,795.5435653180598,389.6841003549442,36.458333333333336,1.8150110173305538,0.1,0.02188849449157715,0.4433410167694092,0.049448427,0.053398512,454.9365847868611,-0.07935038654608918,4.572316280120578,36.458333333333336,9600,2.708866834640503,0.04245852929814944,0.03931029707422615,110.08867461616089,50.0
271,6.454106330871582,454.4917419712988,111.43018268295846,795.2853554293283,388.63777060150653,31.25,1.865947279392236,0.1,0.02149367332458496,0.43318605422973633,0.049297735,0.055353634,454.8921005053049,-0.08078969902673043,4.539210300973269,31.25,9600,2.8835747241973877,0.033809606730036385,0.03127468863634979,150.7007106078613,50.0
272,6.400934457778931,459.00235763652864,109.97967368296952,795.8280523839046,389.55224495350365,37.5,1.9173435943599746,0.1,0.016269445419311523,0.4409630298614502,0.05046814,0.05298419,455.3031262184273,-0.07859289697335596,4.584740436359977,37.5,9600,2.9949841499328613,0.04046168372486052,0.0379077178755199,174.73626400178546,50.0
273,6.985456228256226,467.3060262288347,105.50933887775702,794.9711424303894,353.57999656182307,47.916666666666664,1.9230478106663933,0.1,0.020613670349121094,0.4259181022644043,0.049074132,0.05224014,456.503416219468,-0.07765468613155523,4.666928647201778,47.916666666666664,9600,2.9135489463806152,0.032046240642981665,0.029357865512320665,180.9314508774762,56.25
274,6.579847574234009,442.680329773659,97.58815534482926,795.3198555257778,377.5040546530575,36.458333333333336,1.904859902591911,0.1,0.02466583251953125,0.4135143756866455,0.049396656,0.05391432,455.12110757488716,-0.08140665925642344,4.421093340743577,36.458333333333336,9600,2.934159517288208,0.03697191327923572,0.03294265003416504,173.6479264725912,43.75
275,6.572080135345459,448.51987171187244,100.06323181180109,786.9932527792819,373.5027654146699,34.375,1.9094532960173805,0.1,0.015779733657836914,0.4258604049682617,0.049228135,0.05189222,454.4609839885857,-0.08091999900729012,4.480330000992709,34.375,9600,2.887732744216919,0.030923131719602946,0.02857210419326604,165.01359724378227,43.75
276,6.527052640914917,450.2146744329946,105.53443105087855,795.1376953684036,382.62779443871204,34.375,1.7867883941801441,0.1,0.01641249656677246,0.39557862281799316,0.049105745,0.05758816,454.0363530330266,-0.07939274500512207,4.496440588328212,34.375,9600,2.9326062202453613,0.03358635741410164,0.03188576155085169,187.20928098944415,37.5
277,6.831028938293457,469.496919000163,116.35088885983095,790.8879847144025,389.6044779758626,39.583333333333336,1.7861777409511375,0.1,0.02049875259399414,0.4745364189147949,0.04918517,0.057103947,455.58240962974025,-0.07782842150992923,4.688421578490071,39.583333333333336,9600,2.9254722595214844,0.03429129424174192,0.028345713393481742,198.17966178669877,43.75
278,6.499837875366211,459.2879993973476,101.83716018623615,795.3004354758968,381.3905092518238,43.75,1.7460700832711835,0.1,0.021669626235961914,0.42551755905151367,0.048585657,0.05582489,455.952968606501,-0.07908311320274551,4.586750220130588,43.75,9600,2.584407091140747,0.036987980357461786,0.03218007197297778,216.50028320485336,43.75
279,6.862359046936035,457.32456750301634,110.34251362949487,791.4560796929812,368.89689889517746,35.416666666666664,1.9085530140084717,0.1,0.021625280380249023,0.46208667755126953,0.04918388,0.0532631,456.09012849615254,-0.08037209063612938,4.567961242697204,35.416666666666664,9600,2.703226089477539,0.040481599894347076,0.03593726358927698,228.61689737135418,43.75
280,6.591864109039307,451.90241597464524,108.70324526178065,795.4193024188062,388.9435427523615,32.291666666666664,1.856766420543939,0.1,0.023560285568237305,0.438840389251709,0.049607743,0.056396883,455.67135724400185,-0.08001576601801903,4.5133175673153145,32.291666666666664,9600,2.652376174926758,0.03323380394408847,0.030821683153461354,235.2241781431133,43.75
281,6.442815542221069,443.66577941461577,102.50352217038424,795.1108790085539,316.4796486780061,29.166666666666668,1.8456036949019623,0.1,0.020221471786499023,0.4288821220397949,0.048518732,0.052586075,454.4707994610632,-0.08071528530226581,4.430951381364401,29.166666666666668,9600,2.698396682739258,0.03169924971404776,0.028518204017124675,232.4718880149378,43.75
282,6.391760349273682,463.4437435684742,113.54055091662042,795.3359687950056,385.96168543415655,41.666666666666664,1.8176933940081366,0.1,0.01774001121520996,0.40419507026672363,0.04819643,0.0562775,455.3680938718043,-0.07876626942923036,4.62873373057077,41.666666666666664,9600,2.8857009410858154,0.036147925011583246,0.032794549088037625,209.71087740725963,43.75
283,6.580464839935303,448.1179615242199,90.6303034702428,742.1495907065446,332.6304911824096,38.541666666666664,1.7065203891785679,0.1,0.020865917205810547,0.4349546432495117,0.049607616,0.06052667,454.6430806370459,-0.08077112454691293,4.475895542119754,38.541666666666664,9600,2.872727870941162,0.039159079716425994,0.030616439280149888,193.34559566427248,43.75
284,6.475641965866089,443.4484308853528,84.63964763554775,698.1982149660608,364.87717255823213,42.708333333333336,1.8576663409907108,0.1,0.02255392074584961,0.4909486770629883,0.04921933,0.057836283,453.5236156618766,-0.08080555297904068,4.429194447020959,42.708333333333336,9600,3.0296735763549805,0.028351466663358516,0.025523752128037418,154.0512249976356,50.0
285,6.474023818969727,432.20500532148566,88.82045527701894,795.1452926320039,344.83096208281665,30.208333333333332,1.8119677096848934,0.1,0.02000594139099121,0.45054006576538086,0.04994209,0.05683698,451.3917546278375,-0.08198934459391573,4.316343988739418,30.208333333333332,9600,3.066249132156372,0.038875819188410994,0.0332683980598273,152.74556446783097,43.75
286,6.4987897872924805,486.90651237252695,127.89239462117031,782.9249206649474,316.9319794726215,52.083333333333336,1.9079114459991056,0.1,0.028730392456054688,0.41648077964782715,0.049098026,0.053449176,454.9432304023064,-0.0758132021225988,4.862936797877401,52.083333333333336,9600,2.579453706741333,0.05459771316336053,0.04206879722572032,174.167622834754,50.0
287,6.47100043296814,459.8139641026972,111.15407992237868,775.0423689184807,357.18869756745465,46.875,1.6666335898329858,0.1,0.022481918334960938,0.4087226390838623,0.049559407,0.060637943,455.4303037723455,-0.080058263203951,4.592858403462716,46.875,9600,2.8299973011016846,0.04178823344552258,0.0369148618455602,183.9002778105955,56.25
288,6.677325010299683,460.60247723080784,101.07633559750892,766.8033410892292,389.21233698049315,43.75,1.8723368891952532,0.1,0.03194713592529297,0.43253016471862793,0.050424132,0.05491091,455.9475211181918,-0.07885451562019914,4.599895484379801,43.75,9600,2.9300858974456787,0.03437104985294721,0.030834630648199596,197.14161237589914,56.25
289,6.198139429092407,440.99645436958986,87.38350194995215,754.4984280508684,385.77152096450504,33.333333333333336,1.7056815942597565,0.1,0.01815032958984375,0.4085707664489746,0.049279537,0.058968436,454.45241444333163,-0.0807388064381165,4.404261193561884,33.333333333333336,9600,2.8874995708465576,0.03804522851414659,0.02747939243778149,186.19591812825252,56.25
290,6.536694765090942,435.01875421429025,91.6150676423831,795.562972473016,312.32633716468285,31.25,1.5942809927491302,0.1,0.022203683853149414,0.4327058792114258,0.047900777,0.06381441,452.5090484204275,-0.08342850473769008,4.344904828595644,31.25,9600,2.8597209453582764,0.03174638538079729,0.027582880030996095,184.32605998080714,62.5
291,6.422031879425049,451.55472422102594,107.900991919822,787.0493299891147,340.76959397171635,35.416666666666664,1.8605919262929875,0.1,0.01378321647644043,0.4134073257446289,0.050379913,0.057922438,452.41361600048737,-0.07973317046651135,4.510266829533489,35.416666666666664,9600,2.70525860786438,0.04442548974337003,0.04011448673609502,185.05815212259898,43.75
292,6.515053749084473,458.1007483304481,105.93387281490885,795.900744918247,313.0499998200597,40.625,1.839403068319982,0.1,0.015626192092895508,0.4229907989501953,0.04990474,0.055236883,452.9823292334835,-0.07970058908247578,4.5757160775841905,40.625,9600,2.742398738861084,0.037933926882032884,0.03490928705511105,187.33800738855217,50.0
293,6.524036884307861,468.6746003973378,116.52343281663414,795.5317863390777,348.1576726177995,42.708333333333336,1.8558134575193213,0.1,0.03354048728942871,0.44867539405822754,0.049878407,0.056919605,454.5515563498689,-0.07854715598365192,4.681036177349681,42.708333333333336,9600,2.91882586479187,0.03201351141398312,0.028871057721714177,236.80070190698024,56.25
294,6.633596897125244,440.6876765283624,87.16702572376947,734.6855536495539,312.79491313088846,35.416666666666664,1.9208037514891123,0.1,0.024649620056152344,0.4661428928375244,0.049270853,0.052459616,453.16516836771825,-0.08133008953419353,4.401586577132473,35.416666666666664,9600,2.664945363998413,0.04048241221311059,0.03255944338358703,213.5701086608798,56.25
295,6.601306915283203,467.04919956745624,114.03756617234042,795.5734492214716,369.3982545287119,46.875,1.896563461418633,0.1,0.0170748233795166,0.4124159812927246,0.049592186,0.056879237,454.55357148769207,-0.07729787538570611,4.664785457947627,46.875,9600,2.504305839538574,0.04099678867328879,0.03418390921773489,211.3379352770096,56.25
296,6.602102994918823,461.39204820822516,108.83197511793752,795.0635349385259,377.45497664256015,41.666666666666664,1.816080165900702,0.1,0.016761064529418945,0.4586315155029297,0.05090663,0.058161873,455.23741915974534,-0.07929314781981785,4.608206852180182,41.666666666666664,9600,2.7920703887939453,0.04248544992107777,0.03067738937691351,298.54300899930786,62.5
297,6.702881336212158,458.23873220890437,113.75076278546742,795.5920611912725,372.6870569337789,38.541666666666664,1.7919862451583686,0.1,0.019617557525634766,0.4359867572784424,0.04964403,0.056876354,455.53755046466125,-0.08123247092561002,4.577100862407723,38.541666666666664,9600,2.6319994926452637,0.03250335412546912,0.028237150282689832,350.9388998569574,62.5
298,6.471149444580078,465.21523557095605,113.20854661893743,782.6830308373138,389.8631532120143,40.625,1.9652844252272912,0.1,0.024220943450927734,0.4274919033050537,0.05102269,0.050217334,456.5053189752907,-0.07772349447397668,4.646859838859356,40.625,9600,2.5076818466186523,0.04533701270756394,0.035847724814899444,389.8005324016613,62.5
299,6.395354986190796,449.0160786410088,107.83156545663634,762.9478930992698,131.8643459624308,39.583333333333336,1.6276783923362141,0.1,0.02102494239807129,0.43207526206970215,0.049900416,0.06115082,455.75639494186254,-0.07930090276688291,4.484449097233117,39.583333333333336,9600,2.5967438220977783,0.04086879349423785,0.03666766293776302,375.442300536532,62.5
300,6.308088302612305,455.9466681190927,117.54370485835935,795.0239373745167,336.5443107235171,37.5,1.8498510141173716,0.1,0.019005775451660156,0.4130415916442871,0.049911395,0.054785393,455.7754222595856,-0.08081891187976359,4.553347754786903,37.5,9600,2.595285415649414,0.042426538633546146,0.037701753160386764,384.3679467387923,50.0
301,6.2302491664886475,437.1968957671483,85.70208235251674,758.7390107553186,385.8129866861218,35.416666666666664,1.8973489681527114,0.1,0.0196840763092041,0.4422471523284912,0.050852157,0.052549303,453.91756961034184,-0.0816520529676286,4.3662646136990375,35.416666666666664,9600,2.564387559890747,0.041847441003016045,0.03290932410318533,393.6531397008242,31.25
302,6.55807900428772,445.8015359972415,98.37629327099276,750.2019452768119,320.61847563582586,34.375,1.798926934094987,0.1,0.018241405487060547,0.45648765563964844,0.0500289,0.05676951,453.10596624903184,-0.0806078493876261,4.45230881727904,34.375,9600,2.3774948120117188,0.033307093414214936,0.02572453989743311,396.2241232776223,31.25
303,6.462263584136963,442.3350051364498,100.05347342112,794.7413256008167,248.2418059564404,33.333333333333336,1.8584193074778352,0.1,0.020337820053100586,0.5210175514221191,0.04891569,0.05241941,452.02887013777365,-0.08152393533268466,4.417226064667315,33.333333333333336,9600,2.4006400108337402,0.03421167824487014,0.02976936056128698,407.60883099209093,43.75
304,6.393110990524292,476.6622600371199,124.77743668838194,795.1326424951068,389.48516914098917,47.916666666666664,1.8356909641415589,0.1,0.02063775062561035,0.4325404167175293,0.04936583,0.05715759,454.4922091277083,-0.07825382165968851,4.760079511673645,47.916666666666664,9600,2.6569650173187256,0.039826431776047895,0.03756926559931635,402.67288705353104,25.0
305,6.4001007080078125,448.87335164222304,92.32919675731118,779.2029346702521,389.5070394058043,44.791666666666664,1.9444348449751647,0.1,0.019638538360595703,0.3924574851989746,0.05013146,0.053794745,453.93032337915974,-0.07905432239710762,4.483445677602892,44.791666666666664,9600,2.510887861251831,0.038481591991734024,0.03350162786582763,378.94462143147837,12.5
306,6.599152565002441,449.19703550287085,91.39837831948367,791.3047927717397,378.00159603746437,36.458333333333336,1.9055818456777038,0.1,0.018342018127441406,0.3731398582458496,0.049451813,0.05361674,453.4569945915309,-0.08081104847343513,4.486688951526564,36.458333333333336,9600,2.2643537521362305,0.03093797277574165,0.028367709814092285,361.43086797313504,18.75
307,5.707479476928711,448.0600297973394,101.44741247924465,783.1008947315631,389.93557725035356,34.375,1.7936750251366114,0.1,0.015952348709106445,0.41776561737060547,0.04865414,0.053920273,452.9172981121117,-0.07969020463819078,4.4753097953618095,34.375,9600,2.677273750305176,0.03735939350140854,0.0338154788760983,333.50263175941564,25.0
308,6.103089332580566,452.7744678706315,101.32029239775038,795.1421278388619,389.45675070885534,38.541666666666664,1.721553370346536,0.1,0.023703336715698242,0.39015865325927734,0.0479642,0.060760815,452.9030150879637,-0.07879787768682849,4.5224521223131715,38.541666666666664,9600,2.3390374183654785,0.03210447982760491,0.027277809024117805,263.25826621722115,12.5
309,6.02055549621582,442.6905997593258,96.61978155637502,786.7833902716363,369.08967116302847,35.416666666666664,1.788604081321191,0.1,0.0224459171295166,0.4390420913696289,0.049135063,0.056351483,451.8817735550999,-0.08005259887709343,4.421614067789573,35.416666666666664,9600,2.743459939956665,0.040666104806570146,0.03096556507465658,331.92351683421674,12.5
310,6.092105150222778,457.44726029279747,120.4762176659649,794.8320175650757,196.09006168179482,36.458333333333336,1.7646801643541106,0.1,0.017523527145385742,0.4017622470855713,0.049290493,0.057130527,452.43832222886965,-0.07915325237842412,4.5687634142882425,36.458333333333336,9600,2.856064558029175,0.05751185645034353,0.04881811356094194,313.6649534161981,12.5
311,5.972201347351074,451.55012666809506,98.66447461639288,795.1297504248519,334.30394305857783,35.416666666666664,1.7941908154188044,0.1,0.013959169387817383,0.4461705684661865,0.048871007,0.056577172,452.3495026727922,-0.08020798392023469,4.509792016079765,35.416666666666664,9600,2.538381814956665,0.03127462799086368,0.022304656320432582,279.60559595825913,12.5
312,6.062878370285034,457.433876761984,112.85171163418602,795.2946508983862,373.19868620775657,34.375,1.7030069903258471,0.1,0.025270462036132812,0.4233527183532715,0.049014993,0.062505975,452.8579400817114,-0.08054057109813521,4.5677927622351975,34.375,9600,2.3046605587005615,0.04160800782127985,0.036494943643588976,288.2557968909153,25.0
313,6.18925404548645,437.8755337509712,94.29307120281484,795.9293165233058,350.1731439422664,32.291666666666664,1.7980345254336285,0.1,0.019119977951049805,0.43241238594055176,0.048124313,0.05437052,451.35969944863734,-0.08070197377602381,4.373464692890643,32.291666666666664,9600,2.6589298248291016,0.03426583764608442,0.027265541942322412,266.81264669006725,25.0
314,5.9770612716674805,460.7821625643367,113.27543733289208,791.5903629167801,357.1008318207786,41.666666666666664,1.7782045705105454,0.1,0.014612913131713867,0.4241209030151367,0.048585217,0.059424516,452.3019457602073,-0.07955518733929924,4.602111479327367,41.666666666666664,9600,2.8283698558807373,0.03387692354244863,0.030136431593310718,265.2585762212267,50.0
315,6.24407434463501,462.37438145177083,110.73328643606015,794.8300718234509,373.8768259981538,44.791666666666664,1.7206367131956757,0.1,0.01988506317138672,0.44049596786499023,0.04904691,0.05814501,453.3091893293636,-0.07821254141992813,4.618037458580072,44.791666666666664,9600,2.9572246074676514,0.042750218802041676,0.037763916470193525,319.9581228537284,50.0
316,6.18988561630249,465.9265728559256,116.24542137307596,796.7218808842869,388.9655545143814,41.666666666666664,1.745018997309007,0.1,0.021782636642456055,0.41304826736450195,0.04909256,0.060602505,454.5709276820198,-0.0789424191859089,4.65355758081409,41.666666666666664,9600,2.907158613204956,0.04510121642740371,0.03741988216197908,308.25348985452996,56.25
317,6.227579355239868,459.61652769317453,110.35193474020461,790.8388763306923,358.6801284805154,37.5,1.7868542759417438,0.1,0.01988530158996582,0.410017728805542,0.047960024,0.057364557,455.0754876831353,-0.07954533491696779,4.590037998416365,37.5,9600,2.610579490661621,0.03599868067995387,0.032424384448165575,303.1262132377184,62.5
318,6.128711462020874,485.5030924538389,123.22844362755954,784.5302447820588,389.7688559882002,47.916666666666664,1.7017874851300583,0.1,0.013796567916870117,0.4246864318847656,0.04966391,0.059826683,458.11824816020567,-0.07651572701336741,4.848900939653299,47.916666666666664,9600,2.778627872467041,0.03692105954726547,0.03170409062592477,303.1938473282922,68.75
319,6.3934006690979,445.56245455809307,100.55430524904175,795.1737446024257,368.7454124884241,34.375,1.8297112849498822,0.1,0.018744468688964844,0.41116952896118164,0.05010837,0.05519455,456.8626687999944,-0.0804958373680401,4.450337495965293,34.375,9600,2.938021183013916,0.04168826331658785,0.03164481921877364,351.79101209330724,68.75
320,6.518424034118652,430.18292147705597,77.43068939652899,763.0040971894592,389.1794362859822,34.375,1.730276407247398,0.1,0.02348017692565918,0.43445324897766113,0.050484937,0.056181356,454.1946940677006,-0.08053908282668108,4.296544250506653,34.375,9600,2.9090542793273926,0.04170890545791041,0.026156352965029855,399.54113984858907,68.75
321,6.48919939994812,451.91817844149864,104.7743283582538,795.2598407160613,389.55365630030246,37.5,1.7324874317698686,0.1,0.021848440170288086,0.40450048446655273,0.049453124,0.06036042,453.96704250508037,-0.07901935957524325,4.5138973070914234,37.5,9600,2.8850491046905518,0.047023105637199816,0.03835219227757108,412.7824418758492,62.5
322,6.59589147567749,471.2873979416426,114.56727652298619,774.5879608646314,389.008668210942,43.75,1.8872915338341458,0.1,0.021022558212280273,0.43431830406188965,0.050465547,0.05483042,455.6990780487366,-0.07741932087238029,4.705914012460952,43.75,9600,3.0591259002685547,0.04856099886565592,0.03815292820413366,386.12152955001136,68.75
323,6.682356357574463,490.3843689150821,128.25488530591716,796.0656579916958,389.04003380207587,53.125,1.8660391342388274,0.1,0.016663074493408203,0.4473116397857666,0.048432168,0.053158145,459.1676071353712,-0.07478970981815881,4.897293623515174,53.125,9600,2.755349636077881,0.050445386919403895,0.04666866105389119,356.82436433234983,75.0
324,6.681150436401367,464.33094445192654,116.62338295977771,791.3370229552721,382.3863799651187,36.458333333333336,1.8593639596462876,0.1,0.018486499786376953,0.4594113826751709,0.04891587,0.055756934,459.68394086702676,-0.07947618407602139,4.637607149257312,36.458333333333336,9600,2.8339290618896484,0.04144227354044983,0.03655570148657152,324.8007136521168,68.75
325,6.802337169647217,467.68500521047304,122.16938307256203,795.0416262968707,380.637024657798,40.625,1.7527911517969041,0.1,0.01947617530822754,0.4112741947174072,0.04937952,0.058700345,460.4840473013714,-0.07802158832952578,4.671145078337141,40.625,9600,2.9426424503326416,0.04232026667492538,0.036225659292880984,309.94174536402573,75.0
326,6.413385629653931,459.38010294284913,112.21019304576363,796.2558462528137,389.20491999203915,36.458333333333336,1.7548482021133816,0.1,0.01687026023864746,0.40880274772644043,0.04931196,0.057559274,460.3736528655192,-0.07691383523803162,4.587252831428636,36.458333333333336,9600,2.905001163482666,0.04371837462280087,0.03638112357549654,321.397772115519,68.75
327,6.492050409317017,468.0273483159147,112.35677859688097,795.138214732552,382.09102322678115,46.875,1.7300776747100635,0.1,0.01630997657775879,0.399822473526001,0.05007656,0.059220843,461.13902241055877,-0.07751714768096846,4.674566185652364,46.875,9600,2.87689208984375,0.04590737074911634,0.040064910066555146,330.49472669143574,62.5
328,6.065202236175537,456.15742020741874,106.20000691280485,762.4998420201844,378.583178594497,39.583333333333336,1.6884121102964682,0.1,0.01329183578491211,0.44260358810424805,0.049815968,0.06073183,460.6408621902448,-0.0795547755151141,4.555445224484886,39.583333333333336,9600,2.7731831073760986,0.03300042070752771,0.028918902026967994,324.6120151107843,62.5
329,6.555086135864258,446.4175361727312,98.7758900125835,782.8112223131906,369.5098659560676,36.458333333333336,1.8007702357882545,0.1,0.0163421630859375,0.38390278816223145,0.048695702,0.05569828,459.2185295884934,-0.07778185230692711,4.458468147693073,36.458333333333336,9600,2.902968406677246,0.04221039587350454,0.0366755688105307,315.5905028189601,62.5
330,6.484792709350586,465.13745046495814,124.48818272369157,796.1305326022979,389.23075737517837,35.416666666666664,1.7660349153638144,0.1,0.01938772201538086,0.4372518062591553,0.050245367,0.0618102,459.81042167613987,-0.07766431759960703,4.646085682400393,35.416666666666664,9600,2.8268842697143555,0.04900279917102658,0.04309027018621108,357.589550560984,62.5
331,6.706400156021118,464.2439584855647,113.5646461263976,795.1546620046096,341.55826517649626,43.75,1.7147453351419908,0.1,0.015623807907104492,0.4249081611633301,0.048984732,0.05911186,460.25377535708236,-0.07785068667872715,4.636732646654607,43.75,9600,2.842629909515381,0.04331117920707571,0.0362208414626853,346.67809050799144,62.5
332,6.657263517379761,446.60966637268103,89.62441626179745,722.34536748237,373.21885685392596,37.5,1.8025816847032847,0.1,0.01564311981201172,0.47237658500671387,0.049905512,0.056863114,458.88936445864226,-0.07836190677420934,4.460388093225791,37.5,9600,3.0069327354431152,0.045602182064114406,0.03362087321372909,372.45670535426416,62.5
333,6.742962598800659,473.0315848458644,124.93087104547679,795.2704025659374,389.50900195882116,47.916666666666664,1.8712970843752712,0.1,0.018640995025634766,0.4104423522949219,0.050952744,0.056740236,460.3035864973645,-0.07664536362701241,4.724604636372987,47.916666666666664,9600,2.8628549575805664,0.05368813742040159,0.04742307691621749,355.3574438780244,62.5
334,6.713036060333252,450.19517529006947,110.1580916337952,795.0908691889703,377.85149716627865,31.25,1.8444244890332764,0.1,0.019362688064575195,0.4198150634765625,0.05103613,0.05545748,459.292745376635,-0.07917474075062036,4.496241925916046,31.25,9600,2.8835482597351074,0.05789797511382295,0.04129117114182525,363.581180176498,62.5
335,6.573474407196045,450.61932276476364,111.11947049859002,795.0069803711659,381.2082331160362,35.416666666666664,1.7102473483748553,0.1,0.01731109619140625,0.4449763298034668,0.048487652,0.058023028,458.4254031154479,-0.08034742561389904,4.500485907719434,35.416666666666664,9600,2.9663290977478027,0.045526241652968,0.04058277718865638,359.895106375756,62.5
336,6.7779786586761475,473.4215052784944,127.04529894869457,795.4663127292881,389.7758783234769,42.708333333333336,1.774432986664458,0.1,0.024114608764648438,0.4072871208190918,0.0474778,0.05975584,459.92501333175255,-0.07650060705514264,4.727666059611524,42.708333333333336,9600,3.08833384513855,0.04584778865758268,0.034778802206471095,309.195995418595,68.75
