iteration,time_sampling,stoc_pol_mean,stoc_pol_std,stoc_pol_max,stoc_pol_min,rollout_success,alpha,delta,time_vpg,time_npg,kl_dist,surr_improvement,running_score,rwd_sparse,rwd_dense,success_percentage,num_samples,time_VF,VF_error_before,VF_error_after,eval_score,eval_success
0,2.1275362968444824,-5.463028540632905,198.80761970834726,629.2757828153626,-277.2735967491002,62.5,2.7340354028743574,0.1,0.055565834045410156,0.1714615821838379,0.049126178,0.037049614,-5.463028540632905,-0.760131137125454,-0.05632437684323893,62.5,9600,0.8899774551391602,0.9999593400048037,0.8928866280854473,-97.75587300316195,0.0
1,1.8966801166534424,84.22019680461803,192.0239911804221,660.2770938066303,-222.69962411004747,80.20833333333333,2.7438396603501576,0.1,0.008603334426879883,0.1705460548400879,0.0659552,0.041755475,3.505293993892188,-0.509648383132513,0.8384740584296765,80.20833333333333,9600,0.8637635707855225,0.9028194139281452,0.7326422238705308,-2.591769305812253,25.0
2,1.8602769374847412,176.04399510528265,204.18883277407036,660.1902216507999,-182.66952185057445,91.66666666666667,2.7273362361464724,0.1,0.008697986602783203,0.1720271110534668,0.05404415,0.037693653,20.759164105031232,-0.3640337945801904,1.7562958807407234,91.66666666666667,9600,0.8617799282073975,0.670178716731488,0.5767298417209089,322.5777617602898,81.25
3,1.8628957271575928,255.2290952738364,189.7303914549316,693.0752631478605,-132.67139857414085,96.875,3.0898594944080155,0.1,0.008286714553833008,0.17096424102783203,0.05971382,0.036202315,44.20615722191175,-0.2890003228269511,2.547655964410827,96.875,9600,0.8653757572174072,0.450478251998973,0.32952900917877054,281.07734916660826,75.0
4,2.0382049083709717,343.67770636922086,160.98812567327334,673.7610329147085,-5.662693945691412,100.0,2.945269425780414,0.1,0.008242130279541016,0.1802353858947754,0.054807626,0.03430905,74.15331213664267,-0.23459122602954183,3.429045328576205,100.0,9600,1.0288317203521729,0.2744931760359293,0.18666168571141414,552.3507540656769,100.0
5,1.8461732864379883,380.23517602761194,159.09711184030388,698.4364600018588,-60.63087985134122,100.0,3.064569347465912,0.1,0.008788108825683594,0.17026257514953613,0.057279292,0.035049375,104.7614985257396,-0.213901500079643,3.7927236662314594,100.0,9600,1.3722329139709473,0.15704567473071782,0.14218873010040828,587.0584957032069,100.0
6,1.9973137378692627,441.00358405593585,145.61726206141483,691.9013562969003,-4.055779170173395,98.95833333333333,2.3741078213261413,0.1,0.008005857467651367,0.1700725555419922,0.058761973,0.059954382,138.38570707875922,-0.18483712466831412,4.4005842360608804,98.95833333333333,9600,1.444002389907837,0.1101219539198303,0.098067503844125,595.8777876076289,100.0
7,2.0217831134796143,484.7123192447171,140.74656663214307,708.8541984391795,95.70590499895522,100.0,2.9623205167084214,0.1,0.008956432342529297,0.17428374290466309,0.06368355,0.03590366,173.018368295355,-0.16800815738942484,4.834945456771041,100.0,9600,1.3389523029327393,0.07816375167769436,0.06235729550405661,594.8692765340152,100.0
8,2.0267772674560547,500.1323285625726,144.04210756040422,686.1440345644376,37.19571305510546,100.0,3.1501563554720056,0.1,0.008075237274169922,0.16979646682739258,0.050708413,0.033422977,205.7297643220768,-0.16468605617203477,4.989228505105736,100.0,9600,1.3477709293365479,0.06401837214251216,0.05393702614226343,587.3742055206963,100.0
9,2.147585153579712,553.1242609518504,112.40191038629564,705.7260025727292,131.1514590441199,100.0,2.5940630732308105,0.1,0.00842142105102539,0.17058825492858887,0.053363215,0.03894609,240.46921398505415,-0.14405321019676112,5.519512881616843,100.0,9600,1.3785536289215088,0.035269880908572235,0.02734324653779011,615.7235725250066,100.0
10,1.8422625064849854,573.8667984548382,129.9256267946802,709.267509730901,70.41221831455982,100.0,2.307351843634628,0.1,0.008568048477172852,0.17203760147094727,0.0555937,0.13245189,273.80897243203253,-0.13165598779423268,5.726558942788934,100.0,9600,1.4020559787750244,0.03452007303627691,0.030308336326642905,636.4096548191349,100.0
11,1.9095652103424072,580.8786688034488,108.79265952725417,704.4891459860529,204.8671346836524,100.0,2.767133342102036,0.1,0.009032964706420898,0.1725776195526123,0.052466888,0.03699244,304.5159420691742,-0.1311127616658965,5.795745528701683,100.0,9600,1.424337387084961,0.01823652507776699,0.017446039670507542,655.5031796801477,100.0
12,1.8757188320159912,600.1270288121533,87.6049021873619,709.3473474209196,224.28680535379326,100.0,2.2100792033777306,0.1,0.008311748504638672,0.16974735260009766,0.05213455,0.038016703,334.07705074347206,-0.1255709047791168,5.988253582592448,100.0,9600,1.4361698627471924,0.012217843756798621,0.010560621974382223,680.7793713476527,100.0
13,1.8976857662200928,630.6595975237718,62.454972467696805,708.5221228800406,406.43626368176456,100.0,2.426888030377218,0.1,0.008147001266479492,0.16901803016662598,0.052667364,0.04535486,363.73530542150206,-0.10965482059726199,6.2931034555432985,100.0,9600,1.4674773216247559,0.006829243117922699,0.005392224193376829,678.5611996954187,100.0
14,2.019002914428711,627.8200202852748,76.03285513678613,713.7105140914084,272.89920890205406,100.0,2.520114393918175,0.1,0.008931636810302734,0.17272734642028809,0.050438456,0.03641669,390.1437769078793,-0.11113659802774345,6.265592248511735,100.0,9600,1.494511604309082,0.006562022415514055,0.0057228153819894375,679.9095629653758,100.0
15,2.0606157779693604,618.7870672999015,120.18270048875469,716.8004932640104,117.43332054880018,98.95833333333333,2.6192069569553063,0.1,0.009477615356445312,0.1709129810333252,0.044998657,0.03257082,413.00810594708156,-0.11066587220715034,6.175283205445633,98.95833333333333,9600,1.492584466934204,0.01732715549574735,0.014640820155330567,687.2131129623011,100.0
16,2.1122348308563232,640.7800812782508,70.16777967498204,718.8651547144119,339.5236304171182,100.0,2.192611862564175,0.1,0.008343935012817383,0.1757974624633789,0.050030526,0.040026974,435.78530348019854,-0.10386750391966355,6.394375737114856,100.0,9600,1.5181968212127686,0.007135097659716157,0.0040963454114021705,685.3939953897961,100.0
17,1.9114065170288086,648.4911986413549,67.55643967214947,717.691823994456,274.19567192731813,100.0,2.6353216555808427,0.1,0.008690357208251953,0.17368054389953613,0.05190516,0.036742,457.0558929963142,-0.10220963808187404,6.470893043561087,100.0,9600,1.5199551582336426,0.0038567458404214893,0.0037243308746436822,694.6835965257578,100.0
18,1.8933966159820557,639.3372301851497,87.57177695298826,720.3838080226828,296.46313684069986,100.0,2.410483401275053,0.1,0.009472131729125977,0.17346787452697754,0.05284915,0.054521136,475.28402671519774,-0.10833054920404682,6.379330484106748,100.0,9600,1.519690990447998,0.006405889366915848,0.005846680287308007,704.040983237472,100.0
19,1.9102697372436523,674.5725599885848,43.635761851717206,723.2921672253284,459.125265925716,100.0,2.1948315483510434,0.1,0.008054971694946289,0.1695096492767334,0.056253675,0.03451012,495.2128800425365,-0.07895453493061123,6.731701778633496,100.0,9600,1.5269899368286133,0.0017253393639474486,0.000785508178563957,703.8231072715861,100.0
20,1.8965985774993896,658.3726153903357,59.01571147108199,722.2576433881658,422.6155612520564,100.0,2.4031987129142784,0.1,0.008270502090454102,0.1691741943359375,0.048083562,0.057837162,511.52885357731645,-0.09045184952716508,6.5700927527324735,100.0,9600,1.5053439140319824,0.0027215952515684183,0.002312858690521619,710.694728500404,100.0
21,1.8589887619018555,674.4603330583476,36.555084547966835,721.010209536732,546.643323631782,100.0,2.3181070017113616,0.1,0.008458375930786133,0.1726391315460205,0.05107035,0.021663623,527.8220015254196,-0.08035960677515985,6.730598624708123,100.0,9600,1.5013470649719238,0.0012713122304414996,0.0007030648586316045,717.9962680581853,100.0
22,1.870025396347046,673.1852746185958,40.29128476367095,725.5462814554693,498.4890296955229,100.0,2.2069273039352355,0.1,0.008916854858398438,0.1728050708770752,0.052254595,0.034170996,542.3583288347372,-0.0799899320816707,6.718317051288053,100.0,9600,1.4988877773284912,0.001013905800959793,0.0009209184170537306,720.2764554392015,100.0
23,2.0409958362579346,681.4700207295291,36.047945244056294,728.9058931191546,538.8090675667254,100.0,1.9721218812624717,0.1,0.008246183395385742,0.17725062370300293,0.05426872,0.033366982,556.2694980242164,-0.07361757688214254,6.8005372380540905,100.0,9600,1.5141096115112305,0.0007836704386714876,0.0006126798332036485,722.535237542126,100.0
24,2.069828510284424,679.5995130256598,34.3641754876354,728.050576787183,479.89037224223057,100.0,2.021468691073611,0.1,0.008737802505493164,0.17738962173461914,0.051530506,0.05908005,568.6024995243608,-0.07573157611932095,6.781831555838704,100.0,9600,1.4961230754852295,0.0005293876929395847,0.00047440012701568365,724.8880426722961,100.0
25,2.029754161834717,689.0646323387867,27.422253571993163,727.9527626773424,612.7985800606093,100.0,2.0031438533670607,0.1,0.008556842803955078,0.1766347885131836,0.05262559,0.051102955,580.6487128058035,-0.06264248755930069,6.876565954603414,100.0,9600,1.4604344367980957,0.0001873226514067367,0.0001568145194945429,723.7587393067304,100.0
26,2.06421160697937,683.8082606356007,42.78946541537845,734.819903018665,448.55610004029705,100.0,2.529807350927549,0.1,0.009035825729370117,0.17529749870300293,0.05011806,0.028543292,590.9646675887833,-0.07055571472288748,6.823849341538889,100.0,9600,1.4455201625823975,0.0009934548697073978,0.0008592087996099894,729.1453849066197,100.0
27,1.9211220741271973,689.8859887715074,35.190133762793266,738.0894116981585,589.6294140480015,100.0,2.052309564728748,0.1,0.008686542510986328,0.16905832290649414,0.052183464,0.043293033,600.8567997070556,-0.07026343078528587,6.884596004401227,100.0,9600,1.437255859375,0.0005126091978881614,0.00027396735922026764,730.0687305409242,100.0
28,1.880279302597046,693.9530804785346,31.517239979156233,738.3330278384693,577.141054196302,100.0,1.7015331623482406,0.1,0.008367776870727539,0.17032361030578613,0.052916404,0.0517226,610.1664277842035,-0.06481518312180819,6.925258801912768,100.0,9600,1.4791412353515625,0.0001827033017938795,0.00016257712732302564,732.140638141064,100.0
29,1.9010529518127441,697.8140292275035,35.653330412995814,742.0979757706551,505.22107866504695,100.0,2.3177723813685676,0.1,0.008476018905639648,0.1712946891784668,0.049650073,0.043401722,618.9311879285335,-0.0671701696655525,6.963807095291074,100.0,9600,1.464714765548706,0.0005117097928980384,0.0005308642787075678,732.2286695230149,100.0
30,1.901454210281372,705.8768087180409,31.24876998933279,745.7050765324337,603.295731441929,100.0,2.170805535049511,0.1,0.008635520935058594,0.1730489730834961,0.04963041,0.06739328,627.6257500074843,-0.0642106121887223,7.044513165961462,100.0,9600,1.4471921920776367,0.00023643180576607292,0.00015926501319097147,735.4123957793352,100.0
31,2.0282838344573975,705.0561413469122,28.30770763097453,748.612710092596,629.3966458634012,100.0,2.101608038842485,0.1,0.008467435836791992,0.16812610626220703,0.05249012,0.09010445,635.3687891414271,-0.06296647478916682,7.036166387844169,100.0,9600,1.4453909397125244,0.0001559979044319566,0.00011341310134556292,737.5235611280051,100.0
32,1.8440327644348145,708.9588535980998,32.84140662660168,750.6367304832484,600.9017120571572,100.0,2.062185882472328,0.1,0.00858926773071289,0.1707625389099121,0.05399859,0.04282436,642.7277955870944,-0.06273071015396597,7.075170246035333,100.0,9600,1.491349220275879,0.00012507844857899582,8.390682775006965e-05,737.9702006963898,100.0
33,1.8985307216644287,711.7480849937605,27.597391704534566,754.9708190766893,639.5939109993932,100.0,1.7549420229995811,0.1,0.008875608444213867,0.1692509651184082,0.049330253,0.056134973,649.629824527761,-0.060554169264819185,7.102854642592966,100.0,9600,1.4764466285705566,8.403082054661292e-05,6.242171849191647e-05,738.2962206764477,100.0
34,2.0468504428863525,709.1326211917357,33.59548087750806,759.8710605789421,619.4465879967355,100.0,1.7278318452661101,0.1,0.008599996566772461,0.16994166374206543,0.056341134,0.05581835,655.5801041941586,-0.06436886050413904,7.07674056893818,100.0,9600,1.4755654335021973,0.00012794270766169663,0.0001162369412882157,737.1829418358942,100.0
35,2.029369592666626,714.3912337894849,29.136361152945092,757.6126405446474,630.5186023607868,100.0,1.886220190968139,0.1,0.009945869445800781,0.20414137840270996,0.056371354,0.05018865,661.4612171536912,-0.06303251945033539,7.129336187486435,100.0,9600,1.8070411682128906,7.563812074859364e-05,7.385283047707837e-05,735.9496971622077,100.0
36,2.019742488861084,712.2625687254714,31.380640444180262,758.1796623051678,621.9948641630348,100.0,2.348733438542275,0.1,0.009582757949829102,0.2105412483215332,0.054069113,0.038606614,666.5413523108693,-0.06458533393379128,7.1079891388147844,100.0,9600,1.805802583694458,0.00015182910590908635,0.00013401770223591062,737.2159753874737,100.0
37,2.1020827293395996,717.4996908197894,31.99502796635206,763.314347343874,620.4411991260789,100.0,1.7263428934331708,0.1,0.008399486541748047,0.17170214653015137,0.053357493,0.04266996,671.6371861617614,-0.0683340501986952,7.160284720138033,100.0,9600,1.4784963130950928,0.00010981073603018773,9.214502264999072e-05,736.7657672788214,100.0
38,1.8771867752075195,721.071579647718,34.21909196055313,765.258279429761,613.5239615513515,100.0,2.130281715797141,0.1,0.009079217910766602,0.17177081108093262,0.045317896,0.037238672,676.5806255103571,-0.06383134645975225,7.195864067975408,100.0,9600,1.446643590927124,0.0001262942908535307,0.00010436835850731184,738.144413751526,100.0
39,1.854933738708496,723.7624272375127,33.48996294834215,766.6162079420349,608.0455209320162,100.0,2.1363825740275644,0.1,0.007977962493896484,0.17167949676513672,0.04857955,0.030815078,681.2988056830727,-0.06302364998982016,7.222729127469407,100.0,9600,1.4253451824188232,7.505941364590293e-05,6.784547761121109e-05,738.9417768489988,100.0
40,1.8984754085540771,727.256926634409,27.36633636333931,768.2329253775199,619.5285889575538,100.0,2.12598092934266,0.1,0.008760690689086914,0.17315387725830078,0.05148437,0.027053187,685.8946177782063,-0.06027740057333186,7.257617799584057,100.0,9600,1.4387214183807373,6.166050826807122e-05,5.8584783201242596e-05,739.0134128693771,100.0
41,1.8749973773956299,727.1720098080513,34.393397699072324,771.6636977438172,608.4100940953641,100.0,1.7674287837018798,0.1,0.008229970932006836,0.1723799705505371,0.050214123,0.056865603,690.0223569811909,-0.06284996355506439,7.25687102228828,100.0,9600,1.4656550884246826,8.217843065848778e-05,7.594952495828995e-05,739.0632327807157,100.0
42,1.9478442668914795,729.5167408758736,33.52502240582984,773.8206037251481,637.8426672098474,100.0,2.014908625297159,0.1,0.008399724960327148,0.17211151123046875,0.045747526,0.03290706,693.9717953706592,-0.06104808877367895,7.2803435590755425,100.0,9600,1.4750456809997559,0.00015663882102644677,0.00014995467322953266,738.6824617222758,100.0
43,1.8752593994140625,725.331215711933,35.47898444368673,774.0146346012436,598.1772722553133,100.0,1.749966597093186,0.1,0.008194684982299805,0.17026567459106445,0.04779125,0.03856218,697.1077374047866,-0.06552761247096395,7.238324597469386,100.0,9600,1.4719836711883545,0.00017295176020149338,0.00014416556017415107,739.072928051907,100.0
44,2.0077965259552,728.7827817110197,35.8628762718279,773.8890862005843,629.5776759233773,100.0,1.8311123037647132,0.1,0.008334636688232422,0.16894197463989258,0.044835694,0.059430912,700.2752418354099,-0.0626852933599842,7.272813147688111,100.0,9600,1.4625287055969238,0.00014775685297759519,0.00012961913896672274,739.9673956813153,100.0
45,2.040835380554199,727.8982298438171,37.03496305336496,777.2540620238684,600.479930557775,100.0,2.41324421516106,0.1,0.008767366409301758,0.17634081840515137,0.047553316,0.05239329,703.0375406362507,-0.06485681417333604,7.2640053512083815,100.0,9600,1.486128568649292,0.00010933949691530408,9.92913173921734e-05,740.0747788840617,100.0
46,2.0028388500213623,736.0484310206535,31.42439481706983,775.1035364302791,607.2161748488721,100.0,1.66308535713501,0.1,0.008206605911254883,0.17442011833190918,0.046708487,0.06037503,706.338629674691,-0.059577691844675734,7.345568372867002,100.0,9600,1.4939079284667969,0.00010312432874970858,0.00010620609829039121,738.6973892529724,100.0
47,2.0683274269104004,728.925388881254,36.559324264788735,776.9268773365819,578.8532463948421,100.0,1.9578061582084685,0.1,0.00840306282043457,0.17121505737304688,0.04807214,0.02855207,708.5973055953473,-0.06505652416241765,7.274247526086621,100.0,9600,1.473555088043213,0.00018541195241905223,0.00016797580440061917,739.2845202663561,100.0
48,2.086945056915283,738.9483883270744,27.496546893271223,778.4678083593977,670.9216947809156,100.0,2.0476432132566083,0.1,0.008391618728637695,0.17211651802062988,0.044308137,0.03393254,711.6324138685201,-0.05440293671020746,7.374546414169188,100.0,9600,1.5042376518249512,7.101063445897325e-05,6.873024954371542e-05,740.6565290989325,100.0
49,1.9034361839294434,724.9297804027638,37.785420380230704,778.8146618078782,599.2977705858234,100.0,2.5384544579741557,0.1,0.008066415786743164,0.17132902145385742,0.04739102,0.033053324,712.9621505219445,-0.06688789530569886,7.234290518685377,100.0,9600,1.5072882175445557,0.00041375712664952453,0.00032428736915132787,742.5647680450913,100.0
50,1.8992750644683838,730.8531216832431,30.957615018256405,778.0300399076082,606.848819307297,100.0,2.3890664265817927,0.1,0.008074045181274414,0.17609190940856934,0.045739688,0.055873096,714.7512476380745,-0.06479555436616342,7.2936003356268175,100.0,9600,1.5301158428192139,0.0002145476315667835,0.00011577578116852737,742.0612070612119,100.0
51,1.8929128646850586,737.8250584471034,29.322686155058406,778.7708660827832,662.4722001338743,100.0,1.8432387336209077,0.1,0.008297443389892578,0.1707773208618164,0.041596502,0.042897258,717.0586287189774,-0.060312622760905966,7.363231816595165,100.0,9600,1.548187494277954,6.140652537368236e-05,5.0766644147958173e-05,741.8183719205032,100.0
52,1.8963613510131836,737.2151511368502,30.298776800822267,778.1183455502382,628.8989187606727,100.0,1.8305475683494852,0.1,0.008487462997436523,0.1847212314605713,0.046458878,0.17272131,719.0742809607647,-0.05591066611280818,7.357129976571849,100.0,9600,1.5521752834320068,6.450093565413159e-05,6.961821758607445e-05,740.9966336136238,100.0
53,1.8964531421661377,733.1863142555761,27.54060451942509,778.1856706838525,643.7186568848931,100.0,2.440361107509626,0.1,0.008353471755981445,0.1705646514892578,0.04518534,0.13113593,720.4854842902457,-0.06451106014153062,7.316841306503485,100.0,9600,1.5099647045135498,0.00010751574986538363,8.149850178444142e-05,741.723499870198,100.0
54,1.8463306427001953,737.6281940887974,28.33700750240053,782.1779705780995,640.8072787388533,100.0,2.159379960455352,0.1,0.008287429809570312,0.17108845710754395,0.042706713,0.057492606,722.1997552701009,-0.058747983951574545,7.361198110042571,100.0,9600,1.497331142425537,7.643035171179386e-05,6.196650371999784e-05,740.5273197458097,100.0
55,2.052203416824341,735.1567050446984,30.8574876048432,781.4423416446386,660.6084543081104,100.0,1.6822905174841278,0.1,0.00827646255493164,0.16755175590515137,0.045980364,0.046606064,723.4954502475607,-0.06413158035694362,7.336478680357545,100.0,9600,1.4640634059906006,5.8772034936328684e-05,6.215950250141888e-05,741.2400251036277,100.0
56,2.031353235244751,740.2514990690496,33.57470836022668,783.7952494891707,631.1200389889533,100.0,2.215557834135971,0.1,0.008337020874023438,0.17156195640563965,0.03374337,-0.010066363,725.1710551297097,-0.06020812968814496,7.387355395317564,100.0,9600,1.4908485412597656,7.66331728292741e-05,5.104888558215591e-05,739.9255562534196,100.0
57,2.0378530025482178,740.0779315616284,25.30039026267837,782.2185762404623,660.5973673465022,100.0,1.6341380877289042,0.1,0.008374691009521484,0.17279767990112305,0.04016063,0.024589742,726.6617427729016,-0.05847019660494699,7.385722408517663,100.0,9600,1.493638277053833,5.8029640501893605e-05,4.363244070653635e-05,740.2680553247221,100.0
58,2.06412672996521,743.5482377508869,30.303723430853005,783.7444697104332,664.2092416852296,100.0,1.648919445913134,0.1,0.008414030075073242,0.16880226135253906,0.04250554,0.041142594,728.3503922707001,-0.056596660091577135,7.4203215278101124,100.0,9600,1.4490642547607422,4.822913499655565e-05,4.513356069540954e-05,741.6508993980851,100.0
59,2.089541435241699,736.24470644855,33.68647199022083,783.4148542777522,599.4994955374742,100.0,1.9953287200617473,0.1,0.008147239685058594,0.16927647590637207,0.039579447,0.046461716,729.1398236884852,-0.06704179580082643,7.34738398434246,100.0,9600,1.4641754627227783,8.35913869076787e-05,7.680057531078576e-05,740.4980473542835,100.0
60,1.8843719959259033,734.3400104633266,33.8673460036759,785.0154785415166,620.0798605172263,100.0,2.1218314309845003,0.1,0.008732080459594727,0.1705920696258545,0.04640433,0.06547336,729.6598423659694,-0.06807380039444096,7.328255727354541,100.0,9600,1.4379057884216309,0.00011271119341765431,9.83736845072309e-05,740.2186803011762,100.0
61,1.8414530754089355,737.503043452978,37.70429657347696,783.9735855883728,571.4061032979939,100.0,1.77255238566827,0.1,0.008347272872924805,0.17017889022827148,0.042572238,0.044884603,730.4441624746703,-0.06694609594361815,7.359960363779893,100.0,9600,1.4524636268615723,0.00018076258222084963,0.00015004767146402858,740.0094279476934,100.0
62,1.872406244277954,736.9012254110785,27.701025545936652,783.8420588821377,657.2076232591851,100.0,2.090422980145772,0.1,0.009396553039550781,0.16993117332458496,0.042006902,0.024444185,731.0898687683111,-0.06690682348412635,7.353896657157711,100.0,9600,1.463487148284912,8.463874590439145e-05,5.940812592608477e-05,739.9837732369799,100.0
63,1.9217591285705566,739.8679654451461,33.369616836715444,784.2378498046342,619.8497718404982,100.0,1.7824735443511375,0.1,0.008353233337402344,0.1714918613433838,0.04457789,0.031978924,731.9676784359947,-0.06385301174554686,7.383598996522611,100.0,9600,1.4909851551055908,9.292444578013719e-05,7.805404278521081e-05,741.1667707639883,100.0
64,1.8785483837127686,745.7930016749997,25.776604027277628,784.866819257442,658.8263115237385,100.0,1.792994957081966,0.1,0.010210990905761719,0.21102499961853027,0.043075774,0.06333806,733.3502107598952,-0.05449336271299352,7.442697560139404,100.0,9600,1.82379150390625,5.0863620293899975e-05,3.259632536378018e-05,741.3756888940866,100.0
65,1.848405122756958,743.7930774710647,30.655199602611894,785.3863961072395,643.5009756356893,100.0,2.075216434067385,0.1,0.009897708892822266,0.20410680770874023,0.044419352,0.03997675,734.3944974310122,-0.058625824294118445,7.422790181783609,100.0,9600,1.8431737422943115,9.36511756671784e-05,8.648665730360484e-05,741.5846892940292,100.0
66,2.0621862411499023,739.7268885643113,31.05536608741769,784.6923333834587,662.2898533588458,100.0,1.6516533531693458,0.1,0.008689641952514648,0.17032361030578613,0.049176488,0.08466269,734.927736544342,-0.06321376824198797,7.382105851445426,100.0,9600,1.4944136142730713,7.406103252342211e-05,9.26328026808052e-05,741.319389007159,100.0
67,2.037658452987671,744.6527934579644,27.7003010913396,784.8919037463654,664.6303215075035,100.0,1.9393768741643604,0.1,0.008570432662963867,0.1739974021911621,0.04589913,0.06415343,735.9002422357044,-0.06016213872119708,7.431426087335616,100.0,9600,1.4532999992370605,7.07422360172272e-05,4.090131756233882e-05,742.2835886965316,100.0
68,2.0046277046203613,747.4504658678984,31.18159557657086,787.0190001373305,617.7180311146552,100.0,1.991258275058682,0.1,0.008564233779907227,0.1709578037261963,0.044746578,0.053097554,737.0552645989238,-0.05551550836213496,7.459314495647091,100.0,9600,1.4872889518737793,0.00011111809050126576,8.964524928857233e-05,742.6855525401274,100.0
69,2.0933265686035156,743.2661489791245,26.88462576739408,785.9488922773313,662.5128929380729,100.0,1.8195300795348086,0.1,0.008723735809326172,0.16994476318359375,0.04406739,0.037492305,737.676353036944,-0.061330223172223954,7.417475594812786,100.0,9600,1.4808988571166992,4.630142963300868e-05,4.079106347429063e-05,742.367027397417,100.0
70,1.8424973487854004,740.5140767758247,34.056793645624076,787.0684870773742,614.4944746750064,100.0,2.780421656215049,0.1,0.008464336395263672,0.17069220542907715,0.045410383,0.032527532,737.960125410832,-0.06803617964406601,7.390075829134456,100.0,9600,1.4289746284484863,8.517146178491235e-05,8.411443196951478e-05,742.6043097179825,100.0
71,1.871394395828247,742.7135848856807,34.49564336603557,787.5223548576206,602.8946283891837,100.0,1.8862659423462504,0.1,0.009572267532348633,0.2034003734588623,0.037994657,0.032601885,738.4354713583168,-0.062432453727617986,7.412004589511208,100.0,9600,1.764988660812378,0.00014083345485527184,0.00012760553564111025,744.0441080904252,100.0
72,1.9003102779388428,740.1288654275668,34.743579078848235,788.1582964377003,596.7195154896752,100.0,2.129841221292462,0.1,0.009589672088623047,0.2039170265197754,0.0445637,0.019198734,738.6048107652418,-0.06295569249822154,7.386128467623744,100.0,9600,1.7925803661346436,0.0001271986252298777,0.00011706501828077107,743.3959146664844,100.0
73,1.868387222290039,748.380910326456,30.075442691764184,786.7716239648513,658.3716735655397,100.0,1.7184063253036475,0.1,0.009733438491821289,0.20293927192687988,0.04367047,0.027138386,739.5824207213633,-0.05496689019280792,7.468737950252165,100.0,9600,1.8492414951324463,6.68237957666132e-05,4.854091982579127e-05,741.838257480582,100.0
74,1.8492751121520996,746.1408361570262,27.283980089657447,786.2563393838122,654.997465318831,100.0,1.3917387551049867,0.1,0.008378028869628906,0.16854619979858398,0.045282148,0.12180595,740.2382622649296,-0.056196509115864456,7.446191042025762,100.0,9600,1.5049958229064941,6.55572211656793e-05,6.87456138468972e-05,742.1021604395974,100.0
75,1.879594087600708,746.9134668052187,31.507120588040134,787.7449510257967,636.2068245549893,100.0,1.989149464810336,0.1,0.009063243865966797,0.17464542388916016,0.04242011,0.04827391,740.9057827189586,-0.055473663579822106,7.453907667969698,100.0,9600,1.5363209247589111,8.950172194372092e-05,7.815485887345895e-05,744.5036680157066,100.0
76,1.9223823547363281,745.1003110209496,29.983682747051617,787.4763390236122,632.4344330462209,100.0,1.8190989772129706,0.1,0.00841665267944336,0.17194032669067383,0.042499993,0.042393196,741.3252355491577,-0.059507491223326915,7.435829150875313,100.0,9600,1.536247730255127,8.026169655322502e-05,6.340843213214037e-05,743.8858643323355,100.0
77,2.057116746902466,743.8309050425264,31.84043843150068,790.3089356471593,623.4292095352446,100.0,1.7414267938033505,0.1,0.008484840393066406,0.17158770561218262,0.046105456,0.028880972,741.5758024984946,-0.05985235127608759,7.423083834593522,100.0,9600,1.5544002056121826,0.00010658730156733497,0.0001026470816358953,743.2648558339556,100.0
78,2.048649787902832,748.0451530206877,29.556040468343095,788.8636214910198,651.9036205420717,100.0,1.5981941324991835,0.1,0.008672475814819336,0.1687312126159668,0.046644676,0.048291918,742.222737550714,-0.05484317659414156,7.465207071616484,100.0,9600,1.4972257614135742,6.29081315807611e-05,6.468373982452994e-05,743.9785068076835,100.0
79,2.021231174468994,741.983835923996,34.35562216620513,788.7236384113302,604.9565359087192,100.0,1.7671483069469784,0.1,0.00824284553527832,0.1694049835205078,0.047697823,0.0343405,742.1988473880423,-0.06315915174155125,7.404656296630077,100.0,9600,1.4933233261108398,0.0001326385137993966,9.527711242021303e-05,744.2029866641637,100.0
80,2.0852108001708984,749.3761924118929,24.720295756855666,789.2177353828652,690.004721578501,100.0,1.8983097994608655,0.1,0.008829832077026367,0.17545485496520996,0.041812304,0.04189724,742.9165818904273,-0.051919148196309356,7.478568364923539,100.0,9600,1.4903769493103027,7.525181990924744e-05,3.1261446820415795e-05,742.7384684470212,100.0
81,1.9280307292938232,741.994164022556,32.07887748350901,786.9431720262249,643.2296656308799,100.0,2.154471121391061,0.1,0.008509397506713867,0.17082548141479492,0.043438796,0.043946017,742.8243401036402,-0.06402405283769029,7.404727012467569,100.0,9600,1.4697508811950684,9.090548185256266e-05,6.589989550031286e-05,743.558642478124,100.0
82,1.8751842975616455,740.5971474398267,36.98743854677645,791.4351323767238,594.536034609366,100.0,2.733050394711396,0.1,0.008182048797607422,0.16947317123413086,0.039479874,0.028293142,742.6016208372589,-0.06974350670158617,7.390762770737787,100.0,9600,1.4569177627563477,0.00013837306270987994,0.0001243192331886348,743.5213391864102,100.0
83,1.8715171813964844,745.9082728162535,26.26775281867266,788.7271638041206,683.3107951397322,100.0,2.0509206357831617,0.1,0.008372306823730469,0.1717088222503662,0.046616156,0.025408423,742.9322860351584,-0.058244212181979775,7.443820027573639,100.0,9600,1.4408068656921387,9.211181157960944e-05,6.991101026011085e-05,743.2251460273726,100.0
84,1.90122652053833,747.5671993097849,29.38758081475351,789.8145645298281,618.891306004871,100.0,2.4436812706663944,0.1,0.008261442184448242,0.16833901405334473,0.048050698,0.044659473,743.3957773626212,-0.05425125593852998,7.460461987862576,100.0,9600,1.4241411685943604,0.00011837068065633851,0.00010547781348992347,743.1486755371345,100.0
85,1.9119226932525635,747.6958374350144,30.683628456393226,789.7257472108163,640.1577978663513,100.0,1.8790923435766163,0.1,0.008140325546264648,0.16907811164855957,0.04334188,0.13593957,743.8257833698606,-0.05951466666049906,7.4617084069423285,100.0,9600,1.4343678951263428,0.00011364936028919432,9.247658254914957e-05,742.6641483629522,100.0
86,1.8962900638580322,745.4686683621754,24.501533628363756,789.606140490498,679.2932065024385,100.0,1.8482125147360176,0.1,0.008344650268554688,0.17662978172302246,0.043190364,0.037584715,743.990071869092,-0.06216277381411717,7.43944131214366,100.0,9600,1.4809741973876953,5.182170536305261e-05,3.743852909477484e-05,742.4445374043614,100.0
87,1.8886799812316895,753.3413251615442,30.842107548673457,790.4033953117536,622.0974878231162,100.0,2.857434445816953,0.1,0.008285760879516602,0.17227458953857422,0.04004257,0.024863925,744.9251971983373,-0.054133158384293355,7.518306190683833,100.0,9600,1.470569133758545,0.00015386551304936823,0.0001132089349672696,742.7245413595651,100.0
88,2.0072197914123535,747.4384728114374,31.437116327338234,790.2882547761162,640.7201776786858,100.0,1.627655179699602,0.1,0.008499622344970703,0.17063140869140625,0.047689743,0.0354723,745.1765247596474,-0.06314768096993038,7.459196293433465,100.0,9600,1.4849870204925537,8.490225993652893e-05,7.34425481484442e-05,742.4659623881688,100.0
89,2.014303684234619,754.7210660232007,26.235438694545095,791.3636377862333,680.7903628379719,100.0,2.232975253329847,0.1,0.008544445037841797,0.1700284481048584,0.047040146,0.03122986,746.1309788860027,-0.05535479727624102,7.531899759978998,100.0,9600,1.5003526210784912,5.480739670071911e-05,4.62082553547805e-05,741.3013055083732,100.0
90,2.050642728805542,748.4054812855962,31.334283484505317,792.4116110963384,628.9891437622992,100.0,1.6712001502561091,0.1,0.00851583480834961,0.18211984634399414,0.047034383,0.034149997,746.3584291259621,-0.06176751696001822,7.4688518508480435,100.0,9600,1.4741652011871338,8.177009245601795e-05,7.749413728498718e-05,739.8205514649118,100.0
91,2.1270687580108643,744.0163264616252,37.58453615905163,789.8603705291605,546.8333741990048,100.0,3.0552425690937968,0.1,0.008254766464233398,0.16757988929748535,0.0468579,0.028441845,746.1242188595284,-0.07038927854907591,7.424998122130525,100.0,9600,1.4444153308868408,0.000286646534276194,0.00025873796833249734,740.4523235188444,100.0
92,1.8328425884246826,739.5156786656147,38.950611395129144,790.3281128592699,501.2836292819526,100.0,2.777204865021273,0.1,0.00833272933959961,0.17112135887145996,0.044122923,0.029291337,745.463364840137,-0.07253576934353786,7.379856605541524,100.0,9600,1.4732434749603271,0.0006232414873087968,0.0006348031092861802,741.6277572520369,100.0
93,1.8465909957885742,746.0355841268738,31.739997408805866,793.2743088743714,552.1281544848179,100.0,2.2939056355162313,0.1,0.00834512710571289,0.16731476783752441,0.040034268,0.022363685,745.5205867688107,-0.06233071000299498,7.445165136586335,100.0,9600,1.4687533378601074,0.00023685513307470055,0.00018065522967487875,740.0853919178348,100.0
94,1.9113855361938477,746.1657543463524,28.01897656709956,792.1551333046399,648.978112663625,100.0,2.1007922714046634,0.1,0.008388042449951172,0.17136144638061523,0.043152887,0.023931436,745.5851035265649,-0.06334643360463811,7.44639828358402,100.0,9600,1.498053789138794,6.956836264574925e-05,4.9534849293384084e-05,740.27559923228,100.0
95,1.8476381301879883,748.2528250451736,32.48381619027681,790.6810223127908,653.7198981768247,100.0,1.8712229398961042,0.1,0.008548974990844727,0.17012286186218262,0.05093937,0.09660468,745.8518756784258,-0.06771910448984961,7.467306624213303,100.0,9600,1.5160160064697266,8.316650156022166e-05,8.438828783228266e-05,738.8441263853599,100.0
96,1.8601162433624268,740.12436475021,35.16944430734307,789.8054318970652,587.2265232328715,100.0,2.805853289349892,0.1,0.008252859115600586,0.16809868812561035,0.048541594,0.03432529,745.2791245856042,-0.07440977555872919,7.386076355716892,100.0,9600,1.505814790725708,0.00033336888818741257,0.0002804491341153309,737.3763533034091,100.0
97,1.8548057079315186,745.1139052708631,38.337219077911925,792.7588096320775,516.4443331569737,100.0,2.3494253070991045,0.1,0.008455991744995117,0.17222857475280762,0.04618622,0.039655425,745.2626026541301,-0.06234669226608885,7.435911391736912,100.0,9600,1.5033848285675049,0.0004966425479525303,0.0005076276646948201,737.8289195039835,100.0
98,1.9755070209503174,744.2199345826284,34.182966811774016,792.2714865776139,654.7351372195585,100.0,2.151230388981492,0.1,0.00873708724975586,0.17479443550109863,0.049082555,0.02107598,745.1583358469799,-0.06692584837456235,7.426913713033547,100.0,9600,1.5119683742523193,0.00025057538986912326,0.00010958690116628301,739.6915961435166,100.0
99,1.9860467910766602,746.6602332704351,30.381561101947568,791.0742362181498,671.4026377973134,100.0,2.058272616337756,0.1,0.008577585220336914,0.16905522346496582,0.04449605,0.040397014,745.3085255893254,-0.06254768842224927,7.451391934571508,100.0,9600,1.5045859813690186,7.333763828077646e-05,6.207920464305101e-05,740.0228110983127,100.0
100,1.9995923042297363,745.1487295292574,30.832103310008094,790.7323017332717,658.1336182432993,100.0,1.8228473482935947,0.1,0.008651256561279297,0.16699886322021484,0.050164513,0.079286575,745.2925459833186,-0.06572785311022897,7.436231847477356,100.0,9600,1.5053775310516357,7.285579666809879e-05,6.543314809823616e-05,739.2795031069916,100.0
101,2.0844147205352783,746.257027770344,33.03437152469286,791.8103732683775,633.1518166796964,100.0,2.0133851427077802,0.1,0.009716272354125977,0.20168542861938477,0.05072597,0.015217968,745.3889941620212,-0.06412174764125554,7.447281343360831,100.0,9600,1.834930419921875,0.0001243046594377928,0.00013192884225641396,740.9312907156578,100.0
102,1.9304943084716797,749.6051301306616,28.879637603420708,790.9789924244656,650.707309989249,100.0,2.375384750601494,0.1,0.008312225341796875,0.16902518272399902,0.0478672,0.023883132,745.8106077588852,-0.05845740957590916,7.4808165882300885,100.0,9600,1.5098564624786377,0.0001290529098668038,7.110105022936762e-05,741.8892724897275,100.0
103,1.8728420734405518,746.5697348048961,28.674308700348657,791.4811268351124,679.1665638207859,100.0,2.258765236075078,0.1,0.008571147918701172,0.17215299606323242,0.04340844,0.027255738,745.8865204634862,-0.06309227164135912,7.450500360559707,100.0,9600,1.487562894821167,5.960676292997547e-05,5.3905300917251925e-05,742.6902582666476,100.0
104,1.8507940769195557,747.6013829377966,32.86246750829546,792.4166228841456,661.435543302432,100.0,2.7549708378286404,0.1,0.00847005844116211,0.16939783096313477,0.044340644,0.02892509,746.0580067109173,-0.06426767314989708,7.460721302102331,100.0,9600,1.5138742923736572,7.155092957846717e-05,7.94307759781965e-05,742.732036117606,100.0
105,1.9255199432373047,748.4413236236646,28.7507959936228,791.9292212935642,670.7363137107792,100.0,1.9921288157796069,0.1,0.008543014526367188,0.1700148582458496,0.0468901,0.02133525,746.2963384021921,-0.061074749839098136,7.469132434354045,100.0,9600,1.503131628036499,6.837817048111131e-05,4.75708990466534e-05,743.4385808702266,100.0
106,1.856565237045288,749.289769794084,31.89535834950839,792.810063514085,623.1419289918906,100.0,2.344110837700789,0.1,0.00840449333190918,0.18114209175109863,0.039785266,0.027233953,746.5956815413813,-0.0591232194723082,7.477642891245954,100.0,9600,1.5179815292358398,8.633302134246806e-05,5.66931123873592e-05,742.0627628828935,100.0
107,2.0249927043914795,747.3988644896858,30.5020774728526,792.7268654631193,622.2055399955591,100.0,1.4092928937357934,0.1,0.00838923454284668,0.1710524559020996,0.048132375,0.13679527,746.6759998362118,-0.06245567807858859,7.458751500267357,100.0,9600,1.5250275135040283,7.901685484471376e-05,6.182707950111408e-05,742.8152895112203,100.0
108,2.0177416801452637,741.0690982976002,31.035408037729482,793.1228747054954,665.3278437107498,100.0,2.5111411436919635,0.1,0.008390665054321289,0.16849088668823242,0.04197857,0.05035242,746.1153096823507,-0.06725915133391547,7.395472742163496,100.0,9600,1.484224557876587,0.0001010030229323092,9.255563580386912e-05,742.7066849534239,100.0
109,2.1182498931884766,744.1221287734442,32.5178584881855,793.5046945170482,639.6780688789763,100.0,1.7119886797715511,0.1,0.008182048797607422,0.17157673835754395,0.046685778,0.06267125,745.9159915914602,-0.06531315864016585,7.425986731045216,100.0,9600,1.5063068866729736,0.00011947015275008005,0.00010648790523668396,742.730196366046,100.0
110,1.8725676536560059,748.0459328268311,29.933090673769197,790.1250425673538,628.4234278212007,100.0,1.4603033792832063,0.1,0.00823354721069336,0.17075347900390625,0.04672157,0.028902296,746.1289857149973,-0.062120830168897,7.465160806152984,100.0,9600,1.4472415447235107,7.588184539443068e-05,7.168235393160457e-05,743.1358717848769,100.0
111,1.889319896697998,750.4450250474043,28.97705905226034,793.2687407998677,672.3196070822166,100.0,1.772720253534859,0.1,0.008458852767944336,0.17168140411376953,0.04438916,0.041621834,746.560589648238,-0.061057362866490876,7.489161340614305,100.0,9600,1.4510200023651123,5.382853482559862e-05,3.609377165326057e-05,742.3254957853942,100.0
112,1.8542239665985107,750.7645919658656,28.830443693016875,794.3879759097694,662.6779690839994,100.0,1.6868146097690384,0.1,0.008279085159301758,0.17083740234375,0.04527063,0.0401596,746.9809898800008,-0.05988977347908805,7.49237007265114,100.0,9600,1.495199203491211,5.024369740827217e-05,4.416751965396542e-05,742.6489553196359,100.0
113,1.867722988128662,750.2208170330401,26.802783688621506,792.1898140517308,676.1281881391942,100.0,1.987344207366,0.1,0.02683424949645996,0.17034387588500977,0.04436053,0.05134651,747.3049725953048,-0.06080639437913032,7.487075512716506,100.0,9600,1.5157723426818848,3.9857052771907295e-05,3.9672574450342765e-05,742.1851508088855,100.0
114,1.9943900108337402,747.0087759536123,30.38877276567571,792.8403063451733,662.9201147799711,100.0,2.088196637509442,0.1,0.008419275283813477,0.17082619667053223,0.04599797,0.02727105,747.2753529311356,-0.06354994502852285,7.45484001899514,100.0,9600,1.4999887943267822,8.51978517513603e-05,7.226605229081349e-05,741.8468169709623,100.0
115,2.0064542293548584,749.0963734557058,35.809973197045075,794.0046210930773,626.9744537972576,100.0,1.5213831781969875,0.1,0.008308172225952148,0.17105579376220703,0.048512537,0.032257766,747.4574549835926,-0.06289580114900127,7.475771847635717,100.0,9600,1.5195720195770264,8.126908121086465e-05,6.664773410478258e-05,742.7485498600929,100.0
116,2.0763468742370605,751.3105033024027,27.19956415109722,794.5897302030713,678.759597274426,100.0,1.8915326422706087,0.1,0.008154153823852539,0.1708066463470459,0.05049135,0.02040791,747.8427598154735,-0.061899111909429004,7.497843443364029,100.0,9600,1.5349836349487305,7.596277084014404e-05,5.406709650602989e-05,741.7991938517497,100.0
117,1.8659331798553467,751.7360676779526,26.984270440428382,794.2980471227986,657.4671170992956,100.0,2.2489733400534107,0.1,0.008306026458740234,0.17213177680969238,0.047350165,0.036938332,748.2320906017214,-0.05974570533779633,7.502030764611902,100.0,9600,1.5476584434509277,5.652662839325743e-05,7.513400202747383e-05,741.2145936988114,100.0
118,1.8883068561553955,753.8486049139943,27.904536282542068,792.763202004729,653.4098900934097,100.0,1.8827019560712182,0.1,0.008462905883789062,0.1748206615447998,0.04852467,0.14691705,748.7937420329488,-0.05602263877953286,7.523139859993019,100.0,9600,1.521198034286499,7.387386105049683e-05,4.199681418519462e-05,742.7973826877683,100.0
119,1.910548210144043,753.6345963981902,28.207883071209867,793.419173778842,671.851073133909,100.0,1.4604252033334375,0.1,0.00805354118347168,0.16999077796936035,0.050360635,0.03236753,749.2778274694729,-0.05768882146015077,7.5211034941791945,100.0,9600,1.5162904262542725,6.111821548725435e-05,5.4688506277411516e-05,742.7068155537344,100.0
120,1.8988840579986572,748.2063657761237,30.87807862684085,793.5585900194308,654.3400725570654,100.0,2.032884367625616,0.1,0.008278608322143555,0.17310047149658203,0.048156507,0.044998694,749.170681300138,-0.061886341385881526,7.46686551204899,100.0,9600,1.5496346950531006,5.8343170456337196e-05,6.647838786601556e-05,742.9353598326593,100.0
121,1.9913733005523682,749.2126568496545,35.390757810128264,794.011870960272,628.8637352945335,100.0,2.115140099539405,0.1,0.008510828018188477,0.17075300216674805,0.04989849,0.034013554,749.1748788550896,-0.06366389551188162,7.476905926103822,100.0,9600,1.5049498081207275,8.525961985309322e-05,6.328008844411826e-05,743.8411143523343,100.0
122,2.048323392868042,749.0705975188426,30.71469869516559,793.4155947782874,648.0575872463107,100.0,2.069788769903369,0.1,0.008196592330932617,0.16806340217590332,0.045119993,0.021380799,749.1644507214648,-0.059800225595443755,7.4753693944248925,100.0,9600,1.4811286926269531,6.345696659889455e-05,5.370249774433034e-05,743.8252547615294,100.0
123,2.175632953643799,748.2177358617852,27.988014850917715,794.1142469658863,685.4821412888278,100.0,2.761954127606323,0.1,0.008355379104614258,0.16858720779418945,0.045277316,0.034139134,749.069779235497,-0.061648986262666905,7.466938519866282,100.0,9600,1.4791395664215088,6.513858202048285e-05,5.308778276181758e-05,743.9383313196959,100.0
124,1.8890273571014404,755.6525528148999,29.653807676603257,794.4891965191356,678.8779341091504,100.0,1.8422336478496608,0.1,0.008478641510009766,0.1713559627532959,0.046870656,0.048435975,749.7280565934373,-0.054322903086518215,7.541258989297485,100.0,9600,1.5158967971801758,4.3539868454826286e-05,4.129275702935156e-05,743.9136181455082,100.0
125,1.8847265243530273,749.8603283915703,31.259353776398275,793.5863001036407,637.8499839188438,100.0,2.233058005404949,0.1,0.008652687072753906,0.1715686321258545,0.04900042,0.029798485,749.7412837732505,-0.059617064102894184,7.4833827132512925,100.0,9600,1.5381309986114502,4.9187261870454813e-05,4.8323486857761576e-05,744.4874535758402,100.0
126,1.8795993328094482,753.9010141601162,29.44221344455955,794.03172234787,683.0390772279763,100.0,1.8780116389257566,0.1,0.00844430923461914,0.17121052742004395,0.045667313,0.0057043205,750.157256811937,-0.056652080491162014,7.523736508012086,100.0,9600,1.5617899894714355,3.8371152427249136e-05,3.3952008865947327e-05,744.2327450437548,100.0
127,1.884188175201416,750.9181961524285,28.802301536089278,794.3554750892984,648.2241052815704,100.0,1.4869033156434999,0.1,0.008389949798583984,0.17070746421813965,0.05076271,0.036201593,750.2333507459862,-0.05809995365633646,7.493968325802524,100.0,9600,1.5667457580566406,4.057561596136599e-05,3.8707532752240774e-05,743.552089577713,100.0
128,1.9123759269714355,749.4631321190428,30.194546154533036,794.6156528521326,665.244987229104,100.0,1.7342166274096975,0.1,0.008303165435791016,0.1709892749786377,0.048980255,0.020268364,750.156328883292,-0.05820783066923765,7.4792829735475665,100.0,9600,1.5669450759887695,4.861882277867466e-05,4.913878150741964e-05,743.5940455081408,100.0
129,1.886833667755127,747.1676291356376,28.407339104084883,793.2157004085116,653.8389698982572,100.0,1.3066822554990232,0.1,0.008507251739501953,0.1738300323486328,0.044210814,0.042734202,749.8574589085266,-0.060548175629182056,7.456517448183587,100.0,9600,1.5478436946868896,8.307258240934472e-05,6.73189694320765e-05,742.9095996146809,100.0
130,2.003894329071045,747.6540537811496,36.242664196240156,795.3166425559174,639.3594104954159,100.0,1.8951104715682516,0.1,0.008385419845581055,0.17304658889770508,0.046207584,0.03287953,749.637118395789,-0.06540675311656441,7.461343858232989,100.0,9600,1.5589790344238281,9.48804614434873e-05,7.861666145424268e-05,742.211001420297,100.0
131,2.0117733478546143,750.055709904475,33.03948201354874,795.6218927234064,643.5230412004049,100.0,2.301893149944883,0.1,0.008503913879394531,0.17981505393981934,0.048751324,0.046092402,749.6789775466576,-0.05809084082749514,7.4852356088704255,100.0,9600,1.5625388622283936,7.536845137769107e-05,6.914731470055566e-05,743.4545485715735,100.0
132,2.012728691101074,749.8461123419896,28.075112117851702,793.5150949590292,670.3983346818917,100.0,1.883700576834417,0.1,0.009801149368286133,0.202317476272583,0.049430456,0.065814845,749.6956910261908,-0.058641656774605554,7.483154912175595,100.0,9600,1.8860876560211182,6.167846853761818e-05,6.124743216963084e-05,744.2504618451762,100.0
133,2.0099058151245117,746.617638385761,27.40770484685204,795.0605019178385,675.7356942614316,100.0,2.175607862901053,0.1,0.00841665267944336,0.17206668853759766,0.038600896,0.051612932,749.3878857621479,-0.05948891763018615,7.450825866549402,100.0,9600,1.5500283241271973,6.0174757246198096e-05,5.5810741959882316e-05,743.8786897595007,100.0
134,2.0552914142608643,746.9927210172037,31.52696458618706,794.4229203336693,641.9220127876716,100.0,1.6345530296770643,0.1,0.008667469024658203,0.18099069595336914,0.047927115,0.05569119,749.1483692876535,-0.061693550360176756,7.454637704969964,100.0,9600,1.5438566207885742,5.376822216709853e-05,4.9692848974326215e-05,742.7237875161416,100.0
135,1.8777353763580322,745.5913791913526,31.044222857152732,794.7396204675723,661.787947283138,100.0,2.1985875555348664,0.1,0.008326530456542969,0.17278051376342773,0.04772437,0.019667523,748.7926702780235,-0.062259444219407344,7.440615596576848,100.0,9600,1.5357108116149902,5.7086689668484826e-05,6.528829027461922e-05,742.4573118449148,100.0
136,1.8620920181274414,751.0148290895617,30.67558841828533,795.2000693735769,646.475555727316,100.0,1.678528357896374,0.1,0.008158683776855469,0.16770601272583008,0.04566944,0.035988346,749.0148861591773,-0.05717002206097016,7.494862089136659,100.0,9600,1.5449590682983398,7.003010291882413e-05,5.6401355968197604e-05,742.2558986739606,100.0
137,1.839942455291748,744.9386218836222,32.62593286898571,794.1514548632051,643.4859630707889,100.0,2.195245928747787,0.1,0.008314847946166992,0.16797423362731934,0.04651702,0.016620472,748.6072597316218,-0.06573641761546734,7.434036996546112,100.0,9600,1.534036636352539,5.081251385506379e-05,5.1121310756430734e-05,741.6848897412203,100.0
138,1.8885016441345215,750.947111482138,32.79577870216587,795.0506411150783,653.9435720231372,100.0,1.978849461008217,0.1,0.008408784866333008,0.16924214363098145,0.047184225,0.034295026,748.8412449066734,-0.05949489578975461,7.494156198864499,100.0,9600,1.5412800312042236,5.52527812184669e-05,4.81610355309878e-05,741.879248515637,100.0
139,2.067567825317383,749.8303229463585,31.10625423079249,794.5277707188551,648.8316123879875,100.0,1.775127827116305,0.1,0.008603334426879883,0.17095422744750977,0.046146963,0.025163673,748.940152710642,-0.058584419231819417,7.483029219846344,100.0,9600,1.5354793071746826,5.5273354800221854e-05,5.078491965756019e-05,742.7400190435142,100.0
140,2.017091751098633,751.5832000865233,29.482385143295346,794.4531535460477,660.7674865158198,100.0,2.0457387904440085,0.1,0.008066654205322266,0.1678297519683838,0.045430865,0.01585638,749.2044574482302,-0.05876998438773917,7.500499790610367,100.0,9600,1.519566535949707,5.06948373313108e-05,3.6742589573955325e-05,742.7378904647028,100.0
141,2.1186347007751465,748.9150271706327,32.473905174548115,794.9835754283474,639.3169019669366,100.0,1.8594963415059975,0.1,0.008385419845581055,0.17406296730041504,0.046677276,0.03965383,749.1755144204704,-0.06283715102738663,7.473937471145085,100.0,9600,1.5517518520355225,6.895391859003864e-05,6.413043749030383e-05,742.1236855006614,100.0
142,1.8901355266571045,750.5368276915982,27.897060499368845,795.6738419423665,686.4029825019035,100.0,2.3654171449879637,0.1,0.008404731750488281,0.16899585723876953,0.03991915,0.019877525,749.3116457475833,-0.05863803679928523,7.490074412697425,100.0,9600,1.5547733306884766,4.845882833459715e-05,4.1503704572077025e-05,743.0589838552331,100.0
143,1.8664045333862305,749.6682730130432,31.738100778259792,794.8465137684575,650.082288694403,100.0,1.9104430336520044,0.1,0.008557796478271484,0.17024517059326172,0.044711642,0.017736714,749.3473084741292,-0.060488086515567176,7.4814195381063655,100.0,9600,1.5525951385498047,5.051365777658287e-05,4.492541142044172e-05,742.8707913080018,100.0
144,1.8903076648712158,751.8399131977194,29.59220775189452,795.0399527516607,652.8184248399975,100.0,1.423164193754258,0.1,0.008373498916625977,0.17079615592956543,0.049498603,0.02832728,749.5965689464883,-0.0584122564715871,7.503107408882258,100.0,9600,1.4985337257385254,6.88036011259125e-05,5.937802288570737e-05,743.5041679339575,100.0
145,1.8491592407226562,748.0727103120222,31.99653302494049,794.3841479471702,637.9552410003666,100.0,1.893854240253399,0.1,0.00980830192565918,0.2081747055053711,0.04675133,0.038554963,749.4441830830417,-0.06666465728212141,7.465481545624674,100.0,9600,1.7886168956756592,5.781624201681546e-05,4.910995565380301e-05,742.5627919382964,100.0
146,1.8809959888458252,747.917676793867,32.14465912971059,794.8846639659263,653.8571719793381,100.0,1.9424266099528373,0.1,0.008600473403930664,0.1712794303894043,0.044373363,0.053258058,749.2915324541242,-0.06854319328458104,7.463860677893742,100.0,9600,1.5036277770996094,4.673981165279588e-05,4.0862815385084955e-05,742.4931753398591,100.0
147,2.0080156326293945,740.3721515318502,32.81332315423278,793.5714925679724,641.8670124231778,100.0,1.8365519191085236,0.1,0.008379697799682617,0.1665194034576416,0.047406014,0.05762773,748.3995943618968,-0.07330761012979896,7.388372954908099,100.0,9600,1.5065398216247559,9.369406828929353e-05,7.745034484361196e-05,740.4551598601755,100.0
148,2.0526206493377686,748.8154197606303,33.405585448759254,794.7825798240472,635.9048371280415,100.0,1.6953247206414688,0.1,0.008297204971313477,0.16653919219970703,0.04879574,0.06935924,748.4411769017702,-0.06443980174851678,7.472901121812723,100.0,9600,1.507378339767456,5.07418640076858e-05,4.811751877748032e-05,740.0421911776972,100.0
149,2.0549793243408203,753.0415816439381,29.47086480071894,796.2012325735376,651.4343966362081,100.0,1.6391737086727787,0.1,0.00783538818359375,0.16707515716552734,0.04820521,0.045325715,748.901217375987,-0.05883744728177346,7.51508160996671,100.0,9600,1.5134756565093994,5.3450836553151687e-05,4.8537874467400035e-05,742.0137491782554,100.0
150,1.8992278575897217,752.8998994681227,26.054490116899892,794.2244139707517,676.884780582858,100.0,1.9829462932198632,0.1,0.014362812042236328,0.1670832633972168,0.047381762,0.047394924,749.3010855852007,-0.058784067984436916,7.513684565434808,100.0,9600,1.4815475940704346,4.307850186488773e-05,3.697651123297288e-05,739.9929948332192,100.0
151,1.8856778144836426,749.6933566716242,30.636337792714055,794.9681057793925,671.6643021514166,100.0,2.238197899700396,0.1,0.00829458236694336,0.1662306785583496,0.048080392,0.030528275,749.3403126938431,-0.06199450608085678,7.48171842111802,100.0,9600,1.4773778915405273,6.684297150867408e-05,6.214209489390452e-05,742.1916055144435,100.0
152,1.8794901371002197,747.3363255000827,34.55815744877935,795.3691535773442,641.992177575096,100.0,2.225579917676578,0.1,0.008385658264160156,0.16907477378845215,0.046998896,0.033977922,749.139913974467,-0.06600315376386702,7.45812772302649,100.0,9600,1.4893357753753662,8.417237514939325e-05,7.104858374550418e-05,742.9252851442241,100.0
153,1.9093985557556152,747.5030664222558,31.551988155955133,795.5010631062687,643.4940233540206,100.0,2.4183799028715147,0.1,0.00812077522277832,0.16922903060913086,0.045316275,0.024504522,748.976229219246,-0.0691565558127538,7.459805942242002,100.0,9600,1.4950611591339111,8.236352119496048e-05,6.38492842939384e-05,742.4838779292616,100.0
154,1.8725130558013916,751.7254424422327,36.28570681823053,796.1274707147063,637.4663655110573,100.0,2.499701388837398,0.1,0.015471220016479492,0.17309260368347168,0.047414027,0.02662476,749.2511505415446,-0.0639457413787105,7.501960434057068,100.0,9600,1.4794278144836426,6.734152519598415e-05,7.255492063847727e-05,739.905338210503,100.0
155,1.8567612171173096,749.0257672736152,31.494855621360575,795.1102386348806,651.6255458919794,100.0,1.453618410008932,0.1,0.008383750915527344,0.17107367515563965,0.048219066,0.058922336,749.2286122147517,-0.06499218369629449,7.474940442529449,100.0,9600,1.4605844020843506,7.058702862144978e-05,5.675920647208137e-05,741.4435133852272,100.0
156,2.024170398712158,749.3691196292126,33.78580261706883,794.4805306844834,631.4256016969958,100.0,1.3530395968265885,0.1,0.008610963821411133,0.17516613006591797,0.048464343,0.078201614,749.2426629561978,-0.06382755880944034,7.478483943544041,100.0,9600,1.4302427768707275,9.632624108510517e-05,8.964168212270979e-05,743.1157507960978,100.0
157,2.0356876850128174,752.3069414477499,28.145331656505224,795.2116185823725,653.6049657559743,100.0,1.5748218219786918,0.1,0.008396387100219727,0.17255949974060059,0.048019875,0.03521382,749.549090805353,-0.061192569023211664,7.507792428915951,100.0,9600,1.4449520111083984,5.680194266068936e-05,5.202459834745067e-05,743.1526850896089,100.0
158,2.0944905281066895,751.1507236676498,31.379317533794534,794.6165980706518,673.8666678743417,100.0,1.774354942300883,0.1,0.008036136627197266,0.16789817810058594,0.050597616,0.006889482,749.7092540915827,-0.06367072940343838,7.49617694196424,100.0,9600,1.4421567916870117,9.286949718620332e-05,8.726196581690124e-05,742.9285381435302,100.0
159,1.8634989261627197,749.834284676845,27.662667112343488,794.9503938991705,678.2368772507355,100.0,1.7981637102440422,0.1,0.008255481719970703,0.1681523323059082,0.04749781,0.044617683,749.7217571501089,-0.06326030751612446,7.483006513321054,100.0,9600,1.4473776817321777,5.1007397167875676e-05,5.0897106583210035e-05,743.9482274085092,100.0
160,1.9157698154449463,748.4853826286917,29.502185627220562,796.0435657898953,655.96612881814,100.0,2.1617951506072246,0.1,0.00818777084350586,0.1663956642150879,0.048624095,0.04619618,749.5981196979673,-0.06442859329991163,7.469508723591569,100.0,9600,1.487816572189331,5.845393464457195e-05,4.2928555893109755e-05,743.4882471141505,100.0
161,1.877819299697876,751.985237548674,30.785252765994937,795.7349139198406,636.163906443415,100.0,2.238381288778474,0.1,0.008046865463256836,0.1668546199798584,0.048277542,0.024933882,749.8368314830379,-0.06100010467058355,7.504498888303606,100.0,9600,1.5252065658569336,0.00010375542637283767,0.00010143722715953996,743.8709502860358,100.0
162,1.8352813720703125,753.2501560226052,31.715519067578565,794.7740568057224,633.2927011027348,100.0,2.4799628653188672,0.1,0.008246898651123047,0.1729116439819336,0.038101636,0.014774901,750.1781639369947,-0.06126786876660376,7.5171938438004275,100.0,9600,1.536893367767334,7.744789750516359e-05,7.357407749831996e-05,744.0518247021946,100.0
163,1.8570153713226318,753.3677885098183,33.64410484842335,795.803057073133,664.8796924494013,100.0,2.163595741032767,0.1,0.008086204528808594,0.16715383529663086,0.043439385,0.02974865,750.4971263942771,-0.059681221229431265,7.518389642577074,100.0,9600,1.5114989280700684,8.800055723926637e-05,8.832137229469645e-05,743.3715648006211,100.0
164,1.9896047115325928,751.3680123209311,31.835060920711374,795.6560794261391,635.9629832109102,100.0,2.254732155684189,0.1,0.00824284553527832,0.1682898998260498,0.049945906,0.038334437,750.5842149869426,-0.058814495849533195,7.498340507314793,100.0,9600,1.5364372730255127,0.00011098373968630715,9.08886266670527e-05,743.5359973850427,100.0
165,2.0120742321014404,750.5928773529878,30.55767795636258,796.3880284098584,677.7205160786503,100.0,1.6626103000529464,0.1,0.007966756820678711,0.16543221473693848,0.04868513,0.057853658,750.5850812235471,-0.061542801418295136,7.49057328092299,100.0,9600,1.5313360691070557,5.006422364871501e-05,3.160734750882824e-05,743.9133878230847,100.0
166,2.0850441455841064,744.936983879038,32.476588165511984,794.959765635263,620.978035547223,100.0,2.6063469553292484,0.1,0.008292198181152344,0.17106223106384277,0.045881595,0.031062914,750.0202714890962,-0.06983179256372046,7.434051397214653,100.0,9600,1.5465123653411865,0.00014702008760541157,0.00013393668373912245,743.3136036930687,100.0
167,1.8965425491333008,748.9880065673374,32.67372103154446,795.7315055285769,644.5633287163085,100.0,2.418363173758308,0.1,0.008559942245483398,0.1706080436706543,0.046875678,0.02423435,749.9170449969204,-0.0687343239530734,7.474561874284897,100.0,9600,1.5328123569488525,5.826613230744346e-05,5.2336774535647385e-05,743.4522356617606,100.0
168,1.939046859741211,753.3515730232511,29.739171889058547,794.9666067875254,678.7486899045496,100.0,2.0788644343351796,0.1,0.008658885955810547,0.17122554779052734,0.049467284,0.03986288,750.2604977995535,-0.06057795559869882,7.518155338570074,100.0,9600,1.5294156074523926,6.0421234218490864e-05,5.824062413863759e-05,743.2238442159152,100.0
169,2.045978546142578,747.8190821300309,33.613998847670956,795.1442805918823,603.4654897180817,100.0,2.0005068171620857,0.1,0.008467674255371094,0.17083263397216797,0.04880849,0.044810582,750.0163562326013,-0.06634411282983256,7.462837003121208,100.0,9600,1.5088634490966797,9.179866538759599e-05,7.019223210985161e-05,743.3626538378687,100.0
170,1.8586950302124023,750.5235144749404,29.30644158391501,796.5202183547108,624.9556855019548,100.0,1.9498469302821317,0.1,0.008448600769042969,0.16896414756774902,0.045596328,0.047008052,750.0670720568353,-0.06263097066558383,7.4898888784503255,100.0,9600,1.5384798049926758,6.202069402766844e-05,5.301622330100738e-05,743.4111579415526,100.0
171,1.9145748615264893,756.896240074665,28.31146683800502,794.8404995182225,673.4113421937155,100.0,2.049236238449513,0.1,0.008774518966674805,0.17047548294067383,0.04616241,0.024088657,750.7499888586183,-0.05592244507319852,7.553598370845225,100.0,9600,1.5484979152679443,3.554090767899434e-05,3.249286878846929e-05,743.5336421488212,100.0
172,1.8747515678405762,750.3410453972706,32.08021974947776,796.6563632147795,645.7341333567634,100.0,2.4177115354835195,0.1,0.008477449417114258,0.17064237594604492,0.047038615,0.03763643,750.7090945124836,-0.0651965423372922,7.48808254879642,100.0,9600,1.576322078704834,8.753759410507822e-05,8.279039493189288e-05,743.1047397348971,100.0
173,2.0311903953552246,754.6774979048063,25.323522108960173,795.7729628247831,686.2542970683369,100.0,2.2615508221259453,0.1,0.00845646858215332,0.17027688026428223,0.043683168,0.04498097,751.1059348517159,-0.05684374859172334,7.531408881676505,100.0,9600,1.603302001953125,4.187552482860319e-05,4.0242473810903996e-05,743.4384991461905,100.0
174,2.012200117111206,754.4580979294109,29.86247792128669,795.8658169829157,640.1429187345906,100.0,1.8431985499217112,0.1,0.009937524795532227,0.20805668830871582,0.049288012,0.06615572,751.4411511594855,-0.05888769664042526,7.529243190650509,100.0,9600,1.9260060787200928,5.3613255019341964e-05,5.227664378244087e-05,743.8067204743315,100.0
175,2.1150662899017334,744.9048504946899,31.734379631005268,796.3523592521638,647.3294078820267,100.0,2.469606032139792,0.1,0.00853109359741211,0.16877365112304688,0.044146232,0.051450513,750.7875210930058,-0.07276479415226057,7.433699536055779,100.0,9600,1.5670278072357178,5.631342768065078e-05,5.058549306238179e-05,743.4997536577173,100.0
176,1.850459337234497,750.1859829027263,36.094770951163056,795.7612543825805,620.5902966060725,100.0,2.3179673366415803,0.1,0.008450746536254883,0.1701953411102295,0.050866857,0.03591768,750.7273672739778,-0.06580657518719611,7.486550778496693,100.0,9600,1.5874371528625488,7.165616262303709e-05,7.075662704467108e-05,743.1991552650504,100.0
177,1.8514013290405273,752.2385918584233,32.131139430799635,796.1621280024602,639.0378736607357,100.0,1.7425108167642054,0.1,0.008144140243530273,0.17461204528808594,0.051327683,0.02839926,750.8784897324224,-0.06315242215478845,7.5070855861294445,100.0,9600,1.620866060256958,7.158917500527382e-05,6.304478011351273e-05,742.660362714464,100.0
178,1.872802972793579,749.7882960183223,31.9413387712349,796.7461511723536,666.2154551229224,100.0,2.8549890084521317,0.1,0.008176803588867188,0.1725926399230957,0.043740842,0.04489514,750.7694703610124,-0.06524765857811048,7.482648701009695,100.0,9600,1.5701608657836914,4.960416467912862e-05,4.3823784938561e-05,743.5055196155338,100.0
179,1.8250541687011719,743.9678763652096,37.1748009901805,796.5813913999251,615.0111236847553,100.0,2.3011568459152825,0.1,0.00826120376586914,0.17075061798095703,0.04759326,0.026209429,750.089310961432,-0.07133070961413142,7.424368480005758,100.0,9600,1.5190281867980957,8.95419970577771e-05,7.886402723210204e-05,743.46738173738,100.0
180,1.8580145835876465,747.4829784032232,31.578607858579446,794.5841870851546,659.5647601788472,100.0,2.0480656031520432,0.1,0.008555412292480469,0.17032647132873535,0.044958126,0.031535007,749.8286777056112,-0.06659548202875214,7.459611803598611,100.0,9600,1.5164227485656738,4.2865893288522854e-05,4.2275400044524157e-05,743.7008812997105,100.0
181,1.9858992099761963,751.4870192787786,31.727959339378778,795.8192684909438,644.454650708934,100.0,1.6945568784944172,0.1,0.008314371109008789,0.17026877403259277,0.04752783,0.056182895,749.9945118629279,-0.05969807638638988,7.499592731667526,100.0,9600,1.5015177726745605,5.985033753754051e-05,4.7527509969042304e-05,743.5670453163282,100.0
182,2.094604015350342,748.6151319503033,32.71672283746677,796.4536909227571,639.5542585016582,100.0,2.0481212907741386,0.1,0.008518218994140625,0.17350411415100098,0.05432984,0.02663991,749.8565738716654,-0.06534400220767496,7.470912239099174,100.0,9600,1.5044732093811035,6.69627291680302e-05,6.412661362230136e-05,743.5837950984918,100.0
183,2.0831282138824463,753.085406535192,30.939007715386268,796.2056604550077,656.0029750355271,100.0,1.8394602198689118,0.1,0.008449792861938477,0.16804862022399902,0.049312204,0.03611435,750.1794571380182,-0.06227457662344268,7.515546140455581,100.0,9600,1.5104262828826904,4.779488713038534e-05,4.1195407046730185e-05,743.6353682570436,100.0
184,1.8312523365020752,750.8909219270854,34.13049671697091,796.169547567184,653.773222987329,100.0,1.7883860599862857,0.1,0.008411407470703125,0.167799711227417,0.045832083,0.07169767,750.2506036169249,-0.06307457797443021,7.493572853724127,100.0,9600,1.5285789966583252,6.662213953190143e-05,5.800761079539521e-05,743.6493963148283,100.0
185,1.8735861778259277,752.2512004824797,27.633417826346857,796.39561440343,661.0114674740554,100.0,1.9147203097146768,0.1,0.008421659469604492,0.1710362434387207,0.048065875,0.03896293,750.4506633034804,-0.05691555961566123,7.507197845666274,100.0,9600,1.4965019226074219,3.325725927637156e-05,3.235007103201553e-05,743.4705011156929,100.0
186,1.866614580154419,751.7986207222215,29.9579234294986,795.1435819418656,660.3090471087736,100.0,1.9985140598325095,0.1,0.008383035659790039,0.17400336265563965,0.049802326,0.04299422,750.5854590453545,-0.06309481322641589,7.502749593808491,100.0,9600,1.523987054824829,5.767811878845068e-05,4.523880939877486e-05,743.8289267049757,100.0
187,1.854886770248413,756.8980839903578,26.56651969391335,796.4128270978903,691.1423912523536,100.0,1.7773283058978868,0.1,0.008901596069335938,0.1741163730621338,0.04950309,0.080496326,751.2167215398548,-0.05382378024726503,7.553678149279096,100.0,9600,1.5197837352752686,4.5031438027683796e-05,3.835328310955331e-05,743.6455939617936,100.0
188,1.8845925331115723,746.1359481892588,32.77937571460741,795.3411289402922,662.9487951522354,100.0,1.867137723021017,0.1,0.008229970932006836,0.17000246047973633,0.04588436,0.033243027,750.7086442047952,-0.0674219691664983,7.446029145262211,100.0,9600,1.511864423751831,7.512384080348854e-05,8.038811221360943e-05,744.1038046175913,100.0
189,1.8705143928527832,753.3232365220268,30.206233605340465,796.4838481115459,654.0466137589602,100.0,2.169832134593429,0.1,0.008303403854370117,0.16762971878051758,0.0483301,0.03345306,750.9701034365183,-0.05795355279765214,7.518007199989609,100.0,9600,1.5101401805877686,6.829950718534284e-05,5.693003308132018e-05,743.7845770673448,100.0
190,2.003751277923584,753.1915026342771,27.723826233663743,796.3291171695843,691.5165088580155,100.0,1.7720061596960477,0.1,0.008486509323120117,0.1689434051513672,0.050373815,0.0979064,751.1922433562942,-0.05982298167415395,7.516649909548984,100.0,9600,1.5258851051330566,5.400975521205827e-05,4.593938779349422e-05,743.7844217844001,100.0
191,2.0428547859191895,752.3768648454725,30.114856673722173,796.3435549532828,638.0235693696948,100.0,2.0585286376103604,0.1,0.008373498916625977,0.1699376106262207,0.048929907,0.030449217,751.310705505212,-0.059252386848503764,7.508377543111969,100.0,9600,1.5410847663879395,6.364863923296002e-05,6.684265385449836e-05,743.876325785332,100.0
192,2.042872428894043,756.6504498489425,26.34351490052605,795.6858819835209,676.2095678984932,100.0,1.8623758477497472,0.1,0.008095502853393555,0.16992640495300293,0.044842884,0.09480016,751.8446799395851,-0.052591204911846906,7.551215094924108,100.0,9600,1.571998119354248,4.1404433209200824e-05,2.8350021580627955e-05,743.5766228980533,100.0
193,1.8598637580871582,751.8905632574309,26.24014288295429,796.7786383624958,669.33347839197,100.0,1.6156743644145366,0.1,0.008282184600830078,0.16634130477905273,0.045855448,0.0077287094,751.8492682713697,-0.056788965373122835,7.503629602206398,100.0,9600,1.5562875270843506,5.2474996619793256e-05,5.365137873660477e-05,743.0417625674886,100.0
194,1.8551068305969238,753.1379207904366,26.567405491550623,796.4491081740267,671.1257627180883,100.0,1.2897732658379992,0.1,0.008243083953857422,0.1705915927886963,0.048608154,0.11624963,751.9781335232765,-0.057107056326033856,7.516114666637545,100.0,9600,1.5386123657226562,4.727491474923123e-05,4.2442296603244926e-05,742.8656593472656,100.0
195,1.8400137424468994,748.0825154637242,31.24350438528704,796.5050585894967,665.4084274582813,100.0,1.9876783601877965,0.1,0.008119583129882812,0.168229341506958,0.048324097,0.27233118,751.5885717173212,-0.06495622200366209,7.465556739745768,100.0,9600,1.5401604175567627,5.587691705686914e-05,6.221847637829337e-05,742.8845236041815,100.0
196,1.8716368675231934,752.2934827070736,29.116256167388666,795.3572068664515,660.8221516010926,100.0,2.23131914094753,0.1,0.008216142654418945,0.16805434226989746,0.048392415,0.020115435,751.6590628162965,-0.060969112609477044,7.507604361107206,100.0,9600,1.5474305152893066,5.397753198891373e-05,3.680033910469038e-05,742.9420901242077,100.0
197,1.8643839359283447,756.0470555480056,24.144614131563472,796.9165636042027,693.932906123454,100.0,2.0082075005340543,0.1,0.008259773254394531,0.16884350776672363,0.045867976,0.04276852,752.0978620894674,-0.05528317357054701,7.545100167820396,100.0,9600,1.5755643844604492,3.907874568339223e-05,3.301201769612185e-05,742.5819023530781,100.0
198,2.040470600128174,748.9899925416057,29.806219845852535,796.9887252675832,661.2245283392401,100.0,1.4291202933953124,0.1,0.0084228515625,0.17037653923034668,0.048053067,0.027301358,751.7870751346812,-0.061781015762675216,7.4746759991589755,100.0,9600,1.6041781902313232,4.818737640407445e-05,5.021926330878964e-05,742.8257503661497,100.0
199,2.055176258087158,751.0767118206617,30.538911427885548,796.7564450811678,645.6917574241951,100.0,1.9535055593375723,0.1,0.008385181427001953,0.1689901351928711,0.047112454,0.040618494,751.7160388032793,-0.061573268988253056,7.495407007778883,100.0,9600,1.6130571365356445,6.111315298004738e-05,7.696823692910025e-05,743.50242777221,100.0
200,2.0879039764404297,752.1021121154555,30.729817447690905,795.4350614671933,640.723568794847,100.0,1.2366918078432019,0.1,0.008429765701293945,0.16918396949768066,0.049856957,2.7075124,751.754646134497,-0.05883684595446004,7.505688020938057,100.0,9600,1.59263277053833,9.457507479820385e-05,5.7876723786386565e-05,743.7264711488585,100.0
201,1.9041306972503662,753.2251132953955,31.297847386468185,796.8778991102357,629.2987004206091,100.0,1.750884868685908,0.1,0.008405208587646484,0.16832208633422852,0.050201926,0.02601648,751.9016928505869,-0.05893521536242311,7.516978097317984,100.0,9600,1.5585951805114746,6.247906933465664e-05,5.6982238178950986e-05,743.4546538388054,100.0
202,1.8973796367645264,751.9208598049803,31.322232724939234,796.5251008298344,667.497452972717,100.0,1.586585702763184,0.1,0.008598804473876953,0.16805481910705566,0.049171157,0.042702585,751.9036095460262,-0.05877460956176724,7.503833093539065,100.0,9600,1.5533702373504639,4.685755418994723e-05,3.373197611884291e-05,743.5951291595841,100.0
203,1.8998751640319824,751.8754938962884,31.308962471768172,797.2477867863955,614.2015259265823,100.0,1.8243890513659675,0.1,0.00901031494140625,0.17631769180297852,0.04441267,0.01584566,751.9007979810525,-0.05903592406194605,7.503497664903012,100.0,9600,1.5539236068725586,5.460449427297832e-05,4.9685576234942604e-05,743.5296252163419,100.0
204,1.9153616428375244,758.0300109902513,27.453129911009565,795.5079111819368,681.7733271832385,100.0,1.92587320656351,0.1,0.00809478759765625,0.17193269729614258,0.04803984,0.057733327,752.5137192819724,-0.05264628303166926,7.56504806202378,100.0,9600,1.541308879852295,4.005751966948235e-05,4.148063399141128e-05,743.7460105256667,100.0
205,2.0216052532196045,754.8781847725669,26.9891780777022,796.8974357562113,654.6817894469749,100.0,1.6027366499722266,0.1,0.00797414779663086,0.16879510879516602,0.046991445,0.037262168,752.7501658310318,-0.05507747400682166,7.533436541165414,100.0,9600,1.5526108741760254,4.324070601212473e-05,4.2464206609568164e-05,743.9412536279558,100.0
206,2.0723578929901123,752.9586083434042,29.634001519696653,796.7638596761747,644.0211987023275,100.0,1.8637862566971206,0.1,0.008437633514404297,0.16971063613891602,0.050048288,0.049698878,752.7710100822691,-0.056121211627987715,7.514291773991516,100.0,9600,1.5611581802368164,8.173701170714915e-05,7.738307672418277e-05,744.2086590692284,100.0
207,1.8708937168121338,747.2899979205805,37.2548214973302,797.1732883972294,620.0686243797121,100.0,1.9789741773014462,0.1,0.008100271224975586,0.16819524765014648,0.049237628,0.044776406,752.2229088661003,-0.06507378850184845,7.457655940410997,100.0,9600,1.5444586277008057,0.00010885491384251167,8.389056502047573e-05,744.2135652231486,100.0
208,1.884249210357666,753.7066016924969,29.996210241381288,796.8720857488489,659.5949347933214,100.0,1.649731493299004,0.1,0.008222579956054688,0.16951632499694824,0.05097358,0.042121686,752.37127814874,-0.055060006916009895,7.521742879159589,100.0,9600,1.5690901279449463,5.680907885338784e-05,5.122733992658938e-05,744.0082993809383,100.0
209,1.8515825271606445,750.6249657836314,32.03363192982044,796.664925174541,663.174803243176,100.0,2.1204683357087775,0.1,0.008043766021728516,0.16927075386047363,0.051013853,0.04008797,752.1966469122292,-0.06149382469008208,7.490923404343996,100.0,9600,1.579024314880371,6.574914743077229e-05,0.0001113217705407349,743.8113172716508,100.0
210,1.8223505020141602,755.7944529989599,33.59879704646574,796.4989379241807,607.9448705519593,100.0,1.863482800800838,0.1,0.008387088775634766,0.17107915878295898,0.047935907,0.08001963,752.5564275209023,-0.05646760503941465,7.542638302221769,100.0,9600,1.6256747245788574,0.00013404434320608496,7.953603423283611e-05,743.8336480841278,100.0
211,1.9957456588745117,747.6574494624251,28.890487659990615,796.6641603777578,681.874205028658,100.0,1.6596065170352592,0.1,0.008389949798583984,0.16917634010314941,0.049529,0.015690837,752.0665297150546,-0.06376829492041476,7.461185173699959,100.0,9600,1.5692555904388428,9.011414852649794e-05,6.610318795914395e-05,743.8390859209177,100.0
212,2.044264078140259,753.3044535142835,26.647249664725454,796.5720938709927,691.1750520213297,100.0,1.7709105658004216,0.1,0.008260011672973633,0.17022037506103516,0.04839816,0.04349895,752.1903220949774,-0.0554379222340205,7.517719500940198,100.0,9600,1.6004021167755127,5.68212794057728e-05,4.335792858828084e-05,743.5874457616262,100.0
213,2.0540170669555664,753.1291102453994,30.453157639435116,796.5113886285874,636.2588326849389,100.0,1.637436488361023,0.1,0.008291959762573242,0.17255091667175293,0.049918152,0.04183977,752.2842009100196,-0.05865329531866711,7.516009843065642,100.0,9600,1.6124777793884277,5.752505649704187e-05,4.528181659186181e-05,743.6666894351852,100.0
214,1.8632721900939941,753.8286879649098,30.28436639227338,795.9755150687761,619.5890162936322,100.0,1.9648113065425832,0.1,0.00827932357788086,0.16913843154907227,0.048560232,0.06560666,752.4386496155087,-0.06007778207686725,7.52295324631849,100.0,9600,1.5914831161499023,9.200362297989547e-05,9.344487502944824e-05,743.4008253524335,100.0
215,1.853414535522461,759.0516809483541,30.65323475066849,797.0751130020125,674.9194808561133,100.0,1.8308467027200093,0.1,0.00805354118347168,0.1733396053314209,0.04744486,0.048301376,753.0999527487933,-0.05480456929183686,7.575169368451335,100.0,9600,1.5765845775604248,5.048617988029057e-05,4.210427289225856e-05,743.0260096829227,100.0
216,1.8620424270629883,750.7208061430965,27.737005643986976,795.6269256216118,692.3029342579102,100.0,2.0749303416281566,0.1,0.008530139923095703,0.17431211471557617,0.050414633,0.049191896,752.8620380882237,-0.06301967811894599,7.4918991190790765,100.0,9600,1.6140711307525635,4.9987130705842696e-05,4.097854101427417e-05,743.3186640232102,100.0
217,1.8640012741088867,752.8838504220121,29.57249713029575,796.0553738820076,662.6354818671983,100.0,2.335838048494354,0.1,0.00810551643371582,0.17606115341186523,0.04689239,0.02725553,752.8642193216025,-0.06320542800862149,7.513507948600853,100.0,9600,1.5890765190124512,6.3065019189654e-05,5.304734142516791e-05,742.7889805731352,100.0
218,1.8591575622558594,751.2473425665052,26.81098669015314,796.8058831412853,656.5841410812415,100.0,1.6796178315736792,0.1,0.008099079132080078,0.1822817325592041,0.04954924,0.11183174,752.7025316460928,-0.06298138928001858,7.497180087616865,100.0,9600,1.5787105560302734,5.6506688844637605e-05,5.4224733008346764e-05,743.2153398751985,100.0
219,1.890345573425293,756.6476300468047,25.50698155425297,796.4412732178641,690.6733636384113,100.0,1.8969619415429302,0.1,0.008310079574584961,0.16811347007751465,0.04812782,0.03512182,753.097041486164,-0.053871983937756496,7.551150523117223,100.0,9600,1.616157054901123,3.7637176778622176e-05,3.18046260213628e-05,743.060775414083,100.0
220,2.0153040885925293,753.802884907579,32.39381659367614,797.0685736113634,625.026244103831,100.0,1.8740058186611699,0.1,0.008225440979003906,0.16969966888427734,0.04684955,0.021194842,753.1676258283056,-0.06193822396736517,7.5227495905367645,100.0,9600,1.6340162754058838,8.236690518554051e-05,7.903045977350736e-05,743.2404492230032,100.0
221,1.9875328540802002,752.3769755557274,27.465568335737306,796.6881649589069,646.8690101650603,100.0,1.993295322347108,0.1,0.008105278015136719,0.1714632511138916,0.04636189,0.04898934,753.0885608010478,-0.06274721148752947,7.508435908794688,100.0,9600,1.6132903099060059,5.4012485434528767e-05,4.979341799194668e-05,743.4164171435605,100.0
222,2.0501410961151123,753.7811054794503,30.61394945327909,796.6770154654441,651.3297290305982,100.0,2.0290092899139767,0.1,0.00822305679321289,0.16719794273376465,0.049063858,0.05211942,753.157815268888,-0.058841989797753826,7.522501176101294,100.0,9600,1.622990369796753,0.00011106402178659731,0.00010042042847550408,743.3430323295742,100.0
223,1.8950092792510986,748.0919674996836,34.31404124622569,796.9533842916098,597.8630955989537,100.0,1.8165992299873936,0.1,0.008147239685058594,0.17194581031799316,0.047424905,0.025881182,752.6512304919676,-0.06777278728865642,7.465801652076325,100.0,9600,1.6424829959869385,8.62365157083375e-05,8.72440372941569e-05,743.5649081271056,100.0
224,1.9015398025512695,748.954372475663,33.519573769233496,796.5708785604879,639.5082337691628,100.0,2.097143689287684,0.1,0.008236408233642578,0.17068099975585938,0.049854375,0.030468408,752.2815446903371,-0.0658748936660498,7.474261049617368,100.0,9600,1.6100695133209229,8.396926127640235e-05,9.445264102246893e-05,743.6990801996637,100.0
225,1.8865363597869873,754.4663446796109,28.00608005340134,796.4974361986527,684.8140646796323,100.0,2.0917072658845837,0.1,0.00828242301940918,0.17014646530151367,0.048174437,0.055926446,752.5000246892645,-0.05920238540563973,7.529296375105407,100.0,9600,1.6106293201446533,6.292753264169483e-05,4.028456177185054e-05,743.9072279928955,100.0
226,1.8985860347747803,758.6370937490705,25.18821731391231,796.7846885711888,682.1128789819718,100.0,1.5232557181226218,0.1,0.00953221321105957,0.20456910133361816,0.05155032,0.98047554,753.1137315952451,-0.051058761359368654,7.5710137901884025,100.0,9600,1.9367146492004395,3.457427076707069e-05,2.669404703824458e-05,742.4492470392858,100.0
227,1.8378050327301025,760.6624648398183,27.808289994528682,797.4722007083725,669.965609280899,100.0,1.71044342567589,0.1,0.009842395782470703,0.21329021453857422,0.050121512,0.034040414,753.8686049197024,-0.05019888369183902,7.591280577256924,100.0,9600,1.888099193572998,5.3860683922539576e-05,4.55903121175823e-05,743.1664108789207,100.0
228,1.8759799003601074,748.9804401874236,36.04281927937468,796.3185411543094,644.4054813787646,100.0,1.8255616678455528,0.1,0.009722709655761719,0.20238351821899414,0.04863353,0.04656873,753.3797884464745,-0.06519440309980233,7.474451497046428,100.0,9600,1.8892512321472168,0.0001050426236521739,9.453733264604043e-05,742.4661311320021,100.0
229,2.0025527477264404,751.91238313536,27.732185961648433,796.3324804715404,656.4168495639026,100.0,1.8674834241778449,0.1,0.008248567581176758,0.17198944091796875,0.04912837,0.04632544,753.2330479153632,-0.060241925862855816,7.503804294004637,100.0,9600,1.5727777481079102,5.6206831203220155e-05,4.217993138565229e-05,743.5775447767774,100.0
230,2.012493848800659,754.9424609070852,26.24591639151527,796.9436659162646,677.6952414620235,100.0,2.263381146256647,0.1,0.008306026458740234,0.17185401916503906,0.038523883,0.038892467,753.4039892145354,-0.05572262984410525,7.534021406556924,100.0,9600,1.6002728939056396,4.170512704873927e-05,3.767493620633325e-05,742.8108433800894,100.0
231,2.0160670280456543,751.6940314659146,28.930171302445665,796.1090812363727,668.858199830556,100.0,1.5344867143022822,0.1,0.008316278457641602,0.17206645011901855,0.04888543,0.3558405,753.2329934396734,-0.06174389013012715,7.5016055535457555,100.0,9600,1.5881328582763672,3.7852446687450804e-05,3.8547223548404216e-05,742.7995549309921,100.0
232,2.115433692932129,753.4584755756686,28.06323553642272,795.7712676092885,663.223546496066,100.0,1.6914950085602878,0.1,0.007959365844726562,0.16929411888122559,0.048763815,0.030659297,753.255541653273,-0.05934533953203782,7.519279454549867,100.0,9600,1.591336727142334,6.104896517412423e-05,7.917742613372633e-05,743.1355017476965,100.0
233,1.832782506942749,757.700390426245,25.709512633872688,796.8770649368344,684.8685642660952,100.0,1.4863138187162237,0.1,0.008294105529785156,0.169403076171875,0.04742072,0.061269086,753.7000265305702,-0.052915003849091986,7.561602679501362,100.0,9600,1.5878007411956787,7.976012402774327e-05,3.603738759505652e-05,742.5826763196549,100.0
234,1.8952155113220215,748.8632818143924,35.0960135228131,797.1802205344126,622.7297706664467,100.0,1.63274757875168,0.1,0.008384943008422852,0.1868448257446289,0.047717843,0.029429702,753.2163520589525,-0.06875540490808658,7.473490083750119,100.0,9600,1.5847625732421875,0.00015790199500427502,0.00014397983214851158,743.1632902221922,100.0
235,1.8403470516204834,752.0410404750941,32.36665755734617,796.7857695228108,601.5876725730703,100.0,1.670863102119756,0.1,0.008458614349365234,0.17292094230651855,0.045920864,0.035974715,753.0988209005667,-0.06269181861774624,7.505163828097904,100.0,9600,1.5906622409820557,0.00018555813049568623,0.00022716827993387597,743.8270146173104,100.0
236,1.9080479145050049,754.0213464334096,32.819496407787966,796.6982575901898,586.1623398127683,100.0,2.153661658611665,0.1,0.009494543075561523,0.20193910598754883,0.04799505,0.03377577,753.191073453851,-0.0574240354215994,7.52493156638857,100.0,9600,1.930675745010376,0.00023598296563311243,0.00016978988002730892,743.2351144949262,100.0
237,1.8701214790344238,752.5064281982671,27.52151613199187,795.3512280219827,665.3936757066598,100.0,1.7589176278525176,0.1,0.008561372756958008,0.1726675033569336,0.047877792,0.045202136,753.1226089282926,-0.057773933120132424,7.509721511210574,100.0,9600,1.584561824798584,7.207538961783625e-05,4.64347288875029e-05,743.0853853355889,100.0
238,1.8405773639678955,753.5954673687608,29.39287294842926,797.0471922213741,658.7910178946828,100.0,2.5790248385220256,0.1,0.008227109909057617,0.1703658103942871,0.044354245,0.026754092,753.1698947723394,-0.05814659677566799,7.520672507233722,100.0,9600,1.5644936561584473,0.00010935226327698582,0.00010661064814242378,743.4540820511871,100.0
239,2.007668972015381,756.580511539376,29.50795560901056,796.4040794104245,675.7909452960449,100.0,1.4771443400443842,0.1,0.008087158203125,0.16833281517028809,0.051244356,0.039115634,753.510956449043,-0.05320388531699455,7.550423347045616,100.0,9600,1.5799024105072021,7.41034740161538e-05,4.928260593136638e-05,742.9877292635424,100.0
240,2.09485125541687,756.5309542741905,29.259188532018662,797.3627009501307,687.9099718448481,100.0,1.7759778846759355,0.1,0.008194684982299805,0.1704235076904297,0.04649884,0.034449782,753.8129562315578,-0.055326695896929734,7.5499926597947535,100.0,9600,1.592231035232544,5.725355584000753e-05,5.339577671970715e-05,742.841335947057,100.0
241,1.9965426921844482,751.9867744950631,30.32987950301406,795.5732188438618,629.0398865203505,100.0,1.9260865203240074,0.1,0.008354902267456055,0.16849398612976074,0.049827818,0.08618534,753.6303380579084,-0.059762760686842525,7.504547091049452,100.0,9600,1.5816845893859863,8.354565035446521e-05,8.450807336324493e-05,743.209387369096,100.0
242,2.0240578651428223,745.4190541695685,30.01076731516161,797.0619163860368,661.8922581023598,100.0,2.1748249323567275,0.1,0.008543252944946289,0.17153167724609375,0.050363656,0.033727918,752.8092096690744,-0.06382781590274733,7.43895971428946,100.0,9600,1.6133337020874023,8.736411791646999e-05,7.165741882906965e-05,743.083046725621,100.0
243,2.0416927337646484,752.4832235942457,29.833929420312785,797.110293557118,685.6388339594996,100.0,1.5900541445088188,0.1,0.008202314376831055,0.1681520938873291,0.047439877,0.060384464,752.7766110615917,-0.059506965361624496,7.50947536779378,100.0,9600,1.6086461544036865,5.607705354540366e-05,4.774870325668742e-05,743.0053935570436,100.0
244,1.9377069473266602,748.8520421488671,29.513736431011832,796.4365106573496,668.0488206015754,100.0,2.1685074306641297,0.1,0.008410930633544922,0.17499947547912598,0.049837057,0.046380103,752.3841541703192,-0.062000829124857104,7.47323636048102,100.0,9600,1.5954201221466064,4.320716707455468e-05,4.039332015447806e-05,742.880121492346,100.0
245,1.922316074371338,746.7062344508158,28.1196718935916,795.2738610439078,657.7157390305956,100.0,1.8085178571533993,0.1,0.008250236511230469,0.16736197471618652,0.048647575,0.038276896,751.8163621983689,-0.06282555742467906,7.4518020827511515,100.0,9600,1.5765395164489746,4.8042072554843974e-05,4.14321816108734e-05,742.6746787194818,100.0
246,1.8687634468078613,748.3448999302694,30.83023511578281,794.953703846196,643.0864425519644,100.0,2.3897291053495455,0.1,0.008008241653442383,0.1679821014404297,0.04599036,0.02127223,751.469215971559,-0.06267518054526565,7.468148495806868,100.0,9600,1.572615623474121,5.3919963668234454e-05,5.435539163934845e-05,743.1558045001202,100.0
247,1.9022669792175293,756.8385670114252,27.047081582089092,797.0203814500342,662.5605218957802,100.0,1.8000305189503258,0.1,0.008424043655395508,0.17262673377990723,0.047754906,0.01244586,752.0061510755456,-0.052079157769849484,7.5530342264271155,100.0,9600,1.5781996250152588,4.017728777447665e-05,3.510452268990921e-05,743.5759814397125,100.0
248,1.8692560195922852,751.8011480794654,34.66522547248794,796.5797537720832,647.0463483411183,100.0,1.550442857937831,0.1,0.008249282836914062,0.1703941822052002,0.048987456,0.03101037,751.9856507759376,-0.05839784461750244,7.502720168124962,100.0,9600,1.5614862442016602,5.426743136997341e-05,5.4216822428810564e-05,743.5907495985664,100.0
249,1.8522944450378418,752.2509042659163,31.629632633679932,796.668322976506,637.646918001414,100.0,1.7605809707507907,0.1,0.008634328842163086,0.17507076263427734,0.046119794,0.040438347,752.0121761249354,-0.06039931787538907,7.507217732720398,100.0,9600,1.5711143016815186,4.566123437066136e-05,3.801479614706204e-05,743.5729949088155,100.0
250,2.0238752365112305,751.849225409734,28.832200672611833,796.3308339464924,670.4071655146752,100.0,1.9699845017065667,0.1,0.008967161178588867,0.16852450370788574,0.04661218,0.025809508,751.9958810534152,-0.05784968434292676,7.503169247695094,100.0,9600,1.5748951435089111,4.698972346353698e-05,3.8767562559373735e-05,743.6064733450471,100.0
251,1.9915518760681152,755.0749401172606,26.65203959879966,796.4863823107551,682.7428997241383,100.0,2.705602341917962,0.1,0.008372783660888672,0.17189979553222656,0.044021092,0.016701337,752.3037869597998,-0.056950500836118266,7.535466375575422,100.0,9600,1.5793085098266602,3.686953385523852e-05,3.4295659146880106e-05,743.3408639272162,100.0
252,2.006917953491211,748.8985850142323,32.44457820548623,797.2415622274987,661.6157060921346,100.0,1.5087973696722983,0.1,0.008153915405273438,0.16890978813171387,0.05292073,0.049728427,751.963266765243,-0.06295663705897707,7.473715039106324,100.0,9600,1.5638394355773926,7.46133292969005e-05,7.067207125220809e-05,743.4217012948918,100.0
253,2.118593692779541,752.5472975013639,27.93298558010845,797.2410301837352,669.5744602412304,100.0,1.888555380766912,0.1,0.007018089294433594,0.16077828407287598,0.048940036,0.07808692,752.0216698388551,-0.05748416299151807,7.51021617759709,100.0,9600,1.5631256103515625,5.934657101971288e-05,3.71159774476623e-05,743.5055526466822,100.0
254,1.9035398960113525,754.5717701384125,29.9709300984919,796.4662308116029,665.3161680677024,100.0,1.5946584450506325,0.1,0.008094072341918945,0.1713862419128418,0.050694004,0.052520964,752.2766798688109,-0.0558714215993563,7.530334170246711,100.0,9600,1.5809595584869385,4.746202193304077e-05,4.820305443257807e-05,743.1584147785076,100.0
255,1.884477138519287,751.9113014343244,28.79422009597226,797.5882018816988,645.7190695976448,100.0,2.019091186245742,0.1,0.00821685791015625,0.17209458351135254,0.049846098,0.022521723,752.2401420253623,-0.0575857517921986,7.503870023208822,100.0,9600,1.5896806716918945,5.463440608357866e-05,4.931931252060557e-05,743.057189857459,100.0
256,1.8565754890441895,754.0355544050071,26.477257824840287,796.9493449717172,683.394932386183,100.0,1.3646419477389358,0.1,0.008413076400756836,0.17315316200256348,0.049256034,0.045995813,752.4196832633268,-0.05589241122668764,7.525023987376262,100.0,9600,1.616426706314087,4.972876193073594e-05,4.5233884465414054e-05,743.5128804489951,100.0
257,1.8687503337860107,748.2609095485806,30.554997378706336,797.337407495701,651.3601373940952,100.0,2.0460086681175502,0.1,0.008292675018310547,0.16896390914916992,0.042755194,0.032087658,752.0038058918522,-0.06054791482149837,7.467282831082932,100.0,9600,1.645991325378418,6.244789643504392e-05,6.112813540911638e-05,743.4161985649071,100.0
258,1.8927266597747803,753.5377042775448,32.10868146166539,796.8571077625558,653.0836682086364,100.0,1.3781471777210235,0.1,0.008138418197631836,0.16904020309448242,0.04953928,0.030558245,752.1571957304214,-0.05678701355736445,7.5200148365090485,100.0,9600,1.6184728145599365,9.44983622247963e-05,6.602029556614812e-05,742.9967212326657,100.0
259,1.8617794513702393,753.0850719278769,27.923043584085804,796.3278407865025,670.5856404323251,100.0,1.6082405660079842,0.1,0.00824737548828125,0.16744470596313477,0.04870782,0.027335014,752.249983350167,-0.05531683985990569,7.515583817323038,100.0,9600,1.6008048057556152,5.97856620558203e-05,5.052640379585546e-05,743.3820083948413,100.0
260,2.012984275817871,755.7543693177657,29.26761348430562,797.5762375229118,648.710514206968,100.0,1.7792609903035608,0.1,0.008190393447875977,0.1684894561767578,0.045590103,0.036400866,752.6004219469269,-0.05506724984264039,7.542181760332092,100.0,9600,1.570735216140747,4.479942802381491e-05,4.2345362463003814e-05,743.7574409620761,100.0
261,2.0266757011413574,753.14058508865,26.968764732278256,797.4209947643199,684.7384996872615,100.0,1.727979539689567,0.1,0.00830841064453125,0.16980910301208496,0.0484434,0.038026914,752.6544382610991,-0.05469090516286743,7.51605469305601,100.0,9600,1.5157849788665771,3.43355831470516e-05,2.9884277391325215e-05,743.4396248012301,100.0
262,2.0300254821777344,751.3024706780319,28.57909900723132,797.0904898545285,666.2011037429764,100.0,1.650500771852418,0.1,0.00837087631225586,0.16730618476867676,0.04825974,0.0352125,752.5192415027925,-0.0602647921709629,7.497666732956194,100.0,9600,1.510077953338623,5.302826873574249e-05,5.113846503052e-05,743.289520110248,100.0
263,2.003429651260376,754.4891063243753,25.588909238966686,796.1978460028812,687.2763775134065,100.0,2.269315963429786,0.1,0.008124589920043945,0.16859984397888184,0.047556672,0.05242628,752.7162279849508,-0.05531197117585152,7.529549442975745,100.0,9600,1.5431914329528809,3.448052267006324e-05,6.0893989821494626e-05,743.7824786096908,100.0
264,2.1365599632263184,750.0527962922321,29.904891425857667,796.4516432550362,663.4766074161597,100.0,1.6270319424959956,0.1,0.009013652801513672,0.1720588207244873,0.05099687,0.04808158,752.449884815679,-0.06137963844373271,7.485194079026447,100.0,9600,1.5629794597625732,9.523515458445909e-05,6.72449044205554e-05,743.4479089701833,100.0
265,1.8751521110534668,756.408404298469,27.626950861910906,797.9642471046038,673.5409650234687,100.0,2.15486463979267,0.1,0.008275985717773438,0.16905593872070312,0.048475735,0.052677117,752.8457367639579,-0.05316461614422518,7.548759365234857,100.0,9600,1.5624663829803467,5.6652346377045175e-05,4.2408501567762575e-05,744.1289069065579,100.0
266,1.896928071975708,753.7751022209717,30.045599560991608,797.2342244468729,653.8142231406867,100.0,1.4469401070743422,0.1,0.00832819938659668,0.1747455596923828,0.049630944,0.038342703,752.9386733096593,-0.05532969518228418,7.52247159395949,100.0,9600,1.5800666809082031,6.469859022919097e-05,5.939294633614525e-05,743.1051341059083,100.0
267,1.8790950775146484,756.5934326939822,26.406137937926744,797.3211487582732,667.9383154084873,100.0,2.086882067172303,0.1,0.008508682250976562,0.17316985130310059,0.04778513,0.04638939,753.3041492480916,-0.05640425486343431,7.550639959633242,100.0,9600,1.593019723892212,3.911987223080706e-05,3.531871396492789e-05,743.4491994628024,100.0
268,1.9274685382843018,750.5560446618028,33.09723349127822,796.2188375654198,653.568830380589,100.0,1.7403081703740775,0.1,0.008164405822753906,0.16953444480895996,0.04887714,0.045536533,753.0293387894627,-0.06073340543865997,7.490267575422428,100.0,9600,1.5689365863800049,4.8899563941721955e-05,4.278152052820007e-05,743.7776241374322,100.0
269,1.880127191543579,753.2774553322448,31.844876992612626,796.6688005213858,664.6569098250785,100.0,1.9026615229679178,0.1,0.008211851119995117,0.1686415672302246,0.046827774,0.039213073,753.0541504437409,-0.06045615796622996,7.5175426980773,100.0,9600,1.5918042659759521,5.1346670695798296e-05,4.046596120095829e-05,743.9777836294932,100.0
270,1.877265214920044,757.8733896175821,31.33346524058065,796.7363211330053,655.5393819443066,100.0,1.7595180877893417,0.1,0.008159637451171875,0.1688554286956787,0.049254242,0.047884647,753.5360743611251,-0.054970869364680784,7.563413538239047,100.0,9600,1.6013906002044678,4.159353222506368e-05,3.848792634887376e-05,744.4558645802979,100.0
271,2.0575509071350098,750.187405198052,28.12487792594853,796.7635967867144,669.5380373161147,100.0,1.552482190058578,0.1,0.008408069610595703,0.16904354095458984,0.0494568,0.033251066,753.2012074448178,-0.05909230213115169,7.486500958623225,100.0,9600,1.6241533756256104,5.84733623539419e-05,5.5012381586552064e-05,744.4385742567188,100.0
272,1.999105453491211,752.8712884720641,28.152615107205378,797.2140419002641,649.7834548898265,100.0,1.501337445701172,0.1,0.008225202560424805,0.17275381088256836,0.050236125,0.021269195,753.1682155475424,-0.0577271396463363,7.513479183510975,100.0,9600,1.6612722873687744,4.523027906489372e-05,4.4579964438303824e-05,744.4101034143457,100.0
273,1.9921605587005615,756.0512595111271,30.870250659841766,797.3141198501512,643.4072758477328,100.0,2.1838422808542735,0.1,0.008451223373413086,0.16767168045043945,0.048583474,0.036012482,753.456519943901,-0.05527040023877461,7.545176052267273,100.0,9600,1.6386728286743164,6.529812999109263e-05,4.685286747185846e-05,744.4540693823844,100.0
274,2.0873937606811523,752.0461937533049,29.935612560895226,796.4968482273404,684.0723481974436,100.0,1.3564350112827552,0.1,0.007999897003173828,0.16904759407043457,0.04939434,0.030987542,753.3154873248413,-0.05660224287183898,7.505176548679192,100.0,9600,1.638322114944458,5.2010678324729027e-05,4.437987807351688e-05,744.3252393590451,100.0
275,2.089301109313965,751.2150238266149,31.345996025882066,796.0489989490069,672.7658174885331,100.0,1.7301994143812256,0.1,0.008203268051147461,0.16829514503479004,0.046871442,0.03439732,753.1054409750187,-0.057983115257291995,7.496769407160765,100.0,9600,1.5855357646942139,6.589868626992356e-05,6.261836737624405e-05,744.8412815210673,100.0
276,1.873779058456421,754.8389684462159,26.718808325079273,797.4842592488425,688.8730348435679,100.0,1.6629666189345074,0.1,0.00843048095703125,0.17073655128479004,0.047472768,0.5729912,753.2787937221384,-0.052424548286384265,7.533013592882109,100.0,9600,1.5789141654968262,4.1902243482148255e-05,4.452730751888571e-05,744.5493119088567,100.0
277,2.0970163345336914,747.4625059852912,29.560592841829713,797.1587279234533,654.9848916193494,100.0,1.783410480690277,0.1,0.00826120376586914,0.17212772369384766,0.048486978,0.03767933,752.6971649484537,-0.06086028502217028,7.459338891773328,100.0,9600,1.584984540939331,0.00010137161044133202,7.777716927358173e-05,744.1143761644178,100.0
278,1.8636753559112549,752.3779741636341,30.92902608646506,796.3491104810065,662.3597892520522,100.0,1.9803081954665005,0.1,0.008237838745117188,0.16869497299194336,0.049761936,0.032877598,752.6652458699717,-0.054729790629339276,7.508413049934009,100.0,9600,1.5817298889160156,6.027957423939241e-05,6.080410291391641e-05,744.1054912357157,100.0
279,1.9581298828125,748.2785021879948,30.816552721468778,796.8566126650452,659.1971310777004,100.0,1.6359431042219008,0.1,0.008146286010742188,0.17075157165527344,0.04768337,0.14877912,752.2265715017741,-0.06175889501081716,7.467478898850018,100.0,9600,1.6005096435546875,7.931438700962128e-05,6.371844319225257e-05,744.6571765920692,100.0
280,1.8873786926269531,756.3237333105059,29.538730843778442,797.3293428279859,641.3145435183958,100.0,2.055552695198104,0.1,0.008774518966674805,0.1763451099395752,0.046634484,0.044699304,752.6362876826472,-0.0528333373014809,7.547879694842568,100.0,9600,1.5787394046783447,5.8054422932651645e-05,4.307883540462544e-05,744.6124869122948,100.0
281,1.8706817626953125,753.8131810447784,29.659282413319517,796.6277369651424,675.9598236075527,100.0,2.0086554594941326,0.1,0.008227825164794922,0.16945266723632812,0.049685333,0.03355297,752.7539770188604,-0.05596332462866924,7.522747384227283,100.0,9600,1.5329504013061523,3.654838517822319e-05,3.203510083401736e-05,744.3527568563345,100.0
282,2.018785238265991,753.6866189326298,32.057013708597054,797.5957912562079,651.8463573734239,100.0,1.2869853624689152,0.1,0.008384227752685547,0.16608428955078125,0.04820559,0.03925501,752.8472412102374,-0.052621229515940636,7.521533628793357,100.0,9600,1.5352375507354736,5.700048305348851e-05,4.50788045115517e-05,743.6524248300045,100.0
283,2.0103328227996826,757.4879395014879,26.797381459828085,797.3875086854716,680.7283738301172,100.0,1.3226130810054209,0.1,0.008106231689453125,0.16784191131591797,0.0491576,0.08901577,753.3113110393624,-0.04927738814223276,7.559534986255799,100.0,9600,1.574779748916626,4.83285345836193e-05,3.154045261863301e-05,744.471831571683,100.0
284,2.0525834560394287,753.2486678935402,30.30112012879397,796.2763755244395,671.6650483081751,100.0,1.8258816639603117,0.1,0.008016586303710938,0.16815686225891113,0.045960147,0.0338008,753.3050467247803,-0.057583914471084297,7.51724404964322,100.0,9600,1.5780448913574219,5.8374669382394044e-05,6.077661672604303e-05,744.4721124749333,100.0
285,2.032622814178467,754.6426893631975,28.985355644748694,796.5368223948849,673.2320795460913,100.0,1.8757447362270534,0.1,0.008063316345214844,0.16768717765808105,0.04928434,0.28219977,753.438810988622,-0.05773992041298295,7.5311993570950975,100.0,9600,1.5793776512145996,5.845289168771802e-05,6.511961620802432e-05,744.4244990487155,100.0
286,2.115577220916748,754.0312615631328,33.97013429089829,796.9764773530231,654.6469531199797,100.0,2.0210294815083483,0.1,0.008093118667602539,0.17185664176940918,0.049613096,0.046504922,753.4980560460731,-0.05803755387918535,7.525060759154896,100.0,9600,1.597198724746704,9.896691887671123e-05,7.883883666946211e-05,744.4650359363236,100.0
287,1.8571701049804688,762.7353109637365,25.18320751709745,797.5473115941982,702.1707129856518,100.0,1.5600667066466471,0.1,0.008323192596435547,0.1722557544708252,0.048568036,0.11693841,754.4217815378395,-0.044440968465891406,7.6119527057299505,100.0,9600,1.5761888027191162,4.418583171553031e-05,2.82739380095946e-05,744.2772863076882,100.0
288,1.8742101192474365,763.6598581381868,26.787220433719416,797.6777942560518,677.8585294779169,100.0,1.7491801433625773,0.1,0.00841832160949707,0.16829419136047363,0.04752602,0.06972332,755.3455891978742,-0.04574471935386357,7.621304950329827,100.0,9600,1.5605931282043457,3.818368350104406e-05,3.285450011694318e-05,743.7030677936391,100.0
289,1.8717427253723145,748.9507769208191,30.642232939632073,796.0315740760371,648.4874626401316,100.0,1.5441535152230346,0.1,0.008307933807373047,0.17415785789489746,0.048120704,0.03999537,754.7061079701688,-0.06189629123512508,7.474218322134855,100.0,9600,1.5825450420379639,8.842308033552029e-05,7.636096905102868e-05,742.9766120864614,100.0
290,1.9113330841064453,754.3710883034388,32.24801052587261,796.7281752982316,619.8401684045036,100.0,1.8130288774206933,0.1,0.008075952529907227,0.17241668701171875,0.048594635,0.03541146,754.6726060034957,-0.053466845726731216,7.528337026031892,100.0,9600,1.4989008903503418,9.620058308515177e-05,9.83741485847157e-05,744.4727486216711,100.0
291,1.8801243305206299,753.4655699905965,27.206058057193772,797.2619478505226,671.6738113269464,100.0,2.0012091924691098,0.1,0.008092403411865234,0.1724681854248047,0.048076294,0.02587623,754.5519024022059,-0.056809416684779734,7.5193002506619555,100.0,9600,1.4615626335144043,8.166944682985347e-05,5.983929753959323e-05,743.8660167956743,100.0
292,1.85280179977417,753.746557400326,33.392230325127095,797.284834191914,665.3409240636767,100.0,1.2603470694466505,0.1,0.008242607116699219,0.16838288307189941,0.050476085,0.047955144,754.471367902018,-0.055530971351472225,7.522139330705772,100.0,9600,1.467750072479248,8.958782189356241e-05,9.814047091785124e-05,743.7995379433088,100.0
293,1.9993605613708496,753.4159404991537,31.576592995022164,796.7208064582594,661.7988639211312,100.0,1.379775444679069,0.1,0.008519411087036133,0.17301392555236816,0.047356453,0.049801696,754.3658251617315,-0.05781179412644244,7.518992849896897,100.0,9600,1.5087320804595947,0.00010039273075468538,6.372344323180687e-05,743.0211132840382,100.0
294,2.020496368408203,754.9110095742768,29.75305834020745,797.6528395071288,650.2597051871245,100.0,1.7131666683540443,0.1,0.008793830871582031,0.1736431121826172,0.049487215,0.0368448,754.420343602986,-0.05637635661125601,7.533841044039382,100.0,9600,1.5219027996063232,6.955642169879881e-05,5.6191601248413366e-05,743.184143093272,100.0
295,2.0003318786621094,755.1398415463909,32.1002097470154,796.2349864289921,649.4959012082289,100.0,1.7617676882397606,0.1,0.008165597915649414,0.17085790634155273,0.049820535,0.10848268,754.4922933973264,-0.05764627539293623,7.536143957730836,100.0,9600,1.5425493717193604,5.7769437814032954e-05,4.995895669819383e-05,743.969460676435,100.0
296,2.0984437465667725,746.5809685007199,29.45960565705917,797.9936812606611,674.6954968886706,100.0,1.5960009893554983,0.1,0.008415460586547852,0.1690959930419922,0.047506314,0.0395946,753.7011609076658,-0.06273367711289102,7.450525829767415,100.0,9600,1.5280694961547852,9.284439434513296e-05,7.657978560384791e-05,744.9619590690945,100.0
297,1.865955114364624,754.5236725733312,30.825753798270892,797.8565605882764,676.9141870276247,100.0,1.613512859673644,0.1,0.00817418098449707,0.17166781425476074,0.048946522,0.047015462,753.7834120742323,-0.05576297134914413,7.5299127539724395,100.0,9600,1.523683786392212,6.721221836269882e-05,6.720085478574878e-05,744.237978648212,100.0
298,1.854140043258667,747.97019281016,31.39847455276381,797.2978423602797,666.9771555025549,100.0,1.6292552380464103,0.1,0.00851583480834961,0.16932082176208496,0.051432375,0.04518002,753.2020901478251,-0.06190878555143817,7.464312131735369,100.0,9600,1.5258808135986328,8.030129853134609e-05,8.082127444636856e-05,744.661975386917,100.0
299,1.8519127368927002,742.7173263779247,32.863555365148315,796.4632864724907,661.4108321532717,100.0,1.6309340370038057,0.1,0.008410453796386719,0.17019152641296387,0.04968896,0.062752545,752.1536137708351,-0.069746971995288,7.411956179041025,100.0,9600,1.491487979888916,0.00011266422252777867,8.557359878727213e-05,744.6151938649055,100.0
300,1.8483531475067139,751.9833302047188,29.762127940627547,797.5145491971116,665.7958494979541,100.0,1.9154010371762644,0.1,0.008197546005249023,0.16998052597045898,0.049388465,0.02815461,752.1365854142235,-0.06278369680754124,7.5045291696724385,100.0,9600,1.4744207859039307,5.343980273156797e-05,4.7349670386465385e-05,744.5188587765001,100.0
301,1.8779082298278809,752.6888035537546,29.25793739498944,797.2927056726355,672.1057807036693,100.0,1.963235557503761,0.1,0.00817561149597168,0.16730666160583496,0.049775034,0.01058834,752.1918072281767,-0.05955359520076231,7.511561157638453,100.0,9600,1.4669058322906494,5.278583232144396e-05,4.982217901564283e-05,744.6928842531875,100.0
302,1.8939812183380127,755.8016667393391,29.832799687072857,797.642623682356,682.1412885214808,100.0,1.7618084310614983,0.1,0.008758068084716797,0.17754340171813965,0.048050974,0.058900718,752.552793179293,-0.05529288488632367,7.54270832909382,100.0,9600,1.507380723953247,4.7300507628484066e-05,4.798703863088055e-05,744.8448459539146,100.0
303,2.0139975547790527,756.7730587592359,27.961317069206032,797.2755891064083,673.0454628162117,100.0,1.3964536676095465,0.1,0.008087635040283203,0.17261362075805664,0.04815214,0.02892366,752.9748197372872,-0.05179092635474081,7.552485348536865,100.0,9600,1.5183734893798828,5.74888299485088e-05,5.962504089469474e-05,744.9011819209676,100.0
304,2.0921034812927246,752.2362928455722,29.385145536713217,797.4810322946763,668.0026693388063,100.0,1.4155188534088918,0.1,0.008438825607299805,0.17095422744750977,0.0508259,0.047766417,752.9009670481157,-0.05871841569330163,7.507072380858273,100.0,9600,1.534606695175171,6.82591985226923e-05,5.627666476668275e-05,744.7079339043426,100.0
305,1.9140589237213135,755.4348394904556,26.270992500190896,797.1286510529692,678.9717817944892,100.0,1.6392872584482998,0.1,0.008317708969116211,0.17046499252319336,0.046168037,0.039608818,753.1543542923498,-0.05497715000891534,7.538956061817115,100.0,9600,1.5340313911437988,5.3158493924096815e-05,4.7210195919697644e-05,744.7404332929133,100.0
306,1.8903312683105469,747.0872139750045,36.938985775030915,797.2228666353599,642.1589391439772,100.0,1.957833275727236,0.1,0.00944828987121582,0.17367076873779297,0.05099938,-0.010414414,752.5476402606153,-0.06294281616828219,7.4556089896667,100.0,9600,1.5830705165863037,0.0001277344125528573,9.201666473234383e-05,744.7515316549719,100.0
307,1.8862190246582031,751.775736709028,27.46943839877309,797.2396378052371,679.7695995780433,100.0,1.4379785196198558,0.1,0.00829458236694336,0.1689460277557373,0.04743351,0.030597586,752.4704499054566,-0.059753865199891766,7.502436639420526,100.0,9600,1.5800957679748535,7.203417359298021e-05,6.195278843349355e-05,744.6971211210108,100.0
308,1.8646752834320068,756.9939218570113,28.17812238159046,796.9396308366228,691.1265830488849,100.0,1.696017544100346,0.1,0.008249044418334961,0.16878199577331543,0.046838075,0.026297895,752.9227971006121,-0.0549163898625167,7.55464097993493,100.0,9600,1.587249517440796,5.865256419356975e-05,4.105548260278057e-05,744.3418163403995,100.0
309,2.0027108192443848,752.0914367166057,30.529592700334764,796.9747462008363,664.2971130044971,100.0,1.5411060583899145,0.1,0.008069276809692383,0.16875314712524414,0.048419718,0.05676141,752.8396610622115,-0.05900086567100147,7.505733120644014,100.0,9600,1.60813570022583,0.00010734029400297989,9.65625208230142e-05,744.5824370651371,100.0
310,2.0337717533111572,754.1492919018369,30.31413175055373,796.765397474021,678.7960318815744,100.0,1.553139425537834,0.1,0.008059501647949219,0.16785049438476562,0.04986111,0.1423323,752.970624146174,-0.057770049404986,7.526147466052346,100.0,9600,1.5919268131256104,9.175429645120912e-05,4.956924352778175e-05,743.8098914224042,100.0
311,2.1217918395996094,753.1247519868211,31.226356822533397,797.3817723797309,640.7760405305411,100.0,1.6122735841444025,0.1,0.008226633071899414,0.1680312156677246,0.04797044,0.026408942,752.9860369302388,-0.0571604943954579,7.515891575245038,100.0,9600,1.5851240158081055,7.700259457931725e-05,7.356221648610179e-05,743.813454748911,100.0
312,1.8637287616729736,750.6486787110783,32.33770231436373,797.3460484977429,638.2276902849545,100.0,1.5010666049841734,0.1,0.009716510772705078,0.20334124565124512,0.050034363,0.21667996,752.7523011083227,-0.06025711443607945,7.491109491875119,100.0,9600,1.9385626316070557,9.253371142459696e-05,9.37113730801599e-05,744.0637277783048,100.0
313,1.8994653224945068,754.9083837280529,26.234077955769678,797.8708787223896,673.3513114368038,100.0,1.449088745469116,0.1,0.008189678192138672,0.17077422142028809,0.048619904,0.030260712,752.9679093702957,-0.05561071110085745,7.533749995999483,100.0,9600,1.5957739353179932,6.393791930482264e-05,3.943332641919416e-05,743.654933544278,100.0
314,1.8925950527191162,749.2863572146939,32.318542738941574,797.5045274037664,659.3037011811513,100.0,1.3475658328513593,0.1,0.009857654571533203,0.2044823169708252,0.04930105,0.042494074,752.5997541547356,-0.06230714008570953,7.477563970947016,100.0,9600,1.9306612014770508,9.367458593913663e-05,8.013986450854635e-05,742.9612743356931,100.0
315,1.8613479137420654,757.9496950717374,33.47885005054678,797.5169101315855,670.0082343668174,100.0,1.4467629609407566,0.1,0.008770942687988281,0.1735095977783203,0.049847245,0.17182986,753.1347482464358,-0.056242547113711926,7.564130347153576,100.0,9600,1.591435194015503,8.24917741365256e-05,9.38911865965068e-05,742.0396128141822,100.0
316,1.9048092365264893,757.3942108974571,30.278756376114984,797.80655210798,654.7484838830562,100.0,2.068921722891724,0.1,0.009597063064575195,0.20500612258911133,0.04722917,0.04545099,753.560694511538,-0.055419394651680325,7.558638221732534,100.0,9600,1.855079174041748,7.639478536960283e-05,5.0963957736597724e-05,741.8624424970129,100.0
317,1.871788501739502,758.5980387147792,32.390755882456105,797.4550852655578,645.287439129852,100.0,1.5883032760820122,0.1,0.008292198181152344,0.1811206340789795,0.049575876,0.046354078,754.0644289318622,-0.053080371040029106,7.570658914075622,100.0,9600,1.5259015560150146,9.088631042787181e-05,8.830963487847644e-05,740.8509992137344,100.0
318,2.0580849647521973,750.4547514678994,32.37184165649521,797.4556819294902,663.6658949210647,100.0,1.761910504240354,0.1,0.008330345153808594,0.17216849327087402,0.052464347,0.04220811,753.7034611854659,-0.05936407907945456,7.489229350038891,100.0,9600,1.547006368637085,7.977064565654338e-05,8.073593919173245e-05,740.9335824582253,100.0
319,2.0169100761413574,749.3942100679105,30.258309130038754,796.9257532313756,659.9606947750315,100.0,1.7023865255974755,0.1,0.008675336837768555,0.17175054550170898,0.048431266,0.046583313,753.2725360737104,-0.060958548625085485,7.478685692041149,100.0,9600,1.5596928596496582,7.850486825842691e-05,8.712888854028373e-05,741.8550159897832,100.0
320,2.0909972190856934,745.7487169724927,38.568667904186974,797.0027564360187,638.467383343103,100.0,1.474740088558532,0.1,0.008160829544067383,0.16968441009521484,0.047972046,0.03383679,752.5201541635886,-0.06800265991463404,7.442122304237357,100.0,9600,1.5428557395935059,0.00013374167463358748,0.00012417849431196952,741.2484180791125,100.0
321,1.8539938926696777,750.5845469591918,33.011197165674886,797.4872333157501,653.3316944846205,100.0,1.8643650059060526,0.1,0.009235382080078125,0.17336416244506836,0.047475874,0.0317844,752.3265934431489,-0.06410767177470922,7.490457670854856,100.0,9600,1.5300135612487793,9.867244255410779e-05,8.670181008280574e-05,741.5077792758523,100.0
322,1.8868408203125,754.5329202992433,27.88680237165205,796.3443942140225,676.4697197311923,100.0,1.8639759768524282,0.1,0.008418560028076172,0.17061734199523926,0.050965603,0.022782862,752.5472261287583,-0.05529513841037767,7.530027121874809,100.0,9600,1.5467827320098877,6.252930777069176e-05,6.387905148097151e-05,742.9795827248025,100.0
323,1.9599409103393555,757.2240557734755,27.19686387288317,796.9365964580726,668.8947928222714,100.0,1.7727902990378357,0.1,0.008468389511108398,0.16940712928771973,0.046907127,0.09298256,753.01490909323,-0.054372189137429215,7.556867405449644,100.0,9600,1.5669012069702148,4.667199850526152e-05,3.752564549670015e-05,742.354281935068,100.0
324,1.861844539642334,760.59544022814,25.74110778682115,797.6349151612221,690.7615270373185,100.0,1.8698799194862334,0.1,0.008337736129760742,0.1692044734954834,0.047748823,0.032916054,753.772962206721,-0.05099869686651407,7.59054745355203,100.0,9600,1.567577838897705,3.584271169892126e-05,3.3258904370766174e-05,742.1447802437777,100.0
325,1.9098949432373047,751.27328076415,31.46497656936505,796.0691833036526,662.6375324758193,100.0,1.7172968316646846,0.1,0.008318901062011719,0.17061233520507812,0.050447054,0.0399986,753.5229940624639,-0.06015886174854057,7.497402131002097,100.0,9600,1.5975828170776367,7.046485877484511e-05,6.577448523196444e-05,742.8461161811206,100.0
326,1.8787648677825928,748.2281669546063,28.20972723725681,796.382234675063,680.0218324439753,100.0,1.393496771997557,0.1,0.008342981338500977,0.17100262641906738,0.048797674,0.21917386,752.9935113516781,-0.06495918089080338,7.467103290596345,100.0,9600,1.6149704456329346,5.628058854901685e-05,5.1141825726893555e-05,742.8624990234673,100.0
327,2.002716064453125,752.9650593611171,29.59779819663968,796.8414943945155,648.8798201074857,100.0,1.525649137345953,0.1,0.00856328010559082,0.1708543300628662,0.049498778,0.0391271,752.990666152622,-0.06109704727064962,7.5143668907458165,100.0,9600,1.6353180408477783,6.917695805254034e-05,5.973429291235944e-05,742.6377415230784,100.0
328,1.9811482429504395,755.1596673467325,34.40963484057783,797.2879292253101,638.8805071785084,100.0,1.486202888379047,0.1,0.008151769638061523,0.16838574409484863,0.05115878,0.04798818,753.2075662720331,-0.05823727615031729,7.536258517990149,100.0,9600,1.6086857318878174,7.06876825275184e-05,9.461393256236446e-05,742.7227634607202,100.0
329,2.0464529991149902,750.5319052880847,32.179220132546334,796.6931761688811,661.7281688680689,100.0,1.4595495608273625,0.1,0.008218050003051758,0.17557954788208008,0.048664834,0.04867078,752.9400001736383,-0.06306400225940073,7.490070620812086,100.0,9600,1.608006238937378,0.00010479132799843692,7.88218186416501e-05,743.4500386859239,100.0
330,2.083693265914917,754.1206857803633,30.154936066120374,796.8519646714935,641.7293033478524,100.0,1.7695264075447321,0.1,0.008297443389892578,0.17034387588500977,0.047132358,0.048931144,753.0580687343108,-0.0575440976281705,7.525842515851745,100.0,9600,1.5741846561431885,7.392089355737937e-05,8.640551048439442e-05,743.2740254869748,100.0
331,1.9024553298950195,755.5369297195562,30.297301042017164,797.6507698598269,637.0378349221033,100.0,1.6128703181110393,0.1,0.008360862731933594,0.17176079750061035,0.04923046,0.047675762,753.3059548328354,-0.0569868349850031,7.5401504885786865,100.0,9600,1.6115868091583252,0.00010172627763468542,6.0203830200455006e-05,743.4806445461672,100.0
332,1.8887605667114258,749.9492852924501,36.88044078200914,797.503874478216,653.027130758929,100.0,1.5136221973987412,0.1,0.008430719375610352,0.1714951992034912,0.050311428,0.0424161,752.9702878787969,-0.06759804460698751,7.484183318276938,100.0,9600,1.612746000289917,6.871203511238747e-05,7.075520344247934e-05,743.4989621955779,100.0
333,1.8906104564666748,755.0319882883128,28.11289686131442,797.3053204730122,688.2390929673932,100.0,1.4244737316061915,0.1,0.008422136306762695,0.17405915260314941,0.05018403,0.046198435,753.1764579197485,-0.05851169060541361,7.534967917069807,100.0,9600,1.58305025100708,5.6058584951825954e-05,4.906695966705515e-05,743.8751578167225,100.0
334,1.9328303337097168,751.6619517110107,30.30116110952436,797.1720569281833,651.462634725217,100.0,1.3647757373212173,0.1,0.00833892822265625,0.17058086395263672,0.04983735,0.043626454,753.0250072988747,-0.059026512817065224,7.501272348357388,100.0,9600,1.570479154586792,6.808908720395207e-05,6.135225686718896e-05,742.165577047213,100.0
335,1.9288673400878906,750.991549574834,31.488455727632306,797.8787116228577,615.3473397567285,100.0,1.4850502318877907,0.1,0.008260011672973633,0.17052125930786133,0.049300496,0.041888047,752.8216615264706,-0.0613987772463497,7.494500764857567,100.0,9600,1.5897386074066162,6.761511937052999e-05,6.691056185976867e-05,742.6575340669217,100.0
336,1.9116888046264648,757.4029317349696,30.36376441355119,797.790784767137,640.5713361769662,100.0,1.4144676077198168,0.1,0.008638381958007812,0.17654013633728027,0.04896427,0.038067404,753.2797885473205,-0.05580722506007876,7.558742306965184,100.0,9600,1.5149519443511963,5.240620611624347e-05,4.973731606431141e-05,743.8656278927461,100.0
337,2.0450150966644287,754.4251573511741,31.775125185236263,797.2759570836914,664.1482481542354,100.0,1.867463711442938,0.1,0.00931859016418457,0.17810893058776855,0.045505498,0.041872982,753.394325427706,-0.06151432496163487,7.528972219921298,100.0,9600,1.5521321296691895,7.348550899646487e-05,6.339436672746565e-05,744.137944561932,100.0
338,2.044267177581787,754.3854029937547,32.316521815195664,797.3203091501382,622.576811529967,100.0,1.9539881343126868,0.1,0.008430242538452148,0.16816282272338867,0.04796893,0.035665914,753.4934331843109,-0.057620940498212224,7.528518405981721,100.0,9600,1.5371294021606445,7.070994539790264e-05,6.919722402274966e-05,743.8635585558495,100.0
339,2.0159270763397217,753.0703185435968,30.72655414381539,797.1084308516969,671.1447066071445,100.0,1.6862181885664351,0.1,0.008120536804199219,0.16689515113830566,0.048929453,0.048157584,753.4511217202395,-0.06008465689084528,7.515411907454813,100.0,9600,1.5681698322296143,6.503023256773908e-05,5.714444585226103e-05,744.3388540072717,100.0
340,2.0158801078796387,757.1488256581966,30.711268065984502,797.4463029862183,662.1851697656507,100.0,1.4310052823895587,0.1,0.008676767349243164,0.1773672103881836,0.04748142,0.04003361,753.8208921140351,-0.055747487048936784,7.556125076939243,100.0,9600,1.593674898147583,7.046636332546987e-05,6.769419694744016e-05,744.5505121490314,100.0
341,2.0751781463623047,750.5027137202578,32.36493424419458,795.6546448808535,644.2692376265336,100.0,1.5549771876564484,0.1,0.008111238479614258,0.1700582504272461,0.049833406,0.117260784,753.4890742746575,-0.06397051588338136,7.4897672291709805,100.0,9600,1.5125453472137451,8.072164246956495e-05,6.899539543723646e-05,744.5578193286918,100.0
342,1.8943498134613037,757.7611896162229,27.226338601110726,797.5600875573524,650.0697724987069,100.0,1.6033389751975695,0.1,0.008334636688232422,0.16879653930664062,0.048345327,0.079894684,753.916285808814,-0.053982945403754486,7.562245279377667,100.0,9600,1.503401756286621,5.209475477823675e-05,4.439201947684622e-05,744.5657798693375,100.0
343,1.833749771118164,749.9792170429322,32.06067129781467,797.0092496949219,635.1313675901512,100.0,1.613138282763066,0.1,0.008579492568969727,0.17029738426208496,0.052295137,0.04683789,753.5225789322258,-0.06716595179226484,7.484492404168209,100.0,9600,1.5298240184783936,7.184235058261105e-05,5.884051794253036e-05,744.6109657942935,100.0
344,1.8576998710632324,756.8070557206098,32.88572094359541,796.9508004389987,644.0969495458495,100.0,1.4106534093557521,0.1,0.008417844772338867,0.17119526863098145,0.05017193,0.046992052,753.8510266110642,-0.05908659354543152,7.552850334862479,100.0,9600,1.5346074104309082,8.437550962421372e-05,8.253753343494023e-05,744.5441176496438,100.0
345,1.846390724182129,751.5024977732359,27.444194645465323,796.6010187315018,650.6632159112804,100.0,1.497415724648655,0.1,0.008183002471923828,0.1812422275543213,0.04885523,0.07329318,753.6161737272813,-0.0608343979726389,7.499713913137069,100.0,9600,1.5387990474700928,5.531740835930467e-05,3.870107362420376e-05,744.5752414177779,100.0
346,1.868988275527954,758.5580242080899,24.623689150599702,796.6850314931356,702.888676913787,100.0,1.5913886868557037,0.1,0.008417606353759766,0.17232537269592285,0.04913149,0.022933055,754.1103587753622,-0.05468698657868392,7.570258115008779,100.0,9600,1.5301377773284912,3.732139596020828e-05,3.0410956186095958e-05,744.3687418756334,100.0
347,1.8954541683197021,749.7975325832641,37.07022779224279,796.9291217386651,615.1387351857896,100.0,1.433499552158083,0.1,0.00851583480834961,0.16945147514343262,0.049651694,0.04911755,753.6790761561524,-0.0641325315751455,7.482663613216961,100.0,9600,1.5112624168395996,0.00013243980608715456,0.0001047338978148368,744.1218634452905,100.0
348,2.017540216445923,751.8024056109683,27.41459294853531,797.2243096025404,668.9964499715142,100.0,1.8612220445155574,0.1,0.008344411849975586,0.16975688934326172,0.05213632,0.09767727,753.4914091016341,-0.061064275907024346,7.502753735410536,100.0,9600,1.5444467067718506,6.617446138417106e-05,4.0025238493418025e-05,743.9911840426249,100.0
