Iter | Sampling Pol | Evaluation Pol | Best (Sampled) 
   0 -28.36 -101.78 -100000000.00 
   1 182.87 -43.10 -28.36 
   2 381.33 343.96 182.87 
   3 529.25 379.47 381.33 
   4 638.59 397.25 529.25 
   5 685.62 692.16 638.59 
   6 697.15 749.50 685.62 
   7 724.61 758.71 697.15 
   8 739.85 758.07 724.61 
   9 732.74 760.26 739.85 
  10 744.96 760.73 739.85 
  11 737.04 763.10 744.96 
  12 744.33 761.66 744.96 
  13 746.95 764.31 744.96 
  14 746.45 765.14 746.95 
  15 752.16 763.73 746.95 
  16 749.51 765.86 752.16 
  17 753.44 766.80 752.16 
  18 755.19 767.65 753.44 
  19 749.05 767.83 755.19 
  20 754.08 768.31 755.19 
  21 752.13 768.23 755.19 
  22 755.89 769.02 755.19 
  23 754.87 768.95 755.89 
  24 755.80 768.60 755.89 
  25 750.42 767.71 755.89 
  26 753.52 769.16 755.89 
  27 754.37 769.09 755.89 
  28 754.98 769.17 755.89 
  29 758.31 769.20 755.89 
  30 762.69 769.08 758.31 
  31 757.47 769.06 762.69 
  32 758.33 769.13 762.69 
  33 754.79 769.14 762.69 
  34 754.14 769.44 762.69 
  35 757.25 768.47 762.69 
  36 754.01 769.90 762.69 
  37 762.26 770.28 762.69 
  38 758.77 770.27 762.69 
  39 757.57 770.32 762.69 
  40 759.18 770.24 762.69 
  41 758.16 770.37 762.69 
  42 760.77 770.33 762.69 
  43 761.20 770.43 762.69 
  44 760.08 770.27 762.69 
  45 758.33 770.26 762.69 
  46 760.36 770.54 762.69 
  47 757.39 770.55 762.69 
  48 758.81 770.51 762.69 
  49 753.52 770.65 762.69 
  50 758.13 770.47 762.69 
  51 763.19 770.55 762.69 
  52 760.22 770.58 763.19 
  53 763.90 770.57 763.19 
  54 764.25 770.64 763.90 
  55 759.76 770.64 764.25 
  56 759.73 770.50 764.25 
  57 760.21 770.68 764.25 
  58 759.71 770.36 764.25 
  59 763.89 770.36 764.25 
  60 762.21 770.65 764.25 
  61 762.00 770.62 764.25 
  62 759.67 770.49 764.25 
  63 759.13 770.28 764.25 
  64 759.17 770.35 764.25 
  65 762.44 770.39 764.25 
  66 761.59 770.66 764.25 
  67 762.09 770.71 764.25 
  68 759.77 770.79 764.25 
  69 762.93 770.82 764.25 
  70 764.57 770.86 764.25 
  71 764.35 770.94 764.57 
  72 760.70 770.63 764.57 
  73 760.95 770.75 764.57 
  74 761.39 770.72 764.57 
  75 762.06 770.62 764.57 
  76 762.08 770.40 764.57 
  77 760.63 770.42 764.57 
  78 759.03 770.31 764.57 
  79 762.01 770.37 764.57 
  80 757.50 770.35 764.57 
  81 762.89 770.39 764.57 
  82 762.12 770.43 764.57 
  83 762.61 770.35 764.57 
  84 758.70 770.41 764.57 
  85 761.70 770.41 764.57 
  86 759.32 770.37 764.57 
  87 762.88 770.38 764.57 
  88 763.01 770.30 764.57 
  89 760.64 770.26 764.57 
  90 760.65 770.32 764.57 
  91 762.12 770.34 764.57 
  92 764.45 770.30 764.57 
  93 761.06 770.34 764.57 
  94 762.30 770.29 764.57 
  95 761.67 770.31 764.57 
  96 764.34 770.32 764.57 
  97 759.47 770.22 764.57 
  98 765.06 770.07 764.57 
  99 762.37 770.08 765.06 
 100 759.50 770.15 765.06 
 101 761.92 770.23 765.06 
 102 763.49 770.16 765.06 
 103 763.02 770.17 765.06 
 104 761.58 770.19 765.06 
 105 760.61 770.22 765.06 
 106 763.91 770.16 765.06 
 107 761.46 770.09 765.06 
 108 763.93 770.14 765.06 
 109 763.59 770.17 765.06 
 110 760.81 770.21 765.06 
 111 760.13 770.26 765.06 
 112 763.40 770.20 765.06 
 113 763.60 770.32 765.06 
 114 764.82 770.22 765.06 
 115 764.10 770.13 765.06 
 116 760.82 769.99 765.06 
 117 762.64 769.97 765.06 
 118 762.79 770.02 765.06 
 119 758.98 770.14 765.06 
 120 761.27 770.11 765.06 
 121 764.02 770.12 765.06 
 122 762.56 770.25 765.06 
 123 765.87 770.28 765.06 
 124 763.03 770.26 765.87 
 125 763.39 770.31 765.87 
 126 763.02 770.27 765.87 
 127 763.37 770.39 765.87 
 128 764.67 770.38 765.87 
 129 760.08 770.38 765.87 
 130 763.98 770.37 765.87 
 131 764.07 770.35 765.87 
 132 765.09 770.37 765.87 
 133 761.81 770.49 765.87 
 134 762.90 770.58 765.87 
 135 763.13 770.60 765.87 
 136 762.65 770.59 765.87 
 137 764.48 770.50 765.87 
 138 760.86 770.52 765.87 
 139 763.11 770.41 765.87 
 140 763.20 770.41 765.87 
 141 765.88 770.33 765.87 
 142 760.29 770.42 765.88 
 143 760.98 770.44 765.88 
 144 758.47 770.47 765.88 
 145 767.95 770.43 765.88 
 146 758.49 770.52 767.95 
 147 762.65 770.49 767.95 
 148 760.30 770.40 767.95 
 149 763.80 770.39 767.95 
 150 762.45 770.30 767.95 
 151 763.97 770.04 767.95 
 152 761.66 770.38 767.95 
 153 762.75 770.19 767.95 
 154 764.23 770.28 767.95 
 155 760.21 770.28 767.95 
 156 764.81 770.73 767.95 
 157 762.38 770.51 767.95 
 158 764.22 770.44 767.95 
 159 763.16 770.46 767.95 
 160 764.43 770.52 767.95 
 161 765.20 770.49 767.95 
 162 762.53 770.59 767.95 
 163 762.22 770.75 767.95 
 164 760.39 770.74 767.95 
 165 762.26 770.55 767.95 
 166 765.57 770.47 767.95 
 167 763.27 770.51 767.95 
 168 760.12 770.43 767.95 
 169 761.23 770.39 767.95 
 170 765.99 770.65 767.95 
 171 763.31 770.62 767.95 
 172 762.25 770.74 767.95 
 173 760.31 770.77 767.95 
 174 763.93 770.72 767.95 
 175 765.37 770.72 767.95 
 176 766.80 770.67 767.95 
 177 765.14 770.69 767.95 
 178 764.46 770.89 767.95 
 179 765.72 770.92 767.95 
 180 763.44 770.95 767.95 
 181 763.56 770.98 767.95 
 182 766.74 771.04 767.95 
 183 766.62 771.09 767.95 
 184 761.41 770.90 767.95 
 185 760.86 770.98 767.95 
 186 766.82 770.98 767.95 
 187 761.59 770.97 767.95 
 188 763.88 770.89 767.95 
 189 763.72 770.87 767.95 
 190 764.70 770.98 767.95 
 191 762.08 770.95 767.95 
 192 761.31 770.94 767.95 
 193 761.01 770.91 767.95 
 194 761.72 770.89 767.95 
 195 764.43 770.91 767.95 
 196 765.26 770.86 767.95 
 197 764.14 770.80 767.95 
 198 758.79 770.86 767.95 
 199 766.66 770.85 767.95 
 200 768.79 770.94 767.95 
 201 764.86 770.69 768.79 
 202 759.18 770.77 768.79 
 203 761.57 770.90 768.79 
 204 760.97 770.85 768.79 
 205 763.22 770.86 768.79 
 206 764.38 770.83 768.79 
 207 763.59 770.69 768.79 
 208 761.85 770.81 768.79 
 209 763.16 770.76 768.79 
 210 762.63 770.97 768.79 
 211 763.46 770.84 768.79 
 212 762.45 770.87 768.79 
 213 763.43 770.81 768.79 
 214 766.96 770.94 768.79 
 215 762.66 770.79 768.79 
 216 765.06 770.80 768.79 
 217 765.65 770.74 768.79 
 218 766.41 770.89 768.79 
 219 759.77 770.78 768.79 
 220 767.54 770.69 768.79 
 221 765.77 770.45 768.79 
 222 765.79 770.38 768.79 
 223 763.76 770.33 768.79 
 224 761.70 770.47 768.79 
 225 763.30 770.29 768.79 
 226 756.86 770.23 768.79 
 227 763.49 770.18 768.79 
 228 761.45 770.18 768.79 
 229 763.33 770.13 768.79 
 230 762.89 770.07 768.79 
 231 764.26 770.19 768.79 
 232 763.18 770.13 768.79 
 233 761.01 770.21 768.79 
 234 764.87 770.18 768.79 
 235 768.00 770.34 768.79 
 236 760.63 770.18 768.79 
 237 761.58 770.10 768.79 
 238 763.69 770.21 768.79 
 239 757.61 770.23 768.79 
 240 761.73 770.28 768.79 
 241 766.65 770.26 768.79 
 242 760.31 770.33 768.79 
 243 763.87 770.30 768.79 
 244 762.66 770.29 768.79 
 245 763.98 770.01 768.79 
 246 761.93 770.02 768.79 
 247 760.36 770.07 768.79 
 248 762.11 769.98 768.79 
 249 762.30 770.14 768.79 
 250 761.08 770.19 768.79 
 251 768.11 770.38 768.79 
 252 764.94 770.61 768.79 
 253 761.95 770.35 768.79 
 254 763.04 770.23 768.79 
 255 761.51 770.21 768.79 
 256 765.01 769.86 768.79 
 257 761.94 769.92 768.79 
 258 760.70 769.76 768.79 
 259 760.77 769.90 768.79 
 260 763.49 769.95 768.79 
 261 762.21 769.94 768.79 
 262 764.93 769.88 768.79 
 263 763.12 769.89 768.79 
 264 765.20 769.85 768.79 
 265 761.77 769.96 768.79 
 266 760.67 770.00 768.79 
 267 766.16 769.92 768.79 
 268 761.11 769.92 768.79 
 269 762.68 770.09 768.79 
 270 763.15 770.05 768.79 
 271 762.51 770.26 768.79 
 272 762.08 770.29 768.79 
 273 762.27 770.18 768.79 
 274 760.04 770.18 768.79 
 275 760.55 769.94 768.79 
 276 759.23 770.11 768.79 
 277 763.87 770.42 768.79 
 278 761.04 770.75 768.79 
 279 764.67 770.67 768.79 
 280 762.71 770.41 768.79 
 281 762.52 770.54 768.79 
 282 759.20 770.49 768.79 
 283 759.61 770.78 768.79 
 284 762.95 770.87 768.79 
 285 766.96 770.61 768.79 
 286 766.19 770.54 768.79 
 287 759.46 770.89 768.79 
 288 761.22 770.55 768.79 
 289 768.79 770.96 768.79 
 290 758.42 770.71 768.79 
 291 764.70 770.62 768.79 
 292 763.34 770.59 768.79 
 293 764.43 770.47 768.79 
 294 762.85 770.51 768.79 
 295 765.01 770.60 768.79 
 296 760.72 770.57 768.79 
 297 762.35 770.43 768.79 
 298 765.14 770.46 768.79 
 299 764.80 770.50 768.79 
 300 767.31 770.48 768.79 
 301 766.95 770.37 768.79 
 302 763.16 770.41 768.79 
 303 761.46 770.70 768.79 
 304 763.59 770.54 768.79 
 305 764.33 770.30 768.79 
 306 760.66 770.12 768.79 
 307 763.62 770.56 768.79 
 308 765.76 770.25 768.79 
 309 764.72 770.49 768.79 
 310 759.61 770.67 768.79 
 311 761.18 770.75 768.79 
 312 761.41 770.64 768.79 
 313 758.97 770.39 768.79 
 314 763.75 770.56 768.79 
 315 761.31 770.80 768.79 
 316 762.83 771.01 768.79 
 317 762.56 771.18 768.79 
 318 761.22 770.97 768.79 
 319 760.07 771.18 768.79 
 320 763.05 770.62 768.79 
 321 763.47 770.73 768.79 
 322 761.57 771.15 768.79 
 323 763.62 770.90 768.79 
 324 762.80 770.86 768.79 
 325 762.08 770.95 768.79 
 326 761.40 771.02 768.79 
 327 764.57 771.15 768.79 
 328 762.28 771.14 768.79 
 329 763.20 771.26 768.79 
 330 764.26 771.16 768.79 
 331 762.11 771.21 768.79 
 332 765.78 771.07 768.79 
 333 762.77 771.12 768.79 
 334 760.37 771.09 768.79 
 335 761.24 771.34 768.79 
 336 762.44 771.37 768.79 
 337 765.60 771.14 768.79 
 338 764.03 771.13 768.79 
 339 762.79 771.25 768.79 
 340 761.97 771.05 768.79 
 341 764.16 771.18 768.79 
 342 761.85 771.35 768.79 
 343 766.04 771.38 768.79 
 344 763.56 771.24 768.79 
 345 762.13 771.08 768.79 
 346 762.94 771.01 768.79 
 347 764.32 771.15 768.79 
 348 762.41 771.45 768.79 
 349 764.61 771.01 768.79 
 350 762.89 771.19 768.79 
 351 760.56 770.85 768.79 
 352 761.26 770.97 768.79 
 353 761.42 771.04 768.79 
 354 763.67 770.96 768.79 
 355 764.68 770.77 768.79 
 356 760.99 770.87 768.79 
 357 760.90 770.95 768.79 
 358 762.14 770.62 768.79 
 359 762.03 770.76 768.79 
 360 763.19 770.79 768.79 
 361 763.33 770.73 768.79 
 362 762.91 770.69 768.79 
 363 763.23 770.68 768.79 
 364 763.55 770.51 768.79 
 365 760.55 770.54 768.79 
 366 761.92 770.72 768.79 
 367 762.17 770.76 768.79 
 368 763.24 770.72 768.79 
 369 761.40 770.58 768.79 
 370 763.43 770.50 768.79 
 371 763.16 770.41 768.79 
 372 759.97 770.34 768.79 
 373 764.23 770.63 768.79 
 374 766.42 770.90 768.79 
 375 762.88 770.88 768.79 
 376 761.83 770.64 768.79 
 377 761.28 770.31 768.79 
 378 759.97 770.37 768.79 
 379 765.35 770.09 768.79 
 380 762.92 770.37 768.79 
 381 767.05 770.27 768.79 
 382 766.47 770.00 768.79 
 383 762.46 770.10 768.79 
 384 765.81 770.01 768.79 
 385 765.63 769.92 768.79 
 386 765.22 769.95 768.79 
 387 762.98 770.57 768.79 
 388 761.10 770.46 768.79 
 389 761.27 770.53 768.79 
 390 768.27 771.05 768.79 
 391 759.86 771.18 768.79 
 392 761.96 771.08 768.79 
 393 761.79 770.88 768.79 
 394 761.11 770.95 768.79 
 395 767.36 770.99 768.79 
 396 767.24 770.96 768.79 
 397 763.32 770.97 768.79 
 398 760.99 770.77 768.79 
 399 764.03 770.93 768.79 
 400 764.33 770.69 768.79 
 401 761.89 770.76 768.79 
 402 765.20 770.62 768.79 
 403 765.68 770.75 768.79 
 404 763.37 770.89 768.79 
 405 761.82 770.83 768.79 
 406 762.22 771.07 768.79 
 407 764.79 771.03 768.79 
 408 769.46 771.19 768.79 
 409 761.62 771.22 769.46 
 410 765.15 771.32 769.46 
 411 765.07 771.13 769.46 
 412 762.37 771.18 769.46 
 413 765.33 771.15 769.46 
 414 763.66 771.27 769.46 
 415 763.79 771.12 769.46 
 416 761.59 771.16 769.46 
 417 765.59 771.08 769.46 
 418 765.35 771.14 769.46 
 419 760.10 771.11 769.46 
 420 762.77 771.25 769.46 
 421 763.68 771.10 769.46 
 422 761.69 770.95 769.46 
 423 766.29 770.94 769.46 
 424 766.01 770.60 769.46 
 425 762.45 770.55 769.46 
 426 760.26 770.87 769.46 
 427 763.19 770.79 769.46 
 428 766.36 771.04 769.46 
 429 763.22 770.82 769.46 
 430 762.25 770.68 769.46 
 431 765.95 770.99 769.46 
 432 763.06 770.86 769.46 
 433 763.71 770.71 769.46 
 434 761.02 770.71 769.46 
 435 765.65 770.90 769.46 
 436 765.00 770.93 769.46 
 437 762.56 770.59 769.46 
 438 762.03 770.68 769.46 
 439 763.66 770.51 769.46 
 440 763.05 770.93 769.46 
 441 764.74 770.89 769.46 
 442 763.91 770.79 769.46 
 443 765.41 770.83 769.46 
 444 763.62 770.75 769.46 
 445 759.69 770.78 769.46 
 446 763.02 771.01 769.46 
 447 764.40 770.94 769.46 
 448 767.36 771.30 769.46 
 449 760.20 771.29 769.46 
 450 759.96 771.29 769.46 
 451 766.39 771.41 769.46 
 452 762.54 771.23 769.46 
 453 759.09 771.13 769.46 
 454 761.74 770.92 769.46 
 455 762.86 770.91 769.46 
 456 762.75 771.06 769.46 
 457 764.83 771.00 769.46 
 458 761.46 771.17 769.46 
 459 757.30 771.06 769.46 
 460 765.57 771.26 769.46 
 461 759.13 770.96 769.46 
 462 764.87 771.10 769.46 
 463 759.20 771.08 769.46 
 464 761.71 770.77 769.46 
 465 761.77 770.73 769.46 
 466 762.98 771.01 769.46 
 467 766.63 770.40 769.46 
 468 764.43 770.38 769.46 
 469 763.44 770.94 769.46 
 470 765.71 771.09 769.46 
 471 762.53 771.16 769.46 
 472 758.23 771.10 769.46 
 473 763.56 770.80 769.46 
 474 766.31 770.82 769.46 
 475 765.61 770.84 769.46 
 476 764.63 770.99 769.46 
 477 763.34 770.93 769.46 
 478 766.58 771.16 769.46 
 479 765.35 771.02 769.46 
 480 763.36 770.85 769.46 
 481 762.08 770.92 769.46 
 482 761.08 770.83 769.46 
 483 760.71 770.89 769.46 
 484 764.65 770.74 769.46 
 485 763.36 770.75 769.46 
 486 764.18 770.80 769.46 
 487 763.94 770.84 769.46 
 488 763.83 770.84 769.46 
 489 762.57 770.75 769.46 
 490 765.73 770.81 769.46 
 491 765.55 770.90 769.46 
 492 760.74 770.89 769.46 
 493 764.81 770.96 769.46 
 494 762.80 771.11 769.46 
 495 763.39 770.83 769.46 
 496 766.01 770.76 769.46 
 497 768.40 770.88 769.46 
 498 762.32 770.74 769.46 
 499 760.00 770.85 769.46 
 500 765.67 770.78 769.46 
 501 764.64 770.74 769.46 
 502 762.14 770.94 769.46 
 503 764.38 770.92 769.46 
 504 764.81 771.25 769.46 
 505 761.62 771.11 769.46 
 506 765.37 771.59 769.46 
 507 764.78 771.26 769.46 
 508 766.62 771.02 769.46 
 509 760.84 771.27 769.46 
 510 763.20 771.39 769.46 
 511 764.63 771.51 769.46 
 512 761.68 771.72 769.46 
 513 759.44 771.68 769.46 
 514 764.83 771.50 769.46 
 515 760.52 771.66 769.46 
 516 764.55 771.53 769.46 
 517 761.40 771.89 769.46 
 518 764.64 771.93 769.46 
 519 762.93 771.89 769.46 
 520 764.85 772.03 769.46 
 521 764.64 771.80 769.46 
 522 764.12 771.86 769.46 
 523 762.12 771.86 769.46 
 524 761.87 771.89 769.46 
 525 760.59 771.91 769.46 
 526 766.39 771.97 769.46 
 527 763.83 771.78 769.46 
 528 762.44 771.77 769.46 
 529 764.34 771.60 769.46 
 530 762.53 771.83 769.46 
 531 761.77 771.84 769.46 
 532 765.62 771.73 769.46 
 533 762.55 771.65 769.46 
 534 763.03 771.62 769.46 
 535 761.19 771.85 769.46 
 536 758.81 771.70 769.46 
 537 765.09 771.57 769.46 
 538 761.83 771.59 769.46 
 539 766.51 771.46 769.46 
 540 764.69 771.77 769.46 
 541 763.94 771.76 769.46 
 542 762.90 771.73 769.46 
 543 766.69 771.83 769.46 
 544 765.02 771.96 769.46 
 545 765.62 771.94 769.46 
 546 765.25 771.86 769.46 
 547 762.84 771.96 769.46 
 548 767.66 771.88 769.46 
 549 759.28 771.93 769.46 
 550 763.86 772.15 769.46 
 551 766.58 772.19 769.46 
 552 764.33 771.87 769.46 
 553 764.88 771.65 769.46 
 554 763.32 771.79 769.46 
 555 763.04 771.62 769.46 
 556 765.22 771.87 769.46 
 557 764.43 771.77 769.46 
 558 765.58 771.80 769.46 
 559 764.02 771.85 769.46 
 560 763.30 771.92 769.46 
 561 756.85 771.71 769.46 
 562 765.48 771.20 769.46 
 563 762.42 771.83 769.46 
 564 761.32 771.41 769.46 
 565 766.94 771.53 769.46 
 566 766.55 771.26 769.46 
 567 762.71 771.27 769.46 
 568 762.46 771.31 769.46 
 569 759.13 771.49 769.46 
 570 764.99 770.94 769.46 
 571 765.97 771.09 769.46 
 572 759.74 771.49 769.46 
 573 761.25 771.32 769.46 
 574 764.66 771.22 769.46 
 575 764.91 771.21 769.46 
 576 760.90 771.13 769.46 
 577 761.07 771.12 769.46 
 578 760.84 771.15 769.46 
 579 763.31 771.37 769.46 
 580 766.51 771.53 769.46 
 581 762.74 771.54 769.46 
 582 761.90 771.30 769.46 
 583 761.13 771.11 769.46 
 584 767.88 771.22 769.46 
 585 764.07 771.30 769.46 
 586 760.91 770.99 769.46 
 587 762.07 771.08 769.46 
 588 761.95 770.80 769.46 
 589 762.78 770.79 769.46 
 590 765.97 771.46 769.46 
 591 763.02 771.75 769.46 
 592 762.67 771.93 769.46 
 593 765.11 772.00 769.46 
 594 763.92 771.81 769.46 
 595 763.84 771.78 769.46 
 596 763.18 771.69 769.46 
 597 760.92 771.43 769.46 
 598 766.13 771.86 769.46 
 599 760.76 771.65 769.46 
 600 766.25 771.78 769.46 
 601 761.28 771.89 769.46 
 602 761.11 771.86 769.46 
 603 766.21 771.48 769.46 
 604 764.94 771.37 769.46 
 605 762.46 771.24 769.46 
 606 761.31 771.29 769.46 
 607 761.93 771.37 769.46 
 608 765.37 771.32 769.46 
 609 764.33 771.31 769.46 
 610 763.28 771.45 769.46 
 611 762.39 771.44 769.46 
 612 761.04 771.38 769.46 
 613 765.98 771.36 769.46 
 614 759.81 771.33 769.46 
 615 763.01 771.33 769.46 
 616 764.91 771.33 769.46 
 617 764.76 771.33 769.46 
 618 765.63 771.33 769.46 
 619 764.45 771.33 769.46 
 620 762.03 771.46 769.46 
 621 762.24 771.31 769.46 
 622 761.37 771.18 769.46 
 623 761.91 771.39 769.46 
 624 761.36 771.47 769.46 
 625 766.19 771.45 769.46 
 626 765.57 771.53 769.46 
 627 766.67 771.52 769.46 
 628 766.91 771.46 769.46 
 629 764.95 771.62 769.46 
 630 761.54 771.39 769.46 
 631 764.12 771.27 769.46 
 632 764.99 771.18 769.46 
 633 765.71 771.51 769.46 
 634 762.36 771.15 769.46 
 635 763.30 771.25 769.46 
 636 764.23 770.74 769.46 
 637 759.01 770.88 769.46 
 638 766.08 770.88 769.46 
 639 765.89 770.89 769.46 
 640 763.25 770.60 769.46 
 641 763.46 770.68 769.46 
 642 762.38 770.52 769.46 
 643 763.31 770.42 769.46 
 644 761.96 770.55 769.46 
 645 764.23 770.64 769.46 
 646 760.76 770.47 769.46 
 647 766.12 770.45 769.46 
 648 767.69 769.83 769.46 
 649 762.22 769.72 769.46 
 650 759.26 769.92 769.46 
 651 763.98 769.82 769.46 
 652 762.14 770.12 769.46 
 653 760.62 770.25 769.46 
 654 762.78 770.36 769.46 
 655 761.77 770.41 769.46 
 656 764.87 770.23 769.46 
 657 765.15 769.87 769.46 
 658 765.90 770.25 769.46 
 659 761.50 770.12 769.46 
 660 762.27 770.39 769.46 
 661 762.37 770.81 769.46 
 662 761.20 770.43 769.46 
 663 765.91 770.36 769.46 
 664 759.15 770.51 769.46 
 665 762.33 770.40 769.46 
 666 761.89 770.61 769.46 
 667 764.85 770.75 769.46 
 668 765.69 771.01 769.46 
 669 761.16 770.70 769.46 
 670 762.75 770.78 769.46 
 671 763.67 770.71 769.46 
 672 766.78 770.78 769.46 
 673 767.52 770.80 769.46 
 674 764.14 770.70 769.46 
 675 765.03 770.17 769.46 
 676 759.27 770.47 769.46 
 677 764.45 770.26 769.46 
 678 762.81 770.37 769.46 
 679 761.73 770.62 769.46 
 680 764.57 770.60 769.46 
 681 763.29 770.51 769.46 
 682 763.56 770.67 769.46 
 683 760.17 770.81 769.46 
 684 764.50 770.94 769.46 
 685 763.39 771.05 769.46 
 686 761.37 771.16 769.46 
 687 764.57 771.01 769.46 
 688 764.03 770.73 769.46 
 689 762.81 770.56 769.46 
 690 764.02 770.83 769.46 
 691 765.02 770.47 769.46 
 692 766.90 770.64 769.46 
 693 762.68 770.28 769.46 
 694 765.85 770.44 769.46 
 695 763.01 770.59 769.46 
 696 764.71 771.11 769.46 
 697 764.86 771.44 769.46 
 698 762.48 771.47 769.46 
 699 762.88 772.15 769.46 
 700 764.31 772.18 769.46 
 701 765.27 772.21 769.46 
 702 762.50 772.26 769.46 
 703 761.84 772.13 769.46 
 704 767.36 772.15 769.46 
 705 763.88 772.13 769.46 
 706 763.40 772.13 769.46 
 707 762.00 772.06 769.46 
 708 762.78 771.88 769.46 
 709 761.24 771.92 769.46 
 710 762.58 771.35 769.46 
 711 764.30 771.36 769.46 
 712 763.20 771.32 769.46 
 713 763.87 771.44 769.46 
 714 764.48 770.92 769.46 
 715 759.40 771.03 769.46 
 716 761.05 771.17 769.46 
 717 758.68 770.74 769.46 
 718 763.49 771.14 769.46 
 719 761.78 771.32 769.46 
 720 762.05 772.07 769.46 
 721 760.61 772.04 769.46 
 722 766.07 772.04 769.46 
 723 758.69 772.00 769.46 
 724 765.17 772.11 769.46 
 725 763.39 772.08 769.46 
 726 761.32 772.19 769.46 
 727 760.74 772.14 769.46 
 728 760.33 772.15 769.46 
 729 761.11 772.08 769.46 
 730 762.30 772.13 769.46 
 731 759.50 772.12 769.46 
 732 760.43 772.15 769.46 
 733 757.78 772.13 769.46 
 734 762.36 772.13 769.46 
 735 762.80 772.15 769.46 
 736 760.48 772.11 769.46 
 737 763.68 772.10 769.46 
 738 763.83 772.18 769.46 
 739 761.87 772.11 769.46 
 740 763.28 772.11 769.46 
 741 764.19 772.11 769.46 
 742 761.73 772.01 769.46 
 743 762.91 772.05 769.46 
 744 762.82 772.07 769.46 
 745 761.71 772.05 769.46 
 746 766.27 772.05 769.46 
 747 766.11 772.05 769.46 
 748 763.73 772.04 769.46 
 749 762.59 772.05 769.46 
 750 765.59 772.04 769.46 
 751 763.41 772.01 769.46 
 752 763.29 772.08 769.46 
 753 761.17 772.14 769.46 
 754 760.32 772.15 769.46 
 755 766.42 772.21 769.46 
 756 763.31 771.91 769.46 
 757 764.95 772.22 769.46 
 758 760.34 772.16 769.46 
 759 763.57 772.16 769.46 
 760 767.06 772.16 769.46 
 761 760.61 772.12 769.46 
 762 763.18 772.13 769.46 
 763 767.01 772.09 769.46 
 764 765.32 772.10 769.46 
 765 762.15 772.08 769.46 
 766 765.99 772.05 769.46 
 767 758.15 772.03 769.46 
 768 765.42 772.02 769.46 
 769 764.43 772.01 769.46 
 770 763.30 771.93 769.46 
 771 762.03 771.98 769.46 
 772 761.04 772.00 769.46 
 773 765.62 771.97 769.46 
 774 764.36 772.07 769.46 
 775 762.44 771.96 769.46 
 776 764.05 771.93 769.46 
 777 761.61 771.90 769.46 
 778 764.94 771.86 769.46 
 779 760.45 772.12 769.46 
 780 764.09 771.90 769.46 
 781 761.42 771.80 769.46 
 782 764.00 772.08 769.46 
 783 761.47 772.19 769.46 
 784 768.42 772.25 769.46 
 785 760.25 772.16 769.46 
 786 766.45 772.15 769.46 
 787 763.44 771.86 769.46 
 788 763.77 772.18 769.46 
 789 762.22 772.19 769.46 
 790 764.63 772.15 769.46 
 791 767.14 772.16 769.46 
 792 763.43 772.08 769.46 
 793 764.82 772.23 769.46 
 794 763.27 772.12 769.46 
 795 765.22 772.07 769.46 
 796 764.00 772.13 769.46 
 797 765.65 772.13 769.46 
 798 765.70 772.22 769.46 
 799 760.44 771.89 769.46 
 800 761.21 771.92 769.46 
 801 765.08 771.92 769.46 
 802 764.97 771.92 769.46 
 803 765.33 771.97 769.46 
 804 762.89 771.92 769.46 
 805 765.54 772.10 769.46 
 806 768.26 772.25 769.46 
 807 764.06 772.26 769.46 
 808 763.46 772.29 769.46 
 809 765.54 772.30 769.46 
 810 763.63 772.09 769.46 
 811 762.77 772.17 769.46 
 812 762.69 772.30 769.46 
 813 762.39 772.29 769.46 
 814 764.60 772.14 769.46 
 815 762.90 771.78 769.46 
 816 764.75 772.22 769.46 
 817 760.88 772.22 769.46 
 818 764.65 772.24 769.46 
 819 762.70 771.83 769.46 
 820 762.56 771.78 769.46 
 821 762.93 772.16 769.46 
 822 764.49 772.24 769.46 
 823 760.80 771.87 769.46 
 824 761.37 771.92 769.46 
 825 764.20 771.96 769.46 
 826 760.20 771.92 769.46 
 827 759.36 771.92 769.46 
 828 765.98 771.85 769.46 
 829 763.42 771.89 769.46 
 830 765.01 771.83 769.46 
 831 765.39 771.81 769.46 
 832 764.38 771.83 769.46 
 833 765.50 771.80 769.46 
 834 760.90 771.78 769.46 
 835 760.01 771.83 769.46 
 836 765.41 771.89 769.46 
 837 764.47 771.89 769.46 
 838 763.68 771.88 769.46 
 839 759.23 772.12 769.46 
 840 761.61 771.89 769.46 
 841 761.35 771.81 769.46 
 842 762.64 771.84 769.46 
 843 762.68 771.84 769.46 
 844 762.82 771.61 769.46 
 845 763.04 771.43 769.46 
 846 760.36 771.34 769.46 
 847 763.87 771.19 769.46 
 848 761.85 771.30 769.46 
 849 761.29 771.43 769.46 
 850 757.95 771.69 769.46 
 851 763.30 771.49 769.46 
 852 768.70 771.70 769.46 
 853 763.72 771.91 769.46 
 854 759.58 771.97 769.46 
 855 764.51 771.56 769.46 
 856 762.07 771.94 769.46 
 857 763.52 771.73 769.46 
 858 763.03 771.80 769.46 
 859 766.01 771.62 769.46 
 860 759.83 771.82 769.46 
 861 761.80 771.79 769.46 
 862 764.74 771.57 769.46 
 863 760.81 771.66 769.46 
 864 762.43 771.66 769.46 
 865 766.71 771.68 769.46 
 866 761.55 771.24 769.46 
 867 761.54 771.74 769.46 
 868 766.21 772.02 769.46 
 869 762.93 772.02 769.46 
 870 768.68 772.22 769.46 
 871 762.32 772.17 769.46 
 872 764.36 771.91 769.46 
 873 762.50 771.93 769.46 
 874 762.28 771.94 769.46 
 875 766.13 771.82 769.46 
 876 761.74 771.77 769.46 
 877 766.48 771.85 769.46 
 878 765.66 771.78 769.46 
 879 763.23 771.93 769.46 
 880 758.36 771.94 769.46 
 881 765.61 771.95 769.46 
 882 765.10 771.84 769.46 
 883 758.43 771.74 769.46 
 884 767.74 771.82 769.46 
 885 765.43 771.99 769.46 
 886 762.73 771.83 769.46 
 887 760.40 771.85 769.46 
 888 762.50 771.82 769.46 
 889 761.54 771.92 769.46 
 890 765.34 771.86 769.46 
 891 765.14 771.95 769.46 
 892 761.75 771.84 769.46 
 893 765.19 771.91 769.46 
 894 761.52 771.90 769.46 
 895 760.20 771.77 769.46 
 896 764.86 771.75 769.46 
 897 763.82 771.98 769.46 
 898 761.82 771.90 769.46 
 899 765.39 771.86 769.46 
 900 760.01 771.90 769.46 
 901 762.32 771.91 769.46 
 902 763.33 771.81 769.46 
 903 761.38 771.80 769.46 
 904 766.83 771.90 769.46 
 905 765.27 771.95 769.46 
 906 765.04 771.75 769.46 
 907 763.20 771.81 769.46 
 908 762.09 771.87 769.46 
 909 762.27 771.96 769.46 
 910 764.22 771.90 769.46 
 911 765.32 771.90 769.46 
 912 766.89 771.94 769.46 
 913 767.29 771.82 769.46 
 914 764.13 771.84 769.46 
 915 764.44 771.87 769.46 
 916 764.24 772.03 769.46 
 917 765.24 772.17 769.46 
 918 767.86 772.14 769.46 
 919 761.74 772.06 769.46 
 920 763.90 772.15 769.46 
 921 761.94 772.20 769.46 
 922 761.49 772.16 769.46 
 923 765.44 772.17 769.46 
 924 762.10 772.19 769.46 
 925 765.39 771.90 769.46 
 926 764.56 771.89 769.46 
 927 763.10 772.20 769.46 
 928 761.91 772.11 769.46 
 929 759.70 772.18 769.46 
 930 766.28 772.19 769.46 
 931 762.53 772.23 769.46 
 932 761.62 772.21 769.46 
 933 760.92 772.06 769.46 
 934 758.95 772.14 769.46 
 935 766.43 772.18 769.46 
 936 761.08 772.18 769.46 
 937 760.73 772.19 769.46 
 938 761.77 772.30 769.46 
 939 764.55 772.26 769.46 
 940 761.38 772.31 769.46 
 941 766.81 772.27 769.46 
 942 765.74 772.37 769.46 
 943 764.50 772.32 769.46 
 944 764.49 772.01 769.46 
 945 764.78 772.00 769.46 
 946 763.32 772.00 769.46 
 947 759.44 772.06 769.46 
 948 764.21 772.08 769.46 
 949 762.98 772.05 769.46 
 950 762.06 772.02 769.46 
 951 763.95 772.03 769.46 
 952 759.68 772.00 769.46 
 953 764.04 772.09 769.46 
 954 767.42 772.07 769.46 
 955 764.97 772.05 769.46 
 956 765.78 771.97 769.46 
 957 765.56 771.98 769.46 
 958 762.10 772.03 769.46 
 959 763.36 771.98 769.46 
 960 761.31 771.96 769.46 
 961 763.46 772.07 769.46 
 962 764.49 772.12 769.46 
 963 762.85 772.06 769.46 
 964 764.71 772.10 769.46 
 965 765.41 772.05 769.46 
 966 764.41 772.03 769.46 
 967 764.68 772.00 769.46 
 968 763.42 772.04 769.46 
 969 762.55 772.06 769.46 
 970 764.32 772.14 769.46 
 971 760.36 772.10 769.46 
 972 762.27 772.01 769.46 
 973 763.97 771.93 769.46 
 974 764.86 771.96 769.46 
 975 762.47 771.95 769.46 
 976 761.98 771.94 769.46 
 977 763.20 771.89 769.46 
 978 766.42 771.97 769.46 
 979 762.45 771.98 769.46 
 980 762.68 771.92 769.46 
 981 763.80 772.04 769.46 
 982 762.20 772.02 769.46 
 983 765.55 772.01 769.46 
 984 761.70 772.04 769.46 
 985 761.25 772.06 769.46 
 986 761.58 771.99 769.46 
 987 761.63 772.00 769.46 
 988 763.96 772.05 769.46 
 989 764.51 772.07 769.46 
 990 765.99 772.08 769.46 
 991 762.29 772.03 769.46 
 992 765.06 772.06 769.46 
 993 761.55 772.09 769.46 
 994 761.82 772.01 769.46 
 995 764.73 772.06 769.46 
 996 762.44 772.03 769.46 
 997 770.29 772.13 769.46 
 998 762.36 772.11 770.29 
 999 762.85 772.12 770.29 
1000 763.77 772.08 770.29 
1001 765.49 772.09 770.29 
1002 763.24 772.00 770.29 
1003 761.88 772.03 770.29 
1004 762.36 772.06 770.29 
1005 759.29 772.02 770.29 
1006 768.05 771.99 770.29 
1007 764.40 771.95 770.29 
1008 765.74 771.96 770.29 
1009 765.28 771.99 770.29 
1010 762.58 772.04 770.29 
1011 762.30 772.03 770.29 
1012 767.28 771.99 770.29 
1013 759.87 772.00 770.29 
1014 762.15 772.02 770.29 
1015 765.06 772.04 770.29 
1016 766.25 772.00 770.29 
1017 763.87 771.94 770.29 
1018 765.76 771.95 770.29 
1019 762.33 771.99 770.29 
1020 764.87 772.00 770.29 
1021 764.90 772.08 770.29 
1022 764.97 771.94 770.29 
1023 763.76 771.96 770.29 
1024 762.04 771.93 770.29 
1025 764.05 771.95 770.29 
1026 762.37 771.99 770.29 
1027 765.37 772.00 770.29 
1028 761.84 771.97 770.29 
1029 764.09 771.92 770.29 
1030 761.81 771.93 770.29 
1031 764.53 771.95 770.29 
1032 762.59 771.90 770.29 
1033 763.35 771.94 770.29 
1034 766.09 771.95 770.29 
1035 762.02 771.95 770.29 
1036 763.41 771.94 770.29 
1037 763.27 771.97 770.29 
1038 761.51 771.97 770.29 
1039 765.39 772.01 770.29 
1040 760.72 772.03 770.29 
1041 767.00 771.96 770.29 
1042 763.31 771.89 770.29 
1043 765.92 771.90 770.29 
1044 764.08 771.91 770.29 
1045 767.62 771.72 770.29 
1046 763.69 771.71 770.29 
1047 763.66 771.70 770.29 
1048 763.90 771.97 770.29 
1049 762.28 771.87 770.29 
1050 764.92 771.92 770.29 
1051 764.01 771.97 770.29 
1052 763.68 771.97 770.29 
1053 762.28 772.00 770.29 
1054 763.33 772.07 770.29 
1055 764.67 771.92 770.29 
1056 763.08 771.71 770.29 
1057 765.75 771.71 770.29 
1058 760.57 771.66 770.29 
1059 764.93 771.78 770.29 
1060 764.03 771.83 770.29 
1061 764.30 771.74 770.29 
1062 766.39 771.47 770.29 
1063 763.57 771.39 770.29 
1064 764.69 771.53 770.29 
1065 760.35 771.59 770.29 
1066 766.69 771.78 770.29 
1067 761.76 771.67 770.29 
1068 766.08 771.73 770.29 
1069 762.46 771.74 770.29 
1070 761.16 771.78 770.29 
1071 763.70 771.74 770.29 
1072 767.10 771.75 770.29 
1073 761.51 771.79 770.29 
1074 762.60 771.79 770.29 
1075 765.65 771.78 770.29 
1076 766.02 771.65 770.29 
1077 764.61 771.70 770.29 
1078 762.72 771.77 770.29 
1079 763.04 771.81 770.29 
1080 763.68 771.83 770.29 
1081 764.71 771.84 770.29 
1082 765.59 771.93 770.29 
1083 766.05 771.95 770.29 
1084 766.75 771.91 770.29 
1085 762.79 771.84 770.29 
1086 761.01 771.76 770.29 
1087 759.41 771.64 770.29 
1088 762.86 771.52 770.29 
1089 763.50 771.62 770.29 
1090 763.87 771.76 770.29 
1091 763.02 771.60 770.29 
1092 760.45 771.65 770.29 
1093 764.08 771.84 770.29 
1094 762.31 771.69 770.29 
1095 762.01 772.11 770.29 
1096 767.01 771.91 770.29 
1097 762.79 772.36 770.29 
1098 760.26 771.93 770.29 
1099 763.56 772.07 770.29 
1100 761.16 772.18 770.29 
1101 764.62 772.16 770.29 
1102 760.44 772.15 770.29 
1103 762.74 772.09 770.29 
1104 762.10 772.12 770.29 
1105 764.18 772.10 770.29 
1106 766.13 772.04 770.29 
1107 764.56 772.37 770.29 
1108 764.67 772.30 770.29 
1109 765.56 772.11 770.29 
1110 764.27 772.08 770.29 
1111 762.27 772.06 770.29 
1112 763.21 772.12 770.29 
1113 766.22 772.15 770.29 
1114 760.62 772.10 770.29 
1115 762.90 772.06 770.29 
1116 764.67 772.02 770.29 
1117 762.52 772.07 770.29 
1118 761.14 772.05 770.29 
1119 762.50 772.04 770.29 
1120 763.20 771.97 770.29 
1121 764.61 771.94 770.29 
1122 766.44 772.01 770.29 
1123 765.06 772.01 770.29 
1124 763.33 772.00 770.29 
1125 768.79 771.98 770.29 
1126 765.09 771.98 770.29 
1127 764.58 772.00 770.29 
1128 759.85 772.23 770.29 
1129 761.33 772.01 770.29 
1130 764.74 771.98 770.29 
1131 759.95 772.00 770.29 
1132 765.25 772.01 770.29 
1133 761.89 771.95 770.29 
1134 761.60 772.01 770.29 
1135 762.78 772.01 770.29 
1136 762.00 771.98 770.29 
1137 761.85 771.96 770.29 
1138 762.31 771.96 770.29 
1139 760.86 771.97 770.29 
1140 766.01 771.88 770.29 
1141 762.51 771.80 770.29 
1142 761.36 771.84 770.29 
1143 765.37 771.91 770.29 
1144 761.29 771.82 770.29 
1145 762.36 771.88 770.29 
1146 763.04 771.75 770.29 
1147 762.63 772.09 770.29 
1148 760.33 772.13 770.29 
1149 764.15 772.13 770.29 
1150 764.35 771.86 770.29 
1151 762.43 771.58 770.29 
1152 763.98 771.45 770.29 
1153 764.79 771.51 770.29 
1154 763.75 771.68 770.29 
1155 765.81 771.77 770.29 
1156 766.24 771.61 770.29 
1157 763.45 772.14 770.29 
1158 764.79 771.93 770.29 
1159 762.54 771.63 770.29 
1160 761.34 772.09 770.29 
1161 767.80 771.86 770.29 
1162 764.23 771.49 770.29 
1163 758.16 771.78 770.29 
1164 764.49 771.53 770.29 
1165 762.21 771.54 770.29 
1166 763.23 771.85 770.29 
1167 764.82 771.85 770.29 
1168 760.19 771.61 770.29 
1169 763.30 771.79 770.29 
1170 760.22 772.03 770.29 
1171 767.45 772.05 770.29 
1172 764.70 771.85 770.29 
1173 760.04 771.85 770.29 
1174 769.08 771.67 770.29 
1175 762.39 771.49 770.29 
1176 767.69 772.02 770.29 
1177 764.85 771.86 770.29 
1178 762.97 772.07 770.29 
1179 763.92 772.07 770.29 
1180 764.26 772.14 770.29 
1181 764.52 772.11 770.29 
1182 762.14 771.99 770.29 
1183 761.63 770.73 770.29 
1184 762.96 769.89 770.29 
1185 763.77 768.79 770.29 
1186 763.52 771.29 770.29 
1187 764.07 771.49 770.29 
1188 764.84 771.54 770.29 
1189 760.88 771.49 770.29 
1190 762.65 770.76 770.29 
1191 763.68 771.41 770.29 
1192 762.64 771.00 770.29 
1193 767.14 771.23 770.29 
1194 764.00 771.47 770.29 
1195 762.94 771.64 770.29 
1196 763.20 771.40 770.29 
1197 762.95 771.60 770.29 
1198 761.73 771.46 770.29 
1199 765.02 771.74 770.29 
1200 760.59 771.58 770.29 
1201 761.86 772.05 770.29 
1202 765.37 771.86 770.29 
1203 760.51 771.79 770.29 
1204 765.45 771.77 770.29 
1205 762.98 771.75 770.29 
1206 765.85 771.85 770.29 
1207 763.16 771.79 770.29 
1208 762.33 771.61 770.29 
1209 762.60 771.25 770.29 
1210 760.03 771.48 770.29 
1211 766.95 771.70 770.29 
1212 760.82 771.52 770.29 
1213 763.44 771.41 770.29 
1214 762.40 771.60 770.29 
1215 761.83 771.73 770.29 
1216 763.03 771.83 770.29 
1217 761.62 771.80 770.29 
1218 767.63 771.51 770.29 
1219 763.75 771.57 770.29 
1220 761.73 771.80 770.29 
1221 763.78 771.83 770.29 
1222 763.00 771.69 770.29 
1223 764.44 771.56 770.29 
1224 765.00 771.57 770.29 
1225 762.96 771.37 770.29 
1226 762.83 771.77 770.29 
1227 765.50 771.88 770.29 
1228 762.63 771.86 770.29 
1229 764.06 771.75 770.29 
1230 767.60 771.65 770.29 
1231 764.69 771.89 770.29 
1232 761.73 771.82 770.29 
1233 766.32 772.05 770.29 
1234 766.57 771.81 770.29 
1235 760.24 771.71 770.29 
1236 760.22 771.83 770.29 
1237 763.67 771.97 770.29 
1238 765.27 771.80 770.29 
1239 760.95 771.87 770.29 
1240 762.79 771.72 770.29 
1241 764.68 771.55 770.29 
1242 760.87 771.58 770.29 
1243 761.80 771.41 770.29 
1244 762.43 771.48 770.29 
1245 761.59 771.63 770.29 
1246 760.30 771.59 770.29 
1247 766.41 771.61 770.29 
1248 766.87 771.97 770.29 
1249 764.53 771.76 770.29 
1250 764.41 771.57 770.29 
1251 762.25 771.76 770.29 
1252 761.53 771.73 770.29 
1253 764.29 771.77 770.29 
1254 766.25 772.31 770.29 
1255 760.21 772.07 770.29 
1256 761.72 771.95 770.29 
1257 763.06 772.09 770.29 
1258 762.81 771.94 770.29 
1259 765.53 771.71 770.29 
1260 764.14 771.62 770.29 
1261 766.04 771.40 770.29 
1262 762.01 771.37 770.29 
1263 762.70 771.31 770.29 
1264 761.36 771.28 770.29 
1265 763.56 771.27 770.29 
1266 763.34 771.24 770.29 
1267 763.37 771.43 770.29 
1268 764.44 771.34 770.29 
1269 759.91 771.18 770.29 
1270 759.57 771.11 770.29 
1271 764.49 771.27 770.29 
1272 764.48 771.11 770.29 
1273 761.74 771.10 770.29 
1274 760.12 771.14 770.29 
1275 761.52 771.25 770.29 
1276 764.87 771.23 770.29 
1277 764.48 771.28 770.29 
1278 763.44 771.36 770.29 
1279 763.96 771.36 770.29 
1280 763.50 771.31 770.29 
1281 763.25 771.18 770.29 
1282 764.10 771.11 770.29 
1283 766.74 771.18 770.29 
1284 759.37 771.17 770.29 
1285 763.12 771.41 770.29 
1286 761.02 771.21 770.29 
1287 765.34 771.23 770.29 
1288 762.23 771.26 770.29 
1289 760.68 771.16 770.29 
1290 765.39 771.41 770.29 
1291 764.30 771.38 770.29 
1292 764.10 771.27 770.29 
1293 762.22 771.41 770.29 
1294 765.02 771.14 770.29 
1295 764.48 771.28 770.29 
1296 757.79 771.24 770.29 
1297 762.45 771.42 770.29 
1298 760.94 771.35 770.29 
1299 764.38 771.44 770.29 
1300 764.56 771.29 770.29 
1301 762.24 771.12 770.29 
1302 757.84 770.99 770.29 
1303 763.62 770.85 770.29 
1304 766.43 771.25 770.29 
1305 762.50 771.51 770.29 
1306 761.29 771.58 770.29 
1307 767.22 771.60 770.29 
1308 762.49 771.41 770.29 
1309 765.04 771.18 770.29 
1310 763.69 771.25 770.29 
1311 764.76 771.28 770.29 
1312 765.21 771.53 770.29 
1313 762.44 771.57 770.29 
1314 763.46 771.52 770.29 
1315 761.26 771.12 770.29 
1316 762.12 771.18 770.29 
1317 764.11 771.28 770.29 
1318 761.08 771.01 770.29 
1319 761.22 770.92 770.29 
1320 766.51 770.77 770.29 
1321 762.85 770.81 770.29 
1322 762.88 771.05 770.29 
1323 762.72 771.06 770.29 
1324 764.37 771.10 770.29 
1325 763.34 771.25 770.29 
1326 761.44 771.20 770.29 
1327 762.69 771.13 770.29 
1328 764.55 771.35 770.29 
1329 764.90 771.07 770.29 
1330 763.43 771.29 770.29 
1331 763.51 770.77 770.29 
1332 765.40 770.99 770.29 
1333 765.59 771.44 770.29 
1334 761.62 770.81 770.29 
1335 761.48 771.40 770.29 
1336 765.07 771.15 770.29 
1337 762.82 771.34 770.29 
1338 758.79 771.41 770.29 
1339 763.23 771.39 770.29 
1340 762.24 771.44 770.29 
1341 763.80 771.71 770.29 
1342 761.37 771.58 770.29 
1343 763.10 771.74 770.29 
1344 762.06 771.55 770.29 
1345 761.80 771.60 770.29 
1346 760.39 771.57 770.29 
1347 764.63 771.71 770.29 
1348 765.63 771.76 770.29 
1349 763.24 771.56 770.29 
1350 761.76 771.34 770.29 
1351 760.81 771.24 770.29 
1352 761.45 771.47 770.29 
1353 764.28 771.50 770.29 
1354 761.22 771.51 770.29 
1355 765.83 771.68 770.29 
1356 762.52 771.55 770.29 
1357 762.77 771.67 770.29 
1358 762.41 771.40 770.29 
1359 764.64 771.44 770.29 
1360 763.90 771.72 770.29 
1361 764.83 771.48 770.29 
1362 763.33 771.52 770.29 
1363 762.13 771.52 770.29 
1364 762.01 771.62 770.29 
1365 761.99 771.55 770.29 
1366 763.33 771.28 770.29 
1367 763.38 771.36 770.29 
1368 764.64 771.22 770.29 
1369 762.57 771.55 770.29 
1370 763.30 771.35 770.29 
1371 767.17 771.30 770.29 
1372 766.29 771.41 770.29 
1373 764.11 771.29 770.29 
1374 762.01 771.60 770.29 
1375 763.02 771.58 770.29 
1376 762.73 771.40 770.29 
1377 762.76 771.42 770.29 
1378 761.20 771.42 770.29 
1379 764.97 771.50 770.29 
1380 762.16 771.48 770.29 
1381 762.12 771.53 770.29 
1382 759.83 771.40 770.29 
1383 764.68 771.28 770.29 
1384 761.18 771.35 770.29 
1385 765.56 771.31 770.29 
1386 761.70 771.20 770.29 
1387 764.97 771.35 770.29 
1388 762.84 771.22 770.29 
1389 764.39 771.41 770.29 
1390 763.09 771.31 770.29 
1391 760.38 771.35 770.29 
1392 763.64 771.24 770.29 
1393 765.99 770.98 770.29 
1394 761.36 770.71 770.29 
1395 762.33 770.60 770.29 
1396 762.48 770.55 770.29 
1397 765.79 770.80 770.29 
1398 763.73 770.80 770.29 
1399 764.85 770.65 770.29 
1400 761.35 770.70 770.29 
1401 763.04 770.71 770.29 
1402 762.79 770.95 770.29 
1403 763.58 770.63 770.29 
1404 766.21 770.84 770.29 
1405 762.08 770.86 770.29 
1406 760.82 770.80 770.29 
1407 766.46 770.98 770.29 
1408 763.32 770.96 770.29 
1409 762.84 770.93 770.29 
1410 765.08 770.89 770.29 
1411 764.81 771.02 770.29 
1412 766.50 771.14 770.29 
1413 762.56 771.24 770.29 
1414 763.75 771.26 770.29 
1415 759.73 771.21 770.29 
1416 763.36 771.18 770.29 
1417 763.48 771.13 770.29 
1418 761.85 771.13 770.29 
1419 761.04 771.13 770.29 
1420 763.38 771.10 770.29 
1421 762.50 771.27 770.29 
1422 762.92 771.06 770.29 
1423 762.17 771.40 770.29 
1424 763.49 771.01 770.29 
1425 762.66 771.07 770.29 
1426 763.45 771.32 770.29 
1427 760.46 771.46 770.29 
1428 764.71 771.02 770.29 
1429 761.92 771.16 770.29 
1430 762.36 770.97 770.29 
1431 763.66 771.06 770.29 
1432 764.66 770.99 770.29 
1433 765.60 770.94 770.29 
1434 761.65 771.38 770.29 
1435 762.89 771.35 770.29 
1436 760.90 771.09 770.29 
1437 764.65 771.22 770.29 
1438 762.93 771.47 770.29 
1439 762.57 771.55 770.29 
1440 761.98 771.34 770.29 
1441 758.69 771.55 770.29 
1442 760.73 771.21 770.29 
1443 760.48 771.24 770.29 
1444 761.85 771.32 770.29 
1445 765.35 771.40 770.29 
1446 760.80 771.34 770.29 
1447 762.40 771.27 770.29 
1448 763.99 771.55 770.29 
1449 763.46 771.48 770.29 
1450 761.86 771.55 770.29 
1451 763.75 771.75 770.29 
1452 761.48 771.65 770.29 
1453 764.51 771.51 770.29 
1454 761.43 771.51 770.29 
1455 761.26 771.26 770.29 
1456 764.22 771.17 770.29 
1457 767.25 770.93 770.29 
1458 762.06 771.12 770.29 
1459 761.40 771.13 770.29 
1460 768.94 770.87 770.29 
1461 764.55 771.20 770.29 
1462 762.81 771.34 770.29 
1463 764.65 771.61 770.29 
1464 765.72 771.63 770.29 
1465 764.17 771.49 770.29 
1466 765.77 771.71 770.29 
1467 766.43 771.82 770.29 
1468 758.67 771.76 770.29 
1469 764.11 771.68 770.29 
1470 761.05 771.91 770.29 
1471 764.43 771.84 770.29 
1472 761.58 772.07 770.29 
1473 758.81 771.66 770.29 
1474 763.73 771.86 770.29 
1475 764.95 771.55 770.29 
1476 761.49 771.79 770.29 
1477 760.35 772.15 770.29 
1478 758.48 771.79 770.29 
1479 764.78 771.86 770.29 
1480 760.97 771.52 770.29 
1481 761.09 771.55 770.29 
1482 763.66 771.74 770.29 
1483 762.42 771.65 770.29 
1484 763.07 771.65 770.29 
1485 765.64 771.64 770.29 
1486 768.02 771.67 770.29 
1487 762.78 771.64 770.29 
1488 765.35 771.52 770.29 
1489 766.43 771.75 770.29 
1490 761.02 771.61 770.29 
1491 763.86 771.32 770.29 
1492 760.03 771.52 770.29 
1493 761.77 771.59 770.29 
1494 766.60 771.23 770.29 
1495 765.98 771.10 770.29 
1496 762.42 771.29 770.29 
1497 763.55 771.47 770.29 
1498 764.28 771.28 770.29 
1499 766.73 771.54 770.29 
1500 760.38 771.43 770.29 
1501 760.30 771.66 770.29 
1502 760.56 771.45 770.29 
1503 761.31 771.11 770.29 
1504 764.42 771.12 770.29 
1505 762.05 771.13 770.29 
1506 760.44 771.69 770.29 
1507 760.29 771.42 770.29 
1508 759.96 771.57 770.29 
1509 763.24 771.44 770.29 
1510 763.53 771.45 770.29 
1511 764.84 771.68 770.29 
1512 763.30 771.16 770.29 
1513 760.82 771.19 770.29 
1514 758.74 771.71 770.29 
1515 762.63 771.42 770.29 
1516 764.75 771.18 770.29 
1517 763.85 771.40 770.29 
1518 765.40 771.08 770.29 
1519 763.18 771.61 770.29 
1520 761.36 771.07 770.29 
1521 765.63 771.04 770.29 
1522 763.03 771.45 770.29 
1523 764.10 771.37 770.29 
1524 763.69 771.49 770.29 
1525 762.97 771.55 770.29 
1526 760.30 771.27 770.29 
1527 763.04 771.08 770.29 
1528 760.23 771.11 770.29 
1529 761.75 771.01 770.29 
1530 761.45 771.09 770.29 
1531 761.55 771.59 770.29 
1532 760.66 771.59 770.29 
1533 768.55 771.04 770.29 
1534 768.29 771.32 770.29 
1535 766.43 771.73 770.29 
1536 761.94 771.74 770.29 
1537 766.47 771.41 770.29 
1538 763.96 771.46 770.29 
1539 761.69 771.74 770.29 
1540 766.76 771.80 770.29 
1541 763.26 771.76 770.29 
1542 763.66 771.79 770.29 
1543 761.76 771.83 770.29 
1544 764.52 771.73 770.29 
1545 764.58 771.61 770.29 
1546 761.18 771.69 770.29 
1547 764.05 771.49 770.29 
1548 764.19 771.60 770.29 
1549 765.76 771.71 770.29 
1550 764.74 771.51 770.29 
1551 761.22 771.20 770.29 
1552 760.77 771.47 770.29 
1553 761.60 771.37 770.29 
1554 761.73 771.31 770.29 
1555 764.29 771.32 770.29 
1556 763.87 771.48 770.29 
1557 760.75 771.48 770.29 
1558 763.22 771.48 770.29 
1559 764.48 771.78 770.29 
1560 763.25 771.55 770.29 
1561 762.43 771.53 770.29 
1562 762.33 771.52 770.29 
1563 764.12 771.48 770.29 
1564 763.00 771.35 770.29 
1565 765.47 771.11 770.29 
1566 766.17 771.27 770.29 
1567 762.73 770.89 770.29 
1568 762.74 771.27 770.29 
1569 763.47 770.83 770.29 
1570 762.40 770.76 770.29 
1571 765.17 770.73 770.29 
1572 763.93 770.87 770.29 
1573 762.41 770.84 770.29 
1574 762.63 771.16 770.29 
1575 764.36 771.07 770.29 
1576 763.39 770.94 770.29 
1577 762.53 771.27 770.29 
1578 764.44 771.08 770.29 
1579 764.65 770.93 770.29 
1580 764.07 770.68 770.29 
1581 763.77 770.50 770.29 
1582 764.64 770.39 770.29 
1583 766.46 770.34 770.29 
1584 763.38 770.59 770.29 
1585 763.27 770.65 770.29 
1586 761.50 770.91 770.29 
1587 765.16 771.01 770.29 
1588 764.69 770.86 770.29 
1589 764.55 770.87 770.29 
1590 764.31 770.73 770.29 
1591 767.06 770.56 770.29 
1592 762.74 770.69 770.29 
1593 764.26 770.60 770.29 
1594 761.93 770.60 770.29 
1595 762.65 770.63 770.29 
1596 762.56 770.94 770.29 
1597 765.11 771.11 770.29 
1598 764.42 770.62 770.29 
1599 763.94 770.85 770.29 
1600 762.61 771.20 770.29 
1601 763.61 770.85 770.29 
1602 767.83 771.02 770.29 
1603 763.30 770.74 770.29 
1604 763.43 770.73 770.29 
1605 764.15 771.17 770.29 
1606 761.66 770.72 770.29 
1607 765.59 771.02 770.29 
1608 764.25 770.82 770.29 
1609 761.88 770.81 770.29 
1610 765.63 771.00 770.29 
1611 760.72 770.83 770.29 
1612 766.04 771.14 770.29 
1613 764.63 771.08 770.29 
1614 764.54 771.00 770.29 
1615 760.79 770.94 770.29 
1616 763.30 771.04 770.29 
1617 766.92 770.96 770.29 
1618 765.15 771.36 770.29 
1619 759.16 771.19 770.29 
1620 762.43 771.18 770.29 
1621 764.62 771.05 770.29 
1622 760.28 770.93 770.29 
1623 763.03 770.41 770.29 
1624 761.58 770.81 770.29 
1625 763.06 770.64 770.29 
1626 761.47 770.95 770.29 
1627 762.18 770.82 770.29 
1628 764.90 770.83 770.29 
1629 764.17 770.75 770.29 
1630 763.14 770.83 770.29 
1631 764.68 770.70 770.29 
1632 767.71 770.81 770.29 
1633 764.34 771.08 770.29 
1634 763.59 771.07 770.29 
1635 767.29 771.15 770.29 
1636 764.80 771.08 770.29 
1637 765.62 771.22 770.29 
1638 761.98 771.10 770.29 
1639 760.32 771.09 770.29 
1640 761.05 771.02 770.29 
1641 766.33 770.55 770.29 
1642 764.82 770.89 770.29 
1643 763.97 771.00 770.29 
1644 764.84 770.64 770.29 
1645 765.13 770.50 770.29 
1646 763.01 770.35 770.29 
1647 765.77 770.63 770.29 
1648 761.83 770.72 770.29 
1649 763.55 770.65 770.29 
1650 764.23 770.43 770.29 
1651 766.00 770.69 770.29 
1652 761.71 770.74 770.29 
1653 759.29 770.83 770.29 
1654 763.32 770.70 770.29 
1655 764.87 770.58 770.29 
1656 763.93 770.56 770.29 
1657 761.35 770.57 770.29 
1658 763.21 770.52 770.29 
1659 763.95 770.59 770.29 
1660 761.22 770.88 770.29 
1661 762.43 770.91 770.29 
1662 764.38 770.90 770.29 
1663 764.70 770.58 770.29 
1664 761.43 770.85 770.29 
1665 763.79 770.88 770.29 
1666 762.82 770.81 770.29 
1667 762.60 770.71 770.29 
1668 761.04 770.37 770.29 
1669 763.33 770.40 770.29 
1670 764.42 770.71 770.29 
1671 762.00 770.89 770.29 
1672 760.56 770.94 770.29 
1673 767.60 770.66 770.29 
1674 763.02 770.68 770.29 
1675 767.01 770.79 770.29 
1676 767.32 770.81 770.29 
1677 763.28 770.90 770.29 
1678 764.20 770.73 770.29 
1679 763.48 770.73 770.29 
1680 763.97 770.83 770.29 
1681 764.65 770.92 770.29 
1682 763.84 770.89 770.29 
1683 765.59 770.84 770.29 
1684 761.84 770.96 770.29 
1685 761.68 770.95 770.29 
1686 765.59 771.06 770.29 
1687 757.60 770.95 770.29 
1688 764.91 770.98 770.29 
1689 762.85 770.79 770.29 
1690 762.28 770.78 770.29 
1691 762.99 771.00 770.29 
1692 767.05 770.91 770.29 
1693 762.34 770.89 770.29 
1694 766.24 770.83 770.29 
1695 762.40 770.94 770.29 
1696 760.87 771.07 770.29 
1697 766.46 771.02 770.29 
1698 764.80 770.85 770.29 
1699 762.35 770.83 770.29 
1700 762.09 770.98 770.29 
1701 762.19 771.00 770.29 
1702 762.04 771.06 770.29 
1703 761.05 771.01 770.29 
1704 767.78 771.13 770.29 
1705 763.36 771.15 770.29 
1706 764.56 771.15 770.29 
1707 765.41 771.11 770.29 
1708 762.68 771.21 770.29 
1709 763.16 771.15 770.29 
1710 763.44 771.05 770.29 
1711 761.62 770.96 770.29 
1712 762.10 771.02 770.29 
1713 763.21 770.89 770.29 
1714 764.83 770.94 770.29 
1715 763.35 770.85 770.29 
1716 766.70 770.85 770.29 
1717 763.45 770.83 770.29 
1718 765.05 770.88 770.29 
1719 761.53 771.07 770.29 
1720 766.39 771.27 770.29 
1721 761.82 771.33 770.29 
1722 763.83 771.46 770.29 
1723 760.34 771.75 770.29 
1724 765.58 771.54 770.29 
1725 763.73 771.43 770.29 
1726 762.81 771.48 770.29 
1727 764.79 771.14 770.29 
1728 763.16 771.28 770.29 
1729 765.52 771.41 770.29 
1730 765.94 771.53 770.29 
1731 761.87 771.17 770.29 
1732 763.59 770.86 770.29 
1733 769.14 771.08 770.29 
1734 764.40 771.35 770.29 
1735 763.19 771.11 770.29 
1736 762.80 771.29 770.29 
1737 764.16 771.36 770.29 
1738 764.76 771.11 770.29 
1739 766.15 771.28 770.29 
1740 760.98 771.30 770.29 
1741 763.40 771.23 770.29 
1742 761.83 771.39 770.29 
1743 761.89 771.33 770.29 
1744 765.53 771.24 770.29 
1745 765.95 771.23 770.29 
1746 760.03 771.08 770.29 
1747 764.60 771.16 770.29 
1748 760.69 771.36 770.29 
1749 765.29 771.34 770.29 
1750 764.66 771.30 770.29 
1751 763.45 771.15 770.29 
1752 764.25 771.10 770.29 
1753 764.47 771.12 770.29 
1754 761.56 771.18 770.29 
1755 763.03 770.94 770.29 
1756 764.18 771.22 770.29 
1757 762.07 771.13 770.29 
1758 763.64 771.32 770.29 
1759 761.87 771.32 770.29 
1760 765.54 771.32 770.29 
1761 759.46 771.27 770.29 
1762 759.09 771.08 770.29 
1763 761.79 771.43 770.29 
1764 763.50 771.32 770.29 
1765 765.15 771.44 770.29 
1766 764.63 771.42 770.29 
1767 764.38 771.20 770.29 
1768 761.94 771.46 770.29 
1769 762.67 771.49 770.29 
1770 765.16 771.25 770.29 
1771 762.20 771.13 770.29 
1772 763.96 771.36 770.29 
1773 761.95 771.46 770.29 
1774 762.14 771.36 770.29 
1775 759.76 771.35 770.29 
1776 765.27 771.07 770.29 
1777 761.05 771.57 770.29 
1778 765.64 771.58 770.29 
1779 766.13 771.73 770.29 
1780 765.47 771.52 770.29 
1781 763.78 771.76 770.29 
1782 765.53 771.79 770.29 
1783 766.91 771.67 770.29 
1784 765.99 771.71 770.29 
1785 764.13 771.72 770.29 
1786 763.92 771.75 770.29 
1787 765.27 771.55 770.29 
1788 766.35 771.54 770.29 
1789 764.00 771.72 770.29 
1790 761.76 771.83 770.29 
1791 766.51 771.71 770.29 
1792 767.09 772.03 770.29 
1793 762.54 772.14 770.29 
1794 764.85 772.22 770.29 
1795 765.45 772.06 770.29 
1796 764.76 772.15 770.29 
1797 763.55 771.54 770.29 
1798 762.41 771.65 770.29 
1799 767.40 771.85 770.29 
1800 766.76 771.84 770.29 
1801 766.12 771.46 770.29 
1802 761.30 771.67 770.29 
1803 763.07 771.63 770.29 
1804 763.44 771.22 770.29 
1805 764.02 771.28 770.29 
1806 763.99 771.57 770.29 
1807 765.38 771.64 770.29 
1808 758.17 771.51 770.29 
1809 764.77 771.47 770.29 
1810 765.79 771.36 770.29 
1811 759.69 771.48 770.29 
1812 759.92 771.45 770.29 
1813 761.99 771.48 770.29 
1814 760.83 771.19 770.29 
1815 760.85 771.33 770.29 
1816 765.07 771.57 770.29 
1817 762.87 771.46 770.29 
1818 761.08 771.47 770.29 
1819 765.29 771.37 770.29 
1820 766.19 770.94 770.29 
1821 763.61 771.42 770.29 
1822 764.48 771.97 770.29 
1823 763.29 771.86 770.29 
1824 763.15 771.06 770.29 
1825 759.82 770.81 770.29 
1826 764.23 770.68 770.29 
1827 766.69 771.15 770.29 
1828 762.54 770.89 770.29 
1829 766.96 771.07 770.29 
1830 765.74 771.09 770.29 
1831 767.18 771.12 770.29 
1832 759.61 771.09 770.29 
1833 762.45 771.27 770.29 
1834 762.24 771.34 770.29 
1835 760.68 771.06 770.29 
1836 761.74 771.07 770.29 
1837 764.14 771.05 770.29 
1838 766.61 771.17 770.29 
1839 763.53 771.15 770.29 
1840 760.03 770.97 770.29 
1841 762.97 770.81 770.29 
1842 762.35 771.11 770.29 
1843 763.09 770.97 770.29 
1844 762.86 770.94 770.29 
1845 762.56 771.02 770.29 
1846 763.86 771.12 770.29 
1847 765.03 771.02 770.29 
1848 760.73 771.17 770.29 
1849 765.82 771.20 770.29 
1850 764.62 771.31 770.29 
1851 762.44 771.76 770.29 
1852 764.15 771.57 770.29 
1853 760.88 771.64 770.29 
1854 765.11 771.41 770.29 
1855 763.07 771.51 770.29 
1856 763.02 771.70 770.29 
1857 765.20 771.89 770.29 
1858 762.37 771.89 770.29 
1859 760.86 771.64 770.29 
1860 769.40 771.73 770.29 
1861 762.98 772.05 770.29 
1862 761.87 772.02 770.29 
1863 766.13 772.22 770.29 
1864 764.99 772.10 770.29 
1865 762.50 771.91 770.29 
1866 764.79 771.92 770.29 
1867 762.90 772.05 770.29 
1868 764.31 771.60 770.29 
1869 763.41 772.11 770.29 
1870 759.02 772.05 770.29 
1871 764.45 772.10 770.29 
1872 761.96 772.20 770.29 
1873 763.43 772.18 770.29 
1874 761.93 772.13 770.29 
1875 763.79 772.04 770.29 
1876 763.38 772.07 770.29 
1877 763.47 771.94 770.29 
1878 763.98 771.92 770.29 
1879 760.25 771.99 770.29 
1880 765.68 772.00 770.29 
1881 762.90 772.07 770.29 
1882 761.98 771.98 770.29 
1883 766.40 772.04 770.29 
1884 765.99 772.05 770.29 
1885 767.44 771.99 770.29 
1886 764.52 771.99 770.29 
1887 763.20 772.20 770.29 
1888 761.28 772.06 770.29 
1889 763.71 772.19 770.29 
1890 765.73 771.98 770.29 
1891 763.38 772.00 770.29 
1892 763.29 772.20 770.29 
1893 762.73 771.98 770.29 
1894 762.12 771.95 770.29 
1895 765.21 772.03 770.29 
1896 762.30 772.03 770.29 
1897 766.38 772.03 770.29 
1898 764.65 772.00 770.29 
1899 764.05 771.97 770.29 
1900 763.42 771.97 770.29 
1901 765.43 771.98 770.29 
1902 762.29 771.94 770.29 
1903 760.38 771.96 770.29 
1904 765.77 771.98 770.29 
1905 763.81 771.99 770.29 
1906 762.44 771.96 770.29 
1907 765.09 771.96 770.29 
1908 761.07 771.94 770.29 
1909 763.80 771.99 770.29 
1910 762.40 771.93 770.29 
1911 765.57 771.92 770.29 
1912 764.80 771.93 770.29 
1913 764.50 772.00 770.29 
1914 763.90 771.94 770.29 
1915 764.40 771.95 770.29 
1916 763.62 771.96 770.29 
1917 763.13 771.94 770.29 
1918 760.77 771.94 770.29 
1919 763.05 771.93 770.29 
1920 761.68 771.94 770.29 
1921 763.08 771.91 770.29 
1922 763.98 771.84 770.29 
1923 761.51 771.88 770.29 
1924 767.10 771.93 770.29 
1925 763.69 771.92 770.29 
1926 764.61 771.90 770.29 
1927 761.17 771.97 770.29 
1928 764.43 771.72 770.29 
1929 767.80 771.82 770.29 
1930 761.97 771.68 770.29 
1931 758.61 771.77 770.29 
1932 762.10 771.87 770.29 
1933 764.03 771.92 770.29 
1934 763.25 771.78 770.29 
1935 758.97 771.82 770.29 
1936 759.87 771.90 770.29 
1937 763.01 771.96 770.29 
1938 768.35 771.76 770.29 
1939 762.16 771.94 770.29 
1940 760.93 771.86 770.29 
1941 762.34 771.91 770.29 
1942 763.80 771.70 770.29 
1943 762.26 771.82 770.29 
1944 762.51 771.83 770.29 
1945 764.36 771.90 770.29 
1946 760.56 771.91 770.29 
1947 763.00 771.82 770.29 
1948 764.24 771.84 770.29 
1949 764.43 771.92 770.29 
1950 762.05 771.84 770.29 
1951 763.70 771.64 770.29 
1952 760.82 771.92 770.29 
1953 761.61 771.85 770.29 
1954 761.54 771.67 770.29 
1955 762.75 771.86 770.29 
1956 761.15 771.81 770.29 
1957 763.21 771.89 770.29 
1958 765.00 771.91 770.29 
1959 767.29 771.87 770.29 
1960 759.48 771.87 770.29 
1961 765.15 771.80 770.29 
1962 765.26 771.89 770.29 
1963 765.51 771.77 770.29 
1964 765.46 771.82 770.29 
1965 763.56 771.88 770.29 
1966 763.21 771.87 770.29 
1967 762.45 771.88 770.29 
1968 764.51 771.85 770.29 
1969 761.22 771.89 770.29 
1970 759.02 771.92 770.29 
1971 761.82 771.92 770.29 
1972 764.75 771.91 770.29 
1973 762.93 771.85 770.29 
1974 762.27 771.88 770.29 
1975 764.34 771.78 770.29 
1976 766.52 771.74 770.29 
1977 763.20 771.76 770.29 
1978 762.75 771.74 770.29 
1979 766.58 771.64 770.29 
1980 762.12 771.67 770.29 
1981 761.66 771.70 770.29 
1982 762.80 771.68 770.29 
1983 763.02 771.69 770.29 
1984 761.37 771.69 770.29 
1985 763.79 771.68 770.29 
1986 765.28 771.76 770.29 
1987 761.94 771.66 770.29 
1988 764.55 771.67 770.29 
1989 764.41 771.70 770.29 
1990 759.66 771.66 770.29 
1991 764.27 771.77 770.29 
1992 759.92 771.68 770.29 
1993 763.50 771.78 770.29 
1994 762.37 771.68 770.29 
1995 760.58 771.72 770.29 
1996 764.13 772.00 770.29 
1997 763.64 772.04 770.29 
1998 763.48 772.02 770.29 
1999 762.39 771.99 770.29 
2000 762.58 771.97 770.29 
2001 762.96 771.91 770.29 
2002 763.29 771.86 770.29 
2003 760.93 771.97 770.29 
2004 761.26 771.98 770.29 
2005 764.89 771.95 770.29 
2006 762.51 771.97 770.29 
2007 763.10 772.04 770.29 
2008 763.71 772.34 770.29 
2009 763.65 771.98 770.29 
2010 760.89 772.22 770.29 
2011 765.14 772.33 770.29 
2012 760.16 771.99 770.29 
2013 761.20 772.01 770.29 
2014 761.83 772.06 770.29 
2015 766.42 772.12 770.29 
2016 764.23 772.36 770.29 
2017 760.63 771.78 770.29 
2018 764.57 772.09 770.29 
2019 766.16 772.13 770.29 
2020 764.31 771.84 770.29 
2021 765.02 771.90 770.29 
2022 765.38 771.87 770.29 
2023 766.62 771.86 770.29 
2024 759.42 771.86 770.29 
2025 763.03 771.86 770.29 
2026 762.45 772.10 770.29 
2027 763.01 771.88 770.29 
2028 761.63 772.15 770.29 
2029 761.77 771.84 770.29 
2030 761.32 772.11 770.29 
2031 765.41 771.87 770.29 
2032 761.96 771.86 770.29 
2033 763.13 771.83 770.29 
2034 763.14 772.09 770.29 
2035 762.83 772.07 770.29 
2036 763.64 771.84 770.29 
2037 760.91 772.10 770.29 
2038 764.39 771.84 770.29 
2039 766.58 771.89 770.29 
2040 760.29 772.15 770.29 
2041 763.37 771.82 770.29 
2042 764.97 771.89 770.29 
2043 762.15 771.80 770.29 
2044 762.50 771.85 770.29 
2045 763.70 771.79 770.29 
2046 764.38 771.82 770.29 
2047 765.31 771.89 770.29 
2048 766.95 771.88 770.29 
2049 764.74 771.90 770.29 
2050 762.62 771.84 770.29 
2051 760.08 771.87 770.29 
2052 766.07 772.24 770.29 
2053 762.78 772.34 770.29 
2054 765.56 772.20 770.29 
2055 761.71 772.00 770.29 
2056 764.94 772.33 770.29 
2057 764.53 772.23 770.29 
2058 763.64 772.26 770.29 
2059 763.53 772.19 770.29 
2060 763.70 772.19 770.29 
2061 760.86 772.26 770.29 
2062 763.95 772.14 770.29 
2063 765.29 772.13 770.29 
2064 766.36 772.10 770.29 
2065 763.19 771.93 770.29 
2066 763.68 772.10 770.29 
2067 764.75 772.07 770.29 
2068 760.99 771.84 770.29 
2069 761.14 771.87 770.29 
2070 761.36 771.96 770.29 
2071 765.46 772.25 770.29 
2072 764.93 772.17 770.29 
2073 765.57 771.99 770.29 
2074 765.46 772.28 770.29 
2075 765.29 772.05 770.29 
2076 761.60 772.24 770.29 
2077 760.91 772.32 770.29 
2078 763.27 772.07 770.29 
2079 766.84 772.04 770.29 
2080 765.01 772.28 770.29 
2081 762.11 772.00 770.29 
2082 763.68 771.98 770.29 
2083 765.17 771.95 770.29 
2084 763.37 771.87 770.29 
2085 760.11 771.90 770.29 
2086 762.58 771.85 770.29 
2087 761.15 771.87 770.29 
2088 763.72 771.86 770.29 
2089 762.18 771.84 770.29 
2090 761.15 771.78 770.29 
2091 763.22 771.80 770.29 
2092 765.23 771.86 770.29 
2093 764.02 772.34 770.29 
2094 764.80 772.30 770.29 
2095 765.08 771.95 770.29 
2096 765.46 772.23 770.29 
2097 762.97 772.20 770.29 
2098 763.83 772.40 770.29 
2099 762.96 772.61 770.29 
2100 767.78 772.49 770.29 
2101 761.80 772.37 770.29 
2102 761.84 772.25 770.29 
2103 759.16 772.31 770.29 
2104 761.17 772.18 770.29 
2105 760.98 772.14 770.29 
2106 761.42 772.13 770.29 
2107 767.47 772.44 770.29 
2108 761.06 772.30 770.29 
2109 760.58 772.32 770.29 
2110 761.95 772.03 770.29 
2111 764.71 772.11 770.29 
2112 764.58 772.05 770.29 
2113 765.78 772.15 770.29 
2114 766.10 772.18 770.29 
2115 764.52 772.25 770.29 
2116 765.84 772.20 770.29 
2117 765.92 772.34 770.29 
2118 766.22 772.32 770.29 
2119 764.97 772.42 770.29 
2120 764.07 772.27 770.29 
2121 765.15 772.28 770.29 
2122 763.83 772.16 770.29 
2123 764.49 772.15 770.29 
2124 762.13 772.03 770.29 
2125 760.47 772.05 770.29 
2126 763.32 772.25 770.29 
2127 766.30 772.38 770.29 
2128 763.81 772.51 770.29 
2129 762.71 772.50 770.29 
2130 762.34 772.47 770.29 
2131 763.79 772.52 770.29 
2132 762.09 772.43 770.29 
2133 763.84 772.37 770.29 
2134 763.87 772.30 770.29 
2135 762.45 772.23 770.29 
2136 766.38 772.25 770.29 
2137 761.84 772.22 770.29 
2138 764.70 772.20 770.29 
2139 761.58 772.11 770.29 
2140 763.75 772.00 770.29 
2141 762.52 771.99 770.29 
2142 759.46 772.11 770.29 
2143 763.14 772.05 770.29 
2144 764.96 772.21 770.29 
2145 765.75 771.87 770.29 
2146 762.76 771.69 770.29 
2147 761.16 771.56 770.29 
2148 765.00 771.72 770.29 
2149 764.39 771.95 770.29 
2150 765.39 771.81 770.29 
2151 764.75 771.69 770.29 
2152 765.00 771.80 770.29 
2153 763.85 771.62 770.29 
2154 762.69 771.77 770.29 
2155 761.57 771.67 770.29 
2156 763.49 771.75 770.29 
2157 761.08 771.65 770.29 
2158 763.79 771.78 770.29 
2159 762.11 771.67 770.29 
2160 761.05 771.65 770.29 
2161 764.27 771.97 770.29 
2162 761.15 771.97 770.29 
2163 762.17 771.97 770.29 
2164 764.63 771.88 770.29 
2165 763.99 771.87 770.29 
2166 758.74 771.95 770.29 
2167 763.36 771.84 770.29 
2168 761.62 771.86 770.29 
2169 762.36 771.95 770.29 
2170 761.87 772.04 770.29 
2171 765.17 771.67 770.29 
2172 761.02 771.77 770.29 
2173 765.74 771.74 770.29 
2174 763.42 771.95 770.29 
2175 766.05 771.61 770.29 
2176 763.23 771.83 770.29 
2177 760.56 771.78 770.29 
2178 763.79 771.83 770.29 
2179 760.66 771.72 770.29 
2180 765.78 771.63 770.29 
2181 762.49 771.68 770.29 
2182 763.97 771.60 770.29 
2183 760.25 771.69 770.29 
2184 759.65 771.69 770.29 
2185 762.33 771.54 770.29 
2186 761.76 771.50 770.29 
2187 760.93 771.46 770.29 
2188 760.30 771.36 770.29 
2189 766.33 771.38 770.29 
2190 762.93 771.45 770.29 
2191 762.89 771.55 770.29 
2192 762.12 771.57 770.29 
2193 764.67 771.45 770.29 
2194 759.18 771.51 770.29 
2195 763.66 771.52 770.29 
2196 765.45 771.47 770.29 
2197 765.54 771.47 770.29 
2198 760.72 771.37 770.29 
2199 763.24 771.40 770.29 
2200 762.52 771.37 770.29 
2201 762.68 771.36 770.29 
2202 766.18 771.35 770.29 
2203 765.32 771.13 770.29 
2204 763.07 771.45 770.29 
2205 762.49 771.62 770.29 
2206 763.08 771.73 770.29 
2207 759.82 771.80 770.29 
2208 764.02 771.86 770.29 
2209 763.51 771.74 770.29 
2210 760.07 771.71 770.29 
2211 761.11 771.51 770.29 
2212 767.07 771.74 770.29 
2213 760.69 771.73 770.29 
2214 763.49 771.58 770.29 
2215 763.58 771.50 770.29 
2216 767.14 771.36 770.29 
2217 765.08 771.38 770.29 
2218 762.23 771.48 770.29 
2219 764.79 771.47 770.29 
2220 764.25 771.62 770.29 
2221 764.38 771.71 770.29 
2222 765.09 771.56 770.29 
2223 764.08 771.49 770.29 
2224 763.36 771.41 770.29 
2225 764.10 771.46 770.29 
2226 762.97 771.65 770.29 
2227 759.98 771.63 770.29 
2228 766.73 771.65 770.29 
2229 762.71 772.03 770.29 
2230 764.12 771.82 770.29 
2231 762.74 771.76 770.29 
2232 765.28 771.79 770.29 
2233 759.97 771.72 770.29 
2234 763.43 771.76 770.29 
2235 763.61 771.62 770.29 
2236 762.20 771.83 770.29 
2237 763.69 771.74 770.29 
2238 762.71 771.76 770.29 
2239 763.20 771.60 770.29 
2240 767.34 771.53 770.29 
2241 761.05 771.48 770.29 
2242 767.12 771.40 770.29 
2243 763.27 771.58 770.29 
2244 765.88 771.33 770.29 
2245 768.79 771.47 770.29 
2246 760.21 771.43 770.29 
2247 762.94 771.41 770.29 
2248 762.24 771.36 770.29 
2249 756.83 771.35 770.29 
2250 762.14 771.38 770.29 
2251 765.41 771.39 770.29 
2252 764.42 771.37 770.29 
2253 760.25 771.34 770.29 
2254 764.62 771.57 770.29 
2255 764.75 771.43 770.29 
2256 764.82 771.67 770.29 
2257 761.90 771.57 770.29 
2258 764.72 771.67 770.29 
2259 763.25 771.56 770.29 
2260 761.06 771.62 770.29 
2261 764.39 771.50 770.29 
2262 763.71 771.43 770.29 
2263 763.64 771.60 770.29 
2264 765.38 771.52 770.29 
2265 763.46 771.48 770.29 
2266 762.36 771.49 770.29 
2267 763.26 771.32 770.29 
2268 765.55 771.39 770.29 
2269 764.47 771.30 770.29 
2270 763.52 771.40 770.29 
2271 764.28 771.46 770.29 
2272 761.17 771.43 770.29 
2273 763.90 771.38 770.29 
2274 763.81 771.47 770.29 
2275 763.40 771.49 770.29 
2276 763.82 771.51 770.29 
2277 761.88 771.44 770.29 
2278 763.55 771.25 770.29 
2279 758.59 771.21 770.29 
2280 765.06 771.37 770.29 
2281 763.08 771.41 770.29 
2282 762.60 771.43 770.29 
2283 765.61 771.67 770.29 
2284 764.02 771.37 770.29 
2285 761.55 771.35 770.29 
2286 763.50 771.47 770.29 
2287 763.49 771.40 770.29 
2288 763.11 771.41 770.29 
2289 766.17 771.35 770.29 
2290 762.71 771.24 770.29 
2291 762.40 771.44 770.29 
2292 764.84 771.63 770.29 
2293 762.18 771.51 770.29 
2294 764.74 771.59 770.29 
2295 762.89 771.47 770.29 
2296 763.32 771.55 770.29 
2297 762.23 771.43 770.29 
2298 761.20 771.36 770.29 
2299 763.71 771.25 770.29 
2300 766.17 771.33 770.29 
2301 763.02 771.30 770.29 
2302 765.10 771.29 770.29 
2303 763.46 771.49 770.29 
2304 768.16 771.47 770.29 
2305 761.22 771.49 770.29 
2306 761.42 771.56 770.29 
2307 760.78 771.54 770.29 
2308 766.08 771.51 770.29 
2309 765.38 771.54 770.29 
2310 763.62 771.19 770.29 
2311 767.15 771.14 770.29 
2312 758.49 771.03 770.29 
2313 763.53 770.94 770.29 
2314 765.70 770.96 770.29 
2315 763.62 770.97 770.29 
2316 766.28 771.06 770.29 
2317 764.16 770.96 770.29 
2318 763.09 771.27 770.29 
2319 762.28 771.03 770.29 
2320 764.05 771.04 770.29 
2321 761.57 771.04 770.29 
2322 759.57 771.11 770.29 
2323 759.83 771.32 770.29 
2324 765.95 771.16 770.29 
2325 760.27 771.18 770.29 
2326 761.44 771.32 770.29 
2327 763.91 771.18 770.29 
2328 763.91 771.12 770.29 
2329 768.11 770.86 770.29 
2330 767.32 770.95 770.29 
2331 760.93 770.63 770.29 
2332 764.30 770.81 770.29 
2333 766.19 770.73 770.29 
2334 761.12 770.79 770.29 
2335 766.67 771.01 770.29 
2336 766.16 771.25 770.29 
2337 761.66 770.77 770.29 
2338 763.43 770.66 770.29 
2339 766.15 770.86 770.29 
2340 765.29 770.98 770.29 
2341 763.29 771.03 770.29 
2342 763.59 770.90 770.29 
2343 764.31 771.00 770.29 
2344 761.92 771.12 770.29 
2345 762.21 771.14 770.29 
2346 764.19 770.92 770.29 
2347 763.50 771.01 770.29 
2348 762.18 770.91 770.29 
2349 760.95 770.94 770.29 
2350 764.30 771.03 770.29 
2351 764.16 771.14 770.29 
2352 765.30 770.62 770.29 
2353 767.35 770.96 770.29 
2354 763.78 770.94 770.29 
2355 765.69 770.54 770.29 
2356 763.23 770.42 770.29 
2357 763.28 770.42 770.29 
2358 762.81 770.67 770.29 
2359 762.28 770.59 770.29 
2360 761.38 770.55 770.29 
2361 762.12 770.34 770.29 
2362 761.44 770.66 770.29 
2363 764.86 770.77 770.29 
2364 764.82 770.99 770.29 
2365 763.04 770.87 770.29 
2366 762.04 770.84 770.29 
2367 763.09 771.23 770.29 
2368 763.38 771.14 770.29 
2369 764.90 771.06 770.29 
2370 764.47 771.23 770.29 
2371 763.09 771.31 770.29 
2372 761.20 771.05 770.29 
2373 763.72 771.00 770.29 
2374 764.29 770.89 770.29 
2375 765.41 770.87 770.29 
2376 764.34 770.78 770.29 
2377 763.73 770.80 770.29 
2378 760.01 770.71 770.29 
2379 763.25 770.64 770.29 
2380 760.26 770.72 770.29 
2381 763.78 770.71 770.29 
2382 761.82 770.74 770.29 
2383 764.10 770.86 770.29 
2384 760.92 770.84 770.29 
2385 764.90 770.84 770.29 
2386 761.97 770.70 770.29 
2387 762.25 770.86 770.29 
2388 762.30 771.06 770.29 
2389 760.95 770.91 770.29 
2390 762.52 771.01 770.29 
2391 761.43 771.04 770.29 
2392 763.78 770.98 770.29 
2393 766.45 771.12 770.29 
2394 764.37 771.23 770.29 
2395 767.37 771.25 770.29 
2396 767.11 771.68 770.29 
2397 762.56 771.69 770.29 
2398 764.41 771.68 770.29 
2399 763.64 771.57 770.29 
2400 760.21 771.47 770.29 
2401 764.55 771.33 770.29 
2402 760.86 771.20 770.29 
2403 762.29 771.33 770.29 
2404 761.29 771.38 770.29 
2405 766.43 771.52 770.29 
2406 764.74 771.34 770.29 
2407 760.70 771.56 770.29 
2408 758.93 771.36 770.29 
2409 763.51 771.18 770.29 
2410 763.80 770.88 770.29 
2411 764.51 771.21 770.29 
2412 762.44 771.29 770.29 
2413 759.75 771.19 770.29 
2414 762.98 771.03 770.29 
2415 761.11 771.15 770.29 
2416 762.49 771.24 770.29 
2417 760.21 770.86 770.29 
2418 762.17 770.88 770.29 
2419 764.82 771.05 770.29 
2420 761.76 771.06 770.29 
2421 766.70 770.92 770.29 
2422 762.56 770.96 770.29 
2423 763.32 771.24 770.29 
2424 764.76 771.15 770.29 
2425 763.46 771.18 770.29 
2426 763.04 771.11 770.29 
2427 762.44 771.03 770.29 
2428 761.90 771.40 770.29 
2429 762.57 771.39 770.29 
2430 760.59 771.37 770.29 
2431 764.53 771.34 770.29 
2432 760.10 771.34 770.29 
2433 761.35 770.98 770.29 
2434 764.90 771.08 770.29 
2435 761.24 771.06 770.29 
2436 763.38 770.95 770.29 
2437 762.36 771.04 770.29 
2438 764.09 770.93 770.29 
2439 765.66 770.88 770.29 
2440 763.29 770.93 770.29 
2441 763.09 770.84 770.29 
2442 763.88 770.94 770.29 
2443 763.82 771.02 770.29 
2444 764.17 771.17 770.29 
2445 762.42 771.18 770.29 
2446 763.34 771.29 770.29 
2447 765.02 771.32 770.29 
2448 764.81 771.74 770.29 
2449 764.62 771.81 770.29 
2450 767.88 771.87 770.29 
2451 764.64 771.69 770.29 
2452 762.67 771.69 770.29 
2453 763.97 771.87 770.29 
2454 759.99 771.66 770.29 
2455 765.23 771.35 770.29 
2456 764.96 771.67 770.29 
2457 760.30 771.69 770.29 
2458 762.47 771.82 770.29 
2459 762.96 771.94 770.29 
2460 763.43 771.69 770.29 
2461 761.70 771.92 770.29 
2462 763.53 771.72 770.29 
2463 761.94 771.81 770.29 
2464 758.20 771.80 770.29 
2465 761.46 771.71 770.29 
2466 763.39 771.48 770.29 
2467 760.78 771.76 770.29 
2468 760.48 772.14 770.29 
2469 764.85 772.05 770.29 
2470 764.03 772.08 770.29 
2471 764.17 772.10 770.29 
2472 764.31 772.11 770.29 
2473 762.47 772.02 770.29 
2474 761.29 771.99 770.29 
2475 761.32 771.84 770.29 
2476 762.73 771.95 770.29 
2477 765.48 771.98 770.29 
2478 765.11 771.94 770.29 
2479 768.46 771.85 770.29 
2480 761.12 771.86 770.29 
2481 765.53 771.95 770.29 
2482 764.89 771.80 770.29 
2483 762.80 771.91 770.29 
2484 764.99 771.94 770.29 
2485 768.06 771.92 770.29 
2486 763.59 771.63 770.29 
2487 760.61 771.96 770.29 
2488 763.53 771.93 770.29 
2489 762.74 771.88 770.29 
2490 761.94 771.97 770.29 
2491 767.08 771.63 770.29 
2492 760.33 771.61 770.29 
2493 765.63 771.67 770.29 
2494 759.90 771.60 770.29 
2495 763.64 772.05 770.29 
2496 761.88 771.73 770.29 
2497 767.29 771.80 770.29 
2498 761.32 771.63 770.29 
2499 763.34 772.12 770.29 
2500 763.51 772.12 770.29 
2501 766.29 772.04 770.29 
2502 763.18 771.95 770.29 
2503 764.62 771.95 770.29 
2504 763.54 771.85 770.29 
2505 764.57 772.14 770.29 
2506 762.09 772.21 770.29 
2507 763.16 772.20 770.29 
2508 762.87 772.20 770.29 
2509 762.22 772.15 770.29 
2510 762.00 772.04 770.29 
2511 762.93 771.88 770.29 
2512 764.27 771.99 770.29 
2513 762.31 771.90 770.29 
2514 768.17 771.93 770.29 
2515 763.74 771.63 770.29 
2516 761.46 772.04 770.29 
2517 766.21 771.99 770.29 
2518 766.19 771.90 770.29 
2519 762.75 771.89 770.29 
2520 762.77 771.88 770.29 
2521 763.80 771.86 770.29 
2522 768.21 771.61 770.29 
2523 758.91 771.97 770.29 
2524 764.57 771.83 770.29 
2525 760.73 771.80 770.29 
2526 763.63 772.03 770.29 
2527 764.47 771.60 770.29 
2528 764.22 771.96 770.29 
2529 762.26 771.91 770.29 
2530 760.67 771.80 770.29 
2531 764.85 771.99 770.29 
2532 759.08 771.95 770.29 
2533 766.66 771.67 770.29 
2534 761.65 771.80 770.29 
2535 763.72 771.85 770.29 
2536 766.09 771.78 770.29 
2537 762.04 771.90 770.29 
2538 763.18 771.96 770.29 
2539 762.49 771.92 770.29 
2540 765.67 771.92 770.29 
2541 761.40 771.87 770.29 
2542 762.92 771.71 770.29 
2543 761.38 771.88 770.29 
2544 766.34 771.80 770.29 
2545 764.27 771.89 770.29 
2546 762.20 771.86 770.29 
2547 765.57 771.88 770.29 
2548 765.98 771.93 770.29 
2549 765.29 771.95 770.29 
2550 768.00 771.89 770.29 
2551 763.29 771.98 770.29 
2552 762.10 771.77 770.29 
2553 764.10 771.98 770.29 
2554 763.61 771.96 770.29 
2555 765.28 772.11 770.29 
2556 765.36 772.20 770.29 
2557 763.25 772.16 770.29 
2558 760.95 772.20 770.29 
2559 762.18 772.19 770.29 
2560 763.61 772.22 770.29 
2561 763.26 772.15 770.29 
2562 762.40 772.19 770.29 
2563 762.73 772.05 770.29 
2564 765.60 771.85 770.29 
2565 764.93 772.07 770.29 
2566 763.56 772.12 770.29 
2567 762.35 771.80 770.29 
2568 762.85 771.79 770.29 
2569 763.81 771.69 770.29 
2570 764.99 771.91 770.29 
2571 764.65 771.71 770.29 
2572 763.82 771.82 770.29 
2573 763.21 771.73 770.29 
2574 766.45 771.86 770.29 
2575 763.31 772.03 770.29 
2576 763.84 771.71 770.29 
2577 763.87 771.59 770.29 
2578 763.88 771.30 770.29 
2579 761.29 771.66 770.29 
2580 762.82 771.61 770.29 
2581 761.92 771.61 770.29 
2582 763.98 771.36 770.29 
2583 763.47 771.42 770.29 
2584 763.42 771.66 770.29 
2585 761.16 771.69 770.29 
2586 760.58 771.28 770.29 
2587 766.01 771.63 770.29 
2588 760.96 771.56 770.29 
2589 763.87 771.77 770.29 
2590 759.49 771.61 770.29 
2591 761.87 771.80 770.29 
2592 764.60 771.72 770.29 
2593 763.42 771.76 770.29 
2594 766.00 771.71 770.29 
2595 764.02 771.89 770.29 
2596 763.58 771.92 770.29 
2597 764.19 772.11 770.29 
2598 763.55 772.06 770.29 
2599 763.53 772.15 770.29 
2600 764.26 772.11 770.29 
2601 766.90 772.06 770.29 
2602 764.19 772.09 770.29 
2603 764.33 772.04 770.29 
2604 764.35 771.97 770.29 
2605 763.46 772.01 770.29 
2606 759.19 772.01 770.29 
2607 765.16 772.09 770.29 
2608 763.88 772.24 770.29 
2609 768.19 772.17 770.29 
2610 759.36 772.03 770.29 
2611 765.92 771.93 770.29 
2612 761.06 772.07 770.29 
2613 762.61 772.09 770.29 
2614 762.05 772.07 770.29 
2615 761.93 772.02 770.29 
2616 763.32 772.08 770.29 
2617 764.27 772.02 770.29 
2618 760.07 772.01 770.29 
2619 763.44 772.11 770.29 
2620 762.90 772.05 770.29 
2621 759.58 772.06 770.29 
2622 765.01 772.10 770.29 
2623 763.48 772.13 770.29 
2624 760.40 772.34 770.29 
2625 759.22 772.42 770.29 
2626 762.83 772.44 770.29 
2627 764.41 772.35 770.29 
2628 765.74 772.30 770.29 
2629 759.21 772.07 770.29 
2630 764.26 772.09 770.29 
2631 767.11 772.17 770.29 
2632 765.59 772.24 770.29 
2633 764.75 772.17 770.29 
2634 764.55 772.10 770.29 
2635 760.73 772.18 770.29 
2636 762.44 772.19 770.29 
2637 760.55 772.21 770.29 
2638 763.33 772.08 770.29 
2639 762.66 772.05 770.29 
2640 762.15 771.81 770.29 
2641 765.79 771.93 770.29 
2642 765.51 771.85 770.29 
2643 764.60 771.60 770.29 
2644 764.73 771.57 770.29 
2645 762.88 771.76 770.29 
2646 764.20 771.78 770.29 
2647 761.36 771.62 770.29 
2648 761.05 771.68 770.29 
2649 762.95 771.61 770.29 
2650 760.89 771.81 770.29 
2651 764.66 771.87 770.29 
2652 759.30 772.00 770.29 
2653 761.43 771.98 770.29 
2654 763.08 771.72 770.29 
2655 762.15 771.80 770.29 
2656 764.46 771.71 770.29 
2657 765.52 771.75 770.29 
2658 767.91 771.97 770.29 
2659 761.63 771.96 770.29 
2660 764.39 771.82 770.29 
2661 764.53 771.64 770.29 
2662 764.18 771.73 770.29 
2663 760.52 772.04 770.29 
2664 763.63 772.07 770.29 
2665 762.49 772.08 770.29 
2666 763.28 772.19 770.29 
2667 764.16 772.00 770.29 
2668 759.76 772.14 770.29 
2669 766.71 772.34 770.29 
2670 762.13 771.93 770.29 
2671 761.45 771.97 770.29 
2672 760.65 772.19 770.29 
2673 764.27 771.75 770.29 
2674 762.83 772.07 770.29 
2675 761.98 772.00 770.29 
2676 764.44 771.64 770.29 
2677 760.58 771.49 770.29 
2678 765.14 771.83 770.29 
2679 763.93 771.73 770.29 
2680 763.03 772.04 770.29 
2681 761.40 771.82 770.29 
2682 760.68 772.09 770.29 
2683 762.47 772.19 770.29 
2684 761.20 772.24 770.29 
2685 760.85 772.20 770.29 
2686 765.31 772.12 770.29 
2687 763.77 772.15 770.29 
2688 764.03 772.25 770.29 
2689 765.62 772.22 770.29 
2690 764.71 772.31 770.29 
2691 764.47 772.19 770.29 
2692 763.46 772.07 770.29 
2693 764.72 772.06 770.29 
2694 760.84 771.98 770.29 
2695 767.12 771.99 770.29 
2696 762.92 772.05 770.29 
2697 762.63 772.07 770.29 
2698 762.60 772.06 770.29 
2699 762.14 772.07 770.29 
2700 764.33 772.00 770.29 
2701 761.45 772.03 770.29 
2702 763.46 772.08 770.29 
2703 764.69 772.10 770.29 
2704 762.79 772.05 770.29 
2705 762.03 772.05 770.29 
2706 765.42 771.96 770.29 
2707 765.66 772.20 770.29 
2708 762.19 772.04 770.29 
2709 762.72 772.03 770.29 
2710 762.07 772.02 770.29 
2711 766.67 771.85 770.29 
2712 766.22 772.18 770.29 
2713 758.52 772.14 770.29 
2714 761.87 772.30 770.29 
2715 759.37 772.49 770.29 
2716 764.93 772.43 770.29 
2717 764.78 772.44 770.29 
2718 757.95 772.37 770.29 
2719 765.13 772.46 770.29 
2720 762.08 772.43 770.29 
2721 761.21 772.09 770.29 
2722 760.75 772.09 770.29 
2723 767.75 772.28 770.29 
2724 762.57 771.95 770.29 
2725 764.57 771.92 770.29 
2726 765.08 771.69 770.29 
2727 761.54 771.73 770.29 
2728 763.89 771.59 770.29 
2729 764.02 771.52 770.29 
2730 764.35 771.41 770.29 
2731 762.62 771.31 770.29 
2732 761.68 771.23 770.29 
2733 762.36 771.44 770.29 
2734 766.53 771.57 770.29 
2735 764.87 771.51 770.29 
2736 765.40 771.53 770.29 
2737 767.19 771.59 770.29 
2738 762.03 771.78 770.29 
2739 761.80 771.65 770.29 
2740 764.07 771.61 770.29 
2741 765.98 771.49 770.29 
2742 760.41 771.43 770.29 
2743 763.78 771.38 770.29 
2744 764.38 771.46 770.29 
2745 766.40 771.58 770.29 
2746 761.16 771.62 770.29 
2747 764.00 771.84 770.29 
2748 758.92 771.74 770.29 
2749 767.34 771.48 770.29 
2750 765.44 771.65 770.29 
2751 764.14 771.67 770.29 
2752 761.40 771.58 770.29 
2753 762.54 771.71 770.29 
2754 765.65 771.45 770.29 
2755 763.22 771.45 770.29 
2756 765.04 771.59 770.29 
2757 763.06 771.47 770.29 
2758 760.70 771.64 770.29 
2759 767.10 771.87 770.29 
2760 761.56 771.68 770.29 
2761 762.22 771.61 770.29 
2762 765.29 771.69 770.29 
2763 763.62 771.71 770.29 
2764 762.38 771.73 770.29 
2765 758.18 771.62 770.29 
2766 763.34 771.82 770.29 
2767 763.33 771.68 770.29 
2768 769.01 771.66 770.29 
2769 763.66 771.67 770.29 
2770 760.19 771.66 770.29 
2771 762.78 771.69 770.29 
2772 760.59 771.61 770.29 
2773 761.78 771.48 770.29 
2774 762.09 771.60 770.29 
2775 762.36 771.60 770.29 
2776 763.75 771.63 770.29 
2777 760.29 771.84 770.29 
2778 762.99 771.74 770.29 
2779 760.41 771.78 770.29 
2780 765.24 771.72 770.29 
2781 762.70 771.75 770.29 
2782 762.20 771.85 770.29 
2783 760.34 771.72 770.29 
2784 764.02 771.62 770.29 
2785 759.91 771.52 770.29 
2786 761.71 771.54 770.29 
2787 761.22 771.60 770.29 
2788 763.71 771.31 770.29 
2789 764.22 771.50 770.29 
2790 762.34 771.44 770.29 
2791 760.69 771.50 770.29 
2792 764.41 771.55 770.29 
2793 765.44 771.51 770.29 
2794 763.23 771.40 770.29 
2795 760.53 771.35 770.29 
2796 760.30 771.30 770.29 
2797 762.19 771.37 770.29 
2798 762.83 771.51 770.29 
2799 764.61 771.63 770.29 
2800 764.13 771.62 770.29 
2801 760.55 771.55 770.29 
2802 761.29 771.47 770.29 
2803 759.91 771.46 770.29 
2804 760.72 771.34 770.29 
2805 762.55 771.49 770.29 
2806 762.66 771.47 770.29 
2807 766.56 771.55 770.29 
2808 765.22 771.84 770.29 
2809 766.60 771.66 770.29 
2810 762.27 771.74 770.29 
2811 761.84 771.65 770.29 
2812 763.16 771.74 770.29 
2813 763.32 771.60 770.29 
2814 761.57 771.68 770.29 
2815 761.28 771.60 770.29 
2816 761.92 771.46 770.29 
2817 762.50 771.53 770.29 
2818 765.34 771.70 770.29 
2819 765.84 771.51 770.29 
2820 766.81 771.50 770.29 
2821 765.36 771.56 770.29 
2822 764.68 771.69 770.29 
2823 761.71 771.54 770.29 
2824 763.81 771.57 770.29 
2825 765.35 771.53 770.29 
2826 762.72 771.45 770.29 
2827 762.84 771.50 770.29 
2828 762.85 771.64 770.29 
2829 760.65 771.34 770.29 
2830 764.41 771.56 770.29 
2831 761.65 771.43 770.29 
2832 763.73 771.32 770.29 
2833 764.26 771.36 770.29 
2834 763.52 771.27 770.29 
2835 761.85 771.34 770.29 
2836 761.31 771.51 770.29 
2837 761.08 771.62 770.29 
2838 764.17 771.66 770.29 
2839 763.08 771.54 770.29 
2840 764.77 771.28 770.29 
2841 762.48 771.45 770.29 
2842 762.40 771.43 770.29 
2843 762.71 771.65 770.29 
2844 765.58 771.73 770.29 
2845 762.05 771.98 770.29 
2846 762.21 771.85 770.29 
2847 760.28 772.06 770.29 
2848 762.83 772.18 770.29 
2849 761.63 772.22 770.29 
2850 763.21 772.51 770.29 
2851 765.63 772.46 770.29 
2852 761.07 772.42 770.29 
2853 761.21 772.43 770.29 
2854 766.98 772.18 770.29 
2855 764.06 772.31 770.29 
2856 763.92 772.21 770.29 
2857 762.87 772.35 770.29 
2858 758.92 772.41 770.29 
2859 760.57 772.28 770.29 
2860 767.70 772.28 770.29 
2861 764.19 772.12 770.29 
2862 759.44 772.08 770.29 
2863 763.23 772.05 770.29 
2864 761.71 772.07 770.29 
2865 761.25 771.90 770.29 
2866 762.23 771.63 770.29 
2867 764.61 771.47 770.29 
2868 763.99 771.50 770.29 
2869 765.26 771.45 770.29 
2870 763.43 771.26 770.29 
2871 760.74 771.14 770.29 
2872 761.47 771.19 770.29 
2873 761.66 771.38 770.29 
2874 761.78 771.42 770.29 
2875 762.27 771.36 770.29 
2876 760.39 771.46 770.29 
2877 762.82 771.44 770.29 
2878 761.39 771.36 770.29 
2879 760.00 771.62 770.29 
2880 761.66 771.45 770.29 
2881 762.68 771.47 770.29 
2882 760.30 771.47 770.29 
2883 761.85 771.45 770.29 
2884 767.59 771.38 770.29 
2885 764.75 771.37 770.29 
2886 761.03 771.66 770.29 
2887 759.97 771.42 770.29 
2888 761.55 771.40 770.29 
2889 762.51 771.38 770.29 
2890 761.72 771.33 770.29 
2891 764.60 771.75 770.29 
2892 764.02 771.67 770.29 
2893 760.43 771.61 770.29 
2894 762.70 771.78 770.29 
2895 757.43 771.69 770.29 
2896 760.65 772.00 770.29 
2897 763.49 771.89 770.29 
2898 767.12 771.91 770.29 
2899 765.76 771.71 770.29 
2900 761.93 771.50 770.29 
2901 761.97 771.13 770.29 
2902 761.44 771.32 770.29 
2903 762.78 771.16 770.29 
2904 764.51 771.40 770.29 
2905 764.95 771.60 770.29 
2906 764.17 771.66 770.29 
2907 762.41 771.75 770.29 
2908 763.65 771.83 770.29 
2909 762.69 771.72 770.29 
2910 760.19 771.68 770.29 
2911 764.17 771.65 770.29 
2912 762.23 771.60 770.29 
2913 763.05 771.82 770.29 
2914 765.44 771.75 770.29 
2915 761.54 771.49 770.29 
2916 762.39 771.56 770.29 
2917 761.47 771.50 770.29 
2918 763.60 771.78 770.29 
2919 763.76 771.85 770.29 
2920 763.13 771.87 770.29 
2921 763.36 771.77 770.29 
2922 765.05 771.63 770.29 
2923 766.80 771.54 770.29 
2924 763.32 771.73 770.29 
2925 761.49 771.87 770.29 
2926 762.48 771.81 770.29 
2927 763.66 771.66 770.29 
2928 765.36 771.62 770.29 
2929 759.82 771.42 770.29 
2930 762.06 771.22 770.29 
2931 760.60 771.14 770.29 
2932 759.70 771.14 770.29 
2933 766.60 771.05 770.29 
2934 761.23 771.02 770.29 
2935 764.25 771.02 770.29 
2936 763.94 771.02 770.29 
2937 762.64 770.83 770.29 
2938 762.27 770.75 770.29 
2939 765.26 771.06 770.29 
2940 765.08 771.02 770.29 
2941 763.22 771.05 770.29 
2942 764.03 771.14 770.29 
2943 765.39 770.80 770.29 
2944 761.62 770.68 770.29 
2945 765.57 770.76 770.29 
2946 763.19 770.71 770.29 
2947 765.09 770.83 770.29 
2948 761.57 770.91 770.29 
2949 760.82 770.89 770.29 
2950 766.98 771.12 770.29 
2951 765.01 771.23 770.29 
2952 764.58 771.29 770.29 
2953 764.12 771.13 770.29 
2954 764.78 770.98 770.29 
2955 764.86 771.06 770.29 
2956 761.57 771.13 770.29 
2957 763.29 771.05 770.29 
2958 760.62 770.97 770.29 
2959 764.64 771.05 770.29 
2960 763.94 771.11 770.29 
2961 761.00 771.08 770.29 
2962 763.74 771.13 770.29 
2963 763.21 771.29 770.29 
2964 763.76 771.31 770.29 
2965 763.80 771.37 770.29 
2966 760.82 771.04 770.29 
2967 759.91 771.23 770.29 
2968 761.23 771.28 770.29 
2969 761.60 771.26 770.29 
2970 765.19 771.38 770.29 
2971 763.51 771.45 770.29 
2972 763.93 771.40 770.29 
2973 764.05 771.35 770.29 
2974 761.45 771.37 770.29 
2975 764.45 771.22 770.29 
2976 761.27 771.23 770.29 
2977 759.32 771.23 770.29 
2978 762.61 771.28 770.29 
2979 763.88 771.06 770.29 
2980 764.92 771.13 770.29 
2981 760.78 771.06 770.29 
2982 761.14 771.00 770.29 
2983 759.92 770.95 770.29 
2984 759.03 770.99 770.29 
2985 760.53 770.93 770.29 
2986 761.86 770.90 770.29 
2987 765.14 770.98 770.29 
2988 760.90 771.14 770.29 
2989 764.22 770.98 770.29 
2990 761.91 770.94 770.29 
2991 762.08 770.94 770.29 
2992 766.00 771.05 770.29 
2993 761.81 770.73 770.29 
2994 762.15 771.05 770.29 
2995 762.78 770.91 770.29 
2996 761.48 771.09 770.29 
2997 766.39 771.07 770.29 
2998 763.36 771.03 770.29 
2999 764.29 770.93 770.29 
3000 762.82 771.13 770.29 
3001 760.33 771.13 770.29 
3002 762.65 771.07 770.29 
3003 762.96 771.58 770.29 
3004 761.12 771.41 770.29 
3005 765.60 771.74 770.29 
3006 762.78 771.70 770.29 
3007 763.61 771.57 770.29 
3008 764.25 771.82 770.29 
3009 764.40 771.72 770.29 
3010 759.57 771.71 770.29 
3011 764.92 771.33 770.29 
3012 760.63 771.22 770.29 
3013 762.82 771.02 770.29 
3014 760.52 771.00 770.29 
3015 760.46 770.97 770.29 
3016 764.98 770.92 770.29 
3017 767.19 770.96 770.29 
3018 765.46 771.02 770.29 
3019 764.48 771.11 770.29 
3020 764.37 771.11 770.29 
3021 763.35 771.09 770.29 
3022 762.99 771.06 770.29 
3023 759.20 771.02 770.29 
3024 762.36 770.98 770.29 
3025 763.59 771.01 770.29 
3026 760.67 770.99 770.29 
3027 763.95 770.91 770.29 
3028 762.62 770.59 770.29 
3029 764.76 770.80 770.29 
3030 762.20 770.81 770.29 
3031 765.91 770.81 770.29 
3032 761.63 770.78 770.29 
3033 760.94 770.80 770.29 
3034 765.75 770.76 770.29 
3035 766.18 770.80 770.29 
3036 765.63 770.96 770.29 
3037 760.71 770.99 770.29 
3038 767.14 771.05 770.29 
3039 761.68 771.08 770.29 
3040 761.20 771.37 770.29 
3041 764.80 771.44 770.29 
3042 761.29 771.42 770.29 
3043 763.41 771.34 770.29 
3044 760.03 771.15 770.29 
3045 767.02 771.13 770.29 
3046 760.04 771.06 770.29 
3047 762.13 771.40 770.29 
3048 761.32 771.23 770.29 
3049 765.04 771.35 770.29 
3050 763.91 771.33 770.29 
3051 763.54 771.38 770.29 
3052 762.28 771.23 770.29 
3053 764.26 771.34 770.29 
3054 762.86 771.10 770.29 
3055 763.96 771.13 770.29 
3056 763.13 771.30 770.29 
3057 763.48 771.30 770.29 
3058 762.34 771.11 770.29 
3059 762.72 771.10 770.29 
3060 767.25 771.20 770.29 
3061 766.39 771.01 770.29 
3062 765.26 771.13 770.29 
3063 766.70 771.16 770.29 
3064 766.35 771.20 770.29 
3065 762.08 771.33 770.29 
3066 759.23 771.02 770.29 
3067 762.26 770.88 770.29 
3068 763.95 770.82 770.29 
3069 761.24 770.73 770.29 
3070 763.76 770.64 770.29 
3071 760.46 770.68 770.29 
3072 761.29 770.63 770.29 
3073 760.53 770.75 770.29 
3074 762.71 770.93 770.29 
3075 764.03 770.90 770.29 
3076 760.97 770.87 770.29 
3077 762.40 770.82 770.29 
3078 764.29 770.71 770.29 
3079 764.37 770.76 770.29 
3080 764.92 770.59 770.29 
3081 763.62 770.54 770.29 
3082 769.91 770.52 770.29 
3083 764.07 770.59 770.29 
3084 764.55 770.65 770.29 
3085 763.91 770.88 770.29 
3086 763.49 770.67 770.29 
3087 759.82 770.73 770.29 
3088 765.84 770.72 770.29 
3089 763.29 770.58 770.29 
3090 762.73 770.75 770.29 
3091 763.32 770.78 770.29 
3092 760.69 770.75 770.29 
3093 766.25 770.81 770.29 
3094 763.54 770.77 770.29 
3095 763.53 770.77 770.29 
3096 762.21 770.79 770.29 
3097 762.28 770.84 770.29 
3098 760.20 770.81 770.29 
3099 762.64 770.88 770.29 
3100 764.97 770.97 770.29 
3101 762.35 770.92 770.29 
3102 763.88 770.98 770.29 
3103 762.63 770.92 770.29 
3104 765.19 770.90 770.29 
3105 761.15 771.16 770.29 
3106 762.80 770.79 770.29 
3107 765.73 771.06 770.29 
3108 762.43 770.90 770.29 
3109 760.16 770.95 770.29 
3110 760.99 770.90 770.29 
3111 761.09 770.78 770.29 
3112 761.25 770.85 770.29 
3113 764.22 770.89 770.29 
3114 765.25 770.86 770.29 
3115 762.75 770.68 770.29 
3116 762.37 770.60 770.29 
3117 763.67 770.64 770.29 
3118 761.42 770.63 770.29 
3119 760.19 770.59 770.29 
3120 762.74 770.65 770.29 
3121 764.44 770.70 770.29 
3122 763.83 770.77 770.29 
3123 765.95 770.65 770.29 
3124 762.85 770.61 770.29 
3125 762.88 770.68 770.29 
3126 766.21 770.65 770.29 
3127 764.54 770.71 770.29 
3128 760.67 770.86 770.29 
3129 763.59 770.82 770.29 
3130 760.22 770.73 770.29 
3131 763.19 770.74 770.29 
3132 763.20 770.79 770.29 
3133 765.53 770.69 770.29 
3134 762.53 770.63 770.29 
3135 761.92 770.64 770.29 
3136 761.55 770.70 770.29 
3137 759.20 770.90 770.29 
3138 762.91 770.95 770.29 
3139 761.77 771.12 770.29 
3140 760.43 771.11 770.29 
3141 765.29 771.05 770.29 
3142 759.33 771.08 770.29 
3143 759.20 771.14 770.29 
3144 761.99 771.30 770.29 
3145 761.93 771.32 770.29 
3146 761.19 771.28 770.29 
3147 761.85 771.35 770.29 
3148 765.76 771.32 770.29 
3149 761.24 771.23 770.29 
3150 763.70 771.29 770.29 
3151 765.50 770.98 770.29 
3152 762.22 770.88 770.29 
3153 761.13 771.20 770.29 
3154 762.19 771.22 770.29 
3155 766.45 771.22 770.29 
3156 763.45 771.11 770.29 
3157 764.53 771.08 770.29 
3158 760.61 771.12 770.29 
3159 763.87 771.13 770.29 
3160 765.40 771.09 770.29 
3161 766.65 771.16 770.29 
3162 764.34 771.11 770.29 
3163 767.45 771.23 770.29 
3164 761.79 771.50 770.29 
3165 766.46 771.35 770.29 
3166 761.68 771.35 770.29 
3167 763.95 771.31 770.29 
3168 762.33 771.41 770.29 
3169 766.13 771.37 770.29 
3170 762.17 771.72 770.29 
3171 763.83 771.48 770.29 
3172 762.61 771.58 770.29 
3173 763.52 771.24 770.29 
3174 764.70 771.18 770.29 
3175 761.59 771.29 770.29 
3176 763.24 771.29 770.29 
3177 766.05 771.38 770.29 
3178 764.55 771.31 770.29 
3179 761.56 771.24 770.29 
3180 766.33 771.24 770.29 
3181 763.30 771.18 770.29 
3182 766.13 771.01 770.29 
3183 760.24 771.09 770.29 
3184 764.16 771.06 770.29 
3185 765.23 771.04 770.29 
3186 763.81 770.95 770.29 
3187 765.11 770.84 770.29 
3188 760.63 770.77 770.29 
3189 760.33 770.55 770.29 
3190 763.75 770.32 770.29 
3191 765.33 770.91 770.29 
3192 765.68 770.79 770.29 
3193 765.68 771.01 770.29 
3194 765.53 770.84 770.29 
3195 757.76 770.54 770.29 
3196 762.89 770.37 770.29 
3197 763.72 770.74 770.29 
3198 760.34 770.67 770.29 
3199 764.19 770.62 770.29 
3200 763.10 770.15 770.29 
3201 758.50 770.41 770.29 
3202 764.17 770.28 770.29 
3203 758.86 770.36 770.29 
3204 761.96 770.32 770.29 
3205 758.58 770.57 770.29 
3206 762.04 770.77 770.29 
3207 763.33 771.16 770.29 
3208 765.79 771.29 770.29 
3209 761.89 771.24 770.29 
3210 763.03 771.18 770.29 
3211 760.27 771.27 770.29 
3212 762.38 771.34 770.29 
3213 764.49 771.48 770.29 
3214 765.47 771.54 770.29 
3215 762.45 771.50 770.29 
3216 764.76 771.12 770.29 
3217 761.18 770.96 770.29 
3218 764.48 770.99 770.29 
3219 762.00 770.99 770.29 
3220 761.91 771.06 770.29 
3221 765.43 770.80 770.29 
3222 762.85 770.68 770.29 
3223 762.91 770.73 770.29 
3224 762.26 770.71 770.29 
3225 757.81 770.94 770.29 
3226 766.74 770.87 770.29 
3227 763.48 770.92 770.29 
3228 762.29 770.87 770.29 
3229 764.06 770.97 770.29 
3230 767.84 770.68 770.29 
3231 766.25 770.70 770.29 
3232 763.73 770.79 770.29 
3233 763.91 770.82 770.29 
3234 760.55 771.01 770.29 
3235 766.43 771.11 770.29 
3236 760.44 771.14 770.29 
3237 762.23 771.16 770.29 
3238 765.09 771.07 770.29 
3239 767.51 770.77 770.29 
3240 766.92 770.72 770.29 
3241 760.35 770.72 770.29 
3242 761.87 770.82 770.29 
3243 760.57 770.83 770.29 
3244 765.43 770.97 770.29 
3245 765.89 770.94 770.29 
3246 765.67 770.90 770.29 
3247 765.40 770.90 770.29 
3248 760.71 770.92 770.29 
3249 761.71 770.85 770.29 
3250 763.64 771.10 770.29 
3251 762.81 770.93 770.29 
3252 762.54 770.98 770.29 
3253 762.24 770.90 770.29 
3254 765.17 770.94 770.29 
3255 766.69 770.78 770.29 
3256 764.94 771.04 770.29 
3257 764.27 770.87 770.29 
3258 763.71 771.07 770.29 
3259 761.77 771.03 770.29 
3260 760.93 771.09 770.29 
3261 765.72 770.83 770.29 
3262 758.69 770.83 770.29 
3263 763.29 770.71 770.29 
3264 762.12 770.76 770.29 
3265 761.68 770.72 770.29 
3266 764.52 770.61 770.29 
3267 764.03 770.59 770.29 
3268 762.43 770.50 770.29 
3269 762.28 770.51 770.29 
3270 765.84 770.62 770.29 
3271 764.91 770.64 770.29 
3272 762.49 770.66 770.29 
3273 761.87 770.56 770.29 
3274 763.31 770.45 770.29 
3275 763.17 770.51 770.29 
3276 762.54 770.54 770.29 
3277 765.44 770.46 770.29 
3278 760.45 770.55 770.29 
3279 765.11 770.56 770.29 
3280 765.42 770.59 770.29 
3281 764.92 770.79 770.29 
3282 765.39 770.80 770.29 
3283 761.95 770.96 770.29 
3284 761.52 770.94 770.29 
3285 761.94 770.68 770.29 
3286 761.38 770.96 770.29 
3287 765.50 770.69 770.29 
3288 764.58 770.83 770.29 
3289 762.95 770.92 770.29 
3290 765.52 770.98 770.29 
3291 762.69 770.75 770.29 
3292 766.71 770.88 770.29 
3293 766.46 770.82 770.29 
3294 764.28 770.89 770.29 
3295 767.04 770.81 770.29 
3296 764.05 770.85 770.29 
3297 760.48 770.77 770.29 
3298 761.11 770.77 770.29 
3299 764.99 770.78 770.29 
3300 759.55 770.70 770.29 
3301 763.68 770.75 770.29 
3302 761.29 770.82 770.29 
3303 762.30 770.83 770.29 
3304 763.48 770.79 770.29 
3305 765.06 770.74 770.29 
3306 763.92 770.78 770.29 
3307 764.19 770.72 770.29 
3308 762.88 770.73 770.29 
3309 763.19 770.74 770.29 
3310 762.63 770.78 770.29 
3311 761.03 770.80 770.29 
3312 761.71 770.85 770.29 
3313 761.16 770.75 770.29 
3314 766.01 771.13 770.29 
3315 761.71 771.13 770.29 
3316 765.89 771.05 770.29 
3317 760.59 771.32 770.29 
3318 761.02 771.19 770.29 
3319 761.24 771.41 770.29 
3320 764.04 771.13 770.29 
3321 761.83 771.22 770.29 
3322 766.87 770.93 770.29 
3323 764.12 770.92 770.29 
3324 761.54 771.08 770.29 
3325 766.18 771.04 770.29 
3326 762.01 771.24 770.29 
3327 766.26 771.52 770.29 
3328 761.30 771.24 770.29 
3329 764.06 771.34 770.29 
3330 763.88 771.18 770.29 
3331 764.97 771.31 770.29 
3332 764.45 771.16 770.29 
3333 760.02 771.13 770.29 
3334 765.33 771.20 770.29 
3335 763.57 771.21 770.29 
3336 765.79 771.15 770.29 
3337 762.57 771.16 770.29 
3338 764.72 771.16 770.29 
3339 765.00 771.05 770.29 
3340 764.68 771.07 770.29 
3341 764.85 771.03 770.29 
3342 764.53 771.17 770.29 
3343 764.10 771.10 770.29 
3344 764.28 771.06 770.29 
3345 761.06 771.05 770.29 
3346 763.08 771.05 770.29 
3347 759.76 771.40 770.29 
3348 763.31 771.39 770.29 
3349 759.47 771.44 770.29 
3350 764.48 771.23 770.29 
3351 763.09 771.25 770.29 
3352 766.48 771.60 770.29 
3353 766.28 771.22 770.29 
3354 763.43 771.60 770.29 
3355 762.18 771.33 770.29 
3356 762.96 771.43 770.29 
3357 759.80 771.21 770.29 
3358 761.47 771.15 770.29 
3359 761.26 771.15 770.29 
3360 761.48 771.17 770.29 
3361 762.77 771.24 770.29 
3362 764.86 771.41 770.29 
3363 762.30 771.38 770.29 
3364 764.66 771.53 770.29 
3365 765.18 771.41 770.29 
3366 759.80 771.14 770.29 
3367 765.97 771.23 770.29 
3368 762.67 771.08 770.29 
3369 760.57 771.08 770.29 
3370 764.99 771.26 770.29 
3371 764.28 771.00 770.29 
3372 767.92 771.00 770.29 
3373 763.60 770.94 770.29 
3374 762.83 770.96 770.29 
3375 763.71 770.97 770.29 
3376 763.66 770.90 770.29 
3377 760.56 770.82 770.29 
3378 763.35 770.86 770.29 
3379 760.03 770.92 770.29 
3380 762.22 771.00 770.29 
3381 765.93 770.98 770.29 
3382 759.56 771.02 770.29 
3383 764.05 771.06 770.29 
3384 766.04 771.30 770.29 
3385 764.78 771.04 770.29 
3386 766.80 771.22 770.29 
3387 762.29 771.17 770.29 
3388 763.24 771.16 770.29 
3389 760.19 770.96 770.29 
3390 763.32 771.19 770.29 
3391 760.29 770.99 770.29 
3392 761.62 770.98 770.29 
3393 761.08 770.94 770.29 
3394 764.10 771.09 770.29 
3395 764.41 771.22 770.29 
3396 762.98 771.35 770.29 
3397 760.01 771.13 770.29 
3398 766.54 771.15 770.29 
3399 760.18 770.99 770.29 
3400 762.02 771.09 770.29 
3401 765.16 771.10 770.29 
3402 761.92 771.05 770.29 
3403 763.49 771.03 770.29 
3404 764.55 770.91 770.29 
3405 763.14 770.82 770.29 
3406 764.28 770.71 770.29 
3407 767.05 770.42 770.29 
3408 764.08 770.59 770.29 
3409 766.55 770.78 770.29 
3410 763.85 770.80 770.29 
3411 764.01 770.30 770.29 
3412 761.60 770.60 770.29 
3413 763.78 770.96 770.29 
3414 760.11 770.74 770.29 
3415 761.97 770.61 770.29 
3416 762.77 770.84 770.29 
3417 762.51 770.81 770.29 
3418 761.98 770.81 770.29 
3419 764.19 770.79 770.29 
3420 763.15 770.76 770.29 
3421 766.85 770.95 770.29 
3422 762.95 771.25 770.29 
3423 765.24 771.16 770.29 
3424 765.92 771.23 770.29 
3425 765.30 771.17 770.29 
3426 764.07 771.32 770.29 
3427 763.06 771.13 770.29 
3428 764.94 771.01 770.29 
3429 767.44 770.65 770.29 
3430 761.71 770.62 770.29 
3431 762.03 770.60 770.29 
3432 765.20 770.71 770.29 
3433 762.02 770.73 770.29 
3434 761.66 770.68 770.29 
3435 760.76 770.94 770.29 
3436 763.00 770.65 770.29 
3437 763.43 771.16 770.29 
3438 765.21 771.09 770.29 
3439 764.66 771.16 770.29 
3440 766.97 770.96 770.29 
3441 763.93 770.95 770.29 
3442 764.40 770.93 770.29 
3443 764.16 770.93 770.29 
3444 762.45 770.88 770.29 
3445 765.57 771.10 770.29 
3446 761.73 771.25 770.29 
3447 762.70 771.12 770.29 
3448 762.63 771.35 770.29 
3449 759.13 771.26 770.29 
3450 761.76 771.34 770.29 
3451 762.56 771.32 770.29 
3452 759.53 771.33 770.29 
3453 766.57 771.48 770.29 
3454 764.56 771.74 770.29 
3455 761.30 771.50 770.29 
3456 766.87 771.25 770.29 
3457 764.40 771.50 770.29 
3458 761.19 771.14 770.29 
3459 762.88 771.25 770.29 
3460 760.35 771.23 770.29 
3461 759.15 771.25 770.29 
3462 762.00 771.36 770.29 
3463 763.29 771.35 770.29 
3464 762.77 771.31 770.29 
3465 763.96 771.34 770.29 
3466 765.58 771.35 770.29 
3467 764.28 771.65 770.29 
3468 763.98 771.46 770.29 
3469 759.72 771.45 770.29 
3470 761.28 771.19 770.29 
3471 763.47 771.26 770.29 
3472 765.19 771.13 770.29 
3473 763.64 771.31 770.29 
3474 762.36 771.19 770.29 
3475 759.47 771.04 770.29 
3476 765.29 770.96 770.29 
3477 759.27 771.29 770.29 
3478 763.50 771.18 770.29 
3479 765.06 771.37 770.29 
3480 765.40 771.11 770.29 
3481 764.53 770.99 770.29 
3482 762.85 771.07 770.29 
3483 766.02 771.03 770.29 
3484 763.34 770.82 770.29 
3485 765.71 770.79 770.29 
3486 765.70 770.71 770.29 
3487 764.88 770.87 770.29 
3488 764.93 770.89 770.29 
3489 763.33 770.96 770.29 
3490 760.44 771.06 770.29 
3491 763.34 771.04 770.29 
3492 764.28 770.61 770.29 
3493 764.27 770.85 770.29 
3494 760.44 771.01 770.29 
3495 763.30 770.70 770.29 
3496 764.63 770.86 770.29 
3497 762.10 770.66 770.29 
3498 765.64 770.75 770.29 
3499 766.03 770.54 770.29 
3500 764.52 770.64 770.29 
3501 763.51 770.41 770.29 
3502 761.90 770.50 770.29 
3503 762.99 770.42 770.29 
3504 762.65 770.45 770.29 
3505 760.59 770.66 770.29 
3506 756.09 770.36 770.29 
3507 763.75 770.45 770.29 
3508 762.20 770.56 770.29 
3509 762.44 770.55 770.29 
3510 766.34 770.47 770.29 
3511 762.38 770.57 770.29 
3512 762.69 770.39 770.29 
3513 762.01 770.41 770.29 
3514 763.89 770.30 770.29 
3515 762.47 770.25 770.29 
3516 762.99 770.53 770.29 
3517 763.21 770.51 770.29 
3518 769.42 770.79 770.29 
3519 760.89 770.90 770.29 
3520 763.67 770.60 770.29 
3521 765.69 770.49 770.29 
3522 758.46 770.52 770.29 
3523 763.54 770.60 770.29 
3524 765.30 770.60 770.29 
3525 765.14 770.48 770.29 
3526 764.56 770.47 770.29 
3527 764.29 770.58 770.29 
3528 756.43 770.58 770.29 
3529 766.13 770.69 770.29 
3530 767.32 770.82 770.29 
3531 758.33 770.75 770.29 
3532 765.16 770.40 770.29 
3533 765.64 770.49 770.29 
3534 762.53 770.69 770.29 
3535 763.36 770.75 770.29 
3536 762.40 770.85 770.29 
3537 759.84 770.70 770.29 
3538 767.95 770.79 770.29 
3539 764.17 770.81 770.29 
3540 763.30 770.74 770.29 
3541 763.19 770.92 770.29 
3542 761.06 770.92 770.29 
3543 759.75 770.84 770.29 
3544 765.10 770.86 770.29 
3545 760.92 770.99 770.29 
3546 761.48 771.08 770.29 
3547 762.52 770.88 770.29 
3548 764.98 770.74 770.29 
3549 762.78 770.71 770.29 
3550 762.17 770.84 770.29 
3551 763.90 771.17 770.29 
3552 761.98 771.03 770.29 
3553 764.41 771.05 770.29 
3554 765.05 771.01 770.29 
3555 763.85 771.06 770.29 
3556 762.42 771.13 770.29 
3557 760.42 770.84 770.29 
3558 762.80 770.73 770.29 
3559 760.96 770.66 770.29 
3560 762.15 770.42 770.29 
3561 760.18 770.33 770.29 
3562 766.08 770.54 770.29 
3563 758.91 770.63 770.29 
3564 761.64 770.74 770.29 
3565 763.43 770.70 770.29 
3566 761.04 770.93 770.29 
3567 764.06 771.07 770.29 
3568 768.71 771.10 770.29 
3569 768.07 771.28 770.29 
3570 761.02 771.30 770.29 
3571 763.82 771.43 770.29 
3572 764.30 771.30 770.29 
3573 759.82 771.17 770.29 
3574 761.99 771.17 770.29 
3575 761.46 771.06 770.29 
3576 761.63 771.12 770.29 
3577 766.46 771.14 770.29 
3578 763.30 770.97 770.29 
3579 763.16 771.16 770.29 
3580 763.59 771.11 770.29 
3581 761.79 770.98 770.29 
3582 763.53 771.01 770.29 
3583 766.89 770.86 770.29 
3584 764.51 770.72 770.29 
3585 764.03 770.85 770.29 
3586 762.03 770.93 770.29 
3587 763.78 770.79 770.29 
3588 760.80 770.63 770.29 
3589 763.74 770.73 770.29 
3590 763.62 770.60 770.29 
3591 763.78 770.55 770.29 
3592 761.14 770.26 770.29 
3593 764.66 770.28 770.29 
3594 763.21 770.17 770.29 
3595 762.62 770.35 770.29 
3596 760.63 770.23 770.29 
3597 763.54 770.31 770.29 
3598 763.03 770.31 770.29 
3599 764.23 770.45 770.29 
3600 762.10 770.40 770.29 
3601 765.05 770.30 770.29 
3602 760.24 770.40 770.29 
3603 761.12 770.34 770.29 
3604 762.73 770.47 770.29 
3605 762.13 770.40 770.29 
3606 764.85 770.49 770.29 
3607 763.28 770.41 770.29 
3608 764.38 770.59 770.29 
3609 765.53 770.76 770.29 
3610 762.83 770.57 770.29 
3611 765.16 770.72 770.29 
3612 762.90 770.59 770.29 
3613 762.54 770.52 770.29 
3614 763.19 770.68 770.29 
3615 765.38 770.69 770.29 
3616 763.25 770.42 770.29 
3617 762.99 770.46 770.29 
3618 764.35 770.18 770.29 
3619 762.42 770.33 770.29 
3620 762.38 770.51 770.29 
3621 764.33 770.65 770.29 
3622 762.81 770.44 770.29 
3623 764.55 770.39 770.29 
3624 763.58 770.34 770.29 
3625 761.71 770.28 770.29 
3626 763.86 770.37 770.29 
3627 762.50 770.52 770.29 
3628 761.14 771.13 770.29 
3629 763.83 770.97 770.29 
3630 762.10 771.03 770.29 
3631 764.85 771.05 770.29 
3632 760.59 770.92 770.29 
3633 764.04 771.16 770.29 
3634 764.74 770.95 770.29 
3635 763.13 771.15 770.29 
3636 764.81 770.92 770.29 
3637 765.12 770.91 770.29 
3638 764.92 770.89 770.29 
3639 764.97 771.02 770.29 
3640 761.92 771.17 770.29 
3641 763.63 771.32 770.29 
3642 763.19 771.26 770.29 
3643 763.57 771.35 770.29 
3644 764.51 771.20 770.29 
3645 767.89 771.06 770.29 
3646 767.20 770.88 770.29 
3647 764.22 770.75 770.29 
3648 763.26 770.97 770.29 
3649 764.42 771.43 770.29 
3650 762.49 771.11 770.29 
3651 760.93 771.24 770.29 
3652 760.36 771.18 770.29 
3653 766.02 771.40 770.29 
3654 761.39 771.40 770.29 
3655 763.28 771.59 770.29 
3656 759.99 771.70 770.29 
3657 768.25 771.71 770.29 
3658 762.36 771.68 770.29 
3659 765.66 771.52 770.29 
3660 761.17 771.52 770.29 
3661 763.65 771.52 770.29 
3662 762.77 771.49 770.29 
3663 764.46 771.46 770.29 
3664 763.57 771.23 770.29 
3665 763.91 771.24 770.29 
3666 764.82 771.15 770.29 
3667 763.25 771.22 770.29 
3668 763.73 771.58 770.29 
3669 763.43 771.42 770.29 
3670 764.29 771.30 770.29 
3671 762.94 771.08 770.29 
3672 765.34 771.14 770.29 
3673 761.87 771.15 770.29 
3674 760.59 771.21 770.29 
3675 763.47 771.27 770.29 
3676 759.78 771.21 770.29 
3677 763.87 771.10 770.29 
3678 761.29 771.37 770.29 
3679 763.93 771.37 770.29 
3680 766.44 771.65 770.29 
3681 764.69 771.70 770.29 
3682 762.55 771.41 770.29 
3683 762.50 771.23 770.29 
3684 762.22 771.23 770.29 
3685 763.82 771.37 770.29 
3686 760.27 771.48 770.29 
3687 761.22 771.36 770.29 
3688 768.63 771.54 770.29 
3689 765.04 771.36 770.29 
3690 761.72 771.35 770.29 
3691 762.80 771.47 770.29 
3692 761.14 771.52 770.29 
3693 762.81 771.55 770.29 
3694 762.87 771.61 770.29 
3695 762.47 771.47 770.29 
3696 763.60 771.40 770.29 
3697 762.28 771.39 770.29 
3698 762.90 771.62 770.29 
3699 760.83 771.63 770.29 
3700 762.13 771.61 770.29 
3701 764.51 771.58 770.29 
3702 761.46 771.76 770.29 
3703 760.88 771.56 770.29 
3704 760.38 771.59 770.29 
3705 760.61 771.47 770.29 
3706 762.94 771.37 770.29 
3707 762.48 771.35 770.29 
3708 761.14 771.05 770.29 
3709 765.49 771.13 770.29 
3710 761.94 771.10 770.29 
3711 765.73 771.25 770.29 
3712 763.46 771.45 770.29 
3713 760.32 771.08 770.29 
3714 763.34 771.11 770.29 
3715 764.88 771.21 770.29 
3716 766.19 771.42 770.29 
3717 764.60 771.56 770.29 
3718 765.81 771.48 770.29 
3719 761.89 771.44 770.29 
3720 763.01 771.16 770.29 
3721 763.15 771.35 770.29 
3722 761.55 771.60 770.29 
3723 757.38 771.49 770.29 
3724 763.65 771.43 770.29 
3725 759.21 771.34 770.29 
3726 763.57 771.20 770.29 
3727 763.10 771.32 770.29 
3728 761.55 771.19 770.29 
3729 762.92 770.98 770.29 
3730 763.17 770.69 770.29 
3731 762.71 770.64 770.29 
3732 761.91 771.07 770.29 
3733 759.33 771.08 770.29 
3734 766.30 771.30 770.29 
3735 762.20 770.71 770.29 
3736 759.14 770.77 770.29 
3737 762.61 770.77 770.29 
3738 762.62 770.76 770.29 
3739 765.39 770.71 770.29 
3740 763.68 770.55 770.29 
3741 761.11 770.35 770.29 
3742 761.29 770.62 770.29 
3743 765.21 770.42 770.29 
3744 762.57 770.55 770.29 
3745 760.09 770.28 770.29 
3746 765.15 771.55 770.29 
3747 762.29 771.15 770.29 
3748 761.77 771.21 770.29 
3749 764.21 770.95 770.29 
3750 760.96 770.90 770.29 
3751 763.92 770.67 770.29 
3752 766.55 771.07 770.29 
3753 767.55 770.70 770.29 
3754 763.35 770.62 770.29 
3755 767.25 771.09 770.29 
3756 761.39 771.48 770.29 
3757 762.02 771.29 770.29 
3758 764.01 771.12 770.29 
3759 765.89 771.58 770.29 
3760 764.72 771.21 770.29 
3761 761.66 771.27 770.29 
3762 759.67 771.65 770.29 
3763 763.15 771.84 770.29 
3764 760.90 771.69 770.29 
3765 764.02 771.94 770.29 
3766 765.06 771.68 770.29 
3767 760.51 771.56 770.29 
3768 761.41 771.53 770.29 
3769 765.91 771.67 770.29 
3770 763.27 771.44 770.29 
3771 766.29 771.49 770.29 
3772 765.19 771.37 770.29 
3773 759.47 771.50 770.29 
3774 763.40 771.18 770.29 
3775 767.02 771.77 770.29 
3776 767.21 771.84 770.29 
3777 761.64 771.96 770.29 
3778 764.30 771.92 770.29 
3779 763.85 771.58 770.29 
3780 764.39 771.79 770.29 
3781 761.46 771.93 770.29 
3782 765.46 771.82 770.29 
3783 762.41 771.89 770.29 
3784 763.27 771.79 770.29 
3785 763.98 771.51 770.29 
3786 763.09 771.48 770.29 
3787 764.73 771.50 770.29 
3788 763.47 771.95 770.29 
3789 763.52 770.89 770.29 
3790 760.61 771.28 770.29 
3791 763.73 771.42 770.29 
3792 765.21 770.88 770.29 
3793 759.72 771.08 770.29 
3794 763.65 771.45 770.29 
3795 763.65 771.35 770.29 
3796 761.03 771.26 770.29 
3797 764.03 771.60 770.29 
3798 764.07 771.75 770.29 
3799 759.06 771.88 770.29 
3800 763.61 771.96 770.29 
3801 762.92 772.00 770.29 
3802 761.84 772.06 770.29 
3803 765.60 772.05 770.29 
3804 763.40 772.15 770.29 
3805 761.47 771.94 770.29 
3806 762.05 772.14 770.29 
3807 762.30 772.05 770.29 
3808 763.36 771.45 770.29 
3809 762.44 771.78 770.29 
3810 765.49 771.95 770.29 
3811 761.58 771.90 770.29 
3812 764.45 771.79 770.29 
3813 765.81 771.79 770.29 
3814 761.66 771.79 770.29 
3815 761.27 771.77 770.29 
3816 760.27 771.77 770.29 
3817 764.01 771.82 770.29 
3818 763.53 771.62 770.29 
3819 767.38 771.78 770.29 
3820 763.60 771.72 770.29 
3821 763.18 771.87 770.29 
3822 764.72 771.97 770.29 
3823 762.69 771.61 770.29 
3824 764.73 771.68 770.29 
3825 759.91 771.67 770.29 
3826 764.95 771.62 770.29 
3827 762.37 771.66 770.29 
3828 763.86 771.93 770.29 
3829 762.96 771.78 770.29 
3830 766.61 771.73 770.29 
3831 763.95 771.97 770.29 
3832 763.16 771.75 770.29 
3833 762.55 771.43 770.29 
3834 763.11 771.69 770.29 
3835 764.61 771.69 770.29 
3836 765.17 771.67 770.29 
3837 762.47 771.50 770.29 
3838 762.93 771.43 770.29 
3839 763.30 771.46 770.29 
3840 768.46 771.33 770.29 
3841 760.33 771.27 770.29 
3842 760.61 771.14 770.29 
3843 761.85 771.26 770.29 
3844 764.61 771.18 770.29 
3845 764.54 771.32 770.29 
3846 763.77 771.35 770.29 
3847 762.62 771.37 770.29 
3848 765.27 771.46 770.29 
3849 763.33 771.48 770.29 
3850 764.11 771.32 770.29 
3851 759.83 771.38 770.29 
3852 761.58 771.07 770.29 
3853 764.37 771.19 770.29 
3854 761.15 771.20 770.29 
3855 762.58 771.05 770.29 
3856 766.09 771.22 770.29 
3857 765.01 771.37 770.29 
3858 764.64 771.10 770.29 
3859 764.02 771.17 770.29 
3860 761.64 771.42 770.29 
3861 759.71 771.05 770.29 
3862 761.86 771.50 770.29 
3863 764.07 771.29 770.29 
3864 764.34 771.52 770.29 
3865 764.58 771.48 770.29 
3866 764.57 771.40 770.29 
3867 765.30 771.37 770.29 
3868 763.27 771.13 770.29 
3869 763.15 771.01 770.29 
3870 759.03 771.08 770.29 
3871 764.98 771.09 770.29 
3872 762.56 770.69 770.29 
3873 767.47 771.24 770.29 
3874 765.14 771.47 770.29 
3875 761.24 771.12 770.29 
3876 765.81 771.64 770.29 
3877 763.64 771.73 770.29 
3878 761.52 771.28 770.29 
3879 759.10 771.75 770.29 
3880 764.63 771.79 770.29 
3881 763.98 771.90 770.29 
3882 763.84 771.88 770.29 
3883 764.24 771.80 770.29 
3884 763.59 772.15 770.29 
3885 761.23 772.03 770.29 
3886 765.03 772.09 770.29 
3887 762.84 771.81 770.29 
3888 762.20 772.00 770.29 
3889 762.38 771.93 770.29 
3890 764.53 772.01 770.29 
3891 763.07 772.01 770.29 
3892 762.64 771.96 770.29 
3893 764.33 772.04 770.29 
3894 763.25 772.04 770.29 
3895 761.30 772.05 770.29 
3896 766.40 772.08 770.29 
3897 766.20 772.13 770.29 
3898 758.37 772.06 770.29 
3899 762.87 772.08 770.29 
3900 760.75 772.05 770.29 
3901 763.22 772.02 770.29 
3902 764.56 772.04 770.29 
3903 765.47 772.10 770.29 
3904 767.82 772.15 770.29 
3905 763.48 772.08 770.29 
3906 761.91 772.03 770.29 
3907 765.56 772.00 770.29 
3908 763.27 771.99 770.29 
3909 763.66 772.05 770.29 
3910 762.68 772.05 770.29 
3911 764.29 772.13 770.29 
3912 764.38 772.12 770.29 
3913 763.71 772.15 770.29 
3914 764.61 772.18 770.29 
3915 763.33 772.27 770.29 
3916 759.81 772.37 770.29 
3917 765.47 772.35 770.29 
3918 761.71 772.35 770.29 
3919 764.10 772.26 770.29 
3920 762.48 772.32 770.29 
3921 767.29 772.18 770.29 
3922 766.08 772.36 770.29 
3923 762.78 772.20 770.29 
3924 762.48 772.22 770.29 
3925 762.45 772.29 770.29 
3926 762.85 772.25 770.29 
3927 761.78 772.35 770.29 
3928 759.96 772.17 770.29 
3929 761.31 772.10 770.29 
3930 763.61 772.17 770.29 
3931 762.04 771.99 770.29 
3932 763.76 772.07 770.29 
3933 761.72 772.11 770.29 
3934 764.56 771.99 770.29 
3935 764.93 771.98 770.29 
3936 760.93 771.97 770.29 
3937 763.01 771.91 770.29 
3938 763.35 771.92 770.29 
3939 765.25 772.17 770.29 
3940 767.73 772.04 770.29 
3941 757.15 771.98 770.29 
3942 764.16 772.16 770.29 
3943 763.70 772.04 770.29 
3944 763.37 771.98 770.29 
3945 764.69 771.99 770.29 
3946 764.02 772.09 770.29 
3947 762.27 772.06 770.29 
3948 761.79 771.96 770.29 
3949 769.24 772.01 770.29 
3950 762.34 772.09 770.29 
3951 762.50 772.11 770.29 
3952 762.38 772.19 770.29 
3953 763.20 772.27 770.29 
3954 763.65 772.14 770.29 
3955 763.96 772.07 770.29 
3956 764.08 772.34 770.29 
3957 763.06 772.12 770.29 
3958 762.84 772.25 770.29 
3959 763.74 771.96 770.29 
3960 763.14 772.00 770.29 
3961 765.31 772.28 770.29 
3962 762.23 772.34 770.29 
3963 763.66 772.24 770.29 
3964 766.97 772.34 770.29 
3965 762.86 772.33 770.29 
3966 764.04 772.30 770.29 
3967 764.67 772.04 770.29 
3968 760.36 772.00 770.29 
3969 759.91 772.35 770.29 
3970 761.06 772.29 770.29 
3971 761.68 772.38 770.29 
3972 765.85 772.32 770.29 
3973 766.26 772.15 770.29 
3974 762.98 772.42 770.29 
3975 763.81 772.30 770.29 
3976 767.18 772.35 770.29 
3977 764.65 772.34 770.29 
3978 764.87 772.11 770.29 
3979 760.11 772.04 770.29 
3980 763.57 772.32 770.29 
3981 760.99 772.47 770.29 
3982 765.48 772.32 770.29 
3983 763.87 772.22 770.29 
3984 760.70 772.09 770.29 
3985 765.17 771.83 770.29 
3986 764.30 772.22 770.29 
3987 763.14 772.26 770.29 
3988 763.25 772.18 770.29 
3989 763.52 771.87 770.29 
3990 762.87 771.95 770.29 
3991 762.86 772.01 770.29 
3992 763.81 771.95 770.29 
3993 763.80 771.95 770.29 
3994 765.01 772.02 770.29 
3995 761.65 771.88 770.29 
3996 760.65 771.90 770.29 
3997 761.29 771.85 770.29 
3998 763.40 771.93 770.29 
3999 763.85 771.89 770.29 
4000 761.57 771.86 770.29 
4001 764.44 771.90 770.29 
4002 760.72 772.01 770.29 
4003 765.03 772.17 770.29 
4004 763.55 772.18 770.29 
4005 760.87 772.21 770.29 
4006 765.65 772.21 770.29 
4007 761.60 772.13 770.29 
4008 762.18 772.21 770.29 
4009 760.52 772.19 770.29 
4010 765.11 772.29 770.29 
4011 765.64 772.29 770.29 
4012 766.38 772.29 770.29 
4013 761.01 772.28 770.29 
4014 763.75 772.26 770.29 
4015 764.03 772.19 770.29 
4016 765.89 772.12 770.29 
4017 761.85 771.99 770.29 
4018 767.11 771.85 770.29 
4019 761.14 771.85 770.29 
4020 760.10 771.78 770.29 
4021 759.37 771.78 770.29 
4022 761.01 771.72 770.29 
4023 758.86 771.63 770.29 
4024 758.74 771.82 770.29 
4025 764.23 771.73 770.29 
4026 763.05 771.67 770.29 
4027 763.77 771.64 770.29 
4028 762.44 771.74 770.29 
4029 757.95 771.81 770.29 
4030 762.02 771.86 770.29 
4031 763.41 771.85 770.29 
4032 759.75 771.93 770.29 
4033 765.32 772.01 770.29 
4034 764.49 772.03 770.29 
4035 762.69 772.07 770.29 
4036 761.39 771.89 770.29 
4037 759.70 771.79 770.29 
4038 762.58 771.83 770.29 
4039 767.52 771.78 770.29 
4040 765.35 771.78 770.29 
4041 763.80 771.86 770.29 
4042 765.61 771.84 770.29 
4043 761.33 771.77 770.29 
4044 764.52 771.81 770.29 
4045 762.26 771.96 770.29 
4046 765.37 771.80 770.29 
4047 762.72 772.00 770.29 
4048 760.41 772.03 770.29 
4049 761.91 772.00 770.29 
4050 763.11 772.12 770.29 
4051 769.38 772.18 770.29 
4052 760.48 772.24 770.29 
4053 760.89 772.46 770.29 
4054 766.16 772.50 770.29 
4055 765.95 772.53 770.29 
4056 763.95 772.33 770.29 
4057 765.42 772.29 770.29 
4058 762.62 772.34 770.29 
4059 761.62 772.19 770.29 
4060 764.88 772.24 770.29 
4061 765.17 772.22 770.29 
4062 763.78 772.20 770.29 
4063 761.46 772.07 770.29 
4064 760.43 772.17 770.29 
4065 757.34 772.03 770.29 
4066 759.54 771.99 770.29 
4067 765.16 771.99 770.29 
4068 764.96 771.61 770.29 
4069 761.27 771.63 770.29 
4070 763.13 771.86 770.29 
4071 765.44 771.60 770.29 
4072 761.01 771.92 770.29 
4073 763.67 771.86 770.29 
4074 763.13 771.93 770.29 
4075 765.58 771.66 770.29 
4076 761.25 771.75 770.29 
4077 760.99 771.72 770.29 
4078 761.21 771.69 770.29 
4079 765.06 771.90 770.29 
4080 763.34 771.52 770.29 
4081 761.24 771.76 770.29 
4082 763.61 772.02 770.29 
4083 762.86 771.97 770.29 
4084 763.92 771.93 770.29 
4085 764.40 771.75 770.29 
4086 766.20 772.15 770.29 
4087 761.69 772.20 770.29 
4088 763.69 772.25 770.29 
4089 766.75 772.12 770.29 
4090 762.06 772.20 770.29 
4091 761.73 772.01 770.29 
4092 763.38 772.02 770.29 
4093 760.81 771.75 770.29 
4094 759.91 771.59 770.29 
4095 764.25 772.08 770.29 
4096 763.79 772.05 770.29 
4097 762.07 772.12 770.29 
4098 765.05 771.98 770.29 
4099 763.15 771.98 770.29 
4100 763.95 772.00 770.29 
4101 767.81 772.04 770.29 
4102 764.07 772.10 770.29 
4103 766.48 772.16 770.29 
4104 759.94 772.10 770.29 
4105 757.96 772.12 770.29 
4106 761.60 771.82 770.29 
4107 761.08 771.82 770.29 
4108 761.74 771.90 770.29 
4109 763.11 771.83 770.29 
4110 764.69 772.08 770.29 
4111 762.80 771.71 770.29 
4112 765.10 771.65 770.29 
4113 763.90 771.72 770.29 
4114 764.49 771.70 770.29 
4115 761.24 771.56 770.29 
4116 761.28 771.51 770.29 
4117 764.46 771.57 770.29 
4118 764.47 771.58 770.29 
4119 762.43 771.53 770.29 
4120 761.95 771.72 770.29 
4121 763.47 771.63 770.29 
4122 764.01 771.37 770.29 
4123 763.20 771.40 770.29 
4124 763.58 771.29 770.29 
4125 764.62 771.25 770.29 
4126 761.99 771.20 770.29 
4127 763.16 771.37 770.29 
4128 763.23 771.06 770.29 
4129 760.88 771.29 770.29 
4130 761.94 771.26 770.29 
4131 761.48 771.13 770.29 
4132 763.93 771.13 770.29 
4133 765.59 771.14 770.29 
4134 766.84 771.24 770.29 
4135 760.53 771.50 770.29 
4136 766.57 771.44 770.29 
4137 760.93 771.43 770.29 
4138 761.24 771.51 770.29 
4139 762.18 771.63 770.29 
4140 760.88 771.38 770.29 
4141 761.46 771.39 770.29 
4142 763.42 771.25 770.29 
4143 761.60 771.36 770.29 
4144 765.51 771.44 770.29 
4145 765.95 771.70 770.29 
4146 760.58 771.85 770.29 
4147 762.65 771.64 770.29 
4148 762.30 771.80 770.29 
4149 762.35 771.83 770.29 
4150 763.05 772.06 770.29 
4151 761.74 771.96 770.29 
4152 764.75 772.17 770.29 
4153 763.31 772.14 770.29 
4154 764.70 771.94 770.29 
4155 760.45 771.98 770.29 
4156 763.25 772.17 770.29 
4157 763.14 771.91 770.29 
4158 762.55 771.95 770.29 
4159 762.57 772.04 770.29 
4160 761.06 771.94 770.29 
4161 762.04 771.92 770.29 
4162 765.79 771.94 770.29 
4163 763.48 771.95 770.29 
4164 763.05 772.00 770.29 
4165 763.77 771.97 770.29 
4166 762.18 771.83 770.29 
4167 767.05 771.55 770.29 
4168 761.13 771.68 770.29 
4169 761.26 771.77 770.29 
4170 765.07 771.51 770.29 
4171 764.02 771.44 770.29 
4172 766.35 771.55 770.29 
4173 765.77 771.38 770.29 
4174 763.57 771.44 770.29 
4175 761.89 771.77 770.29 
4176 765.11 771.87 770.29 
4177 764.11 771.80 770.29 
4178 761.80 772.00 770.29 
4179 766.01 771.76 770.29 
4180 764.51 771.58 770.29 
4181 762.84 771.55 770.29 
4182 762.50 771.54 770.29 
4183 762.45 771.54 770.29 
4184 765.59 771.00 770.29 
4185 763.55 771.00 770.29 
4186 762.58 771.09 770.29 
4187 760.10 771.39 770.29 
4188 762.10 771.73 770.29 
4189 766.39 771.63 770.29 
4190 760.64 771.66 770.29 
4191 763.96 771.66 770.29 
4192 759.23 771.70 770.29 
4193 763.92 771.68 770.29 
4194 763.03 771.63 770.29 
4195 765.79 771.58 770.29 
4196 760.74 771.27 770.29 
4197 767.74 771.48 770.29 
4198 760.32 770.97 770.29 
4199 764.03 770.70 770.29 
4200 762.35 771.01 770.29 
4201 760.86 770.82 770.29 
4202 762.96 770.81 770.29 
4203 766.15 771.36 770.29 
4204 768.41 771.69 770.29 
4205 758.69 771.69 770.29 
4206 764.75 771.56 770.29 
4207 763.29 771.63 770.29 
4208 766.32 772.16 770.29 
4209 765.82 772.10 770.29 
4210 766.18 771.95 770.29 
4211 766.21 771.77 770.29 
4212 759.99 771.65 770.29 
4213 763.75 771.59 770.29 
4214 764.14 771.62 770.29 
4215 765.11 771.68 770.29 
4216 758.80 771.77 770.29 
4217 762.84 771.37 770.29 
4218 763.93 771.31 770.29 
4219 764.71 771.23 770.29 
4220 764.96 771.24 770.29 
4221 762.11 771.19 770.29 
4222 766.19 770.84 770.29 
4223 764.04 771.16 770.29 
4224 763.38 771.12 770.29 
4225 766.43 771.12 770.29 
4226 761.95 771.29 770.29 
4227 764.41 771.55 770.29 
4228 762.32 771.51 770.29 
4229 763.25 771.63 770.29 
4230 767.75 771.68 770.29 
4231 762.72 771.75 770.29 
4232 763.47 771.85 770.29 
4233 764.50 771.39 770.29 
4234 765.37 771.16 770.29 
4235 760.68 771.17 770.29 
4236 768.48 771.62 770.29 
4237 761.00 771.66 770.29 
4238 761.51 771.53 770.29 
4239 758.21 771.50 770.29 
4240 759.53 771.27 770.29 
4241 763.44 771.18 770.29 
4242 758.30 770.97 770.29 
4243 764.39 771.21 770.29 
4244 762.32 771.18 770.29 
4245 763.30 771.31 770.29 
4246 760.22 771.45 770.29 
4247 761.63 771.39 770.29 
4248 767.75 770.99 770.29 
4249 764.88 771.46 770.29 
4250 762.61 771.19 770.29 
4251 763.96 771.40 770.29 
4252 762.99 771.75 770.29 
4253 765.73 771.84 770.29 
4254 761.51 771.74 770.29 
4255 764.70 771.58 770.29 
4256 761.88 771.58 770.29 
4257 766.06 771.67 770.29 
4258 766.64 771.60 770.29 
4259 763.98 771.67 770.29 
4260 760.89 771.74 770.29 
4261 763.49 771.64 770.29 
4262 765.76 771.60 770.29 
4263 764.95 771.56 770.29 
4264 764.17 771.68 770.29 
4265 764.28 771.88 770.29 
4266 762.91 771.71 770.29 
4267 761.78 771.67 770.29 
4268 763.84 771.65 770.29 
4269 762.42 771.55 770.29 
4270 760.26 771.56 770.29 
4271 761.83 771.62 770.29 
4272 763.63 771.56 770.29 
4273 761.15 771.43 770.29 
4274 758.26 771.38 770.29 
4275 761.03 771.23 770.29 
4276 762.34 771.20 770.29 
4277 766.18 771.31 770.29 
4278 763.25 771.21 770.29 
4279 761.85 771.29 770.29 
4280 766.23 771.39 770.29 
4281 762.00 771.57 770.29 
4282 759.49 771.94 770.29 
4283 761.81 771.82 770.29 
4284 762.48 771.68 770.29 
4285 762.79 771.82 770.29 
4286 761.48 771.79 770.29 
4287 764.91 771.70 770.29 
4288 764.94 771.57 770.29 
4289 763.73 771.63 770.29 
4290 761.48 771.55 770.29 
4291 764.01 771.73 770.29 
4292 761.89 771.92 770.29 
4293 764.16 771.85 770.29 
4294 763.90 771.96 770.29 
4295 763.92 772.00 770.29 
4296 762.91 772.05 770.29 
4297 761.08 772.03 770.29 
4298 762.94 771.87 770.29 
4299 760.39 771.29 770.29 
4300 763.92 772.01 770.29 
4301 763.82 770.91 770.29 
4302 762.22 771.63 770.29 
4303 762.12 771.51 770.29 
4304 764.18 771.61 770.29 
4305 762.12 771.57 770.29 
4306 763.41 771.75 770.29 
4307 763.19 771.66 770.29 
4308 762.32 771.87 770.29 
4309 766.68 771.74 770.29 
4310 762.14 771.82 770.29 
4311 764.63 771.63 770.29 
4312 763.81 771.59 770.29 
4313 763.06 771.54 770.29 
4314 763.82 771.54 770.29 
4315 762.48 771.82 770.29 
4316 763.38 771.80 770.29 
4317 761.77 771.49 770.29 
4318 762.16 771.73 770.29 
4319 762.96 771.42 770.29 
4320 769.16 771.85 770.29 
4321 760.81 771.72 770.29 
4322 763.91 772.01 770.29 
4323 766.09 771.92 770.29 
4324 763.07 772.11 770.29 
4325 764.13 772.06 770.29 
4326 763.05 771.99 770.29 
4327 764.84 772.02 770.29 
4328 765.38 771.81 770.29 
4329 764.98 772.02 770.29 
4330 761.38 771.95 770.29 
4331 765.81 771.76 770.29 
4332 763.98 771.96 770.29 
4333 758.35 771.78 770.29 
4334 761.34 771.72 770.29 
4335 762.63 771.54 770.29 
4336 762.38 771.53 770.29 
4337 761.47 771.38 770.29 
4338 762.72 771.20 770.29 
4339 763.14 770.93 770.29 
4340 764.36 771.16 770.29 
4341 765.33 770.93 770.29 
4342 763.53 771.24 770.29 
4343 762.32 771.09 770.29 
4344 762.05 771.27 770.29 
4345 764.65 771.22 770.29 
4346 763.67 771.21 770.29 
4347 767.78 771.10 770.29 
4348 761.56 771.14 770.29 
4349 766.45 771.09 770.29 
4350 765.25 771.46 770.29 
4351 764.55 771.43 770.29 
4352 764.58 771.41 770.29 
4353 762.10 771.28 770.29 
4354 763.54 771.34 770.29 
4355 759.94 771.54 770.29 
4356 763.65 771.40 770.29 
4357 762.50 771.32 770.29 
4358 763.16 771.41 770.29 
4359 767.90 771.36 770.29 
4360 764.06 771.60 770.29 
4361 761.92 771.60 770.29 
4362 764.10 771.35 770.29 
4363 762.05 771.44 770.29 
4364 763.57 771.55 770.29 
4365 761.49 771.52 770.29 
4366 768.12 771.41 770.29 
4367 763.98 771.45 770.29 
4368 768.09 771.80 770.29 
4369 765.48 771.82 770.29 
4370 764.11 771.69 770.29 
4371 761.63 771.77 770.29 
4372 765.43 771.56 770.29 
4373 760.23 771.42 770.29 
4374 763.55 771.76 770.29 
4375 765.72 771.61 770.29 
4376 762.16 771.65 770.29 
4377 765.46 771.59 770.29 
4378 766.82 771.32 770.29 
4379 761.41 771.17 770.29 
4380 762.60 771.30 770.29 
4381 764.37 771.37 770.29 
4382 766.66 771.12 770.29 
4383 763.00 770.97 770.29 
4384 763.98 771.11 770.29 
4385 763.10 770.82 770.29 
4386 759.99 771.22 770.29 
4387 764.57 771.22 770.29 
4388 764.87 771.18 770.29 
4389 765.62 771.30 770.29 
4390 764.97 771.18 770.29 
4391 765.95 771.40 770.29 
4392 761.62 771.42 770.29 
4393 761.32 771.23 770.29 
4394 764.79 771.31 770.29 
4395 761.74 771.35 770.29 
4396 766.32 771.33 770.29 
4397 765.54 771.70 770.29 
4398 764.76 771.51 770.29 
4399 765.56 771.57 770.29 
4400 764.33 771.55 770.29 
4401 763.07 771.80 770.29 
4402 764.03 771.73 770.29 
4403 765.14 771.88 770.29 
4404 764.21 771.89 770.29 
4405 764.77 771.85 770.29 
4406 761.86 771.92 770.29 
4407 760.05 771.93 770.29 
4408 763.83 771.90 770.29 
4409 760.04 771.93 770.29 
4410 764.25 771.81 770.29 
4411 762.47 771.82 770.29 
4412 761.69 771.87 770.29 
4413 765.49 771.85 770.29 
4414 764.13 771.95 770.29 
4415 766.07 771.89 770.29 
4416 766.40 771.94 770.29 
4417 764.49 771.88 770.29 
4418 764.95 771.87 770.29 
4419 760.97 771.86 770.29 
4420 762.81 771.79 770.29 
4421 761.40 771.84 770.29 
4422 765.41 771.78 770.29 
4423 763.80 771.91 770.29 
4424 763.16 771.98 770.29 
4425 767.98 771.95 770.29 
4426 765.05 771.84 770.29 
4427 761.30 771.74 770.29 
4428 766.88 771.69 770.29 
4429 765.30 771.82 770.29 
4430 763.89 771.70 770.29 
4431 759.96 771.80 770.29 
4432 762.28 771.69 770.29 
4433 762.47 771.43 770.29 
4434 763.73 771.51 770.29 
4435 765.47 771.33 770.29 
4436 762.70 771.44 770.29 
4437 762.24 771.27 770.29 
4438 762.45 771.38 770.29 
4439 765.92 771.45 770.29 
4440 760.93 771.59 770.29 
4441 761.35 771.50 770.29 
