iteration,time_sampling,stoc_pol_mean,stoc_pol_std,stoc_pol_max,stoc_pol_min,rollout_success,alpha,delta,time_vpg,time_npg,kl_dist,surr_improvement,running_score,rwd_sparse,rwd_dense,success_percentage,num_samples,time_VF,VF_error_before,VF_error_after,env_samples,eval_score,eval_success
0,10.124195575714111,-2830.2320638348697,2708.5062756994344,897.7839084051326,-9116.984422439757,0.0,1.4127168731213902,0.1,0.020051240921020508,0.37566447257995605,0.05507657,0.069531985,-2830.2320638348697,0.713363549159332,-14.149749895590991,0.0,17079,1.5476763248443604,0.9999791890466326,0.5567046621348499,17079,-2409.108693875266,0.0
1,10.249826669692993,-1822.3871368977116,2011.1639341992236,1024.8723817535333,-9273.242287773512,0.0,1.8147783546192735,0.1,0.012197494506835938,0.33107948303222656,0.047393516,0.05296058,-2729.4475711411537,0.5156258717793515,-9.119288633191303,0.0,16455,1.4817402362823486,0.751898607392516,0.5902510881227243,33534,-2672.4709333856977,0.0
2,10.996107816696167,-2417.1763276021993,2522.2088378100007,1937.7539812595583,-9450.804163023462,0.0,1.8280728738845577,0.1,0.013111114501953125,0.28633928298950195,0.0564352,0.055273477,-2698.2204467872584,0.6837853679215393,-12.087424207524856,0.0,17565,1.8027112483978271,0.5814870067572915,0.4249260942938582,51099,-1710.678664086825,0.0
3,10.438709259033203,-2087.7067240378133,2422.097424211302,1002.4232643124737,-9023.96658260402,0.0,1.8105518810705459,0.1,0.012801170349121094,0.36763811111450195,0.0527095,0.05422314,-2637.1690745123137,0.6029818500386325,-10.447756041317213,0.0,17056,2.25416898727417,0.4705514598855534,0.3992340059047426,68155,-1640.1510733918574,0.0
4,11.169887065887451,-2295.00939328256,2517.2689228162953,958.5540301016639,-9133.53657920587,0.0,1.795764481988322,0.1,0.013241291046142578,0.3074936866760254,0.054362766,0.057449885,-2602.9531063893382,0.6522589889650863,-11.4840642238904,0.0,17310,2.3475840091705322,0.36957883356988447,0.317606291833439,85465,-1226.3663968797005,0.0
5,11.356570959091187,-2207.7234015980225,2672.576825719373,1029.7541284022984,-9519.355010043642,0.0,1.8436239072332412,0.1,0.012905359268188477,0.2844836711883545,0.05030605,0.05390181,-2563.430135910207,0.768756088559118,-11.041937570734548,0.0,17893,2.408555269241333,0.36716455154774863,0.32323260912075585,103358,-1328.4537427754094,0.0
6,11.343549489974976,-2083.654867065255,2680.4520657921325,1782.3273000562795,-9419.017783690628,0.0,1.9081385158175697,0.1,0.014659881591796875,0.4629993438720703,0.051530793,0.05315342,-2515.452609025712,0.6551719649477348,-10.430210147940015,0.0,18249,2.480811357498169,0.3662726973772463,0.32184393515033827,121607,-1676.7641002355745,0.0
7,10.544284343719482,-1807.9532956126016,2349.0219406451806,1007.1424017628744,-9229.932719876835,0.0,1.7763010034912274,0.1,0.012740135192871094,0.2784285545349121,0.049968828,0.058058582,-2444.702677684401,0.47134652699221363,-9.049236949456729,0.0,16864,2.1987719535827637,0.40019375292819587,0.3501102292489048,138471,-1970.3413538801287,0.0
8,11.760525465011597,-2194.3673898739667,2504.5628012257744,1830.6876389769723,-8662.719853983373,0.0,1.7865777277204273,0.1,0.014090299606323242,0.37260961532592773,0.052957885,0.05517867,-2419.6691489033574,0.565064741438807,-10.979750928111464,0.0,18265,2.403231143951416,0.31835134725769565,0.2807227092961555,156736,-1300.2650989788422,0.0
9,10.88200068473816,-1244.0673370512066,2214.47094664962,1685.4910249422353,-9060.383915460163,0.0,1.870239513866657,0.1,0.014044046401977539,0.2852303981781006,0.050909415,0.053785753,-2302.108967718142,0.7856892749746948,-6.233541432967083,0.0,17366,2.281284809112549,0.4107332383322666,0.35372633827690114,174102,-1538.3863038587133,0.0
10,12.2471022605896,-1789.0142777006024,2219.276036162558,1092.3673823964323,-8898.755508429087,0.0,1.8441773531301,0.1,0.014231681823730469,0.26160717010498047,0.05127849,0.05320671,-2250.7994987163884,0.4932757187916789,-8.959811836011363,0.0,18607,2.482722043991089,0.3579323828887507,0.30686699783288085,192709,-1608.8727291775883,0.0
11,12.295687198638916,-1537.0744199640712,2243.9964831303178,1007.4233140538112,-9409.472797170309,0.0,1.9603737526390506,0.1,0.012719869613647461,0.25669026374816895,0.04929473,0.047342375,-2179.4269908411566,0.8258205379098239,-7.69483958724824,0.0,18504,2.425493001937866,0.34968153809445796,0.3076785603197547,211213,-1515.7677046722483,0.0
12,11.730118989944458,-1247.4286200816794,2062.6635243568203,1076.9333702661825,-7878.635746662798,0.0,1.917902278305013,0.1,0.012378692626953125,0.3619389533996582,0.051630538,0.05327045,-2086.2271537652086,0.6988692226321698,-6.2544398140670365,0.0,18366,2.402111530303955,0.3864913366100984,0.3628408520010146,229579,-2122.6717423121895,0.0
13,11.651164770126343,-1385.370405965642,2018.7679969308247,1088.5560653475939,-6438.613715804302,0.0,1.9904026074242642,0.1,0.012731075286865234,0.4023001194000244,0.051280115,0.047822744,-2016.141478985252,0.3062967960530391,-6.942548696317566,0.0,19111,2.5227015018463135,0.34414806275171306,0.3129570122749947,248690,-3127.7492250575024,0.0
14,11.376564741134644,-1168.0581510607635,1985.7946867885266,1027.1011687521775,-8415.746355355443,0.0,1.836453505789532,0.1,0.01217031478881836,0.3747425079345703,0.05085023,0.050127365,-1931.3331461928033,0.5549098022524965,-5.850856738137641,0.0,18375,2.4264414310455322,0.32452519260864476,0.2896718577329568,267065,-2781.77477142941,0.0
15,11.87470555305481,-1226.7723181755714,2005.4345214117288,1047.681622607467,-9859.028879968106,0.0,1.9561614371610578,0.1,0.013915300369262695,0.28578615188598633,0.051042564,0.048778854,-1860.8770633910801,0.5799042249144848,-6.149709941077446,0.0,19042,2.6099166870117188,0.3237449089840022,0.281192496527567,286107,-1401.78828335702,0.0
16,12.064281225204468,-752.2568716897507,1659.8907173384914,1064.6372136418527,-5309.069181830921,0.0,2.0119973881516247,0.1,0.01344752311706543,0.2767956256866455,0.05010411,0.048479196,-1750.0150442209472,0.583214740795368,-3.7770097791860153,0.0,18927,2.606945276260376,0.4163591434274032,0.37579386147377336,305034,-1452.5148553343952,0.0
17,11.975428104400635,-879.781616375324,1557.6130604538505,1112.8656829271063,-7518.814628654508,0.0,1.9595788528291174,0.1,0.013362407684326172,0.393413782119751,0.05139179,0.05103094,-1662.9917014363848,0.3443020172972339,-4.4180621630214185,0.0,19070,2.6012203693389893,0.42388961084965765,0.38185562800719375,324104,-1538.3192877171457,0.0
18,12.231071472167969,-1065.867455560241,1932.8765898230683,1616.2373368703954,-7999.336782600754,0.0,2.127093635565485,0.1,0.013027429580688477,0.2643928527832031,0.049564954,0.04544435,-1603.2792768487705,0.2740477120679737,-5.347450044612312,0.0,18936,2.5006611347198486,0.3816400021187341,0.3450127676592771,343040,-1718.9027194286637,0.0
19,12.011286735534668,-508.167693785924,1247.8746333644947,1099.3961804275293,-4818.861715413469,0.0,2.0866276751949773,0.1,0.013420581817626953,0.26730871200561523,0.05251953,0.04851842,-1493.7681185424858,0.36078803885473204,-2.5595060915356656,0.0,19077,2.5507750511169434,0.5025148214333355,0.3538002034663892,362117,-3046.5857570358658,0.0
20,12.181633949279785,-385.8275508087561,1134.0148408645462,1111.811777240366,-3932.264334054919,0.0,2.0103669794154047,0.1,0.014521360397338867,0.2724916934967041,0.05013803,0.046171598,-1382.974061769113,0.38934359118941275,-1.9465402006866688,0.0,19025,2.5312838554382324,0.43497280872406213,0.39838920174928355,381142,-2369.167213474794,0.0
21,12.237812280654907,-694.3216261231946,1145.9018822732048,1505.0715251222643,-4056.4059885176857,0.0,2.1076400618673987,0.1,0.013455867767333984,0.3827517032623291,0.050926916,0.045313314,-1314.1088182045212,0.15307580522544714,-3.491248049836346,0.0,19127,2.5564370155334473,0.4347327469036575,0.3651271578824553,400269,-1969.1936141630513,0.0
22,12.299213886260986,-473.4440119650705,1006.0722303071227,1728.5861546738804,-3917.491559455925,0.0,2.2676669994825116,0.1,0.014026403427124023,0.2743210792541504,0.051327933,0.043103255,-1230.0423375805763,0.32659635272996507,-2.3854210562652356,0.0,19180,2.6178059577941895,0.4580135268202588,0.41798480329477755,419449,-1665.5484480807618,0.0
23,12.428822755813599,-408.32816833847505,848.1011055530694,1270.1075001545275,-4285.996089477699,0.0,2.2079148206305725,0.1,0.013112306594848633,0.26523447036743164,0.053283095,0.04241863,-1147.8709206563663,0.17760496210203716,-2.0588781394916325,0.0,19176,2.6000099182128906,0.4243324998851894,0.3942089416922491,438625,-1427.1277702268549,0.0
24,12.628755807876587,-261.67566780129715,744.2173860113554,1570.5144333071978,-3215.096301986325,0.0,2.223160523139753,0.1,0.012944459915161133,0.3829782009124756,0.0496067,0.042085744,-1059.2513953708592,0.2686999629076409,-1.3284784489921242,0.0,19175,2.5981128215789795,0.4660101302340541,0.4253310356709719,457800,-915.7628566829985,0.0
25,12.266259670257568,-126.10619768079239,433.90934096842005,1590.1680777916856,-1632.082820197683,0.0,2.059770460423198,0.1,0.012234687805175781,0.2884500026702881,0.049873307,0.05478662,-965.9368756018525,0.24162200133619716,-0.6520848305547772,0.0,19114,2.5832650661468506,0.6041753636869897,0.4569132379833675,476914,-2255.5406310699136,0.0
26,12.37274169921875,-90.23573718766109,498.22568651286394,1636.7746190321468,-2322.0624789635117,0.0,2.056193711537804,0.1,0.013329029083251953,0.4031684398651123,0.050164774,0.04500783,-878.3667617604334,0.31904570014911904,-0.4736499719357607,0.0,19200,2.646301746368408,0.40620866675484424,0.3251859373202287,496114,-2646.2988259132167,0.0
27,12.217829704284668,-23.178465654374765,476.65749008491537,1600.1483070855681,-2065.3941191181007,0.0,1.9785231305959539,0.1,0.013385534286499023,0.31586742401123047,0.05038273,0.04762233,-792.8479321498276,0.3879326672071435,-0.13817892059857909,0.0,19200,2.5825672149658203,0.44366578784704186,0.3272315222974483,515314,-2321.1480023307613,0.0
28,12.35775113105774,-53.22402713593534,521.5095312584177,1476.795861918247,-2826.918241428785,0.0,2.0362901610742825,0.1,0.01332402229309082,0.43173933029174805,0.049872793,0.04583862,-718.8855416484383,0.3778381728206684,-0.2880196158976527,0.0,19200,2.603893756866455,0.5732113370486427,0.5178160682080986,534514,-1025.349187400897,0.0
29,12.36341142654419,95.10217032263394,501.6551100330852,1745.4309714720703,-609.7658248950496,0.0,1.879231024085694,0.1,0.01534581184387207,0.42131638526916504,0.052603867,0.06016355,-637.486770451331,0.5302421451638776,0.45258393720774664,0.0,19200,2.6375339031219482,0.170921840838109,0.14252354202285,553714,-728.0425322882234,0.0
30,12.214683055877686,132.99153409708168,720.9373924772793,1887.6225614397483,-3490.1925285001867,0.0,2.175646034160613,0.1,0.013824939727783203,0.2856287956237793,0.049968142,0.044544794,-560.4389399964898,0.6930442382286021,0.6430334225305904,0.0,19200,2.700835943222046,0.5427786118912485,0.27569255379008645,572914,-2385.5062750341435,0.0
31,12.467061758041382,300.44030455407807,680.3964750599998,1938.6080394426633,-834.9536517098759,0.0,1.9865975428733456,0.1,0.01395416259765625,0.3532528877258301,0.04899687,0.04922363,-474.35101554143307,0.8919549163442911,1.4792885986376625,0.0,19200,2.6442692279815674,0.1987997778776444,0.10335957097038977,592114,-637.4669582445747,0.0
32,12.188062906265259,115.8537731669499,605.4271452497346,1720.6610946458877,-1980.4148790079082,0.0,1.952832579894168,0.1,0.013150691986083984,0.32068634033203125,0.04965252,0.04937062,-415.3305366705948,0.6142884989325442,0.5553943318507337,0.0,19200,2.667452573776245,0.150397162983131,0.10791977288362223,611314,-1287.2868182992643,0.0
33,12.168631076812744,221.41395551770452,618.3571676128623,1907.0693024131929,-634.3012272955897,0.0,1.9384533609915096,0.1,0.012305259704589844,0.2992217540740967,0.05096947,0.057413157,-351.6560874517649,0.7486545969991575,1.0838220443560718,0.0,19200,2.6541354656219482,0.12890681433872941,0.09405323610373685,630514,-1421.3810953645368,0.0
34,12.379526376724243,337.5766305029339,708.3135612370091,1820.2413605162205,-629.1350647745201,0.0,1.9523926535000817,0.1,0.013428449630737305,0.3823099136352539,0.052058775,0.066406325,-282.73281565629503,0.9111393303201337,1.6634371347849193,0.0,19015,2.590895891189575,0.10355463964808065,0.0813399714578411,649529,-2191.2466361101906,0.0
35,12.05465841293335,214.99002523859258,975.3178340694863,1868.717514249676,-5847.224222717379,0.0,2.044329570855874,0.1,0.012945413589477539,0.3823366165161133,0.049620975,0.037922047,-232.96053156680625,0.8340065141940469,1.0515734595437245,0.0,19200,2.5999934673309326,0.2514725282371353,0.14106004603176295,668729,-2884.514035847573,0.0
36,12.340183734893799,333.8419268034773,741.3711088239337,1902.0506032584572,-2042.6585081188434,0.0,1.8668590461544428,0.1,0.014742136001586914,0.33553171157836914,0.04948841,0.052575458,-176.28028572977792,0.9253024347741015,1.645002998155585,0.0,19200,2.6084349155426025,0.17101943206931788,0.1451098527776854,687929,-2546.9079474735877,0.0
37,12.642439365386963,229.70048191568048,666.9166841160501,1784.6403858425017,-1639.3999418637618,0.0,1.891366267191255,0.1,0.02330470085144043,0.36438989639282227,0.051102974,0.05057749,-135.68220896523206,0.7304493902610997,1.1275289348745094,0.0,19072,2.5142698287963867,0.11190973402321706,0.09083983063304106,707001,-2225.7400349362492,0.0
38,12.7352774143219,328.8213033841955,777.6533633156713,1833.4335259065385,-2289.0459121466097,0.0,1.726158541877254,0.1,0.012874841690063477,0.2731664180755615,0.051030695,0.055489603,-89.2318577302893,0.9935462064570029,1.6186522797787048,0.0,19013,2.479647159576416,0.24113883846112416,0.1867226043838055,726014,-1015.9720551473471,0.0
39,12.244005918502808,363.385083972915,692.5515334718148,1774.5845692849882,-616.8929179837116,0.0,2.0418705078066224,0.1,0.013254880905151367,0.41159677505493164,0.04842543,0.050019357,-43.97016355996887,0.9615583738548793,1.7934407820166827,0.0,19200,2.516169548034668,0.10959550973339655,0.07408065679286079,745214,-1811.6590280770445,0.0
40,12.468324899673462,400.45456994627733,717.3858133843052,1822.2034281861577,-625.1692722868282,0.0,1.9377638274803684,0.1,0.013517618179321289,0.36747097969055176,0.050822444,0.053099133,0.47230979065574985,1.0180332233954026,1.9782292436530973,0.0,19200,2.5605642795562744,0.07035316843334995,0.05890766828661817,764414,-4199.369924580198,0.0
41,12.205082416534424,292.31935276551053,819.0802240402124,1861.871430204785,-2911.094782850236,0.0,1.985424963867656,0.1,0.012434244155883789,0.3482625484466553,0.04920211,0.045649514,29.65701408814123,0.8655257595306175,1.4365185543290264,0.0,19200,2.5432119369506836,0.17810584712927088,0.09140817629446989,783614,-4782.390221962101,0.0
42,12.264488458633423,421.10483778721135,744.1936618557789,1901.5340945113471,-806.4120465043574,0.0,1.9334092265570404,0.1,0.012923002243041992,0.467602014541626,0.050081614,0.056797676,68.80179645804824,1.0780058149247982,2.0782092362780884,0.0,19200,2.5158331394195557,0.07429854334429795,0.05921628804312456,802814,-3925.8801174560595,0.0
43,12.67656660079956,536.9494983852368,1005.9523768761636,1953.560026554814,-3646.13540223228,0.0,1.8069197392424345,0.1,0.012656211853027344,0.3078153133392334,0.049150262,0.04737062,115.61656665076711,1.282701450416465,2.6625245865827467,0.0,19200,2.4712932109832764,0.12718913501399268,0.058463000334514494,822014,-3651.3257894222274,0.0
44,12.650151491165161,563.5882027468882,789.1706909924548,1977.1000876557941,-396.6322215288927,0.0,1.8190233541982457,0.1,0.013399362564086914,0.32958388328552246,0.049134962,0.0584394,160.41373026037923,1.2424390535700613,2.7938152690343188,0.0,19200,2.459798812866211,0.04750604036789999,0.03996070955087844,841214,-3543.0861218665696,0.0
45,12.77945590019226,387.6719575737975,844.8237770019738,1870.893522486606,-2112.8485439082638,0.0,1.901394130719871,0.1,0.013670682907104492,0.43148159980773926,0.050161608,0.04791971,183.13955299172108,1.0118181128968449,1.9143666887803759,0.0,19200,2.524864673614502,0.12394338169667776,0.09970328527150245,860414,-1539.3665206647054,0.0
46,12.542988061904907,489.73320119142585,978.4720700335434,1926.6761970434989,-3336.247536377755,0.0,1.833624411936144,0.1,0.013457298278808594,0.3905928134918213,0.050236918,0.044757918,213.79891781169155,1.2622373835348653,2.423405237675545,0.0,19200,2.619061231613159,0.1133696083857697,0.07439182937945082,879614,-43.121523072858245,0.0
47,12.626770257949829,385.4738585959678,769.8191974218055,1980.2775961468362,-715.5110556984099,0.0,2.1110347085175274,0.1,0.013604164123535156,0.3129458427429199,0.050610308,0.045605715,230.96641189011916,1.0023436782112187,1.9040275964259201,0.0,19200,2.619278907775879,0.07243254496607653,0.05209643763051683,898814,108.41472386672851,0.0
48,12.573010683059692,324.1819585631067,706.8631961668885,1911.4222552063381,-392.2858261692743,0.0,1.7616817301592929,0.1,0.013208866119384766,0.29103565216064453,0.04991127,0.061889287,240.28796655741792,0.8927037889548118,1.5973714813742477,0.0,19200,2.5934271812438965,0.06824272393105445,0.05827501570349575,918014,-3639.3421842589596,0.0
49,12.410605907440186,500.554073468528,867.064760528507,1920.3207778275778,-1536.2654428763642,0.0,1.919831374756096,0.1,0.01336669921875,0.37308716773986816,0.050499205,0.055204634,266.31457724852896,1.1353585669388766,2.477460776922908,0.0,19200,2.5439822673797607,0.06685703489695513,0.04751866519311177,937214,-2045.0505510767803,0.0
50,12.48421335220337,544.418029450533,884.5840597756555,1901.5926344022882,-1538.7513687241383,0.0,1.8865144454685399,0.1,0.012936830520629883,0.3590877056121826,0.05002646,0.048195526,294.1249224687294,1.1705827202100774,2.697802771510974,0.0,19200,2.5311813354492188,0.04740849882448891,0.037702043763978475,956414,-156.46012414600827,0.0
51,12.355504751205444,538.9820312082144,834.0437035467276,1971.2360158878994,-467.7819210983167,0.0,2.2321335302615557,0.1,0.01218724250793457,0.2654118537902832,0.049841344,0.04787695,318.6106333426779,1.237082315231888,2.6714036046856777,0.0,19016,2.4249300956726074,0.053813823056152864,0.04412445234386822,975430,-2175.9256957681555,0.0
52,12.685695171356201,448.758017872223,807.1010304567061,1867.091018453482,-908.0762966365593,0.0,2.002951197414635,0.1,0.01409769058227539,0.3391904830932617,0.051449634,0.049742255,331.6253717956324,1.0914197738138294,2.218954471282839,0.0,19200,2.4422824382781982,0.053922383997539194,0.045551635446953766,994630,-2938.661975463544,0.0
53,12.632706880569458,441.6609289546218,820.1939767677734,1945.5664623593404,-1359.9763796221027,0.0,1.9650463038194734,0.1,0.012620925903320312,0.39507389068603516,0.050376784,0.048357543,342.6289275115314,1.1315977038399438,2.1842569375790193,0.0,19200,2.459197759628296,0.07117826035833894,0.05792252642677335,1013830,-1916.9767061080483,0.0
54,12.386446714401245,630.658951689002,840.3934425215534,1940.9278322708806,-970.0167584686443,0.0,1.9594048696589754,0.1,0.012992382049560547,0.3267638683319092,0.05075433,0.04732596,371.4319299292785,1.3935058466418335,3.1280932648490762,0.0,19200,2.4909908771514893,0.048837106643047606,0.03566311296269945,1033030,-2865.709589909311,0.0
55,12.4981369972229,618.9642411051583,873.2970147214347,1978.5646455073688,-586.2273762248666,0.0,1.903921490154775,0.1,0.012952089309692383,0.2719719409942627,0.049549904,0.056043245,396.18516104686654,1.29054875988375,3.0711907876822173,0.0,19020,2.5120909214019775,0.04152017186984974,0.03206364189455461,1052050,-3258.22202234663,0.0
56,12.308109521865845,587.293006669168,1188.7526720670912,1910.8623251126783,-6771.571507427739,0.0,1.891082837456454,0.1,0.013761281967163086,0.2803356647491455,0.05058941,0.047758475,415.2959456090967,1.3820622421853546,2.9116817525204985,0.0,19020,2.518264055252075,0.18049136754610484,0.06436832930278663,1071070,-1417.3609868374142,0.0
57,13.005811214447021,501.8342897093592,1032.61017210909,1964.9781238994221,-4979.577945602318,0.0,1.8401586407953574,0.1,0.01298832893371582,0.35872578620910645,0.04943272,0.049671214,423.94978001912295,1.2318223140314044,2.4853779601436568,0.0,19200,2.5352680683135986,0.08384271263782307,0.03894588444497325,1090270,-2415.031994529567,0.0
58,12.706206798553467,619.7871660719751,908.1137806790459,1910.3680148933367,-1846.62753721953,0.0,2.1186354702436487,0.1,0.013471364974975586,0.26810526847839355,0.049863417,0.042635605,443.53351862440815,1.4264145002236648,3.073947878057582,0.0,19016,2.4388511180877686,0.08010059383990939,0.046537051079120456,1109286,-4311.458674293793,0.0
59,12.691874742507935,479.0014673293497,900.877110129594,1970.0996440994054,-904.2223523509372,0.0,2.0416818384017383,0.1,0.013831138610839844,0.37590694427490234,0.048146937,0.0416807,447.08031349490227,1.16574051435501,2.3703724017537304,0.0,19200,2.4757251739501953,0.032816088187094465,0.02699655235053577,1128486,-4462.539007291396,0.0
60,12.657670736312866,591.3908783072042,1033.6218879421667,1944.5100440018591,-3109.0750432477425,0.0,2.149333493717135,0.1,0.012634038925170898,0.36400485038757324,0.049094122,0.04232968,461.51136997613247,1.3802448639653242,2.9314321557972343,0.0,19200,2.5233919620513916,0.09553140554137311,0.059212077096822496,1147686,-4287.682544777301,0.0
61,12.0661301612854,606.3074202896378,1393.5353039949323,1967.8593239301517,-6353.194078095954,0.0,1.9696243925677188,0.1,0.01339268684387207,0.26862454414367676,0.049398832,0.043200944,475.990975007483,1.5333053146468274,3.004776814729358,0.0,19019,2.522054672241211,0.14650925172963702,0.06366018527954619,1166705,-3842.166508051755,0.0
62,11.806620359420776,626.2592861785483,866.3781892213528,1955.6312841375072,-1198.2826126168613,0.0,2.1000203192575384,0.1,0.012790679931640625,0.32736730575561523,0.04989183,0.042328425,491.01780612458947,1.4383754301551102,3.107727678628448,0.0,19200,2.524977684020996,0.10564998881172424,0.05344781773293293,1185905,-3487.967144332736,0.0
63,11.866491556167603,652.3560957714832,894.6257631432877,1990.1100986100257,-673.9134825320648,0.0,2.0325275230687962,0.1,0.01353597640991211,0.4236769676208496,0.05084758,0.051757794,507.1516350892789,1.4511175455128598,3.235082876918414,0.0,19200,2.571453809738159,0.03261674131608952,0.026899864277768054,1205105,-4771.276856144011,0.0
64,11.935632228851318,435.82132950957265,910.2976595618089,1984.5478955610488,-2600.6202593700004,0.0,1.9592658145477149,0.1,0.012938737869262695,0.2614927291870117,0.050397705,0.051625997,500.01860453130826,1.0806826544969057,2.154498192043038,0.0,19016,2.5776045322418213,0.07506609160569522,0.06130252050297169,1224121,-3585.2659756607736,0.0
65,12.148836135864258,565.7367543135389,926.7904896686791,1962.4959855959391,-2304.7884034029726,0.0,1.885182429533341,0.1,0.01311492919921875,0.3215959072113037,0.049905762,0.04696164,506.59041950953133,1.3016493053269869,2.803703404534597,0.0,19200,2.5373363494873047,0.04795118232676672,0.03907814364563819,1243321,-1086.834560597187,0.0
66,11.92223334312439,600.5149624073474,866.8639357562333,1968.3403949841104,-787.4713743264344,0.0,2.0822189024042665,0.1,0.013458490371704102,0.3384113311767578,0.050443757,0.047892302,515.982873799313,1.2959104187331667,2.978118531741339,0.0,19200,2.481106996536255,0.03470045260155921,0.02760986742893198,1262521,-3644.690718056736,0.0
67,11.868067026138306,583.2865551292606,1018.2589512203843,2010.4148990555286,-4583.830570438978,0.0,2.045610827283674,0.1,0.013030529022216797,0.42850637435913086,0.05075029,0.0423582,522.7132419323078,1.3688299834886628,2.8916780064509346,0.0,19200,2.550004720687866,0.1349050900517854,0.05284582965881048,1281721,-1379.7429768234326,0.0
68,11.906127452850342,571.0844668187498,909.7247123365888,1978.1228094196247,-2350.5259705224876,0.0,1.8297622318104838,0.1,0.013045310974121094,0.42107582092285156,0.050089657,0.0411447,527.5503644209521,1.285202112800035,2.832344814322625,0.0,19200,2.5841095447540283,0.10038653171141018,0.05422240408570746,1300921,160.3366907845638,0.0
69,12.065749168395996,626.8087173616408,848.5057223072711,1915.4660319328289,-536.9108258550308,0.0,2.0017266554110806,0.1,0.013034820556640625,0.3369302749633789,0.049827754,0.051470395,537.4761997150209,1.3909021998230757,3.108499760626257,0.0,19200,2.6535823345184326,0.05371382473928435,0.04102015671667995,1320121,99.62001357040315,0.0
70,12.108548164367676,543.2586166506686,829.2878017110926,1905.0047058518446,-511.6529536559692,0.0,1.8668097846046043,0.1,0.012852191925048828,0.3419351577758789,0.050302926,0.051595736,538.0544414085857,1.2191941119585017,2.689310457371169,0.0,19200,2.6541240215301514,0.04060872741456428,0.034487812506128396,1339321,-36.62390949556449,0.0
71,12.232577800750732,634.2951437782909,889.0040133418595,1962.1367691135779,-439.9172762318875,0.0,1.8516245277214678,0.1,0.014548778533935547,0.38173842430114746,0.049557775,0.05769862,547.6785116455562,1.3628720041838862,3.1458969597487574,0.0,19200,2.6381924152374268,0.03773961145686079,0.029107542449638632,1358521,-892.2882048386695,0.0
72,12.32802414894104,778.8505603673624,919.7863704295769,1951.0009192985146,-491.36417662929244,0.0,1.8710458221405228,0.1,0.01327824592590332,0.39990782737731934,0.050614223,0.055524293,570.7957165177369,1.580609247163993,3.8684705323123523,0.0,19200,2.5585920810699463,0.03253710031166079,0.024311988265333304,1377721,-327.84811762450056,0.0
73,12.051606178283691,629.5138799800158,895.1785998128524,2012.5953734009854,-1039.1920430547905,0.0,1.9979666973583217,0.1,0.012520790100097656,0.3650789260864258,0.04932498,0.05436837,576.6675328639648,1.312845806054383,3.121253577632276,0.0,19200,2.5722131729125977,0.040492218233570035,0.028807849896978977,1396921,328.3438343721556,0.0
74,12.007477521896362,746.6481705798045,888.150585937688,1965.3947573430207,-372.56918098575073,0.0,1.8952697210759024,0.1,0.012775421142578125,0.40563440322875977,0.049691774,0.055794004,593.6655966355488,1.5203879916876193,3.7064935551842133,0.0,19200,2.557433843612671,0.030956679082404407,0.025134258868131868,1416121,128.54360470358924,0.0
75,11.998643159866333,676.6857466198329,945.9585256212072,1952.1823546187497,-1946.8552635700703,0.0,1.9651223462474863,0.1,0.012695074081420898,0.331373929977417,0.049728364,0.042725082,601.9676116339772,1.4436071734119835,3.358189647280321,0.0,19200,2.5361874103546143,0.04620796838415531,0.038210996756455486,1435321,-170.91461815838488,0.0
76,12.117355585098267,751.0214793579192,904.4826079589584,1968.546739137318,-1436.5803167644367,0.0,1.971354848424674,0.1,0.013473749160766602,0.4078378677368164,0.050470285,0.050648563,616.8729984063714,1.5035389221963438,3.72853768878087,0.0,19200,2.5492360591888428,0.026976589610444825,0.020860885515224834,1454521,296.8741385195629,0.0
77,12.503374814987183,815.7345235733916,885.1263139699037,2013.2885222880439,-311.9876102021491,0.0,1.8281591341088026,0.1,0.01372218132019043,0.3345677852630615,0.049860843,0.05147887,636.7591509230734,1.6425529783934998,4.051863550111508,0.0,19200,2.5924320220947266,0.025464711594401324,0.022250472382011815,1473721,185.10931945415857,0.0
78,12.295210123062134,773.1786595487187,869.8216041208536,1961.8011431036555,-466.08252845161434,0.0,1.8616573010955098,0.1,0.012764453887939453,0.4074883460998535,0.049871467,0.051295254,650.4011017856379,1.5403240417631954,3.8403498344438574,0.0,19200,2.6523571014404297,0.030438958905089516,0.025421667001763487,1492921,-240.44451900836808,0.0
79,12.466837644577026,793.1911434228296,1176.6844481084795,1968.2018607265138,-4983.474267607212,0.0,1.998071215827444,0.1,0.013118743896484375,0.4031093120574951,0.050658453,0.04599581,664.6801059493572,1.7499185361580072,3.9396883900622464,0.0,19200,2.7055203914642334,0.19713337932877434,0.051475868484549145,1512121,-155.902873751117,0.0
80,12.289639234542847,809.7872824328356,921.487708867388,1960.0219451235114,-634.1403562829167,0.0,1.8842758387112615,0.1,0.01403665542602539,0.34456753730773926,0.050009903,0.051365517,679.190823597705,1.5855064143029072,4.022386775173875,0.0,19200,2.634016275405884,0.058434320304586604,0.023514290250835086,1531321,-491.0803118691544,0.0
81,12.15231728553772,902.1128363157771,934.4547361029237,1984.0229169343645,-1287.6073480921286,0.0,1.828166360948413,0.1,0.012638568878173828,0.41725659370422363,0.050937653,0.058024354,701.4830248695123,1.7676814604003932,4.482564610493016,0.0,19200,2.6619057655334473,0.030096779140429755,0.02145737738349239,1550521,-9.726309911801565,0.0
82,12.196825504302979,832.6390412939719,875.201533069914,1976.0286541564046,-360.69459996949126,0.0,2.0087784988320108,0.1,0.013886451721191406,0.3607304096221924,0.050004303,0.052436423,714.5986265119582,1.6258328960128043,4.137330636457027,0.0,19200,2.657759666442871,0.031085189348268268,0.021304391428477187,1569721,-203.26836152380804,0.0
83,11.832016229629517,831.4307629923613,916.5814519150723,1977.070014826402,-328.78569761248195,0.0,2.023432133674786,0.1,0.013520956039428711,0.33721494674682617,0.05137941,0.049692858,726.2818401599985,1.618282912787291,4.132129993590091,0.0,19200,2.6748335361480713,0.02529783578425971,0.018295689486936006,1588921,-397.33810359263236,0.0
84,12.031755208969116,636.4142304963852,888.3675415595848,1996.3195633217863,-811.4581812953177,0.0,1.9273230858664847,0.1,0.012920856475830078,0.3904073238372803,0.050005697,0.049474634,717.2950791936372,1.3318081463608407,3.1571024473186093,0.0,19200,2.654552698135376,0.04256640968062654,0.032470482749372656,1608121,-438.88817642561526,0.0
85,12.375242471694946,987.7851395729189,896.8304272595974,1946.5922087006802,-331.3695584142615,0.0,1.9513464151063729,0.1,0.013350486755371094,0.39783310890197754,0.05131928,0.055452142,744.3440852315654,1.8744100709045721,4.911612264267607,0.0,19200,2.6195783615112305,0.019544250432741977,0.013258578083414864,1627321,-274.4213127967714,0.0
86,12.486268043518066,835.278176031315,1042.3540721102274,1974.7445937380999,-4524.464134306744,0.0,2.1433372551983294,0.1,0.012874841690063477,0.3879508972167969,0.048882145,0.042977806,753.4374943115404,1.6976786123805534,4.1505106434183325,0.0,19200,2.621278762817383,0.12104440746337183,0.04096749959140573,1646521,-217.3227685777743,0.0
87,12.103746891021729,832.4256226426168,888.0443961213565,1949.723771652963,-550.6152862243376,0.0,1.945760896756501,0.1,0.01310873031616211,0.2762899398803711,0.049952317,0.09796311,761.336307144648,1.6534045192802769,4.135417279036437,0.0,19013,2.641308307647705,0.04139352121950325,0.026607923549821673,1665534,-368.5858211610047,0.0
88,12.501774549484253,1022.3727825856685,886.3769123826811,1947.4594239664866,-270.68677791444946,0.0,1.909534867005015,0.1,0.012581825256347656,0.35898804664611816,0.049315605,0.05554587,787.43995468875,1.9198859533128207,5.083981472141555,0.0,19200,2.687000274658203,0.01609698553749374,0.012395514057069025,1684734,-711.9756812433201,0.0
89,12.364051580429077,941.7085720835433,895.1016520162133,1964.5004660441964,-351.81248771172034,0.0,2.0744825508554374,0.1,0.01325368881225586,0.3847332000732422,0.049592197,0.05235416,802.8668164282294,1.7654416106123134,4.682312762742882,0.0,19200,2.707920551300049,0.021239748726507357,0.01702822291916872,1703934,-315.35988051993303,0.0
90,12.274895906448364,855.4983520891234,914.99537427186,1960.990539557162,-1034.5104417113735,0.0,2.0720797211345277,0.1,0.01323246955871582,0.3820784091949463,0.05021702,0.042999785,808.1299699943188,1.674372639233568,4.251603189772408,0.0,19200,2.603121757507324,0.030050676769482327,0.017455841702478114,1723134,-60.31905883215002,0.0
91,12.200827360153198,787.6280902084394,893.2764601770214,1945.0373233782263,-574.8206673959568,0.0,1.9643424824925344,0.1,0.012590646743774414,0.3656032085418701,0.050044764,0.0517132,806.0797820157309,1.58598348445975,3.9118758332734953,0.0,19200,2.6079394817352295,0.03319832761127609,0.02342325027767677,1742334,-273.20080249090813,0.0
92,12.207207202911377,1114.5452727701384,869.5487376571133,2005.8361333359846,-828.8309570340102,0.0,1.843607449863862,0.1,0.013190031051635742,0.36908555030822754,0.051067185,0.05676713,836.9263310911717,2.0657925580311836,5.5447353052300725,0.0,19200,2.615732431411743,0.021242151816795,0.01488974915237358,1761534,-588.2251331151506,0.0
93,12.117012023925781,757.2630008759306,1031.2096043501033,1993.2551850985076,-3599.2441736669784,0.0,1.8190979120346014,0.1,0.013717889785766602,0.38043951988220215,0.049884923,0.044864487,828.9599980696476,1.5505008878442357,3.759884050389038,0.0,19200,2.712580680847168,0.07846461427456994,0.04321112951492527,1780734,-359.8257960970774,0.0
94,12.262251377105713,926.629968955331,1020.3149629283363,1969.2973295223474,-4214.208204801478,0.0,1.999380161544657,0.1,0.01402425765991211,0.38501930236816406,0.04938697,0.037474293,838.7269951582159,1.879921607726546,4.6074325639597395,0.0,19200,2.7156121730804443,0.06107064808737159,0.028519719265351646,1799934,-565.7806427409718,0.0
95,12.274742603302002,844.9561962474023,894.5115067412563,2010.025675175248,-252.82624790805053,0.0,2.1030196872116687,0.1,0.013169050216674805,0.35282063484191895,0.049188126,0.044029407,839.3499152671346,1.661796905466297,4.197662932138746,0.0,19200,2.721984624862671,0.04398033008286537,0.021787459985377223,1819134,192.99709754786775,0.0
96,12.154520034790039,994.0622454259097,913.1472292326449,1974.200717818925,-350.36390694856317,0.0,1.8898281817346896,0.1,0.012670040130615234,0.34738874435424805,0.04950537,0.065489404,854.8211482830121,1.8978048331564323,4.942241021787331,0.0,19200,2.6495232582092285,0.01725653092601521,0.013436519994451702,1838334,-203.21325771792044,0.0
97,12.27797794342041,911.070264391683,962.208066868346,1997.3575301507815,-1636.4728005097957,0.0,1.858056450223085,0.1,0.013254404067993164,0.405897855758667,0.05102733,0.040689122,860.4460598938792,1.7711392568582223,4.52987817349426,0.0,19200,2.634549617767334,0.035405740155569576,0.023685395584125583,1857534,424.56234622026807,0.0
98,12.17095947265625,857.8014422946927,937.6596225370016,1979.865194323713,-1018.6843870994952,0.0,2.106228058023719,0.1,0.012982368469238281,0.3445308208465576,0.049806837,0.046673045,860.1815981339605,1.6447552589009213,4.2633630936962055,0.0,19200,2.5703532695770264,0.014363552516519383,0.008984261277610513,1876734,4.030019143434657,0.0
99,12.392636060714722,860.6651932482761,911.6051922546753,2020.1969843292904,-273.2109988940023,0.0,2.0208716636470054,0.1,0.013072013854980469,0.3768348693847656,0.049239285,0.048407596,860.2299576453921,1.6817655304483707,4.2767644064358485,0.0,19200,2.5554375648498535,0.027996728576532584,0.024339968465403282,1895934,313.84024362410906,0.0
100,12.518474102020264,1045.4687747804016,916.6056808678076,2033.549490373023,-401.268632259546,0.0,1.9060743247652687,0.1,0.012719154357910156,0.4492325782775879,0.049589504,0.07709905,878.7538393588931,1.967005566454965,5.199944064543966,0.0,19017,2.5429346561431885,0.014011302872765991,0.00912443391755086,1914951,-57.132425919410196,0.0
101,12.285345554351807,955.2308907457585,933.3089805807588,2025.3584983978503,-318.9799251737379,0.0,2.0039164574171116,0.1,0.01277613639831543,0.3608696460723877,0.049676634,0.049959138,886.4015444975796,1.830471015220457,4.74813803304788,0.0,19200,2.533162832260132,0.018666089356003113,0.014277093263968293,1934151,412.0108625515612,0.0
102,12.132537364959717,1096.5787939347108,902.8566994141071,2020.4764562666478,-375.8193591737572,0.0,2.0720306726269424,0.1,0.013347864151000977,0.39141368865966797,0.048402622,0.05180438,907.4192694412927,2.04063912776923,5.457204709757424,0.0,19200,2.602621555328369,0.017411132120958513,0.009891997608702803,1953351,524.8830867777938,0.0
103,12.42308497428894,951.3900982932701,869.3539117997012,2034.503332363171,-183.6203233432777,0.0,1.8208810024173434,0.1,0.012977123260498047,0.2911663055419922,0.0502388,0.05025186,911.8163523264906,1.9038239325363058,4.731319936659046,0.0,19200,2.6447391510009766,0.03498333536322929,0.024868675476709297,1972551,616.2726296962724,0.0
104,12.520171165466309,1004.6446202457868,903.8366977599021,2035.7546148521983,-484.31241403162227,0.0,2.0459848980052393,0.1,0.012590169906616211,0.2894139289855957,0.05017813,0.0477575,921.0991791184202,1.9533506697870688,4.99696120397533,0.0,19200,2.6474978923797607,0.021703656517535815,0.018306287181487527,1991751,200.33437299285913,0.0
105,12.361122131347656,990.4339152280705,900.7327482565962,2022.960221894428,-250.30554386661277,0.0,1.7880796222956659,0.1,0.013188600540161133,0.3381655216217041,0.049995914,0.065438844,928.0326527293853,1.9046668264100284,4.926092689004034,0.0,19200,2.6580028533935547,0.021375754038658754,0.016112575911333145,2010951,-546.2000442982728,0.0
106,12.525434970855713,989.6173829296586,926.2840069699457,2015.1651724858812,-300.4654552548711,0.0,2.0513387065683926,0.1,0.013419151306152344,0.30939221382141113,0.05029579,0.04843073,934.1911257494127,1.8815057735599712,4.921353789346029,0.0,19200,2.6642608642578125,0.015983568081738137,0.012791200974101457,2030151,-523.7142206335795,0.0
107,12.219464302062988,910.8034701922961,919.7013805122314,2005.1647518556658,-434.98831748228116,0.0,1.9526546321636014,0.1,0.012748956680297852,0.2983522415161133,0.04982556,0.052681953,931.8523601937011,1.7863056558924473,4.5294700671328485,0.0,19200,2.6332788467407227,0.015394007493087314,0.011665543109925859,2049351,681.847403365794,0.0
108,12.433343410491943,1171.419325828919,854.5831777996243,2055.1461850630226,-196.9435018698723,0.0,2.067637270169499,0.1,0.013475179672241211,0.36339640617370605,0.049982563,0.050274897,955.8090567572228,2.1879082147191125,5.827413785104189,0.0,19200,2.690507411956787,0.01846470057794134,0.013423437896464305,2068551,-574.908490973831,0.0
109,12.479427099227905,1079.6404988985955,893.9407256519427,2011.1131546443398,-195.93424623642937,0.0,2.0064003023025463,0.1,0.013453245162963867,0.41391634941101074,0.04986157,0.05046154,968.1922009713601,2.0396817447724644,5.370785954405093,0.0,19200,2.6998913288116455,0.016709229257715008,0.012573527348504334,2087751,-156.936535598549,0.0
110,12.30416989326477,962.976112099651,910.9601524582715,2045.630789453383,-334.2734091289966,0.0,1.9763617298612977,0.1,0.012870550155639648,0.43967318534851074,0.050861057,0.046479147,967.6705920841893,1.861823326796446,4.787426501979957,0.0,19200,2.6880083084106445,0.018721317497458183,0.013286394108637455,2106951,970.670688733478,0.0
111,12.272415399551392,1107.1485715727615,943.1113813348709,2016.1338165410787,-2005.6405740420282,0.0,1.9458785684661843,0.1,0.013706684112548828,0.4245920181274414,0.050465744,0.044865005,981.6183900330465,2.086970551796131,5.506022382989293,0.0,19200,2.622570753097534,0.03221942094572084,0.019005223248878156,2126151,574.9790374640946,0.0
112,12.433684825897217,933.472481181581,947.9483363609992,1994.7247235079785,-1833.3864481395703,0.0,1.7608313827852111,0.1,0.012305974960327148,0.4059617519378662,0.050416663,0.04984989,976.8037991478999,1.813938379479838,4.64057789797542,0.0,19200,2.597960948944092,0.021350319896359264,0.013596487594319907,2145351,7.513475903164988,0.0
113,12.84621262550354,821.2933407371717,899.9838823490894,2025.4161911670055,-408.47905693078053,0.0,1.8589565734046363,0.1,0.012431144714355469,0.43480634689331055,0.04994688,0.04941651,961.252753306827,1.6646151031873109,4.079985750984856,0.0,19200,2.6520652770996094,0.03306418570854483,0.023390448364041853,2164551,-562.1202040406812,0.0
114,12.33702039718628,1075.3046333351149,940.2989294535762,2064.516397741521,-210.5915441396642,0.0,1.720211406481555,0.1,0.012522459030151367,0.29908204078674316,0.04930614,0.0735287,972.6579413096558,2.0057713190586166,5.352003366427335,0.0,19200,2.683586597442627,0.011616017559528668,0.006748773344223306,2183751,-313.14838126828175,0.0
115,12.286889553070068,980.6815515573766,937.4451352167803,2016.1591910903207,-498.603491148872,0.0,2.1885958304102986,0.1,0.012641429901123047,0.3032529354095459,0.04956255,0.043092493,973.460302334428,1.8475200228042734,4.876908864569618,0.0,19200,2.6159424781799316,0.014865373247876363,0.01126022381928311,2202951,-602.7950838007466,0.0
116,12.401576519012451,1144.9757296480518,912.985489628643,2042.9422334549724,-788.9615052373231,0.0,2.00800056128987,0.1,0.012301921844482422,0.3404409885406494,0.04964504,0.0509872,990.6118450657904,2.0802287184336135,5.697180359822497,0.0,19200,2.625169038772583,0.012750650205684284,0.008825748003686828,2222151,-835.3855332437568,0.0
117,12.219132900238037,987.3644255235031,959.5157227905423,2074.6109669144384,-259.0919071094149,0.0,1.9626059806272524,0.1,0.01247262954711914,0.3620173931121826,0.049561013,0.044520102,990.2871031115617,1.8699222156355013,4.911220765386616,0.0,19200,2.62284779548645,0.017876406820027356,0.010584929910711655,2241351,637.2326911009195,0.0
118,12.35615873336792,1016.3007285025915,936.8206291668035,2068.796397498493,-533.5950602940392,0.0,2.011957034677094,0.1,0.013396739959716797,0.39510154724121094,0.049329348,0.054715145,992.8884656506647,1.8779158866262946,5.05467038229435,0.0,19200,2.5779941082000732,0.019435280805375564,0.013419667243896972,2260551,873.3575083325039,0.0
119,12.342247009277344,1044.550351519844,905.1209992337472,2074.0539579755346,-433.9065267730636,0.0,1.9247651960423835,0.1,0.014037609100341797,0.3689002990722656,0.04885504,0.04687715,998.0546542375826,1.9733590060484854,5.195940614378397,0.0,19200,2.587587356567383,0.028723083449252302,0.021614908479539157,2279751,726.0621641823273,0.0
120,12.42121410369873,1172.224990103028,902.0347868309647,2117.765880358344,-210.33577483659965,0.0,1.7466461620187312,0.1,0.012501001358032227,0.35001087188720703,0.050321992,0.064620204,1015.4716878241271,2.134225466881285,5.832774940661103,0.0,19200,2.594759464263916,0.01074107071103947,0.008318810768572073,2298951,637.9819978283426,0.0
121,12.332236766815186,1148.261916113747,905.9909398740185,2086.959675295898,-264.0200575518742,0.0,1.9518399258366295,0.1,0.012624025344848633,0.31721043586730957,0.04967785,0.051353257,1028.750710653089,2.091074839962257,5.7127736960349935,0.0,19200,2.6064910888671875,0.014764715283429297,0.011479659963676146,2318151,693.8606416452333,0.0
122,12.552129983901978,1116.9721766159798,925.5500532469615,2072.415524876048,-492.50048181167347,0.0,1.9682551633581362,0.1,0.014317989349365234,0.3672654628753662,0.050636526,0.042625606,1037.572857249378,2.0617486646195196,5.5589232548533465,0.0,19200,2.692309856414795,0.017577153584149276,0.011061763144678112,2337351,746.1773107747151,0.0
123,12.24614953994751,1153.108062633478,957.2210897777173,2114.347174928924,-1504.5850459180856,0.0,2.063221798158982,0.1,0.01259469985961914,0.38022494316101074,0.049196307,0.03945154,1049.1263777877882,2.133712143927178,5.737562435089406,0.0,19200,2.711251974105835,0.029097269913761954,0.01892035347686761,2356551,144.97477591907915,0.0
124,12.379069805145264,1170.4800806153708,936.744241503635,2046.467374694181,-745.8205900178065,0.0,1.8765306793150505,0.1,0.01405191421508789,0.32935023307800293,0.050013985,0.046433836,1061.2617480705464,2.1643302446935486,5.82625198980109,0.0,19200,2.7202553749084473,0.015172208166448799,0.011337263651672286,2375751,365.923652199267,0.0
125,12.328356266021729,1089.0251802598757,957.7017190228328,2074.1098488401135,-157.85717024831004,0.0,2.009386403275912,0.1,0.012758016586303711,0.31422901153564453,0.0497517,0.04657718,1064.0380912894793,2.014860218904779,5.418363097121325,0.0,19200,2.6840627193450928,0.015453164771497312,0.0089588437947505,2394951,-406.0391406438802,0.0
126,12.556838274002075,1058.1661420723665,919.3782169721391,2032.20733920936,-132.13173215209102,0.0,1.8181314456179503,0.1,0.012851238250732422,0.3781416416168213,0.05010108,0.054495886,1063.450896367768,1.9712753756499957,5.262295275599041,0.0,19200,2.6469342708587646,0.01891069421317398,0.007994565228127444,2414151,-390.48443881233226,0.0
127,12.409156084060669,919.452256465429,931.6638492282805,2021.1421078619283,-260.01615640957635,0.0,1.95389350810058,0.1,0.013550996780395508,0.3428201675415039,0.050108314,0.049460933,1049.0510323775343,1.7582696524113264,4.570834681942272,0.0,19200,2.6515514850616455,0.015082925689738298,0.01119926615679849,2433351,556.7893323805946,0.0
128,12.22301959991455,1131.7039296023574,909.5813668390618,2119.7161219491913,-127.47454608313454,0.0,2.0386454451291027,0.1,0.012628555297851562,0.38132190704345703,0.05068958,0.049350504,1057.3163221000166,2.1130293109231015,5.631994868789598,0.0,19200,2.6538195610046387,0.012531706420452367,0.008659200379402088,2452551,561.2357560575517,0.0
129,12.685636758804321,1065.406073235506,950.2279529979783,2069.023715390697,-560.0600372939606,0.0,1.8925973470323914,0.1,0.012504100799560547,0.33122730255126953,0.05073855,0.048301123,1058.1252972135655,1.9957454904559826,5.299167237422474,0.0,19200,2.6769065856933594,0.01574087292480816,0.00868324518799235,2471751,614.2546278939742,0.0
130,12.402774333953857,1030.8552772679363,936.340403791248,2053.333626625221,-667.0618799747086,0.0,1.975095149845287,0.1,0.016701221466064453,0.32993054389953613,0.049652964,0.04441471,1055.3982952190026,1.942671700762278,5.1278258577220335,0.0,19200,2.7471656799316406,0.021760696979835986,0.010910286986600261,2490951,819.9996491924358,0.0
131,12.537578344345093,1167.1943322296238,895.0790108782697,2049.6874829534418,-204.91168211159666,0.0,1.8050454581806048,0.1,0.013048410415649414,0.3624589443206787,0.05009662,0.055226535,1066.5778989200649,2.138054277923096,5.807423850415429,0.0,19200,2.723210573196411,0.012606305916371083,0.0090539430130918,2510151,436.21702193599515,0.0
132,12.485037326812744,1093.211202957223,906.8431534752228,2034.7368215747958,-211.66815651799126,0.0,2.128621882193792,0.1,0.012760639190673828,0.36138033866882324,0.049535953,0.04813076,1069.2412293237808,2.0379289654386894,5.440929239208825,0.0,19200,2.718266725540161,0.016722164431543854,0.01422617623651139,2529351,458.75075479514413,0.0
133,12.807851076126099,1138.7584189922632,899.2203829421571,2035.1630359357162,-245.5391121304186,0.0,1.8039414316283495,0.1,0.01262211799621582,0.28845930099487305,0.051214684,0.05575568,1076.192948290629,2.1119416667284523,5.6672176601693875,0.0,19200,2.744234800338745,0.01611340569705215,0.013802302203216057,2548551,126.0940758090409,0.0
134,13.015369653701782,1089.9961732118281,915.2591405882577,2014.8840240765385,-163.89016950632822,0.0,1.9450982857632373,0.1,0.012748479843139648,0.353177547454834,0.05010284,0.043465205,1077.573270782749,2.0301040807793798,5.42231473078292,0.0,19200,2.7894413471221924,0.017437158668496433,0.012449798607870188,2567751,-137.32473780301365,0.0
135,12.396831274032593,1140.4249161911212,871.4056098840924,2082.206276780639,-178.56165267145323,0.0,1.7782974741967512,0.1,0.013279199600219727,0.3716471195220947,0.049353503,0.052814253,1083.8584353235863,2.101354713531878,5.674091062985276,0.0,19200,2.8065075874328613,0.02471429883974649,0.015028715905716774,2586951,21.04208048303161,0.0
136,12.630039930343628,1011.853866385773,1000.3607441682431,2023.1505922016356,-2096.00129265363,0.0,1.8614991053340053,0.1,0.01299738883972168,0.3515756130218506,0.050391655,0.04550656,1076.6579784298049,1.8780858581801887,5.030940334404768,0.0,19200,2.7656397819519043,0.022110541142771317,0.011385113225323524,2606151,232.91069802651245,0.0
137,12.644220113754272,1233.023957155402,945.7385808588691,1998.8441804295946,-2629.3758116600548,0.0,1.9927180401854585,0.1,0.013216495513916016,0.38439011573791504,0.050222524,0.052559797,1092.2945763023645,2.209238336279189,6.136772949056547,0.0,19200,2.733488082885742,0.019589495836559986,0.010145000348992515,2625351,644.6220376807203,0.0
138,12.863250494003296,1127.022752946174,907.366314711508,2050.22638349996,-294.3544593253078,0.0,2.0748589617879483,0.1,0.012692928314208984,0.321213960647583,0.04966494,0.042438865,1095.7673939667454,2.087138257952225,5.608283793061049,0.0,19200,2.733553409576416,0.02307834453868112,0.015275040581077407,2644551,-137.42239419623536,0.0
139,12.680107355117798,1242.2025444743708,853.5986005597068,2078.126322680602,-607.2401157136605,0.0,2.127468393638853,0.1,0.013085126876831055,0.3644747734069824,0.050130032,0.045456115,1110.410909017508,2.271239671293895,6.182097000668693,0.0,19200,2.735609769821167,0.021127089611674754,0.01394597549896627,2663751,-53.56247874313729,0.0
140,12.428451538085938,1374.9513176781813,793.1171894307022,2051.626003280726,-128.48852026644235,0.0,1.8583821275443835,0.1,0.0129547119140625,0.3426551818847656,0.05051085,0.04936279,1136.8649498835753,2.450764728104231,6.8473609589628746,0.0,19200,2.7481436729431152,0.01420195482561268,0.010232701902851832,2682951,912.4617460646054,0.0
141,12.680179119110107,1188.229082870749,901.9802012580188,2041.7447941135886,-206.36937729488108,0.0,2.090812392745064,0.1,0.012852668762207031,0.3443453311920166,0.050144773,0.040969722,1142.0013631822926,2.1443314216633396,5.912065407865733,0.0,19200,2.7511518001556396,0.011603224648897752,0.008754994778321482,2702151,1131.4975952567406,0.0
142,12.353566408157349,1100.5965801106051,1031.9715603321647,2039.7622954303024,-3813.971818216535,0.0,1.7643211968031751,0.1,0.012610435485839844,0.32030797004699707,0.049948648,0.047015518,1137.860884875124,2.0837581241414616,5.4757777625293516,0.0,19200,2.7495224475860596,0.08342645979183098,0.02639734342454873,2721351,1175.1043692056069,0.0
143,12.431746006011963,1317.9581412115583,822.4564923271147,2038.7488632525399,-114.72704004193619,0.0,2.098717914791021,0.1,0.012447118759155273,0.3031299114227295,0.049587544,0.048823383,1155.8706105087674,2.3771706541662394,6.561250545127145,0.0,19200,2.7400240898132324,0.02892038505027976,0.015245698785224344,2740551,1087.3273779692977,0.0
144,12.70961594581604,1375.6977413333116,918.2818913613862,2066.9100966793126,-3875.4412167318314,0.0,1.7909347215944982,0.1,0.012703418731689453,0.35286855697631836,0.050109196,0.050891824,1177.8533235912219,2.4932747960121104,6.851063390729382,0.0,19200,2.742748260498047,0.03187819152061867,0.013548462279544688,2759751,1084.664283022572,0.0
145,12.673777341842651,1012.8177518370882,926.4693856413799,2048.1497806273082,-796.7866471953361,0.0,1.8312188396275428,0.1,0.012911796569824219,0.30831241607666016,0.049679566,0.050054837,1161.3497664158085,1.8780800496231356,5.036943629793364,0.0,19200,2.7382407188415527,0.056869325436549434,0.011433877680260295,2778951,942.0133745394976,0.0
146,12.600656747817993,1313.1149557335873,862.1800265694346,2028.3581195941251,-494.58542023975224,0.0,1.876828364184993,0.1,0.012949943542480469,0.2673332691192627,0.050923813,0.04722453,1176.5262853475865,2.3332107482126703,6.537284434584734,0.0,19200,2.7586541175842285,0.011386710657132806,0.006121176691442513,2798151,1071.6749540040182,0.0
147,12.470890522003174,1248.2070704571834,1052.2235380370992,2079.927439654788,-4503.946181923204,0.0,1.8531705267493794,0.1,0.013389348983764648,0.3303565979003906,0.04938478,0.045110866,1183.6943638585462,2.3326531663594015,6.21417036328824,0.0,19200,2.766671657562256,0.05851915482974955,0.01957997968194406,2817351,727.8751669345295,0.0
148,12.496657371520996,1357.388260356054,817.8597908995935,2054.2972485740584,-163.54166719582096,0.0,1.9148610136674824,0.1,0.012920618057250977,0.34035539627075195,0.049914766,0.053880896,1201.063753508297,2.4357984882463417,6.759191644774009,0.0,19200,2.794706106185913,0.008680501867317385,0.005260342063358321,2836551,-126.52095657074571,0.0
149,12.860371589660645,1192.4622504929032,921.0423202535752,2104.1571121102047,-409.61390911769826,0.0,1.8981343052580542,0.1,0.01272892951965332,0.3426210880279541,0.04900827,0.05120993,1200.2036032067576,2.146458300882506,5.93526837997258,0.0,19200,2.8198509216308594,0.009075713853977495,0.006789442992007522,2855751,22.05083886276691,0.0
150,13.14887809753418,1092.076445720545,952.9347050474365,2058.656641240193,-272.3000941792216,0.0,1.7679578169005095,0.1,0.012778997421264648,0.2922627925872803,0.050839297,0.056870427,1189.3908874581364,1.9862217113759584,5.433337490428698,0.0,19200,2.8310580253601074,0.011778501055013544,0.00678771093514707,2874951,-191.4831305846448,0.0
151,12.53505825996399,1121.007780343852,902.5150975971297,2069.1635085239263,-687.9648568605102,0.0,1.7490653165117207,0.1,0.013628005981445312,0.28905272483825684,0.050294444,0.05422479,1182.552576746708,2.093333350602278,5.575323375492894,0.0,19200,2.8621866703033447,0.031521162032136237,0.02038569584920619,2894151,311.4721650391296,0.0
152,12.575403928756714,1203.5267512662988,902.2753185871676,2039.3606370859725,-216.70837337860155,0.0,1.729077527618212,0.1,0.012710332870483398,0.3016932010650635,0.05029091,0.053721726,1184.6499941986672,2.1980048811642323,5.989647062423484,0.0,19200,2.894167900085449,0.018553453519764843,0.011706572367419461,2913351,93.01071648681287,0.0
153,12.631303071975708,1296.81849104927,842.6196572435739,2024.2097072370607,-298.05542530019176,0.0,1.7302161049445604,0.1,0.01348876953125,0.27637767791748047,0.048865292,0.058713786,1195.8668438837276,2.3308746493732717,6.456054855419708,0.0,19200,2.8915021419525146,0.01703277672348112,0.008142936664443259,2932551,-1.8719496275950291,0.0
154,13.070422649383545,1224.7420740387488,1056.6970968932212,2053.8510376143768,-4782.6925160226365,0.0,1.6603064037433326,0.1,0.014575958251953125,0.27654385566711426,0.050318945,0.049388554,1198.7543668992298,2.263532384571736,6.095174125994665,0.0,19200,2.8555009365081787,0.07463785686889562,0.024681550914842282,2951751,360.73324036469006,0.0
155,13.083619832992554,1215.661730093538,854.2362235008245,2038.295203882234,-129.0897950465838,0.0,1.7449360611992732,0.1,0.012944698333740234,0.27601003646850586,0.04936876,0.06324912,1200.4451032186607,2.2161527280714624,6.050890078167254,0.0,19200,2.8162760734558105,0.02242139846647428,0.012061234688374008,2970951,-117.19479280684385,0.0
156,12.740302085876465,1235.7752566530291,931.2562136147901,2055.8387799105853,-1796.1873125801596,0.0,1.7727663269756166,0.1,0.012607574462890625,0.26468443870544434,0.049936775,0.03470439,1203.9781185620977,2.2768564956938024,6.152002408069163,0.0,19200,2.853599786758423,0.018512584920211114,0.009704777201399556,2990151,43.78145578637026,0.0
157,12.503523349761963,1187.4327072839676,933.853287637111,2054.2664118244725,-195.82844301625352,0.0,1.6904361672727408,0.1,0.01253652572631836,0.27767276763916016,0.048313394,0.059933726,1202.3235774342847,2.1451418632938104,5.912341550220105,0.0,19200,2.8654348850250244,0.00790251355054852,0.005629875075420389,3009351,108.34827239657699,0.0
158,12.5215425491333,1106.0874421901183,897.6688111687688,2009.9067754356315,-185.73788002222713,0.0,1.7114817828372446,0.1,0.012441158294677734,0.28121399879455566,0.050333608,0.07029486,1192.6999639098683,2.047881646259855,5.502734147784554,0.0,19200,2.787937641143799,0.022675724958111758,0.013929041148531489,3028551,-120.55627453312445,0.0
159,12.665256977081299,1158.4157785596576,922.1515729225492,2040.5103852433733,-265.1911942319816,0.0,1.8732478356102065,0.1,0.013346672058105469,0.2890005111694336,0.049568154,0.04839608,1189.2715453748474,2.1025976032327325,5.7635819337509,0.0,19200,2.804121255874634,0.013604756168939728,0.00998569618747554,3047751,445.055727141372,0.0
160,12.48970890045166,1114.1022623503618,1040.773553476409,2039.7942185116378,-2640.992784256075,0.0,1.5465478047929273,0.1,0.012572050094604492,0.26748108863830566,0.048578195,0.050216816,1181.7546170723988,2.0629615015590637,5.54338422680861,0.0,19200,2.7780818939208984,0.05335960375445915,0.0131573243818339,3066951,606.8514625430005,0.0
161,12.814829349517822,1363.5911835699333,826.9211680460867,2089.777125092941,-110.55946790584485,0.0,1.9235634383733988,0.1,0.013119220733642578,0.26978516578674316,0.050586037,0.051099937,1199.9382737221522,2.432467768009392,6.791159596593161,0.0,19200,2.755760431289673,0.008182218193221267,0.0061540926932767215,3086151,767.6378046353698,0.0
162,12.697091102600098,1212.155441768015,901.1219933850068,2048.25669132899,-393.3932104879595,0.0,1.884604778694067,0.1,0.013191938400268555,0.26952528953552246,0.049336802,0.044766974,1201.1599905267385,2.19552734694191,6.0311132311932125,0.0,19200,2.821608304977417,0.013507668673981373,0.010688117379768927,3105351,710.8855244200286,0.0
163,12.79330325126648,1163.191892669276,903.7848611996995,2037.8828340340178,-138.74809979603612,0.0,1.8956106702492943,0.1,0.013083219528198242,0.2681746482849121,0.049946465,0.047608748,1197.3631807409924,2.1426753977283926,5.789183828001135,0.0,19200,2.7816104888916016,0.014191013854112262,0.010825642112091428,3124551,474.519847767286,0.0
164,12.77117919921875,1315.0051081375611,874.3960423240964,2075.226697701227,-316.34145094539144,0.0,1.8810175160635576,0.1,0.012544870376586914,0.27756571769714355,0.050968666,0.046160635,1209.1273734806493,2.355836654400163,6.546488984082625,0.0,19200,2.7190897464752197,0.012526681819635245,0.00914242014404701,3143751,854.9249544540166,0.0
165,12.410090446472168,1342.359873519039,1004.6253808606019,2062.3344610365148,-4282.278868444871,0.0,1.7167965165135481,0.1,0.012681007385253906,0.26714468002319336,0.0517032,0.050951228,1222.4506234844885,2.4235946025537403,6.682316982443332,0.0,19200,2.6787939071655273,0.05573318614067289,0.03294096483841709,3162951,1042.4812859679582,0.0
166,12.494041919708252,1220.8518908126555,901.6045100563935,2117.088757803627,-222.85656046315438,0.0,1.5971810816971757,0.1,0.013689279556274414,0.2767934799194336,0.05107033,0.059152704,1222.2907502173052,2.222495744583147,6.07568539405252,0.0,19200,2.7119293212890625,0.013708538197975455,0.009788048993017882,3182151,659.7364552521487,0.0
167,12.721496820449829,1230.0670985088993,1153.2679320581851,2086.572399937848,-6379.0895729783915,0.0,1.6519111445073646,0.1,0.014154672622680664,0.31284141540527344,0.050722964,0.04463172,1223.0683850464648,2.2983347257892284,6.1228615038167,0.0,19200,2.7206809520721436,0.08827088887858386,0.020148936117356412,3201351,766.9751127299496,0.0
168,13.212069272994995,1264.1092746146942,864.7315069060426,2030.8756988363612,-237.2061104019236,0.0,1.7711182214579386,0.1,0.014431238174438477,0.2850666046142578,0.049895775,0.05948807,1227.1724740032876,2.2584241861312937,6.293601036784761,0.0,19200,2.6861555576324463,0.018017390917441152,0.010977207633028613,3220551,966.3582676961885,0.0
169,12.613843441009521,1278.0289003624596,862.3695711717858,2151.275006688145,-212.51959353441055,0.0,1.7747160098639654,0.1,0.013100385665893555,0.2959420680999756,0.050144784,0.050890923,1232.258116639205,2.311034780253237,6.361572636709173,0.0,19200,2.7490618228912354,0.013255686181112758,0.009876608685036599,3239751,730.1532170171827,0.0
170,12.409575939178467,1256.7639734939232,870.8079860823955,2105.165462220532,-225.56609010056783,0.0,1.8871362271100154,0.1,0.012681961059570312,0.26717686653137207,0.049778793,0.046109315,1234.7087023246768,2.282464633781562,6.256999530132163,0.0,19200,2.6918585300445557,0.025162881657015034,0.01765045125865421,3258951,787.969257821685,0.0
171,12.558887481689453,1151.6084377262912,1023.7764679835307,2029.629022445197,-3500.895172967217,0.0,1.5923972169286331,0.1,0.012789249420166016,0.27798962593078613,0.049745027,0.0537285,1226.3986758648382,2.12397072938557,5.730546894039108,0.0,19200,2.775377035140991,0.02297577682241731,0.013164223685068468,3278151,993.8394625232826,0.0
172,12.609426975250244,1206.2188286862345,921.2970408953605,2143.0030399008215,-815.9148955461691,0.0,1.6480162971203267,0.1,0.01260685920715332,0.2865719795227051,0.049318466,0.063443184,1224.3806911469778,2.1712798670141367,6.003438264491668,0.0,19200,2.7795963287353516,0.041350767343562404,0.013872442380615668,3297351,522.8818240603551,0.0
173,12.57586145401001,1377.828671621928,813.6443215441798,2102.0897132627265,-271.99120779708386,0.0,1.8155352398483375,0.1,0.013023614883422852,0.2760639190673828,0.050784905,0.061279655,1239.7254891944729,2.457014426210072,6.859993228913218,0.0,19200,2.704500436782837,0.013943204604800022,0.009450846576785799,3316551,555.9669077195454,0.0
174,13.009483337402344,1286.96392370499,834.822312383335,2067.223654446085,-173.98556739087437,0.0,1.9045283505510153,0.1,0.012978553771972656,0.2734963893890381,0.048995133,0.05237785,1244.4493326455247,2.323658425969926,6.404528362900714,0.0,19200,2.6376826763153076,0.014656428116172427,0.010179496540165067,3335751,665.1892899541118,0.0
175,12.921822547912598,1220.6001480987834,885.8467920419338,2098.158314050553,-132.4527349587263,0.0,1.690835622094528,0.1,0.01263737678527832,0.2739086151123047,0.04947996,0.0493557,1242.0644141908506,2.2336014064677467,6.075850743486577,0.0,19200,2.617690086364746,0.015354398022309814,0.012235911742988412,3354951,1047.8353837611692,0.0
176,12.543867111206055,1421.0352478767918,802.3152372829375,2057.294858636834,-280.83230584911985,0.0,1.801572126523925,0.1,0.012542724609375,0.27930402755737305,0.051026676,0.05643527,1259.9614975594448,2.5089089076188684,7.074909792273618,0.0,19200,2.637758731842041,0.008114060075247516,0.005975249175507897,3374151,737.5561158502742,0.0
177,12.812670469284058,1341.0650841140016,847.2066162201405,2097.7986033454863,-240.71654241002693,0.0,1.7921554606963446,0.1,0.013004779815673828,0.27542686462402344,0.048750363,0.05401803,1268.0718562149004,2.3720497897097865,6.674976457176662,0.0,19200,2.679941177368164,0.010138932810100384,0.007690014047674042,3393351,-24.121250512510983,0.0
178,12.484687805175781,1243.5499733139047,879.0083453134513,2026.2579336935785,-189.97336682928227,0.0,1.7265526124243826,0.1,0.012811660766601562,0.277773380279541,0.04949168,0.06659712,1265.619667924801,2.2223520822555396,6.188634104107369,0.0,19200,2.6687183380126953,0.005376666307675369,0.0026421325968619394,3412551,145.4727271209208,0.0
179,12.620071172714233,1199.8869972010832,928.6683950244253,2095.069497044744,-886.04962082595,0.0,1.5960696748321181,0.1,0.012675285339355469,0.2703745365142822,0.049482584,0.054511536,1259.0464008524293,2.11720576979571,5.973257751878293,0.0,19200,2.6919753551483154,0.014507560838901494,0.009509857752579148,3431751,603.8578767727191,0.0
180,12.501500606536865,1451.3355674009126,827.0472629149565,2078.2409693797536,-193.0505652859237,0.0,1.7610543322644063,0.1,0.013987302780151367,0.2730128765106201,0.050585344,0.05787663,1278.2753175072778,2.546325180940732,7.228707869247461,0.0,19200,2.685755729675293,0.0047964222602848985,0.0027623722983450352,3450951,107.1955656218343,0.0
181,12.679689168930054,1345.6062466396113,855.3664204701996,2108.889180641183,-153.12982359895958,0.0,1.5602824560259643,0.1,0.014070272445678711,0.2970147132873535,0.049449235,0.06766375,1285.0084104205112,2.40565122696243,6.699108671026321,0.0,19200,2.671959638595581,0.01232845299935562,0.007041348333053582,3470151,681.4449165145953,0.0
182,12.842681884765625,1394.6309344591427,881.9509572603307,2037.592962247421,-2394.53158522868,0.0,1.7297070189728407,0.1,0.014044761657714844,0.2704927921295166,0.0493333,0.05339593,1295.9706628243744,2.436565669404413,6.944064793351042,0.0,19200,2.700617790222168,0.0232873039287933,0.01422833521778734,3489351,843.6797314265614,0.0
183,12.558086633682251,1361.2061855824688,819.6649965084091,2098.3416970396,-244.32575269542727,0.0,1.6033150226871764,0.1,0.012315988540649414,0.27870988845825195,0.049935944,0.04977881,1302.4942151001837,2.4093018385605576,6.776971677131706,0.0,19200,2.7953073978424072,0.01174635593522444,0.007937406662377732,3508551,789.590703663215,0.0
184,12.545750856399536,1388.7309291083518,860.9036546873914,2074.241344874272,-270.97243177483887,0.0,1.4870549492224119,0.1,0.013860940933227539,0.2980210781097412,0.05088008,0.086298965,1311.1178865010006,2.461438136726942,6.915014593761573,0.0,19200,2.7479300498962402,0.003500387430798427,0.0022780237532093158,3527751,837.8296395295289,0.0
185,12.620470762252808,1369.1048915692238,886.0194601548936,2059.2595398068397,-1002.0148592727527,0.0,1.5940506815033586,0.1,0.012767553329467773,0.2771327495574951,0.050128702,0.056695454,1316.9165870078232,2.356179005851135,6.8170521726914375,0.0,19200,2.7689568996429443,0.0053073851250825445,0.003835725531333689,3546951,-614.6465986584031,0.0
186,12.827218055725098,1232.3126325688406,1126.282385176068,2043.8289354440262,-3794.32634455088,0.0,1.8271760021948853,0.1,0.013130664825439453,0.2759983539581299,0.049777895,0.045941696,1308.4561915639251,2.2795141287748364,6.1344476950904685,0.0,19200,2.7835328578948975,0.07256322350825742,0.022701222489837358,3566151,-606.8395104005098,0.0
187,12.575682640075684,1525.751992828916,715.6649615000399,2091.1646509061443,-248.62184500078047,0.0,1.7449528849909437,0.1,0.012924432754516602,0.27230048179626465,0.04997289,0.057623442,1330.1857716904242,2.68254919662661,7.599642442189058,0.0,19200,2.757336139678955,0.00900165638465774,0.005240654544759647,3585351,-1093.3618767288333,0.0
188,12.98998475074768,1270.8839255588348,880.1636280228306,2117.401048495048,-160.59167500118912,0.0,1.8779025238017852,0.1,0.012336254119873047,0.27728724479675293,0.049991317,0.047669914,1324.2555870772653,2.298931103232269,6.327560411650624,0.0,19200,2.7599172592163086,0.014602556590272063,0.011870401691326327,3604551,-27.173968642464388,0.0
189,12.596592903137207,1362.874684602678,929.8738518163112,2103.7283797060463,-2479.311206949946,0.0,1.6515115396601139,0.1,0.013762712478637695,0.2781088352203369,0.04951066,0.057576656,1328.1174968298067,2.403614965055858,6.785552951277464,0.0,19200,2.7848823070526123,0.017171648462738102,0.011360172701307273,3623751,-232.62868926383274,0.0
190,12.717003345489502,1374.0289174213112,839.3967977855216,2125.4730581914296,-486.2618644936683,0.0,1.713474687630803,0.1,0.013852119445800781,0.2841460704803467,0.049978714,0.07853715,1332.708638888957,2.431637109874792,6.840986059302563,0.0,19200,2.815007209777832,0.008830192845596612,0.006623039094013352,3642951,364.44138106318974,0.0
191,12.440376996994019,1266.2244534307463,892.9937371829411,2082.5099654006817,-695.5520959820653,0.0,1.7995002886659743,0.1,0.012555122375488281,0.2770349979400635,0.050330553,0.049331397,1326.0602203431358,2.311565168252802,6.301366833461107,0.0,19200,2.828613519668579,0.02503264735708584,0.012446371009366543,3662151,452.8554194888586,0.0
192,12.577859163284302,1460.4762320936236,798.4597852986249,2056.789077721631,-113.21106678390541,0.0,1.7282079304052673,0.1,0.013222455978393555,0.2781686782836914,0.05080288,0.06539862,1339.5018215181847,2.568304895055671,7.273769364129454,0.0,19200,2.8511524200439453,0.005462391764290589,0.002073179566682988,3681351,871.1003211505747,0.0
193,12.68801212310791,1310.8548302494155,869.5603759362446,2140.785532714509,-894.7509998889567,0.0,1.625481376099377,0.1,0.012983083724975586,0.2808232307434082,0.049289625,0.052525204,1336.637122391308,2.309737719624415,6.525959596047914,0.0,19200,2.8431918621063232,0.015370307117037733,0.006545051358650136,3700551,720.6848021902538,0.0
194,12.487932920455933,1232.1797422939837,944.0868100819624,2073.6450374238475,-1232.0010973218043,0.0,1.7562130054873768,0.1,0.01268458366394043,0.3228936195373535,0.04977325,0.04939899,1326.1913843815755,2.2146887618441498,6.13235331630777,0.0,19200,2.8238697052001953,0.022760090838058765,0.008648410196591926,3719751,670.2848365707916,0.0
195,12.909974575042725,1541.624896093941,725.5875752391623,2072.6059492050226,-152.8542577258106,0.0,1.650342844747823,0.1,0.01434946060180664,0.3027956485748291,0.049927723,0.055435847,1347.7347355528123,2.721771340610489,7.678435600610086,0.0,19200,2.8298234939575195,0.007723700817056443,0.003944925699016339,3738951,926.8168179119978,0.0
196,12.600519180297852,1392.1371432374629,817.4929323001799,2096.480591722548,-179.18363843926915,0.0,1.869463514630723,0.1,0.013695240020751953,0.28168344497680664,0.049279775,0.04386052,1352.1749763212772,2.4654101842389418,6.932432141235043,0.0,19200,2.827010154724121,0.009243130882716546,0.004854582576093754,3758151,1191.3547771206681,0.0
197,12.451823949813843,1258.8133584809063,904.3868595004969,2073.1295830539366,-395.23105182041894,0.0,1.7171527081278513,0.1,0.013120651245117188,0.27845096588134766,0.04932356,0.052800994,1342.83881453724,2.257961601583594,6.265489410128805,0.0,19200,2.831399440765381,0.0062344864583847555,0.0036916933447310118,3777351,1006.6594425624512,0.0
198,12.771118879318237,1178.7452567469725,946.9173008287249,2120.258240622938,-820.8235886784583,0.0,1.7126679882830904,0.1,0.013570785522460938,0.27830028533935547,0.04988188,0.054078,1326.4294587582133,2.1109391824267285,5.8652246017116205,0.0,19200,2.8437509536743164,0.0057480564503335175,0.004215526958825225,3796551,1148.2107071670475,0.0
199,12.688584566116333,1518.8099491600278,737.4928237080591,2084.2938596393174,-372.08244241740636,0.0,1.7824575105264053,0.1,0.014197349548339844,0.2908449172973633,0.049541395,0.060244005,1345.6675077983946,2.6747386923550196,7.563703748950924,0.0,19200,2.849916696548462,0.008166585944433423,0.0048349665618373314,3815751,1131.7093736312213,0.0
200,12.640793323516846,1372.5268418154421,804.9613367565854,2050.9713217193016,-218.66590792511306,0.0,1.7198521713959352,0.1,0.012546300888061523,0.27588415145874023,0.04947201,0.061557587,1348.3534412000995,2.453866208049474,6.833441446650636,0.0,19200,2.809414863586426,0.008279693776368767,0.005773750873164726,3834951,1047.0283168346973,0.0
201,12.752604246139526,1267.9868372224662,898.0829622781479,2075.660660215854,-285.8069422063569,0.0,1.5184323081723807,0.1,0.012851953506469727,0.2764737606048584,0.0500221,0.06635807,1340.316780802336,2.27908255523652,6.310917140519302,0.0,19200,2.7481741905212402,0.012345867185430697,0.00795895268170151,3854151,1314.1239924051258,0.0
202,13.068484783172607,1326.6361553049976,853.824064507019,2048.8997558485057,-303.12788166410877,0.0,1.8455216154355791,0.1,0.012887001037597656,0.2669966220855713,0.049449828,0.05623481,1338.9487182526022,2.3699850682741945,6.604617079196895,0.0,19200,2.7026896476745605,0.014521248211391584,0.009207712341764856,3873351,1266.1317339166003,0.0
203,12.728829860687256,1497.3939842773832,785.6352113359353,2146.3829194298874,-378.13753151692305,0.0,1.6516856649066707,0.1,0.012498140335083008,0.3309905529022217,0.05042528,0.055491116,1354.7932448550803,2.611165587372454,7.456949385311106,0.0,19200,2.728851079940796,0.006213787743820316,0.004490942765101137,3892551,724.7888133393523,0.0
204,12.598687648773193,1271.7920889173276,926.9557325993396,2104.232419700424,-1039.334434555917,0.0,1.6786071140065169,0.1,0.013036012649536133,0.31381797790527344,0.049628377,0.06293602,1346.493129261305,2.2935795591953263,6.330395650563692,0.0,19200,2.8352558612823486,0.013274015868639251,0.007717180363931327,3911751,1060.534967569178,0.0
205,12.783578634262085,1280.8534909226137,862.3888711299317,2137.7763053892586,-883.2450065922703,0.0,1.5124313544917976,0.1,0.012510299682617188,0.4206047058105469,0.049770422,0.07012445,1339.929165427436,2.2556377057105395,6.3749247843338095,0.0,19200,2.812333345413208,0.010461350122460761,0.006415154610811152,3930951,741.6486509437806,0.0
206,12.787803173065186,1262.6824115429388,971.7773850563841,2088.214402078909,-2250.3195663934407,0.0,1.5689720568220527,0.1,0.013278484344482422,0.33508777618408203,0.05089852,0.053319786,1332.2044900389863,2.2027653283846313,6.285420215245321,0.0,19200,2.8290467262268066,0.023430764692090284,0.015011625217902884,3950151,956.1927491542294,0.0
207,12.926469564437866,1552.5469992073897,769.0908955510093,2126.3031301830965,-1375.7903678760829,0.0,1.6839280150526663,0.1,0.014766454696655273,0.33776330947875977,0.050058037,0.060104575,1354.2387409558264,2.698060832129522,7.735253147888703,0.0,19200,2.8857905864715576,0.00908220365818806,0.005608909350691551,3969351,967.4083654180106,0.0
208,13.088521242141724,1407.2458212238396,800.8221667146024,2068.846203295375,-130.8839159393017,0.0,1.7766386088361266,0.1,0.013018608093261719,0.3203125,0.049317464,0.052202575,1359.5394489826278,2.507192762439894,7.006556257605008,0.0,19200,2.878633737564087,0.017357010481287148,0.010223354128220102,3988551,732.411416914139,0.0
209,12.71598768234253,1303.9930923719487,899.3990588305968,2106.016515357292,-1079.2573811073935,0.0,1.6956391058418883,0.1,0.01410055160522461,0.32460832595825195,0.04942281,0.050973106,1353.98481332156,2.3266462077580607,6.490855023755508,0.0,19200,2.9309029579162598,0.015762702160541892,0.011074172054493202,4007751,938.7355817778156,0.0
210,12.704393863677979,1402.2295976397056,787.5200231504799,2051.546324961078,-156.33677619858972,0.0,1.738823774057405,0.1,0.013910531997680664,0.3311789035797119,0.04952382,0.056549374,1358.8092917533745,2.4852981647927552,6.981090786650142,0.0,19200,2.9095804691314697,0.012184094224688741,0.00715640291120582,4026951,1128.685433296955,0.0
211,12.684067726135254,1353.047478648654,834.6122440386823,2061.5892021463887,-661.1393715165339,0.0,1.5262339267320515,0.1,0.012789726257324219,0.3192789554595947,0.050184768,0.05270869,1358.2331104429027,2.4276192239694265,6.73674042450067,0.0,19200,2.8698058128356934,0.010672601516018697,0.008086760254101445,4046151,531.2497333541015,0.0
212,12.779074430465698,1313.4170139108458,872.9313656281932,2151.2769051567725,-913.8114025681983,0.0,1.840798484628036,0.1,0.012964963912963867,0.3112151622772217,0.049689297,0.07894323,1353.751500789697,2.3268131858920174,6.539454191660272,0.0,19200,2.889712333679199,0.011783334882998845,0.007993710853138323,4065351,1040.1968598870753,0.0
213,12.861072063446045,1416.4707407567018,848.9251239526074,2152.5466433342303,-1166.2252759004139,0.0,1.7291808542266816,0.1,0.01345682144165039,0.3193647861480713,0.049362157,0.049093746,1360.0234247863975,2.4972848840387605,7.053349143141958,0.0,19200,2.960542678833008,0.007320435385680381,0.005537310511622862,4084551,1251.1361428336104,0.0
214,12.73019552230835,1216.7006807669995,857.600613083309,2049.1916294994708,-127.26356058895604,0.0,1.7416070286166498,0.1,0.012781143188476562,0.3505833148956299,0.04952929,0.068002425,1345.6911503844576,2.2095571294982492,6.055611460633255,0.0,19200,2.8564469814300537,0.01073819194311669,0.0055185034463095,4103751,1264.7222460813973,0.0
215,12.74505352973938,1366.4374255624116,847.6770040273301,2075.5474063733163,-589.1442118768394,0.0,1.5991199130777203,0.1,0.012788772583007812,0.30777955055236816,0.048777115,0.08413868,1347.7657779022531,2.4428710188385234,6.803829753135083,0.0,19200,2.8379392623901367,0.006300605718595989,0.0052963260032411336,4122951,1363.1943778410182,0.0
216,12.481011152267456,1342.1808904001812,863.9310302982615,2151.464192951614,-866.5857776347067,0.0,1.601928989430311,0.1,0.012742996215820312,0.2954518795013428,0.049376473,0.04696462,1347.207289152046,2.370694962006299,6.681876021247594,0.0,19200,2.878188371658325,0.008947950663422405,0.00608937898854795,4142151,1173.557318556745,0.0
217,12.99052357673645,1346.5271890932825,865.0190198112205,2074.9796656394906,-803.6398880933529,0.0,1.8660641273976646,0.1,0.013185739517211914,0.28806495666503906,0.050035086,0.050601814,1347.1392791461699,2.403470930702694,6.703448054221262,0.0,19200,2.893173933029175,0.009851058105556467,0.006560398458185908,4161351,1131.1747864775966,0.0
218,12.773158550262451,1345.71880430768,847.4901157377249,2047.8054439719083,-774.02652420647,0.0,1.7457385038729518,0.1,0.013913631439208984,0.3119065761566162,0.05065986,0.055398,1346.997231662321,2.40928032589704,6.702639952857812,0.0,19200,2.952733278274536,0.012035053391142862,0.009040514762514043,4180551,1539.0142457018828,0.0
219,12.591249465942383,1353.3243958214118,832.8863654209996,2031.6373722344313,-178.15648389637406,0.0,1.3871411746647246,0.1,0.01290273666381836,0.29599714279174805,0.05018836,0.066235326,1347.62994807823,2.415499725795359,6.737029098911118,0.0,19200,2.908869981765747,0.007561787003812196,0.004551330857975848,4199751,1469.515307426982,0.0
220,12.788726568222046,1461.243650577857,712.6313790201286,2144.8605945498925,-248.5121370637491,0.0,1.7711377802386408,0.1,0.013827323913574219,0.2846701145172119,0.050353456,0.06194381,1358.9913183281928,2.5786776665664157,7.276295534848681,0.0,19200,2.844296455383301,0.014547545943447532,0.009571524046082892,4218951,1215.20522709313,0.0
221,12.909515857696533,1387.1057303662467,772.1833324630002,2114.4176119095355,-166.65496556967955,0.0,1.5282393252240034,0.1,0.012961149215698242,0.3346986770629883,0.049146675,0.06456872,1361.8027595319984,2.489832349384533,6.905860939313569,0.0,19200,2.879892587661743,0.010395111699975349,0.007142139336486161,4238151,1431.2726549909369,0.0
222,13.015787839889526,1352.9857248946564,842.7647252993771,2043.9342201206068,-814.1699989128285,0.0,1.5885870318253201,0.1,0.013045787811279297,0.29446959495544434,0.050045505,0.05745508,1360.9210560682643,2.4191044437085765,6.735720890496888,0.0,19200,2.896209478378296,0.010333846555368608,0.007725513201669797,4257351,1397.9482950311178,0.0
223,12.8879234790802,1461.6993922610263,807.7791120368397,2103.9769047453697,-917.5455142977945,0.0,1.4260918568379086,0.1,0.01314234733581543,0.3490574359893799,0.05027073,0.06894998,1370.9988896875404,2.5374572169403944,7.2784110110405855,0.0,19200,2.8874077796936035,0.003561687459879418,0.00266595402529687,4276551,1132.1491861713291,0.0
224,12.778305768966675,1409.852829377248,810.6337575736862,2084.0261855046892,-184.30962515325243,0.0,1.8092612517523807,0.1,0.013345718383789062,0.30682826042175293,0.04888845,0.051795952,1374.8842836565113,2.5056479153703717,7.020411778743149,0.0,19200,2.8545637130737305,0.007833566503885172,0.006308799827276474,4295751,1339.6267329038744,0.0
225,13.132343292236328,1493.590152444136,762.8686954202573,2080.2724768195885,-274.4941721024647,0.0,1.4847020253681478,0.1,0.014136314392089844,0.35122156143188477,0.049334142,0.09983814,1386.7548705352738,2.608550501777491,7.438799067540181,0.0,19200,2.8890562057495117,0.0053763866731833,0.0037427038312160036,4314951,1260.1329243372222,0.0
226,13.046338558197021,1539.0129470810505,754.6591702928989,2117.2928146622726,-892.2966063778491,0.0,1.59007174160213,0.1,0.013366937637329102,0.3143932819366455,0.050563917,0.09709694,1401.9806781898515,2.7015363271225845,7.665361029362966,0.0,19200,2.9142613410949707,0.007678602179469646,0.004013918268869566,4334151,827.2119275748092,0.0
227,13.067747831344604,1284.529950570779,839.4622310288229,2073.523551680732,-152.59344111717112,0.0,1.6483468789185323,0.1,0.013499259948730469,0.30301570892333984,0.049348433,0.055823576,1390.2356054279444,2.3118900176261277,6.3940652318771685,0.0,19200,2.8572237491607666,0.009102101255986641,0.0068923695187141035,4353351,1367.5495367998149,0.0
228,13.028637886047363,1450.094994178854,804.4125046130157,2095.8259532195166,-1060.2001007508673,0.0,1.685876614867075,0.1,0.013653278350830078,0.3264734745025635,0.049613852,0.049035653,1396.2215443030352,2.577495036209418,7.2218735724190255,0.0,19200,2.8623547554016113,0.009405295727236147,0.005743632946099527,4372551,1095.0326457365732,0.0
229,12.853638648986816,1483.3085449993932,788.9515364162221,2072.712992101866,-131.17483616379224,0.0,1.6044354133654444,0.1,0.012940645217895508,0.294910192489624,0.04963615,0.08746424,1404.930244372671,2.617616945750511,7.387389078337736,0.0,19200,2.833281993865967,0.009831879010121839,0.006965101881193589,4391751,1077.9855176882807,0.0
230,12.583913564682007,1518.3914773825409,735.7746711421346,2105.7511944952357,-885.9026903243218,0.0,1.740064154332075,0.1,0.013628721237182617,0.357635498046875,0.050537154,0.05524837,1416.2763676736581,2.6552559854904505,7.564205697415596,0.0,19200,2.8016912937164307,0.004413890643636218,0.0032638974959594363,4410951,1169.7733457380332,0.0
231,13.061176538467407,1491.3212087070576,724.5601122882875,2098.8613323350182,-157.10611084977046,0.0,1.558158011335803,0.1,0.012558698654174805,0.33715033531188965,0.050069083,0.049164444,1423.7808517769981,2.634552273086483,7.427082439232952,0.0,19200,2.8235421180725098,0.007506155034767218,0.004965207489990879,4430151,1081.7178691388708,0.0
232,12.686184406280518,1432.2944673500242,778.211140923452,2085.594917366959,-157.97593324449605,0.0,1.6042090557079014,0.1,0.013317584991455078,0.34667229652404785,0.04967857,0.047773805,1424.6322133343008,2.549685824809442,7.132903067236735,0.0,19200,2.838313579559326,0.004047901242912425,0.002918967445324555,4449351,1071.370814867239,0.0
233,12.808952808380127,1307.7042872447512,883.8812185007847,2043.8104165867592,-880.6232287702051,0.0,1.724665212635703,0.1,0.012691974639892578,0.3059854507446289,0.049542274,0.051375683,1412.9394207253458,2.2795660355414076,6.5095732879685295,0.0,19200,2.8552377223968506,0.005705895046029697,0.0037787664866873825,4468551,1206.3299443111432,0.0
234,12.691081047058105,1396.676560315326,851.1632533026269,2057.3214405345548,-191.38622907075174,0.0,2.0079155115231875,0.1,0.012969732284545898,0.33399462699890137,0.04986582,0.046874527,1411.3131346843438,2.471648194484762,6.955130350571692,0.0,19200,2.8579318523406982,0.0106060073973811,0.0062947107742981,4487751,1137.1735077061398,0.0
235,12.830685377120972,1485.704510207739,789.3684289051362,2095.611746343699,-829.8039184706726,0.0,1.7238468103788374,0.1,0.012960195541381836,0.3231785297393799,0.049926158,0.056380045,1418.7522722366832,2.571310130203625,7.400081482017607,0.0,19200,2.8030154705047607,0.0054757245728242025,0.0022998426959110526,4506951,1215.594969657096,0.0
236,13.108773708343506,1520.5745655674928,756.6711968523535,2108.358550150731,-226.31672063777455,0.0,1.6382239003955525,0.1,0.012894392013549805,0.33687663078308105,0.05093916,0.05800293,1428.934501569764,2.661989867439056,7.5732158172119775,0.0,19200,2.758129358291626,0.005556535008931781,0.004295500976431313,4526151,971.9531425378851,0.0
237,12.979842901229858,1481.8090757589864,778.8721691266468,2119.5755457629148,-155.6898403222969,0.0,1.6542510458174433,0.1,0.014906883239746094,0.4138209819793701,0.049252044,0.04589058,1434.2219589886863,2.6126019755260788,7.379332114297185,0.0,19200,2.8017771244049072,0.00718068684525348,0.004858085396024361,4545351,964.3554025657589,0.0
238,12.8298659324646,1326.9342581241342,842.2761356284943,2101.0416659776943,-200.35176408741486,0.0,1.4237077963495075,0.1,0.01340484619140625,0.3092188835144043,0.04976358,0.11415151,1423.4931889022312,2.3898741417139733,6.606484668279793,0.0,19200,2.7973339557647705,0.007326737583024711,0.0046558979315045705,4564551,1043.8506160504812,0.0
239,12.884523391723633,1479.691223861084,802.7673482454653,2099.400258348235,-193.61351675663806,0.0,1.3201627072642894,0.1,0.013007402420043945,0.29439306259155273,0.05095937,0.053268664,1429.1129923981166,2.623850999238059,7.370088181844655,0.0,19200,2.7824254035949707,0.0031975012394973913,0.002446574465285536,4583751,1227.8931876017186,0.0
240,12.810868263244629,1566.5853469744486,740.4701753056391,2162.205063878391,-419.13252916610213,0.0,1.6446965203699455,0.1,0.012909412384033203,0.31442952156066895,0.05004535,0.04690032,1442.8602278557498,2.7379557876671305,7.80495351743965,0.0,19200,2.7692015171051025,0.004046536665950859,0.0027415122064539136,4602951,861.8215284753572,0.0
241,12.943800210952759,1416.418266951662,794.6331838345073,2074.4666123709635,-193.3290764920451,0.0,1.6897767596465334,0.1,0.012782573699951172,0.3312520980834961,0.04935476,0.061335076,1440.216031765341,2.530827971807888,7.052648340057999,0.0,19200,2.8418593406677246,0.007501322169556299,0.005326321027307008,4622151,1081.4710169027442,0.0
242,13.063374042510986,1514.1236036904768,749.1529244739111,2127.9337380427023,-223.70601507591468,0.0,1.4150081095106295,0.1,0.012955427169799805,0.27310943603515625,0.05011784,0.05187229,1447.6067889578549,2.661970803137711,7.541475981201612,0.0,19200,2.8193094730377197,0.006170480220392643,0.004062736843178969,4641351,1082.6200346404444,0.0
243,12.86159873008728,1452.295335813618,866.5786590425165,2114.8934110719797,-2346.546361973395,0.0,1.4980958715741424,0.1,0.015845298767089844,0.39889979362487793,0.048680123,0.052935638,1448.0756436434312,2.530412953248515,7.233104353403953,0.0,19200,2.7861733436584473,0.022713950654710387,0.010069249400432825,4660551,1137.9049402961225,0.0
244,12.682291269302368,1498.13224998182,779.4974226349154,2109.8133896084987,-179.83451240666315,0.0,1.5273039183867627,0.1,0.013204813003540039,0.3479459285736084,0.050610315,0.07800903,1453.0813042772702,2.6423955530518657,7.461536377344619,0.0,19200,2.8351492881774902,0.0037054901491097515,0.0022498471988139914,4679751,1171.4370876435637,0.0
245,12.996199607849121,1527.0142290950198,716.6329304557331,2136.250474634606,-112.60004357008114,0.0,1.4787287876282318,0.1,0.014528512954711914,0.36924171447753906,0.04935542,0.07176126,1460.4745967590452,2.6770274501314684,7.605884025579669,0.0,19200,2.856198787689209,0.002184566802546004,0.0018296862205393796,4698951,1037.4747364558016,0.0
246,12.837209224700928,1552.613484279266,718.7782207455552,2110.8840986372065,-137.95291399990498,0.0,1.5306548807046247,0.1,0.014346122741699219,0.283843994140625,0.050348654,0.051220234,1469.6884855110673,2.7265711927805203,7.73275050341703,0.0,19200,2.8685693740844727,0.008516257282322769,0.005285708212136749,4718151,1255.5161350943704,0.0
247,12.847929954528809,1429.0114927551085,829.7686744171541,2123.386941484098,-774.3982997888255,0.0,1.5901916420309379,0.1,0.012851715087890625,0.32438206672668457,0.05032695,0.06637156,1465.6207862354713,2.5042453060967422,7.116712390516987,0.0,19200,2.9015142917633057,0.007204862034245309,0.0033972813126152378,4737351,1406.5029511122423,0.0
248,12.844905614852905,1409.8812009870198,817.8713265218262,2123.2655501189665,-193.74984315900642,0.0,1.7382411151586328,0.1,0.01389169692993164,0.3206634521484375,0.049968556,0.05128697,1460.0468277106263,2.5212071632330404,7.020789756068705,0.0,19200,2.9108383655548096,0.006036780350665201,0.0041522336448866475,4756551,1453.2885807691518,0.0
249,12.969048261642456,1436.5801204143706,813.6279459416321,2105.2974140740494,-163.496902705976,0.0,1.401713597195313,0.1,0.012259244918823242,0.3615870475769043,0.049579084,0.08568731,1457.7001569810009,2.549350729446404,7.15256715682495,0.0,19200,2.8651421070098877,0.005090911833140809,0.004057512300097365,4775751,1357.2855090216804,0.0
250,12.835321187973022,1533.306080407647,734.8806563508591,2118.891000964937,-143.95953234830412,0.0,1.5703177857601338,0.1,0.014065027236938477,0.3472299575805664,0.05020626,0.073635295,1465.2607493236656,2.693630264983169,7.636526648696062,0.0,19200,2.8624186515808105,0.003034536988099568,0.0023639765491536954,4794951,1481.588078185544,0.0
251,13.209683418273926,1618.642751452311,630.3982113932107,2142.668416912102,-149.5560652911689,0.0,1.5900040521526455,0.1,0.013885498046875,0.40610289573669434,0.049751025,0.053724606,1480.5989495365302,2.832991091811462,8.064122482130529,0.0,19200,2.863069772720337,0.005298696042650315,0.003863102443777847,4814151,1455.5715516315788,0.0
252,12.724591970443726,1500.6569393119232,724.4495620989279,2086.189055104809,-113.23248062915792,0.0,1.6278981985568164,0.1,0.013371944427490234,0.39316344261169434,0.049648013,0.0905866,1482.6047485140696,2.6571637546463713,7.473113903808198,0.0,19200,2.876669406890869,0.005577369966964128,0.002352234340493213,4833351,1319.1380732494235,0.0
253,12.850009441375732,1409.3803512158731,773.7270624938599,2075.3346217212884,-195.62945829312275,0.0,1.6336402981659703,0.1,0.012840747833251953,0.3825254440307617,0.049886715,0.04987836,1475.2823087842498,2.5410329170546593,7.016779190122475,0.0,19200,2.9645094871520996,0.012931572869109892,0.007881934683079147,4852551,1283.335639735596,0.0
254,12.474647760391235,1534.9636047261054,706.0759382360291,2084.6461125595674,-140.30522832232896,0.0,1.743790912061113,0.1,0.013570308685302734,0.3796355724334717,0.050669868,0.057904255,1481.2504383784355,2.7046521149108886,7.646506061584095,0.0,19200,2.9418153762817383,0.006189392358014752,0.0038029808911889985,4871751,1480.0888674178536,0.0
255,12.963914394378662,1522.584828174431,761.4239951257705,2163.219000973482,-220.05330540429364,0.0,1.5826657352741778,0.1,0.012441158294677734,0.3675522804260254,0.050164126,0.049524356,1485.383877358035,2.6989310597050977,7.583762971856257,0.0,19200,2.9005579948425293,0.005733096289625822,0.003961977392399287,4890951,1401.942108779227,0.0
256,12.876075983047485,1558.106990490247,669.2276599822252,2055.139862453813,-106.79200385056181,0.0,1.3459659357210312,0.1,0.014215707778930664,0.30828046798706055,0.050917353,0.14436382,1492.6561886712561,2.7345178790013627,7.76076755087437,0.0,19200,2.838341236114502,0.00540222048395528,0.0032261724531330352,4910151,1248.2355655265858,0.0
257,12.632895946502686,1466.2542817782135,780.9151085930208,2144.2433967315837,-778.3002525906146,0.0,1.652005947381038,0.1,0.013338804244995117,0.31298375129699707,0.04970411,0.059341397,1490.0159979819518,2.5742749056285152,7.301144170320526,0.0,19200,2.842266798019409,0.007053867862815513,0.0042034325805317034,4929351,1250.6828102556422,0.0
258,12.672009229660034,1598.5651004124022,723.4364315165597,2070.9619904237275,-219.7400800190906,0.0,1.7693948356843257,0.1,0.012602806091308594,0.3245704174041748,0.05001549,0.058991298,1500.8709082249968,2.791270696399629,7.964203220062532,0.0,19200,2.8378396034240723,0.010381891146778916,0.003906694817695916,4948551,1430.5887263279833,0.0
259,12.541996240615845,1468.0188508183237,767.5266040921587,2119.5585598390944,-318.6805673606109,0.0,1.590265947475473,0.1,0.012681245803833008,0.32561397552490234,0.050568007,0.0593798,1497.5857024843294,2.5974157208471795,7.31156455760658,0.0,19200,2.85013747215271,0.0058116713510086015,0.0033026842293853976,4967751,1248.7711520438745,0.0
260,12.787996530532837,1478.5336778786689,780.9913602672352,2102.297118510883,-585.6668543007179,0.0,1.4170406825997304,0.1,0.012492895126342773,0.3812839984893799,0.050399486,0.080918044,1495.6805000237632,2.5938822325346975,7.362981588141561,0.0,19200,2.8553695678710938,0.004947011435979825,0.0030664841875466878,4986951,1254.3211490555282,0.0
261,12.791767358779907,1609.241171988556,607.8444748474878,2039.7821731335462,-135.67966585127286,0.0,1.5301043634307636,0.1,0.014001607894897461,0.3687856197357178,0.049655512,0.07420023,1507.0365672202424,2.820441783922181,8.01708879360166,0.0,19200,2.850451707839966,0.0055200416672269385,0.003249484548011324,5006151,1168.1095650191166,0.0
262,12.806692600250244,1568.020794037492,671.4113775607963,2123.8399324399084,-109.08672427095948,0.0,1.4423180107569402,0.1,0.014148950576782227,0.3295588493347168,0.05033329,0.044266067,1513.1349899019674,2.7659963587016456,7.81095540854984,0.0,19200,2.835357427597046,0.004483313075491037,0.0023254595980518413,5025351,1350.707162456453,0.0
263,13.06905484199524,1561.8737907214243,727.3575168737308,2133.6187529959475,-150.7615756233138,0.0,1.5211752965265772,0.1,0.012549638748168945,0.3138303756713867,0.050696377,0.081511356,1518.0088699839132,2.740145857054403,7.779686859831284,0.0,19200,2.797049045562744,0.004231629115104065,0.003307272212168884,5044551,1341.6216829672464,0.0
264,12.845259428024292,1531.852952878692,743.5740281214319,2095.246470098006,-187.07956216029405,0.0,1.4243766705981482,0.1,0.013477087020874023,0.31384897232055664,0.04956455,0.10998468,1519.3932782733912,2.6971216725530667,7.629525395293112,0.0,19200,2.775050640106201,0.0035401123806109926,0.002783447095607148,5063751,1156.9886870576004,0.0
265,12.79846715927124,1571.9841677488282,693.1133537621712,2140.950569436255,-240.6231219201788,0.0,1.306962603469752,0.1,0.013121366500854492,0.3357548713684082,0.04972492,0.25508666,1524.6523672209348,2.7514511621247255,7.831208842335703,0.0,19200,2.8563971519470215,0.007232554831896104,0.005184715622623745,5082951,998.232724248935,0.0
266,12.786405563354492,1577.6950223808897,697.6846707559821,2100.2249854945435,-280.9003628918074,0.0,1.5014903861042634,0.1,0.014770984649658203,0.3694031238555908,0.050035387,0.051368043,1529.9566327369303,2.7592311876577695,7.8588080513314,0.0,19200,2.8904833793640137,0.006080764824736213,0.003659361017625565,5102151,712.9751473529667,0.0
267,12.65095329284668,1480.2502105241037,809.34156081939,2152.884122082594,-714.9743100401729,0.0,1.7869679922539654,0.1,0.013327360153198242,0.3139350414276123,0.04987774,0.04082265,1524.9859905156477,2.637697399851777,7.370953248142477,0.0,19200,2.8227040767669678,0.016179309304203866,0.008083552384877478,5121351,416.0556490534699,0.0
268,12.657496929168701,1537.3059518010523,734.876887367203,2131.2233594348318,-814.5393575099095,0.0,1.6515095260035089,0.1,0.012911558151245117,0.30504322052001953,0.05010767,0.062070772,1526.2179866441882,2.695567646253583,7.655855921991962,0.0,19200,2.7858948707580566,0.011212807484858336,0.007967154698407131,5140551,1302.3138372399928,0.0
269,12.789414405822754,1469.7397982050697,808.200404456541,2155.3690082358153,-847.8114303235475,0.0,1.5044484809495786,0.1,0.012740373611450195,0.35115766525268555,0.049859047,0.069922194,1520.5701678002763,2.5918104855884194,7.319644681568704,0.0,19200,2.7942636013031006,0.008894329766090826,0.006232653527652531,5159751,1067.9049355982484,0.0
270,12.832323551177979,1587.3786683124665,707.258233899141,2157.5899485679342,-112.36271526871403,0.0,1.4486048438652332,0.1,0.01313328742980957,0.37533092498779297,0.050209966,0.06832144,1527.2510178514954,2.7762939033942033,7.90891682955133,0.0,19200,2.857487440109253,0.004391185214293536,0.003091586630991865,5178951,1061.5704404989278,0.0
271,12.986871242523193,1589.0190332036811,681.2253689648811,2136.8751100125055,-229.1234076617191,0.0,1.5573978433288573,0.1,0.012949943542480469,0.31760740280151367,0.05071396,0.061617672,1533.427819386714,2.7739826653638424,7.9153716379058885,0.0,19200,2.821396589279175,0.003418356156198171,0.002260096611485385,5198151,842.6727465049598,0.0
272,12.74891710281372,1450.9403263418371,792.273707323782,2097.5423029282597,-133.48371598085305,0.0,1.4329136968226615,0.1,0.012630939483642578,0.3014216423034668,0.049722698,0.07978561,1525.1790700822264,2.5856559786437345,7.225429014614164,0.0,19200,2.8002896308898926,0.004227445527351581,0.002696637593835787,5217351,878.3413265139534,0.0
273,12.79188346862793,1462.8878518425697,805.3917676046444,2164.7534834574844,-157.06982002964804,0.0,1.4580055835409558,0.1,0.012949705123901367,0.3126864433288574,0.050475694,0.08552563,1518.9499482582607,2.587909319171563,7.28435376938403,0.0,19200,2.798419237136841,0.0035648894900751392,0.0025384104710731246,5236551,812.9632232544204,0.0
274,12.878235101699829,1557.9420085274908,713.9011210989021,2128.8162598219897,-269.4358834840311,0.0,1.5047353084436763,0.1,0.012669086456298828,0.3337678909301758,0.049972672,0.054985855,1522.8491542851839,2.736246705964597,7.760684092633628,0.0,19200,2.8317625522613525,0.005317682465661493,0.004154675909165968,5255751,850.6727522562292,0.0
275,12.81818437576294,1444.4282542239816,784.842858677388,2136.106937116796,-307.8836489470386,0.0,1.5311553077153863,0.1,0.012761592864990234,0.31327390670776367,0.050297655,0.04454832,1515.0070642790636,2.5554055565282945,7.191738696392445,0.0,19200,2.8231441974639893,0.009476579102838842,0.006523566112190488,5274951,986.9551542621917,0.0
276,12.806586503982544,1499.0001641044846,771.4222965877295,2159.856705540229,-173.69547798584313,0.0,1.594801069312006,0.1,0.012660503387451172,0.30495238304138184,0.05059305,0.06696884,1513.4063742616056,2.6335768976607805,7.4660579476662114,0.0,19200,2.852686882019043,0.0033675733297104556,0.002142889737096419,5294151,1431.1300903163017,0.0
277,12.826096057891846,1578.2127764459358,722.5647697600306,2119.0577103959718,-152.91438502773,0.0,1.4367204547489885,0.1,0.012828826904296875,0.32663893699645996,0.05038985,0.05357026,1519.8870144800385,2.761851562923045,7.861372767913469,0.0,19200,2.854210376739502,0.0032827724137744784,0.00228992725214237,5313351,863.0236552641727,0.0
278,13.033162355422974,1531.32313775705,685.6257679919906,2148.6397164696746,-172.87255536869145,0.0,1.2860712044433924,0.1,0.012811422348022461,0.3317382335662842,0.050016165,0.080218196,1521.0306268077395,2.699859792088128,7.626088156367705,0.0,19200,2.8875651359558105,0.0075340636279912785,0.0035941863113471196,5332551,1140.9523540132247,0.0
279,13.063556909561157,1493.6111431138772,782.469406559038,2155.072653323812,-144.04091096843655,0.0,1.3423895937475527,0.1,0.012526273727416992,0.3803081512451172,0.050648626,0.07049314,1518.2886784383531,2.66276162660289,7.440575683614959,0.0,19200,2.921081304550171,0.0056048511539471164,0.0042510693820458885,5351751,1125.4321797994546,0.0
280,13.003734111785889,1568.1724589073563,689.212544061272,2117.461529486645,-162.51028238240727,0.0,1.7837811231818599,0.1,0.012811899185180664,0.3460087776184082,0.050028164,0.051796902,1523.2770564852535,2.742142829987485,7.81170231148819,0.0,19200,2.8878629207611084,0.007003061854511379,0.0043241260278631425,5370951,772.7666344080451,0.0
281,13.139290571212769,1511.2056587095915,749.9650930217271,2087.361943207229,-252.91839038689005,0.0,1.7418309243275387,0.1,0.014783143997192383,0.3874785900115967,0.049127616,0.04423126,1522.0699167076873,2.6469366807317836,7.527998392289078,0.0,19200,2.890596628189087,0.0055950826471222815,0.0029039627695983533,5390151,1026.9164721853017,0.0
282,13.097798347473145,1554.0639488450315,713.8471648945884,2101.4656369742506,-406.5589213005554,0.0,1.5690003303525561,0.1,0.012644767761230469,0.3052794933319092,0.050508555,0.048761267,1525.2693199214218,2.758420967980552,7.741111330808614,0.0,19200,2.844905138015747,0.005513014988940545,0.004429239114903134,5409351,1077.4675891579616,0.0
283,13.393516778945923,1525.111262691269,701.0450851630033,2181.030622603067,-208.6138599568957,0.0,1.568393540618546,0.1,0.012664079666137695,0.3492105007171631,0.04999347,0.06806364,1525.2535141984065,2.6705543972924275,7.596981904039822,0.0,19200,2.816053867340088,0.007406384613407614,0.004563478863014233,5428551,746.7619510302312,0.0
284,13.247590065002441,1512.1004311480694,701.7270372030948,2080.441030410611,-143.05417414170634,0.0,1.521004202380999,0.1,0.012778759002685547,0.3501925468444824,0.05050938,0.07174793,1523.9382058933727,2.6715391995695446,7.532440462433326,0.0,19200,2.8300070762634277,0.008452889284906872,0.006027681403844822,5447751,720.2078503966835,0.0
285,13.161713123321533,1457.95518662968,778.2554873436601,2177.082646595557,-151.52138851015079,0.0,1.346157778853393,0.1,0.013651371002197266,0.34568190574645996,0.04982715,0.055350356,1517.3399039670035,2.5836643323413395,7.2616876721974,0.0,19200,2.831866979598999,0.003480396598851623,0.002152982647269896,5466951,716.1033643977613,0.0
286,13.13055968284607,1670.4439217988154,570.0914689456906,2134.3462903190675,-153.41441467647022,0.0,1.3151237158125397,0.1,0.012518644332885742,0.3129122257232666,0.05072141,0.13656339,1532.6503057501845,2.8987576967427806,8.321581764024055,0.0,19200,2.8689026832580566,0.003657899276536162,0.002090625134163315,5486151,678.6799060085625,0.0
287,13.038175821304321,1430.145060525115,778.0807766771827,2131.4632959408696,-138.2425084751403,0.0,1.6080848561371335,0.1,0.013158082962036133,0.3125338554382324,0.05013994,0.048726257,1522.3997812276775,2.5511835945190655,7.122579747959985,0.0,19200,2.862352132797241,0.0048492548121811035,0.002827343305463727,5505351,45.33234538248212,0.0
288,12.517149209976196,1444.6462640395293,964.9432124056838,2162.5007862779103,-4948.532168163348,0.0,1.473693456276568,0.1,0.012462139129638672,0.34752392768859863,0.048730988,0.061764967,1514.6244295088627,2.615730190793873,7.1942706326316825,0.0,19200,2.9198992252349854,0.05853436676848296,0.011165126287971842,5524551,-67.898287982755,0.0
289,12.887073755264282,1449.4881471958724,794.6386284623464,2132.7490451878357,-140.0290730550895,0.0,1.6043466432860738,0.1,0.012888431549072266,0.41613125801086426,0.050034188,0.07264728,1508.1108012775637,2.5798398757077643,7.21943483133299,0.0,19200,2.91802716255188,0.01305895309052179,0.0063432238945420084,5543751,254.1415408301027,0.0
290,13.11728310585022,1616.1836477679562,691.770472564392,2143.570652630045,-165.02872299616533,0.0,1.4768674200073124,0.1,0.01274728775024414,0.2958557605743408,0.04931566,0.17299639,1518.918085926603,2.826706928136334,8.05164415821828,0.0,19200,2.928485155105591,0.0033031624158877115,0.0024049716679920246,5562951,-18.931342069437477,0.0
291,13.575108289718628,1477.747594918209,797.5650699151286,2144.057834983605,-941.9527178955128,0.0,1.524072317773627,0.1,0.01417398452758789,0.3044929504394531,0.049331,0.075677924,1514.8010368257637,2.577357161434773,7.360348382412767,0.0,19200,2.959311008453369,0.02659529754525889,0.006751949409472159,5582151,-131.89934629186013,0.0
292,13.304920673370361,1448.0835113707833,750.1650448155269,2142.5602549979676,-141.96805570927955,0.0,1.637008234278003,0.1,0.012885332107543945,0.27205801010131836,0.049571667,0.058584962,1508.1292842802657,2.59671741336723,7.21050872134725,0.0,19200,2.9140233993530273,0.0071864136156726,0.004619184358917615,5601351,-217.70185501485966,0.0
293,13.168980598449707,1527.116266447794,771.527616526522,2142.4472259557438,-612.6700192154592,0.0,1.4118804514924914,0.1,0.014180421829223633,0.3045990467071533,0.04992513,0.06991411,1510.0279824970187,2.6858255174887122,7.606342468505429,0.0,19200,2.9296884536743164,0.0039137303488121005,0.002269366965269196,5620551,-220.40336624711927,0.0
294,13.248358964920044,1550.6914010125001,710.4916238420068,2133.620226216098,-368.05946050474864,0.0,1.8195549893059255,0.1,0.012867450714111328,0.30199384689331055,0.049632423,0.057970837,1514.094324348567,2.7228062737068193,7.723627154211978,0.0,19200,2.854055166244507,0.004534276751834761,0.003027002634402067,5639751,64.34614112591241,0.0
295,13.367052555084229,1477.075109116585,710.475306447507,2160.9855218408643,-121.28897132803117,0.0,1.3622860721290189,0.1,0.013443231582641602,0.30324673652648926,0.0500162,0.08219784,1510.392402825369,2.642301543482923,7.354692882121275,0.0,19200,2.8551180362701416,0.005295779145522681,0.004249473478648675,5658951,-42.80721584593394,0.0
296,13.208905220031738,1585.0611494164052,735.7298542189311,2177.2958547291864,-143.9001223729092,0.0,1.6512354018627144,0.1,0.013366222381591797,0.43344736099243164,0.050002612,0.04180956,1517.8592774844726,2.799713199505993,7.8960565075449125,0.0,19200,2.8613157272338867,0.005071295752593462,0.003635517430540532,5678151,68.13859087700995,0.0
297,13.515584230422974,1525.9979962204577,726.6736927556854,2151.0593648452113,-137.06090112349747,0.0,1.3338240134198796,0.1,0.013096809387207031,0.40955328941345215,0.049060006,0.120324895,1518.6731493580712,2.7080096245241436,7.601766769050205,0.0,19200,2.8150668144226074,0.007323361058066335,0.004437294896069675,5697351,49.088482153706224,0.0
298,13.337263822555542,1531.2949988086395,726.6976178186665,2122.4424464098406,-153.11645175513635,0.0,1.6862913333895007,0.1,0.021976947784423828,0.3329133987426758,0.050450057,0.066945896,1519.935334303128,2.706800953312324,7.627616201948062,0.0,19200,2.9082489013671875,0.004775394311700868,0.003939594590900736,5716551,-72.3872760061864,0.0
299,13.010989665985107,1591.8021722821234,675.5506046987576,2176.1667684049085,-97.23945836517484,0.0,1.7758578037407902,0.1,0.012904167175292969,0.34807658195495605,0.049671397,0.053663965,1527.1220181010276,2.822077966379121,7.929745312206282,0.0,19200,2.870619535446167,0.004679041619873432,0.0018011475911750953,5735751,-33.2709467270075,0.0
300,13.127683401107788,1530.8155517203643,726.4092987229238,2167.384474444334,-130.29818191153225,0.0,1.5738009891592337,0.1,0.01259160041809082,0.33698487281799316,0.049661793,0.10878109,1527.4913714629613,2.7242240533920175,7.624265345006765,0.0,19200,2.9081735610961914,0.0044288035615490835,0.0036468309835873364,5754951,256.90467069920675,0.0
301,13.07595157623291,1408.9065909999692,802.2319108421246,2139.263284200339,-193.73071143940254,0.0,1.2456096858099264,0.1,0.01351022720336914,0.4556899070739746,0.050362874,0.0740651,1515.6328934166622,2.5133844627415116,7.015894084724541,0.0,19200,2.9892983436584473,0.004075058337864909,0.003261331738993457,5774151,244.07822911359946,0.0
302,13.296709537506104,1487.6446131358116,770.0723790813377,2115.7214675808,-130.0721076975126,0.0,1.535249665165322,0.1,0.012541532516479492,0.33049798011779785,0.050049707,0.07168759,1512.8340653885773,2.6194398881602265,7.409539855224984,0.0,19200,2.8530845642089844,0.003355546847062282,0.0029692494509809945,5793351,249.69555754782368,0.0
303,13.348557472229004,1596.0914661022773,684.0613153844837,2191.1373811595627,-359.9375413095789,0.0,1.4939101406967985,0.1,0.01239466667175293,0.3313179016113281,0.049382616,0.06023086,1521.1598054599474,2.833134478003404,7.950186189007579,0.0,19200,2.848341941833496,0.004940114532303494,0.003858968784443793,5812551,-98.23682929027635,0.0
304,13.519327878952026,1491.4787059020912,788.7567807257194,2145.953325032726,-231.42694590543096,0.0,1.5809135221013255,0.1,0.013858318328857422,0.3152918815612793,0.050269794,0.060257606,1518.1916955041618,2.633253528242952,7.428088183151641,0.0,19200,2.8324851989746094,0.007826286444661263,0.004551064641066981,5831751,-347.40102906108564,0.0
305,13.282386541366577,1585.5071812336516,678.3076516589216,2139.6413129174503,-131.3118752974109,0.0,1.7227116106648088,0.1,0.012859344482421875,0.2915832996368408,0.04938789,0.055433284,1524.923244077111,2.773423357170534,7.897172434892805,0.0,19200,2.8596293926239014,0.006649101499943546,0.003925718340576782,5850951,-288.63145944278597,0.0
306,13.297537565231323,1510.95014654248,736.8926748727656,2134.431364836123,-290.99438031103614,0.0,1.4266119973277067,0.1,0.013260841369628906,0.3046438694000244,0.049445495,0.05525927,1523.5259343236478,2.663371990899089,7.524956393813777,0.0,19200,2.79282808303833,0.005856233903703363,0.0036578403634595844,5870151,-242.56222884466936,0.0
307,13.11694884300232,1586.0988172502928,693.6484718737629,2146.5339078201096,-214.5163108662945,0.0,1.6243046926467133,0.1,0.012362241744995117,0.3844025135040283,0.04913824,0.064376935,1529.7832226163123,2.806672149020585,7.901272335198008,0.0,19200,2.7730839252471924,0.004649896589174761,0.0029125654303074457,5889351,-273.83020093003506,0.0
308,13.045718669891357,1494.5964321942495,763.6465303874836,2142.1855772597664,-199.69325318175447,0.0,1.8836569414637299,0.1,0.012911796569824219,0.3232533931732178,0.050270088,0.045886047,1526.264543574106,2.66757871363623,7.442754410510626,0.0,19200,2.785181999206543,0.0054440169094804175,0.003653783993234813,5908551,227.44148691350088,0.0
309,12.793444633483887,1573.7912213532884,724.4421478384904,2183.557010380446,-389.88342011471946,0.0,1.4438101109895467,0.1,0.012784242630004883,0.29860973358154297,0.050260987,0.06884481,1531.0172113520243,2.770290710197964,7.838990897203613,0.0,19200,2.8653061389923096,0.006753351112193861,0.00494263969884219,5927751,490.18152320072716,0.0
310,13.134523630142212,1650.765090064505,666.7369086934632,2175.5838260883156,-102.15155849201494,0.0,1.6073244646554037,0.1,0.013537406921386719,0.33894824981689453,0.050020125,0.08241619,1542.9919992232726,2.8758297749763706,8.22417960638647,0.0,19200,2.8649027347564697,0.0037357449777645404,0.0025045785150414252,5946951,657.7923305949321,0.0
311,13.374615669250488,1518.1756955284327,745.3169737997877,2160.381790385167,-211.9750803144136,0.0,1.5136558512520368,0.1,0.012960195541381836,0.304002046585083,0.05042297,0.060219944,1540.5103688537886,2.670869752264011,7.560686395545759,0.0,19200,2.8577182292938232,0.006794839404239059,0.004903166808846967,5966151,257.74657177840174,0.0
312,12.972628116607666,1568.2783489239664,742.8742832580226,2150.4493683238315,-484.61170608424453,0.0,1.3206047325604415,0.1,0.01317739486694336,0.33914828300476074,0.0496309,0.04221642,1543.2871668608063,2.768559863638364,7.813215759639306,0.0,19200,2.8628838062286377,0.004264814977990861,0.0028166973451023932,5985351,745.4389819568768,0.0
313,12.936128616333008,1711.1390191873932,562.5295022136735,2164.649059609328,-111.50452288706892,0.0,1.3085318288251777,0.1,0.012749671936035156,0.3428621292114258,0.049937673,0.522144,1560.0723520934653,2.9788978806508815,8.526479811027817,0.0,19200,2.8748438358306885,0.00271712462753435,0.0018540363990019436,6004551,206.32912933177974,0.0
314,12.87020468711853,1628.5850736732718,679.547340693571,2179.9326184370875,-177.54053903553594,0.0,1.4610760859835006,0.1,0.013082027435302734,0.2698783874511719,0.04914537,0.06788161,1566.9236242514462,2.880203194596946,8.112451157807811,0.0,19200,2.914269208908081,0.0034279523256558983,0.002208037957384273,6023751,512.5343865234305,0.0
315,12.908411979675293,1628.6636140036117,684.033252507175,2156.8526583843404,-744.3307424565547,0.0,1.7373943540002819,0.1,0.012755393981933594,0.3245513439178467,0.05033594,0.056819916,1573.0976232266628,2.885947162171162,8.11398149193168,0.0,19200,2.911447525024414,0.014308887200225575,0.006174978323280915,6042951,451.30856045347247,0.0
316,13.102215766906738,1476.7567232085646,805.1600339824558,2172.2476501600718,-279.75674597105535,0.0,1.4283663832219011,0.1,0.01271510124206543,0.3137187957763672,0.05012014,0.047780514,1563.4635332248529,2.6495746007552863,7.356798581231491,0.0,19200,2.906344413757324,0.008770349518858581,0.005175163973624246,6062151,491.7474600544976,0.0
317,12.942745447158813,1609.1049567281773,671.3461313943566,2165.0779720539044,-230.97855866884336,0.0,1.2414345790888301,0.1,0.012469291687011719,0.34183430671691895,0.049934614,0.1391726,1568.0276755751852,2.8326289116995746,8.01721606812464,0.0,19200,2.9421498775482178,0.006603853954913675,0.0049403842733435795,6081351,57.953963935703996,0.0
318,13.089370012283325,1625.077205703812,719.0162371675649,2141.4317669241586,-210.5085065167765,0.0,1.5643452944917091,0.1,0.01333928108215332,0.3181569576263428,0.04984744,0.04518329,1573.7326285880479,2.861982675885845,8.095383251237104,0.0,19200,2.948827028274536,0.006524750005349272,0.005237741648388656,6100551,521.7195112448729,0.0
319,12.826841115951538,1548.9415416414295,736.1634288079638,2180.456164233313,-324.68132444455665,0.0,1.5449854530372902,0.1,0.013338327407836914,0.3399386405944824,0.05056797,0.07046908,1571.253519893386,2.7358809856116113,7.714158469897407,0.0,19200,2.911050796508789,0.008466013939148734,0.006365639867230347,6119751,526.2908154246522,0.0
320,12.7681565284729,1517.12220531671,792.5708423815701,2190.283952101389,-458.8421703995388,0.0,1.4742884706512491,0.1,0.014271974563598633,0.35036587715148926,0.04969676,0.060535766,1565.8403884357185,2.722972289807396,7.556254737524855,0.0,19200,2.9420132637023926,0.009886770072237296,0.005432396017064378,6138951,388.0049103090136,0.0
321,13.10533356666565,1446.7560544600467,951.0634290365941,2202.701648194334,-4048.7040574428734,0.0,1.5705078726852981,0.1,0.012770652770996094,0.2993173599243164,0.049801763,0.05261559,1553.9319550381515,2.6097592296968384,7.208173465540291,0.0,19200,2.9306559562683105,0.043449193236054395,0.009470783004407603,6158151,598.3768234267128,0.0
322,12.996248483657837,1554.2491389833458,969.4950239815649,2205.170438525589,-3838.108412034383,0.0,1.6229986751434435,0.1,0.012933492660522461,0.32779836654663086,0.0500485,0.048204757,1553.963673432671,2.785849947251568,7.743516736042867,0.0,19200,2.9416215419769287,0.015773689884887802,0.010721289070309824,6177351,333.18812823158555,0.0
323,13.236297845840454,1606.5473805768454,852.47933114004,2187.7516606092117,-4116.218222476718,0.0,1.4458856371292967,0.1,0.013009071350097656,0.32927656173706055,0.050030008,0.0538223,1559.2220441470886,2.8554162272347696,8.003483458138016,0.0,19200,2.9659063816070557,0.012127585366205968,0.007443114350752383,6196551,268.7525140209479,0.0
324,13.247766017913818,1545.1596573781817,725.0648545484856,2179.5241607636744,-123.85976608820737,0.0,1.7849073608084438,0.1,0.013196706771850586,0.32552504539489746,0.05002844,0.047790274,1557.815805470198,2.7161649352102075,7.697034699628037,0.0,19200,2.9399683475494385,0.009275601337923834,0.005499248738484767,6215751,300.00434423307615,0.0
325,13.458255052566528,1628.2384453616057,671.8092906141663,2204.1200044303073,-184.93653452610053,0.0,2.0045843205770457,0.1,0.012854576110839844,0.28016161918640137,0.050278213,0.042387825,1564.8580694593388,2.8861612667379895,8.11041981350902,0.0,19200,2.9335806369781494,0.010740317965891399,0.008140500685958991,6234951,446.8318792468073,0.0
326,12.90119194984436,1601.1164163980827,686.3732770926343,2187.4586340834867,-177.1912089866382,0.0,1.432572133381838,0.1,0.012794256210327148,0.3386719226837158,0.049611047,0.06342264,1568.4839041532134,2.832323243969636,7.974442701691651,0.0,19200,2.920416831970215,0.003804536842119194,0.0030415992381768366,6254151,111.73947407798988,0.0
327,13.160048484802246,1599.549914543888,679.5225192731755,2175.0253872534495,-146.1242433666082,0.0,1.5085034819166765,0.1,0.013506889343261719,0.3332693576812744,0.05050994,0.06669688,1571.590505192281,2.8291193856751122,7.968524714495921,0.0,19200,2.8824522495269775,0.004984118515981096,0.0034930705888449503,6273351,445.805056701274,0.0
328,13.008641004562378,1594.090358675454,677.300966497979,2174.4841778185955,-159.49755669540622,0.0,1.3811616483671858,0.1,0.012796401977539062,0.3383450508117676,0.050510876,0.12886225,1573.8404905405982,2.8215421667832388,7.940770161080983,0.0,19200,2.8642914295196533,0.00435219123108968,0.002781226812437017,6292551,422.9796325802469,0.0
329,12.938809394836426,1585.5419419488899,706.593486689767,2181.874987266048,-149.3660240868847,0.0,1.293159486416584,0.1,0.013381242752075195,0.30599474906921387,0.050083622,0.08384384,1575.0106356814276,2.792730591337224,7.8971767997013655,0.0,19200,2.8557186126708984,0.002244517470796958,0.0018891654678626442,6311751,603.6630952598472,0.0
330,13.01550030708313,1537.6190963036581,754.4008838656963,2202.48495905942,-134.5502271708285,0.0,1.5077409428419986,0.1,0.012772560119628906,0.3268098831176758,0.050019186,0.044439673,1571.2714817436508,2.736764737175779,7.658483732351738,0.0,19200,2.8664097785949707,0.0042111080290044055,0.00282411430869511,6330951,500.5388448598811,0.0
331,13.292904138565063,1536.1380373923287,704.6062778803812,2132.283191229552,-428.94789921974,0.0,1.4052438901375357,0.1,0.012771368026733398,0.3765718936920166,0.05058506,0.15875438,1567.7581373085188,2.70682786866206,7.650820164142792,0.0,19200,2.9315271377563477,0.006080054257393856,0.004111138330687878,6350151,488.8315593306537,0.0
332,13.016892433166504,1627.0179485851988,686.1053210618936,2195.3510746596326,-128.24029661747753,0.0,1.4792641403983589,0.1,0.012696504592895508,0.3458220958709717,0.050735675,0.056518376,1573.6841184361867,2.8886684198843873,8.105199512801441,0.0,19200,2.8050343990325928,0.003617572463869685,0.0023919503593928886,6369351,708.8872311879834,0.0
333,12.994537591934204,1591.7392479253767,713.9686805900426,2187.208964121002,-147.40335353341018,0.0,1.6077557677092227,0.1,0.012908935546875,0.3271617889404297,0.04941352,0.051100418,1575.489631385106,2.8279048148880115,7.929445018483324,0.0,19200,2.800163745880127,0.007594005066334063,0.004776330058877559,6388551,503.940082279918,0.0
334,13.212829828262329,1532.5331193947538,767.0219703185246,2181.408827486542,-253.71677299232928,0.0,1.685191593776748,0.1,0.012638092041015625,0.3151662349700928,0.049531363,0.099931255,1571.1939801860708,2.7157363954882747,7.633985926362527,0.0,19200,2.780029058456421,0.003939908920789762,0.0024316116374177126,6407751,453.022494982236,0.0
335,12.912737131118774,1592.5528391324272,679.8885236559837,2195.444157930239,-169.9950863706043,0.0,1.4787960062363428,0.1,0.012844562530517578,0.3330512046813965,0.04992753,0.07471467,1573.3298660807066,2.7996296959825018,7.933225818696062,0.0,19200,2.739969253540039,0.007987443529768152,0.00484186190025233,6426951,158.12341648755623,0.0
336,13.06713342666626,1563.3662995566053,732.6273480567324,2205.4554336642163,-346.242680660108,0.0,1.6276659425287328,0.1,0.0143585205078125,0.3295629024505615,0.04945085,0.051784478,1572.3335094282966,2.7748205623550195,7.787526432193707,0.0,19200,2.784311056137085,0.006680939464755666,0.005344361218213543,6446151,47.49721378759733,0.0
337,12.82340407371521,1569.7475243232293,718.7972728642727,2186.779915819618,-108.16604472901894,0.0,1.6763055669598745,0.1,0.013383626937866211,0.3445107936859131,0.050029736,0.049863696,1572.0749109177898,2.7998771830059677,7.8183637119116405,0.0,19200,2.8106579780578613,0.010154755722589691,0.006473299825711613,6465351,456.8482482843166,0.0
338,12.858676195144653,1485.4126876462076,791.5466914254247,2164.5119131529395,-166.1826953999667,0.0,1.5509088899140548,0.1,0.01298975944519043,0.31797027587890625,0.05027757,0.06855797,1563.4086885906315,2.638029210676203,7.399468919344677,0.0,19200,2.777977228164673,0.009899224483102135,0.006399239259796164,6484551,810.0484887296525,0.0
339,13.021968126296997,1557.6904837579707,704.1364767806033,2168.2144024040485,-155.41328331688322,0.0,1.4937131309521814,0.1,0.012729406356811523,0.3782007694244385,0.050135463,0.072202384,1562.8368681073653,2.7621624509052425,7.75731952182804,0.0,19200,2.843562364578247,0.005318079131507074,0.0038588878312951526,6503751,650.681054407315,0.0
340,12.914636135101318,1609.3972670147498,663.2483406053612,2151.180578955303,-320.6817096413705,0.0,1.8304513736726915,0.1,0.013028621673583984,0.371124267578125,0.04943757,0.0420846,1567.4929079981036,2.835579233601878,8.017697853946906,0.0,19200,2.867710828781128,0.0040300053305611355,0.0033245343350399295,6522951,661.3714512418269,0.0
341,12.949316501617432,1629.7807658465688,674.1766043920975,2205.563465292683,-212.44795126890313,0.0,1.483049043707822,0.1,0.012885570526123047,0.300443172454834,0.04969199,0.06348291,1573.7216937829503,2.8590049456720563,8.118366850449215,0.0,19200,2.847925901412964,0.005273838491321639,0.004173036391660301,6542151,807.5990962426307,0.0
342,12.790534257888794,1541.7878018155031,723.3608505995111,2158.3828343433947,-167.75433417852284,0.0,1.5212209313842113,0.1,0.013026237487792969,0.332108736038208,0.050111234,0.07987861,1570.5283045862056,2.7154626001200293,7.680292267887663,0.0,19200,2.8470897674560547,0.007259384616640186,0.004202509686465023,6561351,737.3019190640323,0.0
343,13.046521663665771,1557.086841274986,764.7696454999999,2165.5990136142964,-1337.9953664914515,0.0,1.5871746870130579,0.1,0.012899160385131836,0.28365397453308105,0.050032113,0.061534874,1569.1841582550837,2.738584251492012,7.756705374820452,0.0,19200,2.782658100128174,0.005658896059140368,0.0035848726663505444,6580551,497.2061661062971,0.0
344,12.673850059509277,1577.9021953724161,713.8768110154713,2149.5200485958153,-98.73159054959827,0.0,1.2945428138185477,0.1,0.012774944305419922,0.3287086486816406,0.05031744,0.12482328,1570.055961966817,2.7900242755209157,7.8595536034348195,0.0,19200,2.7881953716278076,0.0037189719907513223,0.0024463794463157,6599751,365.1602631252997,0.0
345,13.327696800231934,1743.444185903414,471.1823973961429,2163.758234795303,-98.57574073983716,0.0,1.6013912779062078,0.1,0.013886690139770508,0.32460689544677734,0.050116185,0.066601865,1587.394784360477,3.0465296630068734,8.686255920241683,0.0,19200,2.825948715209961,0.006617892025417256,0.0036202418377319066,6618951,508.5142305328536,0.0
346,13.133685111999512,1615.4235393033061,671.4411565576197,2186.9656066199686,-181.77271251632916,0.0,1.6376998691919107,0.1,0.012645483016967773,0.3021116256713867,0.050221264,0.04895634,1590.1976598547599,2.8494020940992972,8.04664128818734,0.0,19200,2.7919230461120605,0.009982439303965807,0.0053486709218517675,6638151,1072.1419346419198,0.0
