Iter | Sampling Pol | Evaluation Pol | Best (Sampled) 
   0 -476.29 -1163.62 -100000000.00 
   1 -575.49 -1049.47 -476.29 
   2 -483.45 -979.17 -476.29 
   3 -466.46 -847.03 -476.29 
   4 -458.49 -1020.87 -466.46 
   5 -528.12 -1044.79 -458.49 
   6 -466.97 -1185.93 -458.49 
   7 -486.23 -1041.18 -458.49 
   8 -452.93 -946.24 -458.49 
   9 -465.52 -1043.63 -452.93 
  10 -472.38 -1160.35 -452.93 
  11 -438.25 -880.74 -452.93 
  12 -436.88 -882.64 -438.25 
  13 -492.68 -874.27 -436.88 
  14 -471.20 -800.31 -436.88 
  15 -438.12 -834.74 -436.88 
  16 -432.76 -866.94 -436.88 
  17 -472.85 -839.19 -432.76 
  18 -460.29 -755.72 -432.76 
  19 -454.79 -740.76 -432.76 
  20 -422.26 -759.61 -432.76 
  21 -414.57 -844.81 -422.26 
  22 -413.42 -755.44 -414.57 
  23 -405.11 -747.53 -413.42 
  24 -416.73 -789.20 -405.11 
  25 -423.60 -737.15 -405.11 
  26 -408.33 -740.87 -405.11 
  27 -409.81 -735.37 -405.11 
  28 -407.55 -904.58 -405.11 
  29 -406.55 -797.35 -405.11 
  30 -399.60 -723.60 -405.11 
  31 -407.20 -842.22 -399.60 
  32 -399.38 -898.48 -399.60 
  33 -408.10 -820.92 -399.38 
  34 -400.87 -673.08 -399.38 
  35 -411.68 -660.23 -399.38 
  36 -410.89 -759.59 -399.38 
  37 -389.06 -897.29 -399.38 
  38 -399.01 -672.99 -389.06 
  39 -399.44 -680.49 -389.06 
  40 -397.99 -627.20 -389.06 
  41 -390.41 -714.43 -389.06 
  42 -392.64 -710.74 -389.06 
  43 -393.12 -739.88 -389.06 
  44 -393.53 -915.85 -389.06 
  45 -392.51 -855.05 -389.06 
  46 -408.33 -813.93 -389.06 
  47 -403.21 -844.25 -389.06 
  48 -397.39 -809.09 -389.06 
  49 -393.07 -977.33 -389.06 
  50 -404.41 -953.30 -389.06 
  51 -380.99 -885.02 -389.06 
  52 -398.87 -858.04 -380.99 
  53 -384.61 -830.02 -380.99 
  54 -388.87 -910.52 -380.99 
  55 -390.76 -877.86 -380.99 
  56 -387.22 -941.65 -380.99 
  57 -373.34 -886.43 -380.99 
  58 -393.54 -864.82 -373.34 
  59 -374.15 -898.18 -373.34 
  60 -381.07 -857.04 -373.34 
  61 -385.50 -957.34 -373.34 
  62 -377.04 -909.74 -373.34 
  63 -381.39 -827.34 -373.34 
  64 -376.72 -854.81 -373.34 
  65 -374.02 -821.11 -373.34 
  66 -380.30 -888.35 -373.34 
  67 -368.87 -969.32 -373.34 
  68 -379.75 -959.88 -368.87 
  69 -375.66 -912.80 -368.87 
  70 -379.85 -982.40 -368.87 
  71 -373.82 -895.49 -368.87 
  72 -367.73 -934.82 -368.87 
  73 -403.13 -855.73 -367.73 
  74 -372.36 -805.21 -367.73 
  75 -374.14 -914.85 -367.73 
  76 -363.84 -924.38 -367.73 
  77 -395.27 -944.23 -363.84 
  78 -367.77 -907.56 -363.84 
  79 -392.88 -915.53 -363.84 
  80 -362.60 -941.19 -363.84 
  81 -365.87 -828.07 -362.60 
  82 -375.77 -690.77 -362.60 
  83 -361.15 -687.60 -362.60 
  84 -361.72 -659.97 -361.15 
  85 -361.43 -681.67 -361.15 
  86 -373.23 -718.50 -361.15 
  87 -366.22 -760.78 -361.15 
  88 -355.98 -730.62 -361.15 
  89 -354.00 -714.32 -355.98 
  90 -352.34 -747.41 -354.00 
  91 -360.22 -712.53 -352.34 
  92 -353.57 -697.82 -352.34 
  93 -352.61 -650.29 -352.34 
  94 -351.07 -697.10 -352.34 
  95 -361.95 -690.88 -351.07 
  96 -347.55 -685.28 -351.07 
  97 -360.25 -686.58 -347.55 
  98 -351.74 -648.47 -347.55 
  99 -351.37 -628.27 -347.55 
 100 -351.90 -661.44 -347.55 
 101 -356.13 -687.18 -347.55 
 102 -345.42 -670.23 -347.55 
 103 -347.85 -681.15 -345.42 
 104 -351.19 -692.44 -345.42 
 105 -346.77 -665.74 -345.42 
 106 -349.80 -685.68 -345.42 
 107 -346.11 -737.12 -345.42 
 108 -344.66 -677.16 -345.42 
 109 -339.63 -613.62 -344.66 
 110 -344.72 -658.78 -339.63 
 111 -343.55 -623.33 -339.63 
 112 -333.47 -633.85 -339.63 
 113 -339.62 -594.15 -333.47 
 114 -339.88 -736.97 -333.47 
 115 -358.54 -761.44 -333.47 
 116 -339.47 -692.18 -333.47 
 117 -337.11 -669.48 -333.47 
 118 -341.62 -638.64 -333.47 
 119 -335.13 -634.90 -333.47 
 120 -333.93 -668.77 -333.47 
 121 -332.80 -570.89 -333.47 
 122 -329.81 -545.90 -332.80 
 123 -331.88 -572.05 -329.81 
 124 -327.31 -553.74 -329.81 
 125 -324.23 -579.91 -327.31 
 126 -331.77 -486.19 -324.23 
 127 -323.56 -584.97 -324.23 
 128 -328.99 -589.23 -323.56 
 129 -323.59 -604.71 -323.56 
 130 -324.37 -610.75 -323.56 
 131 -318.71 -538.25 -323.56 
 132 -316.56 -609.21 -318.71 
 133 -326.54 -611.06 -316.56 
 134 -319.06 -635.08 -316.56 
 135 -320.66 -539.23 -316.56 
 136 -312.47 -520.28 -316.56 
 137 -319.69 -525.61 -312.47 
 138 -313.74 -430.77 -312.47 
 139 -311.16 -469.77 -312.47 
 140 -314.68 -467.75 -311.16 
 141 -312.75 -467.28 -311.16 
 142 -308.15 -471.77 -311.16 
 143 -313.16 -458.56 -308.15 
 144 -309.71 -438.97 -308.15 
 145 -308.25 -459.84 -308.15 
 146 -310.39 -455.29 -308.15 
 147 -304.54 -396.42 -308.15 
 148 -307.60 -415.99 -304.54 
 149 -298.13 -415.01 -304.54 
 150 -302.23 -400.67 -298.13 
 151 -307.93 -395.37 -298.13 
 152 -304.98 -413.60 -298.13 
 153 -301.24 -405.44 -298.13 
 154 -305.28 -382.25 -298.13 
 155 -298.28 -417.69 -298.13 
 156 -303.37 -429.26 -298.13 
 157 -296.43 -414.89 -298.13 
 158 -298.97 -404.94 -296.43 
 159 -294.51 -372.62 -296.43 
 160 -288.20 -364.92 -294.51 
 161 -295.84 -408.77 -288.20 
 162 -294.00 -355.93 -288.20 
 163 -297.55 -440.41 -288.20 
 164 -291.04 -460.89 -288.20 
 165 -294.35 -440.01 -288.20 
 166 -293.33 -519.09 -288.20 
 167 -312.61 -480.13 -288.20 
 168 -286.67 -465.21 -288.20 
 169 -294.34 -364.07 -286.67 
 170 -284.94 -365.48 -286.67 
 171 -288.68 -387.51 -284.94 
 172 -285.54 -358.55 -284.94 
 173 -287.56 -354.55 -284.94 
 174 -282.71 -344.31 -284.94 
 175 -289.52 -339.66 -282.71 
 176 -284.87 -342.11 -282.71 
 177 -286.68 -337.85 -282.71 
 178 -282.74 -334.57 -282.71 
 179 -284.37 -331.95 -282.71 
 180 -274.52 -325.71 -282.71 
 181 -282.79 -334.14 -274.52 
 182 -277.56 -333.29 -274.52 
 183 -275.06 -341.71 -274.52 
 184 -276.18 -331.85 -274.52 
 185 -270.71 -334.07 -274.52 
 186 -275.44 -328.72 -270.71 
 187 -276.09 -324.93 -270.71 
 188 -269.12 -321.20 -270.71 
 189 -273.38 -324.14 -269.12 
 190 -267.28 -316.34 -269.12 
 191 -267.20 -327.54 -267.28 
 192 -262.51 -326.58 -267.20 
 193 -266.48 -319.56 -262.51 
 194 -260.07 -315.22 -262.51 
 195 -269.03 -319.49 -260.07 
 196 -261.88 -321.40 -260.07 
 197 -259.97 -328.88 -260.07 
 198 -256.58 -329.90 -259.97 
 199 -256.71 -321.06 -256.58 
 200 -253.11 -324.82 -256.58 
 201 -257.61 -311.56 -253.11 
 202 -255.36 -319.63 -253.11 
 203 -255.19 -313.02 -253.11 
 204 -251.52 -316.33 -253.11 
 205 -251.31 -317.57 -251.52 
 206 -256.04 -320.94 -251.31 
 207 -257.37 -316.82 -251.31 
 208 -259.76 -313.88 -251.31 
 209 -260.38 -316.95 -251.31 
 210 -249.13 -306.30 -251.31 
 211 -249.25 -304.37 -249.13 
 212 -253.43 -302.76 -249.13 
 213 -251.50 -303.29 -249.13 
 214 -249.66 -303.43 -249.13 
 215 -247.08 -296.51 -249.13 
 216 -254.28 -301.16 -247.08 
 217 -258.93 -302.69 -247.08 
 218 -249.44 -304.90 -247.08 
 219 -253.20 -304.39 -247.08 
 220 -242.62 -307.06 -247.08 
 221 -248.21 -305.69 -242.62 
 222 -244.57 -302.12 -242.62 
 223 -246.89 -303.40 -242.62 
 224 -251.68 -307.71 -242.62 
 225 -246.20 -310.49 -242.62 
 226 -248.22 -303.01 -242.62 
 227 -241.54 -317.86 -242.62 
 228 -241.81 -304.75 -241.54 
 229 -244.88 -313.26 -241.54 
 230 -244.72 -317.59 -241.54 
 231 -241.83 -306.18 -241.54 
 232 -243.04 -314.67 -241.54 
 233 -238.77 -314.85 -241.54 
 234 -241.53 -306.29 -238.77 
 235 -239.66 -307.38 -238.77 
 236 -239.72 -304.12 -238.77 
 237 -241.24 -302.44 -238.77 
 238 -240.21 -293.22 -238.77 
 239 -236.06 -288.06 -238.77 
 240 -235.23 -288.17 -236.06 
 241 -237.05 -273.11 -235.23 
 242 -238.76 -265.84 -235.23 
 243 -234.68 -264.58 -235.23 
 244 -240.44 -267.62 -234.68 
 245 -237.24 -274.48 -234.68 
 246 -237.44 -278.75 -234.68 
 247 -233.52 -276.40 -234.68 
 248 -235.96 -271.59 -233.52 
 249 -240.46 -259.29 -233.52 
 250 -234.11 -251.54 -233.52 
 251 -232.46 -247.80 -233.52 
 252 -237.39 -250.27 -232.46 
 253 -235.35 -249.05 -232.46 
 254 -238.59 -248.92 -232.46 
 255 -240.02 -249.14 -232.46 
 256 -234.34 -253.08 -232.46 
 257 -234.77 -260.97 -232.46 
 258 -237.54 -256.79 -232.46 
 259 -236.06 -245.05 -232.46 
 260 -231.69 -241.55 -232.46 
 261 -233.91 -244.65 -231.69 
 262 -232.43 -242.47 -231.69 
 263 -230.96 -242.17 -231.69 
 264 -238.54 -241.88 -230.96 
 265 -234.53 -245.96 -230.96 
 266 -235.20 -242.31 -230.96 
 267 -229.25 -247.16 -230.96 
 268 -231.35 -242.78 -229.25 
 269 -233.44 -250.81 -229.25 
 270 -233.22 -246.87 -229.25 
 271 -234.63 -238.87 -229.25 
 272 -228.70 -236.44 -229.25 
 273 -235.09 -240.44 -228.70 
 274 -231.10 -249.99 -228.70 
 275 -231.02 -250.20 -228.70 
 276 -228.89 -243.02 -228.70 
 277 -233.04 -239.47 -228.70 
 278 -232.16 -243.88 -228.70 
 279 -227.82 -241.95 -228.70 
 280 -227.43 -250.64 -227.82 
 281 -229.45 -246.46 -227.43 
 282 -232.35 -239.29 -227.43 
 283 -223.55 -235.17 -227.43 
 284 -223.48 -246.96 -223.55 
 285 -227.25 -242.58 -223.48 
 286 -230.69 -249.71 -223.48 
 287 -219.32 -263.72 -223.48 
 288 -231.03 -267.73 -219.32 
 289 -225.16 -260.10 -219.32 
 290 -228.38 -251.05 -219.32 
 291 -223.91 -242.54 -219.32 
 292 -222.65 -236.12 -219.32 
 293 -226.23 -228.96 -219.32 
 294 -223.93 -233.32 -219.32 
 295 -222.14 -232.16 -219.32 
 296 -230.57 -231.63 -219.32 
 297 -221.58 -228.85 -219.32 
 298 -223.73 -232.17 -219.32 
 299 -223.45 -228.69 -219.32 
 300 -222.88 -226.40 -219.32 
 301 -221.52 -227.83 -219.32 
 302 -223.41 -224.66 -219.32 
 303 -224.77 -224.65 -219.32 
 304 -218.60 -223.95 -219.32 
 305 -227.20 -225.71 -218.60 
 306 -218.12 -226.31 -218.60 
 307 -223.51 -224.73 -218.12 
 308 -221.62 -217.65 -218.12 
 309 -225.79 -215.31 -218.12 
 310 -221.69 -214.63 -218.12 
 311 -221.31 -216.40 -218.12 
 312 -220.08 -216.86 -218.12 
 313 -224.62 -217.81 -218.12 
 314 -224.80 -216.70 -218.12 
 315 -223.84 -218.11 -218.12 
 316 -219.46 -219.73 -218.12 
 317 -217.30 -217.38 -218.12 
 318 -226.19 -214.66 -217.30 
 319 -221.25 -215.77 -217.30 
 320 -220.96 -218.41 -217.30 
 321 -218.82 -215.70 -217.30 
 322 -218.22 -214.14 -217.30 
 323 -216.68 -214.74 -217.30 
 324 -217.24 -214.57 -216.68 
 325 -216.89 -211.79 -216.68 
 326 -222.12 -216.71 -216.68 
 327 -216.53 -211.72 -216.68 
 328 -220.30 -212.50 -216.53 
 329 -219.75 -215.02 -216.53 
 330 -216.72 -216.28 -216.53 
 331 -215.25 -214.03 -216.53 
 332 -221.13 -214.60 -215.25 
 333 -218.59 -213.33 -215.25 
 334 -213.23 -212.21 -215.25 
 335 -219.79 -210.75 -213.23 
 336 -217.17 -213.01 -213.23 
 337 -217.96 -210.75 -213.23 
 338 -219.37 -218.38 -213.23 
 339 -220.56 -218.51 -213.23 
 340 -218.75 -218.85 -213.23 
 341 -220.98 -218.28 -213.23 
 342 -215.85 -217.17 -213.23 
 343 -216.36 -214.08 -213.23 
 344 -220.22 -215.63 -213.23 
 345 -220.62 -217.09 -213.23 
 346 -218.48 -216.47 -213.23 
 347 -215.72 -219.91 -213.23 
 348 -219.60 -213.93 -213.23 
 349 -219.59 -213.02 -213.23 
 350 -219.29 -212.58 -213.23 
 351 -220.07 -212.65 -213.23 
 352 -218.84 -215.44 -213.23 
 353 -217.26 -214.21 -213.23 
 354 -215.10 -213.31 -213.23 
 355 -214.09 -216.92 -213.23 
 356 -217.54 -215.28 -213.23 
 357 -219.55 -215.86 -213.23 
 358 -218.29 -216.92 -213.23 
 359 -220.03 -213.89 -213.23 
 360 -219.76 -216.90 -213.23 
 361 -219.60 -220.43 -213.23 
 362 -219.67 -218.83 -213.23 
 363 -220.91 -218.03 -213.23 
 364 -216.25 -218.61 -213.23 
 365 -210.31 -217.37 -213.23 
 366 -216.71 -218.69 -210.31 
 367 -218.01 -217.39 -210.31 
 368 -214.88 -221.34 -210.31 
 369 -217.97 -219.61 -210.31 
 370 -214.98 -221.76 -210.31 
 371 -223.04 -220.49 -210.31 
 372 -219.46 -220.17 -210.31 
 373 -219.54 -220.67 -210.31 
 374 -211.55 -218.58 -210.31 
 375 -219.01 -218.59 -210.31 
 376 -216.69 -219.74 -210.31 
 377 -218.70 -219.99 -210.31 
 378 -220.30 -216.62 -210.31 
 379 -215.12 -220.21 -210.31 
 380 -215.89 -215.72 -210.31 
 381 -212.86 -220.42 -210.31 
 382 -215.25 -213.41 -210.31 
 383 -215.79 -222.68 -210.31 
 384 -217.05 -220.65 -210.31 
 385 -219.68 -224.98 -210.31 
 386 -217.73 -219.60 -210.31 
 387 -216.60 -225.53 -210.31 
 388 -220.08 -220.93 -210.31 
 389 -215.98 -220.14 -210.31 
 390 -212.64 -218.10 -210.31 
 391 -218.63 -219.13 -210.31 
 392 -216.26 -214.51 -210.31 
 393 -217.64 -212.93 -210.31 
 394 -218.62 -213.22 -210.31 
 395 -217.89 -213.75 -210.31 
 396 -217.83 -216.70 -210.31 
 397 -214.16 -212.12 -210.31 
 398 -220.41 -207.89 -210.31 
 399 -212.27 -211.45 -210.31 
 400 -218.85 -209.79 -210.31 
 401 -215.94 -212.01 -210.31 
 402 -217.28 -211.48 -210.31 
 403 -215.06 -213.45 -210.31 
 404 -213.43 -215.51 -210.31 
 405 -215.36 -215.34 -210.31 
 406 -219.89 -212.30 -210.31 
 407 -216.33 -210.32 -210.31 
 408 -214.36 -209.64 -210.31 
 409 -212.89 -211.01 -210.31 
 410 -208.77 -209.83 -210.31 
 411 -211.87 -211.87 -208.77 
 412 -214.79 -210.31 -208.77 
 413 -214.61 -209.28 -208.77 
 414 -213.71 -212.51 -208.77 
 415 -211.95 -211.81 -208.77 
 416 -216.29 -214.13 -208.77 
 417 -213.07 -211.76 -208.77 
 418 -211.22 -211.98 -208.77 
 419 -214.97 -213.44 -208.77 
 420 -215.76 -212.64 -208.77 
 421 -214.43 -215.36 -208.77 
 422 -216.88 -213.33 -208.77 
 423 -213.60 -209.93 -208.77 
 424 -208.71 -211.24 -208.77 
 425 -215.80 -211.59 -208.71 
 426 -215.11 -208.74 -208.71 
 427 -214.92 -207.91 -208.71 
 428 -213.77 -207.77 -208.71 
 429 -213.12 -208.13 -208.71 
 430 -213.72 -207.30 -208.71 
 431 -213.33 -208.19 -208.71 
 432 -214.04 -208.00 -208.71 
 433 -211.60 -207.90 -208.71 
 434 -211.31 -209.53 -208.71 
 435 -213.47 -209.72 -208.71 
 436 -216.99 -207.75 -208.71 
 437 -215.70 -207.77 -208.71 
 438 -213.11 -206.96 -208.71 
 439 -211.16 -207.47 -208.71 
 440 -210.35 -204.46 -208.71 
 441 -209.94 -203.43 -208.71 
 442 -214.24 -204.55 -208.71 
 443 -209.29 -206.28 -208.71 
 444 -209.54 -207.78 -208.71 
 445 -211.60 -206.52 -208.71 
 446 -211.04 -204.33 -208.71 
 447 -214.13 -208.32 -208.71 
 448 -209.78 -207.55 -208.71 
 449 -210.27 -206.62 -208.71 
 450 -208.45 -204.64 -208.71 
 451 -209.00 -206.35 -208.45 
 452 -213.22 -204.45 -208.45 
 453 -210.41 -205.20 -208.45 
 454 -210.21 -204.34 -208.45 
 455 -210.64 -203.06 -208.45 
 456 -213.94 -203.03 -208.45 
 457 -210.80 -203.05 -208.45 
 458 -210.25 -204.79 -208.45 
 459 -210.79 -203.85 -208.45 
 460 -210.58 -203.96 -208.45 
 461 -212.72 -202.44 -208.45 
 462 -207.02 -202.79 -208.45 
 463 -207.64 -203.18 -207.02 
 464 -216.63 -203.20 -207.02 
 465 -211.31 -201.73 -207.02 
 466 -211.11 -202.01 -207.02 
 467 -206.59 -201.96 -207.02 
 468 -210.04 -202.18 -206.59 
 469 -211.12 -204.60 -206.59 
 470 -209.85 -204.34 -206.59 
 471 -207.06 -202.66 -206.59 
 472 -212.74 -205.38 -206.59 
 473 -209.30 -202.28 -206.59 
 474 -212.26 -203.89 -206.59 
 475 -208.50 -203.83 -206.59 
 476 -206.60 -201.95 -206.59 
 477 -214.99 -202.49 -206.59 
 478 -210.63 -201.39 -206.59 
 479 -209.70 -202.16 -206.59 
 480 -214.03 -203.07 -206.59 
 481 -211.85 -203.28 -206.59 
 482 -208.85 -203.93 -206.59 
 483 -210.43 -201.42 -206.59 
 484 -210.03 -202.11 -206.59 
 485 -210.77 -200.20 -206.59 
 486 -212.66 -200.47 -206.59 
 487 -211.41 -204.81 -206.59 
 488 -209.93 -203.57 -206.59 
 489 -207.10 -199.62 -206.59 
 490 -212.70 -198.76 -206.59 
 491 -204.36 -200.37 -206.59 
 492 -207.28 -201.71 -204.36 
 493 -208.46 -200.73 -204.36 
 494 -209.71 -203.05 -204.36 
 495 -210.40 -202.90 -204.36 
 496 -203.06 -199.21 -204.36 
 497 -208.45 -200.58 -203.06 
 498 -207.62 -200.79 -203.06 
 499 -209.43 -200.98 -203.06 
 500 -209.19 -199.63 -203.06 
 501 -210.54 -199.01 -203.06 
 502 -207.37 -199.05 -203.06 
 503 -207.88 -200.49 -203.06 
 504 -206.45 -202.57 -203.06 
 505 -206.63 -203.16 -203.06 
 506 -210.48 -201.15 -203.06 
 507 -208.18 -203.11 -203.06 
 508 -206.82 -202.56 -203.06 
 509 -202.22 -202.60 -203.06 
 510 -207.09 -202.67 -202.22 
 511 -209.54 -198.86 -202.22 
 512 -209.39 -200.03 -202.22 
 513 -209.15 -199.33 -202.22 
 514 -208.41 -200.64 -202.22 
 515 -211.04 -200.31 -202.22 
 516 -211.77 -199.23 -202.22 
 517 -203.51 -199.02 -202.22 
 518 -208.36 -199.49 -202.22 
 519 -207.44 -200.28 -202.22 
 520 -205.52 -197.42 -202.22 
 521 -209.35 -197.45 -202.22 
 522 -205.05 -200.69 -202.22 
 523 -205.91 -198.63 -202.22 
 524 -207.32 -198.04 -202.22 
 525 -208.74 -199.29 -202.22 
 526 -207.38 -196.78 -202.22 
 527 -208.47 -199.83 -202.22 
 528 -209.23 -201.11 -202.22 
 529 -209.27 -199.70 -202.22 
 530 -207.37 -198.49 -202.22 
 531 -202.65 -198.25 -202.22 
 532 -206.47 -198.64 -202.22 
 533 -204.74 -198.80 -202.22 
 534 -205.70 -197.98 -202.22 
 535 -207.53 -197.66 -202.22 
 536 -209.11 -198.51 -202.22 
 537 -201.84 -197.96 -202.22 
 538 -209.37 -198.26 -201.84 
 539 -205.37 -197.94 -201.84 
 540 -204.28 -198.21 -201.84 
 541 -209.15 -199.48 -201.84 
 542 -208.36 -198.44 -201.84 
 543 -205.87 -198.60 -201.84 
 544 -208.06 -198.81 -201.84 
 545 -204.37 -199.28 -201.84 
 546 -207.41 -198.33 -201.84 
 547 -205.94 -200.70 -201.84 
 548 -203.77 -199.59 -201.84 
 549 -207.06 -200.41 -201.84 
 550 -203.68 -198.88 -201.84 
 551 -211.17 -198.00 -201.84 
 552 -202.45 -198.75 -201.84 
 553 -207.11 -195.68 -201.84 
 554 -213.19 -195.81 -201.84 
 555 -208.10 -197.71 -201.84 
 556 -203.65 -197.84 -201.84 
 557 -203.86 -196.69 -201.84 
 558 -203.15 -198.01 -201.84 
 559 -203.81 -200.34 -201.84 
 560 -205.27 -201.80 -201.84 
 561 -205.99 -200.14 -201.84 
 562 -201.68 -199.95 -201.84 
 563 -204.40 -199.88 -201.68 
 564 -205.12 -202.01 -201.68 
 565 -203.69 -199.84 -201.68 
 566 -207.88 -201.16 -201.68 
 567 -203.16 -201.06 -201.68 
 568 -202.00 -199.61 -201.68 
 569 -202.40 -201.42 -201.68 
 570 -204.92 -201.89 -201.68 
 571 -205.42 -199.17 -201.68 
 572 -209.13 -200.32 -201.68 
 573 -207.04 -199.14 -201.68 
 574 -205.58 -196.82 -201.68 
 575 -201.93 -199.84 -201.68 
 576 -203.61 -199.62 -201.68 
 577 -204.74 -199.46 -201.68 
 578 -204.35 -199.72 -201.68 
 579 -199.16 -198.21 -201.68 
 580 -201.39 -199.50 -199.16 
 581 -202.12 -198.99 -199.16 
 582 -201.70 -198.54 -199.16 
 583 -205.79 -200.07 -199.16 
 584 -207.67 -200.30 -199.16 
 585 -213.59 -200.49 -199.16 
 586 -204.74 -202.36 -199.16 
 587 -208.25 -200.98 -199.16 
 588 -203.16 -200.74 -199.16 
 589 -203.27 -202.42 -199.16 
 590 -201.62 -202.10 -199.16 
 591 -210.76 -201.89 -199.16 
 592 -200.68 -202.04 -199.16 
 593 -202.50 -199.91 -199.16 
 594 -202.51 -199.75 -199.16 
 595 -202.10 -199.58 -199.16 
 596 -203.73 -200.10 -199.16 
 597 -206.16 -199.36 -199.16 
 598 -207.26 -198.98 -199.16 
 599 -200.30 -199.25 -199.16 
 600 -202.78 -195.81 -199.16 
 601 -203.23 -197.41 -199.16 
 602 -202.18 -197.46 -199.16 
 603 -201.26 -197.26 -199.16 
 604 -201.20 -196.09 -199.16 
 605 -203.01 -197.08 -199.16 
 606 -201.79 -195.67 -199.16 
 607 -204.75 -195.59 -199.16 
 608 -201.22 -193.95 -199.16 
 609 -203.16 -194.25 -199.16 
 610 -201.52 -194.17 -199.16 
 611 -199.01 -195.46 -199.16 
 612 -201.67 -194.05 -199.01 
 613 -202.17 -195.68 -199.01 
 614 -201.32 -194.57 -199.01 
 615 -198.73 -194.58 -199.01 
 616 -205.24 -197.95 -198.73 
 617 -203.92 -196.59 -198.73 
 618 -203.36 -197.27 -198.73 
 619 -200.38 -194.28 -198.73 
 620 -204.69 -197.23 -198.73 
 621 -205.18 -195.73 -198.73 
 622 -201.45 -195.42 -198.73 
 623 -198.55 -196.48 -198.73 
 624 -200.68 -195.48 -198.55 
 625 -203.74 -196.47 -198.55 
 626 -201.39 -196.87 -198.55 
 627 -202.64 -196.97 -198.55 
 628 -201.14 -197.42 -198.55 
 629 -201.48 -198.07 -198.55 
 630 -202.12 -197.90 -198.55 
 631 -200.71 -194.91 -198.55 
 632 -200.07 -197.97 -198.55 
 633 -198.80 -196.43 -198.55 
 634 -200.73 -197.65 -198.55 
 635 -199.23 -196.59 -198.55 
 636 -204.31 -197.06 -198.55 
 637 -198.62 -195.45 -198.55 
 638 -197.54 -195.56 -198.55 
 639 -201.92 -194.03 -197.54 
 640 -199.76 -193.27 -197.54 
 641 -198.77 -193.53 -197.54 
 642 -200.99 -193.20 -197.54 
 643 -202.72 -194.51 -197.54 
 644 -198.44 -193.34 -197.54 
 645 -200.77 -192.33 -197.54 
 646 -204.37 -193.34 -197.54 
 647 -203.10 -192.63 -197.54 
 648 -200.08 -192.55 -197.54 
 649 -197.86 -192.86 -197.54 
 650 -200.25 -192.47 -197.54 
 651 -203.07 -195.69 -197.54 
 652 -204.60 -194.36 -197.54 
 653 -205.23 -192.73 -197.54 
 654 -201.22 -194.15 -197.54 
 655 -196.98 -192.72 -197.54 
 656 -200.71 -191.83 -196.98 
 657 -203.04 -193.47 -196.98 
 658 -201.78 -193.63 -196.98 
 659 -204.94 -193.48 -196.98 
 660 -200.81 -193.68 -196.98 
 661 -202.36 -193.43 -196.98 
 662 -201.99 -192.18 -196.98 
 663 -205.55 -193.52 -196.98 
 664 -202.46 -193.39 -196.98 
 665 -201.10 -193.15 -196.98 
 666 -201.26 -193.07 -196.98 
 667 -202.12 -193.25 -196.98 
 668 -199.17 -195.17 -196.98 
 669 -202.40 -193.65 -196.98 
 670 -207.85 -194.12 -196.98 
 671 -197.61 -192.68 -196.98 
 672 -202.53 -193.26 -196.98 
 673 -203.38 -193.03 -196.98 
 674 -201.23 -192.76 -196.98 
 675 -201.19 -192.85 -196.98 
 676 -197.29 -193.23 -196.98 
 677 -199.27 -192.95 -196.98 
 678 -199.92 -193.24 -196.98 
 679 -202.70 -193.45 -196.98 
 680 -194.43 -193.12 -196.98 
 681 -198.85 -193.56 -194.43 
 682 -202.63 -193.36 -194.43 
 683 -202.84 -193.75 -194.43 
 684 -200.25 -192.49 -194.43 
 685 -197.16 -192.28 -194.43 
 686 -201.10 -192.49 -194.43 
 687 -201.54 -192.56 -194.43 
 688 -195.70 -192.50 -194.43 
 689 -200.18 -193.14 -194.43 
 690 -201.39 -194.13 -194.43 
 691 -199.59 -193.64 -194.43 
 692 -199.24 -193.69 -194.43 
 693 -199.37 -193.73 -194.43 
 694 -200.80 -193.59 -194.43 
 695 -197.94 -193.99 -194.43 
 696 -197.55 -194.39 -194.43 
 697 -197.18 -194.09 -194.43 
 698 -205.46 -194.75 -194.43 
 699 -194.75 -193.50 -194.43 
 700 -198.23 -194.70 -194.43 
 701 -199.02 -194.87 -194.43 
 702 -197.63 -194.40 -194.43 
 703 -197.56 -194.67 -194.43 
 704 -199.07 -195.02 -194.43 
 705 -199.69 -193.52 -194.43 
 706 -197.90 -192.05 -194.43 
 707 -198.10 -191.92 -194.43 
 708 -198.13 -193.26 -194.43 
 709 -198.87 -193.25 -194.43 
 710 -202.14 -193.45 -194.43 
 711 -200.62 -193.32 -194.43 
 712 -195.35 -193.59 -194.43 
 713 -199.39 -193.44 -194.43 
 714 -200.01 -192.12 -194.43 
 715 -199.77 -191.99 -194.43 
 716 -197.30 -191.64 -194.43 
 717 -199.28 -190.17 -194.43 
 718 -200.08 -191.78 -194.43 
 719 -199.01 -193.31 -194.43 
 720 -200.92 -195.26 -194.43 
 721 -199.36 -193.24 -194.43 
 722 -197.47 -191.81 -194.43 
 723 -200.06 -192.08 -194.43 
 724 -201.18 -193.12 -194.43 
 725 -197.78 -193.11 -194.43 
 726 -195.76 -193.07 -194.43 
 727 -198.39 -191.61 -194.43 
 728 -197.45 -193.66 -194.43 
 729 -197.75 -192.21 -194.43 
 730 -197.15 -192.49 -194.43 
 731 -198.08 -192.39 -194.43 
 732 -200.66 -193.98 -194.43 
 733 -198.16 -191.00 -194.43 
 734 -199.79 -190.90 -194.43 
 735 -196.87 -190.84 -194.43 
 736 -201.62 -191.00 -194.43 
 737 -199.92 -191.36 -194.43 
 738 -197.04 -191.59 -194.43 
 739 -197.76 -192.86 -194.43 
 740 -195.35 -190.27 -194.43 
 741 -198.20 -190.76 -194.43 
 742 -201.30 -190.28 -194.43 
 743 -199.06 -189.03 -194.43 
 744 -196.80 -191.53 -194.43 
 745 -199.96 -190.18 -194.43 
 746 -198.53 -189.96 -194.43 
 747 -197.40 -190.13 -194.43 
 748 -192.98 -191.98 -194.43 
 749 -198.01 -187.75 -192.98 
 750 -196.49 -190.77 -192.98 
 751 -198.95 -189.45 -192.98 
 752 -200.71 -189.41 -192.98 
 753 -202.01 -187.89 -192.98 
 754 -200.65 -189.64 -192.98 
 755 -199.36 -189.89 -192.98 
 756 -197.75 -191.19 -192.98 
 757 -195.43 -188.73 -192.98 
 758 -194.74 -188.63 -192.98 
 759 -194.25 -187.45 -192.98 
 760 -197.31 -187.30 -192.98 
 761 -194.57 -187.32 -192.98 
 762 -194.76 -189.80 -192.98 
 763 -195.04 -189.88 -192.98 
 764 -196.53 -188.73 -192.98 
 765 -196.16 -188.23 -192.98 
 766 -195.39 -188.34 -192.98 
 767 -196.12 -188.49 -192.98 
 768 -196.76 -188.36 -192.98 
 769 -195.94 -189.82 -192.98 
 770 -199.43 -190.10 -192.98 
 771 -195.93 -190.13 -192.98 
 772 -198.12 -188.84 -192.98 
 773 -196.05 -190.02 -192.98 
 774 -196.44 -191.03 -192.98 
 775 -197.57 -188.87 -192.98 
 776 -193.36 -189.21 -192.98 
 777 -197.50 -191.56 -192.98 
 778 -195.29 -191.54 -192.98 
 779 -195.75 -190.57 -192.98 
 780 -195.80 -188.77 -192.98 
 781 -197.58 -189.66 -192.98 
 782 -192.81 -191.04 -192.98 
 783 -198.47 -190.30 -192.81 
 784 -193.13 -191.11 -192.81 
 785 -194.16 -189.54 -192.81 
 786 -196.46 -189.72 -192.81 
 787 -194.23 -191.14 -192.81 
 788 -193.00 -191.07 -192.81 
 789 -195.91 -189.64 -192.81 
 790 -195.96 -191.11 -192.81 
 791 -196.08 -189.62 -192.81 
 792 -197.06 -192.05 -192.81 
 793 -195.97 -191.16 -192.81 
 794 -189.25 -191.10 -192.81 
 795 -193.99 -192.22 -189.25 
 796 -193.59 -192.31 -189.25 
 797 -193.84 -193.64 -189.25 
 798 -196.52 -192.41 -189.25 
 799 -192.27 -189.15 -189.25 
 800 -195.39 -190.65 -189.25 
 801 -194.64 -190.77 -189.25 
 802 -195.58 -190.63 -189.25 
 803 -194.31 -191.02 -189.25 
 804 -195.53 -189.42 -189.25 
 805 -194.59 -189.41 -189.25 
 806 -194.93 -190.72 -189.25 
 807 -189.26 -189.12 -189.25 
 808 -196.76 -189.64 -189.25 
 809 -193.22 -187.99 -189.25 
 810 -193.84 -190.64 -189.25 
 811 -194.53 -189.11 -189.25 
 812 -193.60 -190.73 -189.25 
 813 -193.68 -189.40 -189.25 
 814 -195.93 -189.39 -189.25 
 815 -196.23 -189.88 -189.25 
 816 -194.78 -188.65 -189.25 
 817 -196.31 -189.94 -189.25 
 818 -195.11 -189.68 -189.25 
 819 -193.51 -189.60 -189.25 
 820 -191.29 -189.69 -189.25 
 821 -194.01 -189.84 -189.25 
 822 -196.60 -188.30 -189.25 
 823 -196.06 -188.67 -189.25 
 824 -194.94 -190.17 -189.25 
 825 -191.90 -190.64 -189.25 
 826 -197.78 -187.19 -189.25 
 827 -198.42 -187.55 -189.25 
 828 -198.44 -187.74 -189.25 
 829 -192.17 -187.64 -189.25 
 830 -195.16 -187.77 -189.25 
 831 -195.26 -187.63 -189.25 
 832 -196.31 -187.77 -189.25 
 833 -190.07 -187.60 -189.25 
 834 -207.21 -187.57 -189.25 
 835 -195.18 -187.44 -189.25 
 836 -191.37 -187.85 -189.25 
 837 -195.17 -187.83 -189.25 
 838 -192.33 -187.93 -189.25 
 839 -192.97 -188.40 -189.25 
 840 -197.69 -188.66 -189.25 
 841 -193.36 -187.34 -189.25 
 842 -192.14 -187.48 -189.25 
 843 -194.32 -187.63 -189.25 
 844 -192.44 -187.69 -189.25 
 845 -195.60 -187.84 -189.25 
 846 -196.62 -187.78 -189.25 
 847 -193.70 -187.79 -189.25 
 848 -192.53 -187.60 -189.25 
 849 -191.70 -187.60 -189.25 
 850 -190.51 -188.78 -189.25 
 851 -195.60 -187.43 -189.25 
 852 -192.76 -187.04 -189.25 
 853 -194.66 -186.78 -189.25 
 854 -197.25 -187.22 -189.25 
 855 -193.27 -187.27 -189.25 
 856 -193.23 -187.77 -189.25 
 857 -193.21 -187.42 -189.25 
 858 -195.14 -187.39 -189.25 
 859 -196.53 -187.56 -189.25 
 860 -194.62 -187.80 -189.25 
 861 -199.65 -187.54 -189.25 
 862 -192.50 -187.68 -189.25 
 863 -193.14 -187.77 -189.25 
 864 -193.96 -188.06 -189.25 
 865 -190.86 -187.84 -189.25 
 866 -195.64 -187.63 -189.25 
 867 -193.46 -187.40 -189.25 
 868 -198.10 -187.79 -189.25 
 869 -195.17 -188.06 -189.25 
 870 -193.90 -187.88 -189.25 
 871 -193.34 -187.84 -189.25 
 872 -194.99 -188.07 -189.25 
 873 -195.46 -188.22 -189.25 
 874 -192.19 -188.27 -189.25 
 875 -190.34 -188.13 -189.25 
 876 -188.80 -188.19 -189.25 
 877 -194.85 -188.54 -188.80 
 878 -191.65 -188.70 -188.80 
 879 -192.83 -188.43 -188.80 
 880 -193.42 -188.62 -188.80 
 881 -193.73 -188.89 -188.80 
 882 -191.98 -188.66 -188.80 
 883 -192.61 -190.14 -188.80 
 884 -193.60 -188.23 -188.80 
 885 -195.12 -188.12 -188.80 
 886 -193.39 -188.18 -188.80 
 887 -193.68 -189.43 -188.80 
 888 -194.72 -189.55 -188.80 
 889 -193.74 -189.38 -188.80 
 890 -193.96 -189.72 -188.80 
 891 -192.18 -188.14 -188.80 
 892 -188.52 -186.66 -188.80 
 893 -197.19 -189.51 -188.52 
 894 -191.74 -188.12 -188.52 
 895 -193.14 -187.86 -188.52 
 896 -193.31 -188.03 -188.52 
 897 -193.43 -185.23 -188.52 
 898 -191.10 -189.70 -188.52 
 899 -190.32 -189.77 -188.52 
 900 -194.85 -187.96 -188.52 
 901 -190.86 -188.22 -188.52 
 902 -191.83 -188.45 -188.52 
 903 -193.47 -187.14 -188.52 
 904 -191.95 -187.21 -188.52 
 905 -192.42 -187.42 -188.52 
 906 -192.30 -187.45 -188.52 
 907 -191.29 -187.04 -188.52 
 908 -188.44 -187.02 -188.52 
 909 -192.96 -187.89 -188.44 
 910 -193.77 -186.44 -188.44 
 911 -192.26 -186.72 -188.44 
 912 -191.50 -187.12 -188.44 
 913 -190.27 -187.21 -188.44 
 914 -194.80 -187.47 -188.44 
 915 -191.54 -187.62 -188.44 
 916 -192.58 -186.43 -188.44 
 917 -194.31 -188.01 -188.44 
 918 -192.86 -186.57 -188.44 
 919 -192.33 -187.70 -188.44 
 920 -194.97 -187.67 -188.44 
 921 -190.30 -187.67 -188.44 
 922 -189.63 -187.85 -188.44 
 923 -189.45 -186.21 -188.44 
 924 -193.24 -184.97 -188.44 
 925 -195.07 -185.04 -188.44 
 926 -188.55 -185.11 -188.44 
 927 -190.79 -185.07 -188.44 
 928 -190.94 -184.83 -188.44 
 929 -197.06 -184.90 -188.44 
 930 -192.04 -185.27 -188.44 
 931 -193.15 -186.97 -188.44 
 932 -188.54 -186.87 -188.44 
 933 -191.05 -188.04 -188.44 
 934 -190.91 -188.61 -188.44 
 935 -190.35 -186.94 -188.44 
 936 -190.90 -188.16 -188.44 
 937 -192.09 -189.77 -188.44 
 938 -192.65 -188.02 -188.44 
 939 -188.62 -189.22 -188.44 
 940 -191.69 -189.54 -188.44 
 941 -193.29 -187.08 -188.44 
 942 -196.58 -188.84 -188.44 
 943 -194.15 -190.05 -188.44 
 944 -190.88 -189.88 -188.44 
 945 -193.98 -189.86 -188.44 
 946 -192.42 -188.44 -188.44 
 947 -191.17 -189.96 -188.44 
 948 -192.76 -185.73 -188.44 
 949 -192.46 -188.39 -188.44 
 950 -191.83 -188.66 -188.44 
 951 -193.70 -188.94 -188.44 
 952 -191.68 -189.16 -188.44 
 953 -190.59 -189.33 -188.44 
 954 -194.01 -187.41 -188.44 
 955 -195.39 -189.27 -188.44 
 956 -196.49 -189.19 -188.44 
 957 -187.39 -187.35 -188.44 
 958 -192.21 -188.76 -187.39 
 959 -191.75 -188.85 -187.39 
 960 -192.75 -188.68 -187.39 
 961 -195.78 -188.42 -187.39 
 962 -189.70 -189.76 -187.39 
 963 -189.40 -189.94 -187.39 
 964 -187.84 -188.82 -187.39 
 965 -189.69 -190.28 -187.39 
 966 -189.50 -190.16 -187.39 
 967 -192.21 -189.69 -187.39 
 968 -195.31 -189.86 -187.39 
 969 -190.92 -190.04 -187.39 
 970 -190.96 -190.19 -187.39 
 971 -190.06 -188.78 -187.39 
 972 -191.10 -189.75 -187.39 
 973 -189.65 -189.44 -187.39 
 974 -193.09 -189.38 -187.39 
 975 -190.74 -189.05 -187.39 
 976 -191.20 -189.13 -187.39 
 977 -191.58 -189.18 -187.39 
 978 -193.42 -189.13 -187.39 
 979 -190.45 -187.81 -187.39 
 980 -191.43 -189.01 -187.39 
 981 -191.33 -188.77 -187.39 
 982 -191.05 -188.67 -187.39 
 983 -194.47 -188.81 -187.39 
 984 -186.90 -189.27 -187.39 
 985 -191.03 -187.66 -186.90 
 986 -192.10 -189.42 -186.90 
 987 -190.08 -189.38 -186.90 
 988 -189.96 -189.45 -186.90 
 989 -189.11 -187.81 -186.90 
 990 -187.81 -187.83 -186.90 
 991 -191.98 -189.29 -186.90 
 992 -196.53 -189.26 -186.90 
 993 -193.21 -187.62 -186.90 
 994 -189.71 -187.44 -186.90 
 995 -190.90 -187.64 -186.90 
 996 -190.68 -187.82 -186.90 
 997 -191.14 -187.43 -186.90 
 998 -187.97 -187.47 -186.90 
 999 -191.45 -187.53 -186.90 
1000 -190.85 -187.63 -186.90 
1001 -192.92 -187.52 -186.90 
1002 -192.36 -187.90 -186.90 
1003 -190.06 -188.00 -186.90 
1004 -190.02 -188.30 -186.90 
1005 -195.63 -189.92 -186.90 
1006 -194.67 -188.69 -186.90 
1007 -191.84 -188.82 -186.90 
1008 -187.95 -189.13 -186.90 
1009 -190.62 -189.12 -186.90 
1010 -190.65 -189.30 -186.90 
1011 -190.50 -188.04 -186.90 
1012 -188.10 -188.09 -186.90 
1013 -191.19 -188.06 -186.90 
1014 -189.08 -188.28 -186.90 
1015 -192.11 -187.88 -186.90 
1016 -190.42 -188.37 -186.90 
1017 -185.16 -188.18 -186.90 
1018 -192.10 -188.42 -185.16 
1019 -192.63 -188.39 -185.16 
1020 -190.40 -187.33 -185.16 
1021 -191.21 -187.27 -185.16 
1022 -189.00 -188.47 -185.16 
1023 -194.28 -188.52 -185.16 
1024 -187.49 -188.38 -185.16 
1025 -189.98 -188.47 -185.16 
1026 -192.83 -188.45 -185.16 
1027 -191.30 -188.75 -185.16 
1028 -191.32 -188.44 -185.16 
1029 -188.84 -189.54 -185.16 
1030 -189.94 -189.80 -185.16 
1031 -192.85 -188.50 -185.16 
1032 -190.60 -188.17 -185.16 
1033 -192.39 -189.68 -185.16 
1034 -189.35 -189.59 -185.16 
1035 -187.59 -189.33 -185.16 
1036 -190.30 -189.03 -185.16 
1037 -190.16 -188.58 -185.16 
1038 -186.79 -188.47 -185.16 
1039 -189.53 -188.51 -185.16 
1040 -191.20 -188.26 -185.16 
1041 -189.28 -188.27 -185.16 
1042 -186.85 -188.20 -185.16 
1043 -190.20 -187.87 -185.16 
1044 -191.10 -188.12 -185.16 
1045 -190.57 -188.03 -185.16 
1046 -185.62 -187.90 -185.16 
1047 -188.98 -188.23 -185.16 
1048 -193.05 -189.67 -185.16 
1049 -190.31 -188.53 -185.16 
1050 -190.36 -188.64 -185.16 
1051 -193.15 -190.06 -185.16 
1052 -189.29 -188.68 -185.16 
1053 -186.72 -188.82 -185.16 
1054 -190.53 -189.05 -185.16 
1055 -191.59 -189.19 -185.16 
1056 -192.48 -190.32 -185.16 
1057 -188.01 -188.79 -185.16 
1058 -190.48 -189.01 -185.16 
1059 -188.75 -188.86 -185.16 
1060 -185.84 -190.70 -185.16 
1061 -189.88 -189.27 -185.16 
1062 -189.70 -189.69 -185.16 
1063 -190.44 -188.29 -185.16 
1064 -188.67 -189.49 -185.16 
1065 -192.65 -188.08 -185.16 
1066 -192.93 -188.13 -185.16 
1067 -187.45 -186.91 -185.16 
1068 -192.48 -186.72 -185.16 
1069 -192.06 -188.76 -185.16 
1070 -189.32 -188.80 -185.16 
1071 -190.28 -188.78 -185.16 
1072 -192.30 -190.01 -185.16 
1073 -189.69 -188.64 -185.16 
1074 -191.73 -187.32 -185.16 
1075 -188.97 -187.49 -185.16 
1076 -189.99 -189.02 -185.16 
1077 -191.33 -186.26 -185.16 
1078 -191.01 -186.50 -185.16 
1079 -188.61 -186.41 -185.16 
1080 -190.39 -186.70 -185.16 
1081 -186.42 -185.33 -185.16 
1082 -188.33 -186.63 -185.16 
1083 -190.77 -186.73 -185.16 
1084 -190.40 -186.69 -185.16 
1085 -188.95 -186.65 -185.16 
1086 -189.66 -186.75 -185.16 
1087 -190.70 -186.66 -185.16 
1088 -194.00 -186.47 -185.16 
1089 -192.50 -186.34 -185.16 
1090 -187.99 -184.91 -185.16 
1091 -188.35 -186.62 -185.16 
1092 -186.23 -186.52 -185.16 
1093 -192.59 -186.51 -185.16 
1094 -187.50 -186.40 -185.16 
1095 -188.52 -186.57 -185.16 
1096 -185.73 -186.33 -185.16 
1097 -188.73 -186.18 -185.16 
1098 -185.53 -186.33 -185.16 
1099 -189.82 -184.59 -185.16 
1100 -187.52 -184.75 -185.16 
1101 -185.42 -186.43 -185.16 
1102 -189.14 -183.70 -185.16 
1103 -189.30 -186.93 -185.16 
1104 -187.25 -185.71 -185.16 
1105 -189.47 -184.21 -185.16 
1106 -188.00 -185.78 -185.16 
1107 -185.29 -185.79 -185.16 
1108 -191.81 -185.91 -185.16 
1109 -190.83 -185.69 -185.16 
1110 -183.86 -185.78 -185.16 
1111 -183.08 -184.41 -183.86 
1112 -188.26 -185.80 -183.08 
1113 -186.75 -185.98 -183.08 
1114 -187.13 -185.71 -183.08 
1115 -185.46 -185.74 -183.08 
1116 -186.43 -185.92 -183.08 
1117 -184.74 -185.73 -183.08 
1118 -186.21 -185.71 -183.08 
1119 -186.59 -187.20 -183.08 
1120 -185.99 -187.04 -183.08 
1121 -189.67 -185.84 -183.08 
1122 -191.10 -184.33 -183.08 
1123 -187.90 -185.92 -183.08 
1124 -193.33 -185.73 -183.08 
1125 -185.75 -185.84 -183.08 
1126 -189.46 -185.66 -183.08 
1127 -190.79 -185.60 -183.08 
1128 -188.51 -187.18 -183.08 
1129 -188.23 -185.73 -183.08 
1130 -190.91 -185.57 -183.08 
1131 -187.57 -185.57 -183.08 
1132 -184.79 -183.85 -183.08 
1133 -186.13 -183.73 -183.08 
1134 -185.02 -183.58 -183.08 
1135 -189.00 -183.54 -183.08 
1136 -186.89 -182.24 -183.08 
1137 -189.47 -182.29 -183.08 
1138 -189.03 -179.65 -183.08 
1139 -186.24 -183.07 -183.08 
1140 -189.32 -182.73 -183.08 
1141 -189.24 -183.06 -183.08 
1142 -187.85 -181.15 -183.08 
1143 -193.01 -184.24 -183.08 
1144 -187.21 -182.78 -183.08 
1145 -182.92 -183.33 -183.08 
1146 -185.85 -181.60 -182.92 
1147 -187.15 -181.86 -182.92 
1148 -187.91 -182.34 -182.92 
1149 -186.20 -184.88 -182.92 
1150 -187.84 -183.52 -182.92 
1151 -185.66 -182.16 -182.92 
1152 -191.19 -182.35 -182.92 
1153 -186.51 -183.95 -182.92 
1154 -183.91 -182.55 -182.92 
1155 -188.58 -182.39 -182.92 
1156 -188.62 -182.19 -182.92 
1157 -190.53 -182.34 -182.92 
1158 -186.21 -182.33 -182.92 
1159 -190.11 -183.61 -182.92 
1160 -183.91 -183.51 -182.92 
1161 -187.18 -182.06 -182.92 
1162 -185.93 -182.48 -182.92 
1163 -189.36 -181.03 -182.92 
1164 -190.90 -181.28 -182.92 
1165 -186.97 -181.15 -182.92 
1166 -185.48 -181.28 -182.92 
1167 -188.83 -181.40 -182.92 
1168 -186.74 -181.49 -182.92 
1169 -191.98 -181.55 -182.92 
1170 -185.18 -181.79 -182.92 
1171 -183.72 -183.28 -182.92 
1172 -187.04 -180.31 -182.92 
1173 -187.58 -180.15 -182.92 
1174 -188.25 -180.22 -182.92 
1175 -190.22 -180.27 -182.92 
1176 -186.23 -180.39 -182.92 
1177 -188.01 -180.32 -182.92 
1178 -186.52 -183.44 -182.92 
1179 -188.41 -180.42 -182.92 
1180 -188.94 -181.76 -182.92 
1181 -189.98 -181.78 -182.92 
1182 -183.73 -181.80 -182.92 
1183 -187.44 -183.42 -182.92 
1184 -188.82 -181.96 -182.92 
1185 -186.51 -181.96 -182.92 
1186 -188.49 -181.98 -182.92 
1187 -185.94 -180.31 -182.92 
1188 -187.35 -181.81 -182.92 
1189 -187.19 -180.27 -182.92 
1190 -191.78 -181.68 -182.92 
1191 -189.55 -183.23 -182.92 
1192 -187.32 -181.88 -182.92 
1193 -186.15 -181.98 -182.92 
1194 -188.95 -180.43 -182.92 
1195 -185.32 -182.03 -182.92 
1196 -186.08 -182.11 -182.92 
1197 -185.49 -182.11 -182.92 
1198 -188.11 -183.79 -182.92 
1199 -184.16 -183.94 -182.92 
1200 -188.50 -182.58 -182.92 
1201 -187.15 -182.63 -182.92 
1202 -189.28 -182.69 -182.92 
1203 -188.15 -181.04 -182.92 
1204 -187.69 -182.84 -182.92 
1205 -187.90 -182.63 -182.92 
1206 -184.06 -182.69 -182.92 
1207 -187.02 -181.18 -182.92 
1208 -185.23 -182.18 -182.92 
1209 -188.31 -182.09 -182.92 
1210 -189.37 -182.37 -182.92 
1211 -189.03 -184.10 -182.92 
1212 -189.51 -183.83 -182.92 
1213 -187.96 -183.98 -182.92 
1214 -189.76 -184.00 -182.92 
1215 -186.63 -184.00 -182.92 
1216 -188.60 -183.95 -182.92 
1217 -183.39 -180.95 -182.92 
1218 -190.16 -183.72 -182.92 
1219 -188.17 -185.27 -182.92 
1220 -187.04 -184.05 -182.92 
1221 -185.69 -185.70 -182.92 
1222 -186.38 -184.28 -182.92 
1223 -188.10 -182.68 -182.92 
1224 -186.33 -181.29 -182.92 
1225 -186.61 -182.76 -182.92 
1226 -186.65 -184.25 -182.92 
1227 -185.09 -184.25 -182.92 
1228 -184.70 -182.71 -182.92 
1229 -189.60 -183.97 -182.92 
1230 -186.06 -184.08 -182.92 
1231 -187.47 -180.75 -182.92 
1232 -185.01 -182.75 -182.92 
1233 -184.46 -182.28 -182.92 
1234 -186.15 -183.56 -182.92 
1235 -186.93 -184.04 -182.92 
1236 -184.81 -184.32 -182.92 
1237 -183.23 -182.75 -182.92 
1238 -186.01 -184.47 -182.92 
1239 -188.13 -183.03 -182.92 
1240 -186.81 -181.53 -182.92 
1241 -189.82 -181.47 -182.92 
1242 -186.13 -181.31 -182.92 
1243 -185.78 -181.38 -182.92 
1244 -183.02 -183.00 -182.92 
1245 -189.53 -184.25 -182.92 
1246 -185.03 -183.94 -182.92 
1247 -188.03 -183.94 -182.92 
1248 -188.63 -184.03 -182.92 
1249 -187.31 -184.05 -182.92 
1250 -185.05 -183.89 -182.92 
1251 -185.90 -183.98 -182.92 
1252 -188.28 -183.92 -182.92 
1253 -184.59 -182.39 -182.92 
1254 -188.64 -183.69 -182.92 
1255 -183.59 -183.68 -182.92 
1256 -187.99 -183.50 -182.92 
1257 -184.33 -182.14 -182.92 
1258 -188.97 -183.91 -182.92 
1259 -187.33 -183.72 -182.92 
1260 -188.92 -183.38 -182.92 
1261 -185.11 -183.59 -182.92 
1262 -186.88 -181.79 -182.92 
1263 -186.31 -185.48 -182.92 
1264 -186.66 -183.62 -182.92 
1265 -186.85 -185.65 -182.92 
1266 -187.07 -185.55 -182.92 
1267 -185.85 -183.56 -182.92 
1268 -188.06 -186.48 -182.92 
1269 -183.60 -186.42 -182.92 
1270 -185.10 -184.80 -182.92 
1271 -185.83 -184.72 -182.92 
1272 -187.79 -183.18 -182.92 
1273 -185.56 -183.35 -182.92 
1274 -183.97 -184.51 -182.92 
1275 -186.82 -181.73 -182.92 
1276 -188.26 -181.72 -182.92 
1277 -190.46 -183.11 -182.92 
1278 -188.18 -183.23 -182.92 
1279 -189.00 -183.22 -182.92 
1280 -186.90 -183.68 -182.92 
1281 -189.09 -183.58 -182.92 
1282 -186.76 -182.14 -182.92 
1283 -186.53 -183.69 -182.92 
1284 -188.01 -183.59 -182.92 
1285 -188.06 -183.74 -182.92 
1286 -184.93 -183.74 -182.92 
1287 -187.48 -182.29 -182.92 
1288 -189.06 -183.87 -182.92 
1289 -181.08 -182.41 -182.92 
1290 -184.18 -182.43 -181.08 
1291 -187.28 -182.77 -181.08 
1292 -184.44 -184.06 -181.08 
1293 -187.11 -184.13 -181.08 
1294 -185.74 -184.26 -181.08 
1295 -187.54 -184.40 -181.08 
1296 -187.84 -183.00 -181.08 
1297 -182.82 -181.29 -181.08 
1298 -183.57 -183.02 -181.08 
1299 -189.09 -182.84 -181.08 
1300 -185.35 -182.59 -181.08 
1301 -186.20 -182.38 -181.08 
1302 -189.44 -183.80 -181.08 
1303 -183.70 -182.35 -181.08 
1304 -187.47 -182.42 -181.08 
1305 -186.23 -182.29 -181.08 
1306 -185.32 -182.08 -181.08 
1307 -185.60 -183.36 -181.08 
1308 -188.56 -182.17 -181.08 
1309 -188.09 -183.64 -181.08 
1310 -187.45 -183.70 -181.08 
1311 -184.72 -185.56 -181.08 
1312 -187.31 -184.15 -181.08 
1313 -183.02 -184.21 -181.08 
1314 -186.03 -185.82 -181.08 
1315 -186.26 -184.48 -181.08 
1316 -187.59 -185.93 -181.08 
1317 -184.16 -185.77 -181.08 
1318 -185.79 -182.94 -181.08 
1319 -186.32 -185.80 -181.08 
1320 -186.70 -185.82 -181.08 
1321 -187.29 -185.64 -181.08 
1322 -185.71 -185.67 -181.08 
1323 -186.27 -185.61 -181.08 
1324 -185.70 -184.02 -181.08 
1325 -191.12 -185.38 -181.08 
1326 -185.27 -186.50 -181.08 
1327 -185.30 -185.29 -181.08 
1328 -188.36 -185.23 -181.08 
1329 -186.68 -185.09 -181.08 
1330 -188.02 -185.10 -181.08 
1331 -185.70 -185.39 -181.08 
1332 -187.62 -184.10 -181.08 
1333 -188.91 -184.46 -181.08 
1334 -184.96 -184.48 -181.08 
1335 -188.54 -183.13 -181.08 
1336 -184.94 -183.26 -181.08 
1337 -186.05 -184.69 -181.08 
1338 -184.29 -184.65 -181.08 
1339 -184.72 -184.49 -181.08 
1340 -184.18 -183.32 -181.08 
1341 -188.52 -181.71 -181.08 
1342 -183.77 -184.76 -181.08 
1343 -186.33 -183.30 -181.08 
1344 -188.49 -181.97 -181.08 
1345 -188.21 -181.64 -181.08 
1346 -186.72 -180.47 -181.08 
1347 -187.16 -180.42 -181.08 
1348 -187.53 -180.51 -181.08 
1349 -186.89 -182.12 -181.08 
1350 -185.18 -180.74 -181.08 
1351 -185.18 -180.55 -181.08 
1352 -182.10 -180.89 -181.08 
1353 -190.78 -182.11 -181.08 
1354 -188.25 -182.05 -181.08 
1355 -187.98 -180.76 -181.08 
1356 -185.59 -182.13 -181.08 
1357 -188.66 -182.28 -181.08 
1358 -186.75 -183.70 -181.08 
1359 -188.31 -182.32 -181.08 
1360 -185.81 -182.38 -181.08 
1361 -185.80 -182.36 -181.08 
1362 -184.03 -180.63 -181.08 
1363 -186.75 -182.45 -181.08 
1364 -184.80 -180.75 -181.08 
1365 -185.92 -180.99 -181.08 
1366 -183.94 -181.05 -181.08 
1367 -187.21 -180.96 -181.08 
1368 -184.63 -180.97 -181.08 
1369 -189.80 -181.07 -181.08 
1370 -188.93 -181.14 -181.08 
1371 -185.27 -181.19 -181.08 
1372 -186.31 -181.20 -181.08 
1373 -184.64 -181.28 -181.08 
1374 -182.00 -179.67 -181.08 
1375 -184.58 -179.45 -181.08 
1376 -180.05 -181.22 -181.08 
1377 -185.87 -182.75 -180.05 
1378 -184.65 -182.60 -180.05 
1379 -186.35 -181.25 -180.05 
1380 -184.20 -181.14 -180.05 
1381 -184.02 -181.17 -180.05 
1382 -184.32 -181.19 -180.05 
1383 -186.09 -181.25 -180.05 
1384 -187.67 -182.79 -180.05 
1385 -183.15 -182.70 -180.05 
1386 -183.31 -179.60 -180.05 
1387 -187.04 -180.94 -180.05 
1388 -183.38 -179.47 -180.05 
1389 -185.49 -179.45 -180.05 
1390 -184.47 -179.32 -180.05 
1391 -186.03 -179.46 -180.05 
1392 -188.30 -179.47 -180.05 
1393 -184.25 -181.12 -180.05 
1394 -186.94 -181.04 -180.05 
1395 -187.72 -179.56 -180.05 
1396 -185.43 -179.65 -180.05 
1397 -184.38 -181.19 -180.05 
1398 -183.62 -181.15 -180.05 
1399 -183.12 -182.62 -180.05 
1400 -185.79 -182.50 -180.05 
1401 -188.61 -182.36 -180.05 
1402 -183.29 -182.43 -180.05 
1403 -181.56 -181.02 -180.05 
1404 -184.69 -180.94 -180.05 
1405 -181.22 -181.01 -180.05 
1406 -183.32 -181.07 -180.05 
1407 -188.85 -181.03 -180.05 
1408 -186.24 -180.97 -180.05 
1409 -183.96 -182.74 -180.05 
1410 -187.22 -182.65 -180.05 
1411 -184.78 -182.66 -180.05 
1412 -184.34 -181.16 -180.05 
1413 -186.50 -182.81 -180.05 
1414 -186.65 -182.69 -180.05 
1415 -184.43 -182.65 -180.05 
1416 -185.62 -182.67 -180.05 
1417 -187.32 -182.62 -180.05 
1418 -184.73 -182.63 -180.05 
1419 -185.25 -182.74 -180.05 
1420 -184.50 -181.14 -180.05 
1421 -185.55 -182.53 -180.05 
1422 -185.80 -180.98 -180.05 
1423 -188.64 -182.52 -180.05 
1424 -186.53 -180.87 -180.05 
1425 -184.66 -182.43 -180.05 
1426 -178.76 -182.51 -180.05 
1427 -192.12 -182.44 -178.76 
1428 -185.54 -182.37 -178.76 
1429 -185.23 -182.29 -178.76 
1430 -183.67 -182.49 -178.76 
1431 -189.32 -182.20 -178.76 
1432 -183.95 -182.33 -178.76 
1433 -187.96 -180.93 -178.76 
1434 -186.91 -181.00 -178.76 
1435 -189.30 -182.42 -178.76 
1436 -182.55 -180.81 -178.76 
1437 -185.77 -180.67 -178.76 
1438 -187.48 -180.88 -178.76 
1439 -188.37 -180.81 -178.76 
1440 -187.10 -180.82 -178.76 
1441 -186.70 -180.61 -178.76 
1442 -187.12 -180.56 -178.76 
1443 -184.60 -181.89 -178.76 
1444 -184.68 -181.85 -178.76 
1445 -186.61 -181.92 -178.76 
1446 -185.44 -181.82 -178.76 
1447 -188.39 -181.82 -178.76 
1448 -184.87 -180.23 -178.76 
1449 -187.51 -181.70 -178.76 
1450 -189.19 -181.62 -178.76 
1451 -186.25 -181.58 -178.76 
1452 -182.45 -181.78 -178.76 
1453 -187.26 -180.31 -178.76 
1454 -188.81 -181.94 -178.76 
1455 -184.82 -182.04 -178.76 
1456 -196.25 -182.08 -178.76 
1457 -185.09 -182.06 -178.76 
1458 -206.54 -182.05 -178.76 
1459 -186.31 -182.11 -178.76 
1460 -189.52 -182.23 -178.76 
1461 -186.85 -182.12 -178.76 
1462 -184.67 -180.71 -178.76 
1463 -186.82 -182.39 -178.76 
1464 -188.72 -182.43 -178.76 
1465 -187.94 -182.42 -178.76 
1466 -186.44 -182.48 -178.76 
1467 -183.03 -182.45 -178.76 
1468 -189.63 -182.33 -178.76 
1469 -184.33 -182.40 -178.76 
1470 -187.49 -182.29 -178.76 
1471 -188.81 -182.30 -178.76 
1472 -186.12 -182.19 -178.76 
1473 -187.04 -182.27 -178.76 
1474 -185.12 -180.60 -178.76 
1475 -185.64 -180.74 -178.76 
1476 -186.92 -180.78 -178.76 
1477 -187.13 -182.09 -178.76 
1478 -185.19 -182.11 -178.76 
1479 -188.75 -180.55 -178.76 
1480 -185.12 -180.67 -178.76 
1481 -185.26 -180.68 -178.76 
1482 -186.31 -180.54 -178.76 
1483 -186.83 -180.66 -178.76 
1484 -185.46 -180.73 -178.76 
1485 -187.65 -180.45 -178.76 
1486 -188.85 -182.05 -178.76 
1487 -186.72 -180.73 -178.76 
1488 -185.99 -182.16 -178.76 
1489 -185.06 -182.27 -178.76 
1490 -186.39 -180.65 -178.76 
1491 -186.11 -180.86 -178.76 
1492 -189.11 -180.71 -178.76 
1493 -186.65 -180.70 -178.76 
1494 -185.87 -180.63 -178.76 
1495 -185.29 -180.67 -178.76 
1496 -185.60 -180.80 -178.76 
1497 -186.81 -180.73 -178.76 
1498 -186.51 -182.39 -178.76 
1499 -187.86 -180.70 -178.76 
1500 -187.05 -182.35 -178.76 
1501 -186.01 -180.85 -178.76 
1502 -186.01 -180.98 -178.76 
1503 -186.85 -182.53 -178.76 
1504 -190.98 -182.47 -178.76 
1505 -185.63 -180.87 -178.76 
1506 -183.86 -180.87 -178.76 
1507 -181.20 -180.85 -178.76 
1508 -185.95 -180.86 -178.76 
1509 -183.68 -180.77 -178.76 
1510 -187.34 -182.44 -178.76 
1511 -185.08 -182.47 -178.76 
1512 -187.53 -180.94 -178.76 
1513 -186.01 -181.06 -178.76 
1514 -184.21 -182.54 -178.76 
1515 -182.14 -182.65 -178.76 
1516 -185.90 -182.72 -178.76 
1517 -183.69 -182.58 -178.76 
1518 -184.21 -182.55 -178.76 
1519 -183.92 -182.60 -178.76 
1520 -195.87 -181.07 -178.76 
1521 -190.04 -182.47 -178.76 
1522 -188.90 -182.37 -178.76 
1523 -183.93 -182.41 -178.76 
1524 -184.53 -182.43 -178.76 
1525 -186.14 -182.41 -178.76 
1526 -187.77 -180.96 -178.76 
1527 -184.41 -181.13 -178.76 
1528 -186.83 -182.73 -178.76 
1529 -183.26 -182.55 -178.76 
1530 -186.87 -180.94 -178.76 
1531 -185.97 -181.04 -178.76 
1532 -185.43 -180.95 -178.76 
1533 -187.56 -180.99 -178.76 
1534 -190.33 -181.07 -178.76 
1535 -188.51 -182.51 -178.76 
1536 -187.15 -180.89 -178.76 
1537 -188.05 -180.91 -178.76 
1538 -185.89 -180.97 -178.76 
1539 -185.39 -180.92 -178.76 
1540 -187.02 -180.96 -178.76 
1541 -186.26 -182.47 -178.76 
1542 -191.58 -180.85 -178.76 
1543 -190.51 -182.44 -178.76 
1544 -188.91 -180.92 -178.76 
1545 -184.79 -181.00 -178.76 
1546 -183.24 -180.86 -178.76 
1547 -188.86 -180.82 -178.76 
1548 -187.78 -180.94 -178.76 
1549 -184.46 -179.41 -178.76 
1550 -182.86 -181.04 -178.76 
1551 -185.61 -181.21 -178.76 
1552 -185.74 -181.20 -178.76 
1553 -182.21 -179.50 -178.76 
1554 -189.13 -181.04 -178.76 
1555 -182.97 -179.58 -178.76 
1556 -185.11 -181.33 -178.76 
1557 -187.62 -181.31 -178.76 
1558 -184.97 -181.32 -178.76 
1559 -184.07 -181.25 -178.76 
1560 -185.13 -181.33 -178.76 
1561 -182.36 -181.30 -178.76 
1562 -187.49 -181.17 -178.76 
1563 -185.56 -179.79 -178.76 
1564 -186.43 -179.90 -178.76 
1565 -187.42 -179.75 -178.76 
1566 -187.14 -179.86 -178.76 
1567 -190.70 -181.46 -178.76 
1568 -184.67 -179.82 -178.76 
1569 -184.81 -181.43 -178.76 
1570 -184.28 -181.37 -178.76 
1571 -187.06 -181.51 -178.76 
1572 -186.58 -181.51 -178.76 
1573 -185.32 -181.44 -178.76 
1574 -183.65 -181.34 -178.76 
1575 -186.65 -181.34 -178.76 
1576 -185.64 -181.30 -178.76 
1577 -187.76 -179.71 -178.76 
1578 -186.98 -181.40 -178.76 
1579 -186.82 -179.80 -178.76 
1580 -188.52 -179.82 -178.76 
1581 -185.82 -181.29 -178.76 
1582 -186.06 -181.31 -178.76 
1583 -186.68 -181.24 -178.76 
1584 -186.25 -182.65 -178.76 
1585 -184.09 -182.48 -178.76 
1586 -186.27 -179.74 -178.76 
1587 -187.32 -181.20 -178.76 
1588 -184.91 -180.99 -178.76 
1589 -186.64 -181.13 -178.76 
1590 -186.09 -181.28 -178.76 
1591 -185.92 -181.22 -178.76 
1592 -184.83 -181.16 -178.76 
1593 -187.37 -181.01 -178.76 
1594 -184.60 -182.71 -178.76 
1595 -186.90 -179.64 -178.76 
1596 -182.38 -181.10 -178.76 
1597 -184.93 -181.01 -178.76 
1598 -186.25 -182.70 -178.76 
1599 -187.21 -181.25 -178.76 
1600 -187.72 -182.69 -178.76 
1601 -184.85 -181.20 -178.76 
1602 -185.86 -179.61 -178.76 
1603 -188.68 -179.50 -178.76 
1604 -183.63 -181.26 -178.76 
1605 -186.44 -181.32 -178.76 
1606 -185.80 -181.33 -178.76 
1607 -188.72 -181.45 -178.76 
1608 -186.50 -179.63 -178.76 
1609 -187.62 -180.03 -178.76 
1610 -184.91 -181.54 -178.76 
1611 -182.48 -179.98 -178.76 
1612 -183.90 -180.03 -178.76 
1613 -184.01 -179.80 -178.76 
1614 -189.77 -179.79 -178.76 
1615 -183.65 -179.88 -178.76 
1616 -185.35 -179.86 -178.76 
1617 -187.89 -179.90 -178.76 
1618 -186.66 -179.89 -178.76 
1619 -184.57 -181.58 -178.76 
1620 -183.76 -179.92 -178.76 
1621 -183.38 -181.44 -178.76 
1622 -184.83 -181.50 -178.76 
1623 -185.88 -181.28 -178.76 
1624 -186.12 -179.74 -178.76 
1625 -184.73 -181.38 -178.76 
1626 -184.37 -181.44 -178.76 
1627 -187.86 -181.41 -178.76 
1628 -183.25 -182.82 -178.76 
1629 -184.71 -181.26 -178.76 
1630 -188.74 -181.09 -178.76 
1631 -186.66 -181.07 -178.76 
1632 -186.79 -181.10 -178.76 
1633 -184.33 -181.36 -178.76 
1634 -184.47 -181.38 -178.76 
1635 -183.45 -182.98 -178.76 
1636 -183.64 -179.72 -178.76 
1637 -183.13 -181.27 -178.76 
1638 -187.56 -181.33 -178.76 
1639 -187.39 -181.49 -178.76 
1640 -186.89 -182.87 -178.76 
1641 -185.85 -181.38 -178.76 
1642 -183.46 -181.41 -178.76 
1643 -183.06 -182.74 -178.76 
1644 -186.39 -182.78 -178.76 
1645 -183.64 -182.63 -178.76 
1646 -181.76 -180.89 -178.76 
1647 -185.09 -180.87 -178.76 
1648 -186.70 -179.24 -178.76 
1649 -182.29 -180.97 -178.76 
1650 -183.95 -180.91 -178.76 
1651 -184.03 -182.40 -178.76 
1652 -187.99 -182.41 -178.76 
1653 -187.29 -180.89 -178.76 
1654 -186.48 -182.53 -178.76 
1655 -187.72 -182.60 -178.76 
1656 -186.53 -179.56 -178.76 
1657 -187.10 -182.56 -178.76 
1658 -187.82 -182.35 -178.76 
1659 -189.36 -180.74 -178.76 
1660 -185.54 -180.85 -178.76 
1661 -189.48 -180.87 -178.76 
1662 -186.49 -180.79 -178.76 
1663 -185.86 -179.58 -178.76 
1664 -187.36 -179.79 -178.76 
1665 -188.25 -179.80 -178.76 
1666 -188.33 -179.60 -178.76 
1667 -189.88 -179.81 -178.76 
1668 -182.00 -179.70 -178.76 
1669 -186.90 -181.21 -178.76 
1670 -184.81 -181.36 -178.76 
1671 -187.38 -181.43 -178.76 
1672 -183.18 -181.34 -178.76 
1673 -186.06 -181.33 -178.76 
1674 -186.79 -181.15 -178.76 
1675 -186.20 -181.17 -178.76 
1676 -183.86 -179.49 -178.76 
1677 -184.19 -181.11 -178.76 
1678 -185.21 -179.60 -178.76 
1679 -187.16 -179.64 -178.76 
1680 -189.19 -179.68 -178.76 
1681 -186.78 -181.24 -178.76 
1682 -186.29 -179.54 -178.76 
1683 -184.49 -179.58 -178.76 
1684 -182.38 -179.64 -178.76 
1685 -184.30 -181.46 -178.76 
1686 -187.25 -182.84 -178.76 
1687 -186.32 -183.05 -178.76 
1688 -187.40 -181.60 -178.76 
1689 -182.27 -182.95 -178.76 
1690 -183.20 -181.53 -178.76 
1691 -185.31 -183.05 -178.76 
1692 -187.91 -181.41 -178.76 
1693 -185.66 -182.92 -178.76 
1694 -181.78 -181.18 -178.76 
1695 -186.79 -182.92 -178.76 
1696 -185.63 -182.88 -178.76 
1697 -183.97 -181.65 -178.76 
1698 -185.12 -181.55 -178.76 
1699 -185.91 -182.80 -178.76 
1700 -182.50 -182.73 -178.76 
1701 -186.91 -181.46 -178.76 
1702 -185.93 -182.80 -178.76 
1703 -181.91 -182.86 -178.76 
1704 -185.57 -182.87 -178.76 
1705 -183.84 -182.91 -178.76 
1706 -185.60 -181.27 -178.76 
1707 -184.83 -181.14 -178.76 
1708 -187.28 -182.48 -178.76 
1709 -187.54 -181.30 -178.76 
1710 -187.47 -182.39 -178.76 
1711 -185.60 -181.20 -178.76 
1712 -185.50 -182.55 -178.76 
1713 -187.12 -179.52 -178.76 
1714 -182.83 -179.58 -178.76 
1715 -185.14 -179.32 -178.76 
1716 -183.70 -180.73 -178.76 
1717 -184.73 -179.31 -178.76 
1718 -184.74 -179.79 -178.76 
1719 -185.37 -181.17 -178.76 
1720 -183.66 -179.63 -178.76 
1721 -187.51 -179.62 -178.76 
1722 -186.38 -179.67 -178.76 
1723 -185.79 -179.59 -178.76 
1724 -186.89 -181.22 -178.76 
1725 -187.06 -181.11 -178.76 
1726 -187.28 -179.37 -178.76 
1727 -185.79 -179.52 -178.76 
1728 -188.76 -179.43 -178.76 
1729 -185.68 -179.66 -178.76 
1730 -184.15 -179.67 -178.76 
1731 -183.63 -178.10 -178.76 
1732 -181.64 -179.69 -178.76 
1733 -184.53 -178.09 -178.76 
1734 -183.91 -179.71 -178.76 
1735 -186.48 -179.83 -178.76 
1736 -183.14 -179.71 -178.76 
1737 -185.72 -182.69 -178.76 
1738 -184.94 -179.63 -178.76 
1739 -185.09 -178.08 -178.76 
1740 -184.51 -179.56 -178.76 
1741 -187.69 -181.10 -178.76 
1742 -183.19 -181.05 -178.76 
1743 -186.05 -181.14 -178.76 
1744 -184.08 -179.71 -178.76 
1745 -186.21 -179.67 -178.76 
1746 -188.68 -178.14 -178.76 
1747 -188.01 -179.80 -178.76 
1748 -184.94 -179.82 -178.76 
1749 -185.56 -179.83 -178.76 
1750 -185.81 -179.94 -178.76 
1751 -186.17 -179.96 -178.76 
1752 -188.41 -178.31 -178.76 
1753 -185.18 -178.29 -178.76 
1754 -183.61 -179.79 -178.76 
1755 -186.94 -178.15 -178.76 
1756 -190.58 -178.23 -178.76 
1757 -186.18 -178.11 -178.76 
1758 -186.78 -177.98 -178.76 
1759 -187.47 -177.99 -178.76 
1760 -185.04 -179.45 -178.76 
1761 -184.78 -179.37 -178.76 
1762 -187.02 -180.80 -178.76 
1763 -188.54 -180.84 -178.76 
1764 -188.09 -180.95 -178.76 
1765 -187.25 -179.43 -178.76 
1766 -185.63 -179.40 -178.76 
1767 -186.68 -177.91 -178.76 
1768 -184.32 -180.91 -178.76 
1769 -183.50 -177.89 -178.76 
1770 -184.57 -181.02 -178.76 
1771 -184.59 -180.77 -178.76 
1772 -184.84 -179.01 -178.76 
1773 -185.64 -179.29 -178.76 
1774 -184.53 -180.69 -178.76 
1775 -186.83 -180.64 -178.76 
1776 -182.57 -180.73 -178.76 
1777 -186.18 -179.14 -178.76 
1778 -181.60 -179.05 -178.76 
1779 -185.47 -180.46 -178.76 
1780 -186.24 -180.55 -178.76 
1781 -187.23 -181.99 -178.76 
1782 -186.05 -181.93 -178.76 
1783 -185.16 -181.90 -178.76 
1784 -183.62 -180.34 -178.76 
1785 -185.36 -179.00 -178.76 
1786 -186.89 -180.41 -178.76 
1787 -190.51 -180.51 -178.76 
1788 -190.30 -180.44 -178.76 
1789 -183.90 -181.89 -178.76 
1790 -187.14 -180.49 -178.76 
1791 -186.89 -180.42 -178.76 
1792 -189.04 -180.34 -178.76 
1793 -181.96 -180.35 -178.76 
1794 -184.69 -180.40 -178.76 
1795 -185.73 -180.58 -178.76 
1796 -187.57 -180.33 -178.76 
1797 -184.94 -180.37 -178.76 
1798 -184.49 -180.33 -178.76 
1799 -185.34 -180.33 -178.76 
1800 -184.17 -181.95 -178.76 
1801 -187.04 -180.54 -178.76 
1802 -183.71 -180.53 -178.76 
1803 -187.14 -180.50 -178.76 
1804 -183.51 -178.95 -178.76 
1805 -187.37 -180.49 -178.76 
1806 -190.13 -182.12 -178.76 
1807 -189.30 -180.50 -178.76 
1808 -183.88 -181.84 -178.76 
1809 -187.74 -181.70 -178.76 
1810 -190.05 -180.03 -178.76 
1811 -187.43 -178.91 -178.76 
1812 -184.40 -178.80 -178.76 
1813 -184.47 -181.62 -178.76 
1814 -182.22 -178.42 -178.76 
1815 -185.63 -180.15 -178.76 
1816 -185.85 -180.29 -178.76 
1817 -185.03 -180.22 -178.76 
1818 -207.38 -180.23 -178.76 
1819 -186.71 -180.27 -178.76 
1820 -187.23 -180.22 -178.76 
1821 -188.24 -180.21 -178.76 
1822 -188.29 -178.48 -178.76 
1823 -188.93 -181.92 -178.76 
1824 -184.88 -181.88 -178.76 
1825 -185.82 -181.99 -178.76 
1826 -189.00 -181.94 -178.76 
1827 -188.51 -181.83 -178.76 
1828 -188.17 -180.27 -178.76 
1829 -190.03 -180.32 -178.76 
1830 -184.73 -180.13 -178.76 
1831 -186.13 -180.21 -178.76 
1832 -186.35 -181.90 -178.76 
1833 -189.03 -180.58 -178.76 
1834 -182.67 -180.51 -178.76 
1835 -185.12 -182.13 -178.76 
1836 -185.90 -177.24 -178.76 
1837 -185.70 -179.07 -178.76 
1838 -186.96 -178.98 -178.76 
1839 -186.66 -182.02 -178.76 
1840 -188.66 -181.90 -178.76 
1841 -188.49 -180.42 -178.76 
1842 -189.59 -183.61 -178.76 
1843 -188.25 -183.54 -178.76 
1844 -186.92 -183.64 -178.76 
1845 -186.77 -180.50 -178.76 
1846 -183.39 -183.33 -178.76 
1847 -184.78 -183.27 -178.76 
1848 -186.65 -180.27 -178.76 
1849 -185.63 -181.78 -178.76 
1850 -184.35 -183.31 -178.76 
1851 -186.11 -184.83 -178.76 
1852 -185.18 -183.30 -178.76 
1853 -185.15 -181.91 -178.76 
1854 -186.52 -182.03 -178.76 
1855 -183.76 -180.60 -178.76 
1856 -191.01 -180.65 -178.76 
1857 -184.76 -180.72 -178.76 
1858 -185.56 -182.29 -178.76 
1859 -186.22 -182.26 -178.76 
1860 -184.50 -183.79 -178.76 
1861 -189.55 -183.53 -178.76 
1862 -188.25 -183.31 -178.76 
1863 -183.77 -184.70 -178.76 
1864 -187.85 -183.12 -178.76 
1865 -187.78 -183.26 -178.76 
1866 -188.31 -181.74 -178.76 
1867 -188.03 -183.33 -178.76 
1868 -187.90 -183.47 -178.76 
1869 -184.34 -181.93 -178.76 
1870 -183.44 -182.02 -178.76 
1871 -187.81 -181.95 -178.76 
1872 -184.13 -181.94 -178.76 
1873 -189.34 -183.52 -178.76 
1874 -187.17 -182.08 -178.76 
1875 -187.83 -183.49 -178.76 
1876 -184.63 -181.91 -178.76 
1877 -186.66 -181.94 -178.76 
1878 -187.30 -181.90 -178.76 
1879 -184.55 -181.93 -178.76 
1880 -188.90 -183.58 -178.76 
1881 -186.35 -183.52 -178.76 
1882 -189.96 -183.55 -178.76 
1883 -183.25 -183.38 -178.76 
1884 -185.11 -183.20 -178.76 
1885 -187.24 -183.36 -178.76 
1886 -186.10 -183.20 -178.76 
1887 -187.06 -181.60 -178.76 
1888 -183.71 -183.24 -178.76 
1889 -186.76 -183.03 -178.76 
1890 -186.90 -181.48 -178.76 
1891 -186.06 -183.01 -178.76 
1892 -185.35 -183.07 -178.76 
1893 -181.45 -183.06 -178.76 
1894 -183.78 -181.56 -178.76 
1895 -188.21 -183.15 -178.76 
1896 -185.15 -182.92 -178.76 
1897 -186.62 -184.38 -178.76 
1898 -186.39 -182.74 -178.76 
1899 -186.50 -182.78 -178.76 
1900 -187.81 -184.12 -178.76 
1901 -187.39 -181.21 -178.76 
1902 -186.57 -184.13 -178.76 
1903 -184.13 -181.06 -178.76 
1904 -183.18 -182.66 -178.76 
1905 -184.67 -181.19 -178.76 
1906 -186.86 -182.73 -178.76 
1907 -184.87 -182.94 -178.76 
1908 -183.97 -181.28 -178.76 
1909 -185.26 -182.30 -178.76 
1910 -186.46 -184.03 -178.76 
1911 -186.08 -184.09 -178.76 
1912 -185.97 -185.45 -178.76 
1913 -183.51 -185.47 -178.76 
1914 -184.58 -185.43 -178.76 
1915 -188.28 -186.90 -178.76 
1916 -186.09 -183.87 -178.76 
1917 -186.40 -182.40 -178.76 
1918 -185.30 -182.65 -178.76 
1919 -187.03 -182.68 -178.76 
1920 -186.04 -185.66 -178.76 
1921 -187.08 -185.58 -178.76 
1922 -184.71 -185.43 -178.76 
1923 -184.45 -185.32 -178.76 
1924 -188.04 -185.28 -178.76 
1925 -184.05 -185.22 -178.76 
1926 -183.25 -186.76 -178.76 
1927 -181.22 -185.20 -178.76 
1928 -183.24 -183.93 -178.76 
1929 -187.06 -183.82 -178.76 
1930 -184.58 -185.53 -178.76 
1931 -182.88 -185.36 -178.76 
1932 -188.51 -182.33 -178.76 
1933 -186.65 -182.34 -178.76 
1934 -188.15 -180.95 -178.76 
1935 -187.64 -182.58 -178.76 
1936 -186.10 -183.96 -178.76 
1937 -186.18 -185.64 -178.76 
1938 -185.75 -185.55 -178.76 
1939 -184.16 -188.24 -178.76 
1940 -184.03 -186.91 -178.76 
1941 -184.62 -185.55 -178.76 
1942 -200.87 -185.61 -178.76 
1943 -188.63 -187.16 -178.76 
1944 -184.66 -185.62 -178.76 
1945 -184.83 -184.26 -178.76 
1946 -182.71 -185.85 -178.76 
1947 -186.85 -185.81 -178.76 
1948 -188.40 -182.80 -178.76 
1949 -185.91 -181.12 -178.76 
1950 -186.51 -181.20 -178.76 
1951 -185.98 -184.22 -178.76 
1952 -184.22 -185.74 -178.76 
1953 -182.25 -184.27 -178.76 
1954 -186.17 -184.37 -178.76 
1955 -183.72 -182.81 -178.76 
1956 -186.45 -185.70 -178.76 
1957 -186.43 -185.70 -178.76 
1958 -184.48 -184.30 -178.76 
1959 -187.61 -182.68 -178.76 
1960 -186.68 -181.09 -178.76 
1961 -188.28 -181.38 -178.76 
1962 -183.56 -181.27 -178.76 
1963 -185.90 -181.32 -178.76 
1964 -185.50 -181.25 -178.76 
1965 -190.38 -181.25 -178.76 
1966 -182.20 -181.01 -178.76 
1967 -182.32 -181.11 -178.76 
1968 -183.83 -181.07 -178.76 
1969 -184.43 -181.19 -178.76 
1970 -187.76 -181.08 -178.76 
1971 -182.22 -182.54 -178.76 
1972 -183.38 -181.36 -178.76 
1973 -183.37 -182.63 -178.76 
1974 -185.02 -184.29 -178.76 
1975 -186.97 -185.76 -178.76 
1976 -188.40 -184.30 -178.76 
1977 -183.04 -185.75 -178.76 
1978 -186.52 -184.35 -178.76 
1979 -182.35 -181.33 -178.76 
1980 -186.86 -181.28 -178.76 
1981 -185.88 -181.24 -178.76 
1982 -181.85 -181.35 -178.76 
1983 -183.17 -184.35 -178.76 
1984 -185.56 -181.36 -178.76 
1985 -183.98 -181.43 -178.76 
1986 -187.84 -184.31 -178.76 
1987 -186.30 -185.91 -178.76 
1988 -184.40 -181.51 -178.76 
1989 -185.27 -182.84 -178.76 
1990 -185.37 -183.07 -178.76 
1991 -185.99 -183.06 -178.76 
1992 -185.86 -184.67 -178.76 
1993 -181.53 -184.42 -178.76 
1994 -184.89 -185.71 -178.76 
1995 -184.42 -182.81 -178.76 
1996 -183.67 -184.02 -178.76 
1997 -184.87 -185.61 -178.76 
1998 -185.50 -187.24 -178.76 
1999 -185.16 -184.20 -178.76 
2000 -184.20 -181.44 -178.76 
2001 -183.77 -181.68 -178.76 
2002 -184.63 -181.62 -178.76 
2003 -184.89 -181.49 -178.76 
2004 -182.76 -185.76 -178.76 
2005 -185.58 -184.19 -178.76 
2006 -182.09 -184.34 -178.76 
2007 -183.64 -187.10 -178.76 
2008 -185.63 -185.73 -178.76 
2009 -187.42 -185.60 -178.76 
2010 -185.10 -185.52 -178.76 
2011 -187.10 -184.12 -178.76 
2012 -184.65 -185.65 -178.76 
2013 -185.71 -184.20 -178.76 
2014 -183.55 -185.61 -178.76 
2015 -184.36 -185.74 -178.76 
2016 -184.42 -185.72 -178.76 
2017 -185.15 -185.70 -178.76 
2018 -183.71 -185.75 -178.76 
2019 -183.16 -186.03 -178.76 
2020 -186.74 -184.52 -178.76 
2021 -184.44 -184.64 -178.76 
2022 -185.23 -183.12 -178.76 
2023 -190.66 -181.68 -178.76 
2024 -185.03 -183.05 -178.76 
2025 -183.84 -185.96 -178.76 
2026 -184.03 -184.79 -178.76 
2027 -185.36 -181.90 -178.76 
2028 -185.51 -184.95 -178.76 
2029 -185.01 -184.58 -178.76 
2030 -187.13 -185.90 -178.76 
2031 -184.35 -184.39 -178.76 
2032 -186.06 -185.93 -178.76 
2033 -185.62 -186.09 -178.76 
2034 -186.32 -184.60 -178.76 
2035 -187.20 -185.98 -178.76 
2036 -187.23 -186.07 -178.76 
2037 -190.66 -184.60 -178.76 
2038 -186.31 -184.64 -178.76 
2039 -184.88 -183.16 -178.76 
2040 -187.34 -184.68 -178.76 
2041 -185.95 -184.73 -178.76 
2042 -186.13 -184.89 -178.76 
2043 -184.44 -183.53 -178.76 
2044 -183.34 -184.77 -178.76 
2045 -183.71 -185.07 -178.76 
2046 -187.22 -185.08 -178.76 
2047 -185.35 -185.04 -178.76 
2048 -188.15 -184.94 -178.76 
2049 -191.54 -183.46 -178.76 
2050 -183.51 -184.81 -178.76 
2051 -182.68 -186.26 -178.76 
2052 -185.22 -186.04 -178.76 
2053 -186.61 -186.11 -178.76 
2054 -185.04 -186.17 -178.76 
2055 -184.75 -183.30 -178.76 
2056 -184.56 -184.74 -178.76 
2057 -184.74 -184.75 -178.76 
2058 -185.30 -184.80 -178.76 
2059 -184.01 -183.36 -178.76 
2060 -188.32 -183.33 -178.76 
2061 -182.95 -186.07 -178.76 
2062 -181.84 -186.12 -178.76 
2063 -184.21 -184.74 -178.76 
2064 -183.80 -187.59 -178.76 
2065 -185.67 -187.76 -178.76 
2066 -183.79 -187.65 -178.76 
2067 -188.87 -187.67 -178.76 
2068 -182.89 -188.99 -178.76 
2069 -184.23 -188.93 -178.76 
2070 -186.00 -188.91 -178.76 
2071 -186.85 -189.02 -178.76 
2072 -183.65 -189.14 -178.76 
2073 -187.06 -187.75 -178.76 
2074 -184.56 -187.71 -178.76 
2075 -184.53 -186.24 -178.76 
2076 -187.07 -189.38 -178.76 
2077 -186.57 -189.13 -178.76 
2078 -184.89 -184.88 -178.76 
2079 -180.64 -186.35 -178.76 
2080 -179.77 -186.32 -178.76 
2081 -186.36 -184.76 -178.76 
2082 -184.22 -184.81 -178.76 
2083 -182.00 -184.97 -178.76 
2084 -189.40 -183.43 -178.76 
2085 -185.79 -184.97 -178.76 
2086 -184.15 -185.18 -178.76 
2087 -184.20 -185.07 -178.76 
2088 -183.30 -186.44 -178.76 
2089 -184.32 -184.71 -178.76 
2090 -180.76 -186.36 -178.76 
2091 -182.48 -186.34 -178.76 
2092 -185.32 -184.79 -178.76 
2093 -184.26 -187.85 -178.76 
2094 -183.42 -184.51 -178.76 
2095 -187.67 -185.95 -178.76 
2096 -186.28 -185.96 -178.76 
2097 -183.83 -184.50 -178.76 
2098 -186.14 -186.02 -178.76 
2099 -185.81 -187.31 -178.76 
2100 -183.17 -187.36 -178.76 
2101 -189.20 -187.37 -178.76 
2102 -184.70 -187.32 -178.76 
2103 -186.08 -187.26 -178.76 
2104 -186.36 -187.38 -178.76 
2105 -187.56 -187.48 -178.76 
2106 -185.86 -187.47 -178.76 
2107 -182.69 -187.60 -178.76 
2108 -182.65 -184.46 -178.76 
2109 -186.61 -184.76 -178.76 
2110 -183.97 -186.19 -178.76 
2111 -186.71 -184.49 -178.76 
2112 -188.18 -184.56 -178.76 
2113 -185.21 -186.01 -178.76 
2114 -185.71 -184.35 -178.76 
2115 -184.75 -187.51 -178.76 
2116 -188.56 -186.30 -178.76 
2117 -185.57 -185.96 -178.76 
2118 -185.61 -186.07 -178.76 
2119 -188.34 -187.71 -178.76 
2120 -187.49 -186.34 -178.76 
2121 -181.69 -186.05 -178.76 
2122 -181.00 -186.20 -178.76 
2123 -186.44 -186.09 -178.76 
2124 -182.40 -184.22 -178.76 
2125 -183.01 -185.81 -178.76 
2126 -183.87 -188.91 -178.76 
2127 -188.06 -187.47 -178.76 
2128 -185.71 -187.57 -178.76 
2129 -188.06 -187.59 -178.76 
2130 -184.82 -186.15 -178.76 
2131 -183.31 -186.09 -178.76 
2132 -186.72 -186.19 -178.76 
2133 -185.55 -186.12 -178.76 
2134 -184.13 -187.59 -178.76 
2135 -184.80 -186.12 -178.76 
2136 -182.89 -186.09 -178.76 
2137 -186.71 -186.23 -178.76 
2138 -186.96 -184.68 -178.76 
2139 -184.24 -184.62 -178.76 
2140 -184.55 -186.16 -178.76 
2141 -186.53 -185.96 -178.76 
2142 -184.48 -187.48 -178.76 
2143 -185.15 -186.11 -178.76 
2144 -188.50 -186.18 -178.76 
2145 -181.19 -187.73 -178.76 
2146 -186.02 -186.14 -178.76 
2147 -187.55 -186.16 -178.76 
2148 -184.82 -184.75 -178.76 
2149 -185.19 -187.86 -178.76 
2150 -188.36 -184.76 -178.76 
2151 -183.19 -184.66 -178.76 
2152 -185.01 -186.25 -178.76 
2153 -183.92 -187.81 -178.76 
2154 -184.87 -187.68 -178.76 
2155 -186.36 -187.68 -178.76 
2156 -183.56 -186.15 -178.76 
2157 -185.06 -184.53 -178.76 
2158 -184.49 -184.34 -178.76 
2159 -185.34 -187.27 -178.76 
2160 -186.18 -185.96 -178.76 
2161 -185.58 -188.94 -178.76 
2162 -186.08 -188.98 -178.76 
2163 -184.90 -187.30 -178.76 
2164 -185.81 -187.20 -178.76 
2165 -187.53 -185.49 -178.76 
2166 -184.65 -188.54 -178.76 
2167 -188.77 -187.02 -178.76 
2168 -184.68 -187.24 -178.76 
2169 -185.39 -188.56 -178.76 
2170 -184.52 -187.09 -178.76 
2171 -185.15 -187.17 -178.76 
2172 -187.73 -187.13 -178.76 
2173 -179.99 -185.76 -178.76 
2174 -188.53 -184.06 -178.76 
2175 -187.73 -184.13 -178.76 
2176 -184.54 -185.62 -178.76 
2177 -183.69 -185.51 -178.76 
2178 -186.38 -185.80 -178.76 
2179 -185.64 -187.02 -178.76 
2180 -183.76 -185.65 -178.76 
2181 -184.65 -185.59 -178.76 
2182 -186.52 -188.38 -178.76 
2183 -183.96 -186.98 -178.76 
2184 -187.80 -188.84 -178.76 
2185 -187.07 -188.91 -178.76 
2186 -184.83 -187.38 -178.76 
2187 -187.34 -189.02 -178.76 
2188 -186.03 -187.35 -178.76 
2189 -182.55 -189.05 -178.76 
2190 -188.66 -188.99 -178.76 
2191 -183.89 -184.69 -178.76 
2192 -181.67 -184.45 -178.76 
2193 -184.75 -186.16 -178.76 
2194 -186.67 -187.50 -178.76 
2195 -185.62 -185.90 -178.76 
2196 -185.26 -186.02 -178.76 
2197 -183.91 -184.35 -178.76 
2198 -186.66 -185.92 -178.76 
2199 -185.01 -184.50 -178.76 
2200 -185.80 -184.35 -178.76 
2201 -184.40 -187.30 -178.76 
2202 -186.92 -188.86 -178.76 
2203 -185.47 -188.82 -178.76 
2204 -188.16 -184.28 -178.76 
2205 -186.31 -187.35 -178.76 
2206 -183.34 -187.40 -178.76 
2207 -186.73 -186.02 -178.76 
2208 -184.70 -187.47 -178.76 
2209 -187.23 -185.76 -178.76 
2210 -181.89 -185.96 -178.76 
2211 -186.55 -185.98 -178.76 
2212 -185.36 -184.49 -178.76 
2213 -184.48 -185.87 -178.76 
2214 -185.40 -182.85 -178.76 
2215 -184.14 -182.87 -178.76 
2216 -187.49 -182.92 -178.76 
2217 -181.95 -181.51 -178.76 
2218 -187.13 -184.49 -178.76 
2219 -189.48 -183.10 -178.76 
2220 -186.65 -181.79 -178.76 
2221 -185.78 -183.27 -178.76 
2222 -184.73 -186.11 -178.76 
2223 -186.81 -187.56 -178.76 
2224 -187.01 -185.77 -178.76 
2225 -182.28 -187.04 -178.76 
2226 -183.87 -185.79 -178.76 
2227 -184.49 -185.78 -178.76 
2228 -184.00 -184.49 -178.76 
2229 -185.05 -185.86 -178.76 
2230 -184.69 -184.65 -178.76 
2231 -184.96 -184.61 -178.76 
2232 -185.71 -184.77 -178.76 
2233 -185.64 -183.29 -178.76 
2234 -186.09 -184.63 -178.76 
2235 -186.29 -184.72 -178.76 
2236 -183.62 -183.30 -178.76 
2237 -187.74 -181.90 -178.76 
2238 -185.09 -186.16 -178.76 
2239 -186.62 -184.86 -178.76 
2240 -183.43 -184.67 -178.76 
2241 -186.31 -186.38 -178.76 
2242 -184.81 -184.79 -178.76 
2243 -184.62 -185.00 -178.76 
2244 -187.20 -185.15 -178.76 
2245 -186.15 -186.40 -178.76 
2246 -185.03 -183.52 -178.76 
2247 -185.12 -183.66 -178.76 
2248 -184.15 -183.69 -178.76 
2249 -186.20 -183.73 -178.76 
2250 -182.41 -183.75 -178.76 
2251 -186.55 -183.58 -178.76 
2252 -184.53 -183.58 -178.76 
2253 -184.28 -183.42 -178.76 
2254 -183.69 -183.49 -178.76 
2255 -185.18 -183.36 -178.76 
2256 -185.84 -184.84 -178.76 
2257 -186.56 -184.80 -178.76 
2258 -185.03 -184.76 -178.76 
2259 -186.02 -184.90 -178.76 
2260 -185.97 -185.07 -178.76 
2261 -185.49 -184.96 -178.76 
2262 -185.24 -184.78 -178.76 
2263 -185.43 -184.84 -178.76 
2264 -181.28 -186.14 -178.76 
2265 -183.40 -184.61 -178.76 
2266 -189.44 -184.74 -178.76 
2267 -187.50 -183.44 -178.76 
2268 -182.97 -184.85 -178.76 
2269 -185.90 -183.45 -178.76 
2270 -185.65 -185.10 -178.76 
2271 -185.06 -185.11 -178.76 
2272 -185.28 -185.16 -178.76 
2273 -184.88 -185.29 -178.76 
2274 -184.66 -185.27 -178.76 
2275 -188.16 -182.38 -178.76 
2276 -187.50 -182.25 -178.76 
2277 -189.40 -183.87 -178.76 
2278 -187.22 -182.36 -178.76 
2279 -184.86 -183.89 -178.76 
2280 -184.34 -182.42 -178.76 
2281 -184.75 -185.28 -178.76 
2282 -182.43 -185.28 -178.76 
2283 -186.33 -185.37 -178.76 
2284 -185.52 -185.24 -178.76 
2285 -187.06 -185.11 -178.76 
2286 -183.62 -185.21 -178.76 
2287 -183.11 -185.22 -178.76 
2288 -184.91 -185.27 -178.76 
2289 -186.56 -185.30 -178.76 
2290 -188.13 -185.27 -178.76 
2291 -184.80 -185.30 -178.76 
2292 -182.07 -185.09 -178.76 
2293 -186.10 -185.29 -178.76 
2294 -188.37 -185.39 -178.76 
2295 -182.06 -185.30 -178.76 
2296 -185.59 -185.30 -178.76 
2297 -182.99 -185.21 -178.76 
2298 -183.71 -185.15 -178.76 
2299 -182.98 -185.14 -178.76 
2300 -185.57 -185.37 -178.76 
2301 -185.32 -185.42 -178.76 
2302 -195.99 -185.38 -178.76 
2303 -186.84 -185.43 -178.76 
2304 -183.68 -185.48 -178.76 
2305 -188.72 -185.46 -178.76 
2306 -183.53 -185.40 -178.76 
2307 -185.33 -185.49 -178.76 
2308 -184.71 -183.94 -178.76 
2309 -184.99 -185.38 -178.76 
2310 -183.59 -183.86 -178.76 
2311 -183.53 -183.97 -178.76 
2312 -185.70 -185.34 -178.76 
2313 -186.80 -185.29 -178.76 
2314 -184.90 -183.78 -178.76 
2315 -188.44 -183.79 -178.76 
2316 -184.91 -183.67 -178.76 
2317 -187.14 -183.69 -178.76 
2318 -185.84 -183.82 -178.76 
2319 -183.76 -185.18 -178.76 
2320 -185.84 -183.83 -178.76 
2321 -184.38 -183.85 -178.76 
2322 -183.62 -184.00 -178.76 
2323 -186.51 -184.03 -178.76 
2324 -185.03 -182.41 -178.76 
2325 -186.04 -184.00 -178.76 
2326 -186.98 -183.80 -178.76 
2327 -186.58 -182.44 -178.76 
2328 -184.99 -184.07 -178.76 
2329 -182.33 -183.73 -178.76 
2330 -184.05 -183.81 -178.76 
2331 -180.56 -183.62 -178.76 
2332 -186.19 -183.44 -178.76 
2333 -184.52 -183.46 -178.76 
2334 -186.59 -183.18 -178.76 
2335 -182.28 -183.40 -178.76 
2336 -184.16 -183.32 -178.76 
2337 -182.83 -183.48 -178.76 
2338 -186.33 -184.97 -178.76 
2339 -183.35 -183.40 -178.76 
2340 -183.91 -183.33 -178.76 
2341 -185.27 -183.41 -178.76 
2342 -185.09 -183.44 -178.76 
2343 -188.92 -184.94 -178.76 
2344 -191.92 -184.96 -178.76 
2345 -182.81 -183.33 -178.76 
2346 -182.50 -184.73 -178.76 
2347 -183.77 -183.21 -178.76 
2348 -183.38 -184.74 -178.76 
2349 -182.79 -181.58 -178.76 
2350 -181.97 -181.53 -178.76 
2351 -181.35 -183.06 -178.76 
2352 -185.99 -184.60 -178.76 
2353 -184.28 -184.73 -178.76 
2354 -184.07 -184.64 -178.76 
2355 -184.50 -186.33 -178.76 
2356 -186.01 -184.66 -178.76 
2357 -185.52 -186.13 -178.76 
2358 -182.63 -187.47 -178.76 
2359 -184.88 -185.99 -178.76 
2360 -183.92 -184.37 -178.76 
2361 -184.58 -187.35 -178.76 
2362 -187.44 -185.99 -178.76 
2363 -184.47 -181.45 -178.76 
2364 -185.61 -179.84 -178.76 
2365 -183.19 -181.48 -178.76 
2366 -183.23 -179.89 -178.76 
2367 -182.67 -179.77 -178.76 
2368 -186.97 -179.88 -178.76 
2369 -185.84 -179.88 -178.76 
2370 -180.36 -181.52 -178.76 
2371 -185.72 -182.63 -178.76 
2372 -185.14 -182.51 -178.76 
2373 -184.63 -181.29 -178.76 
2374 -182.64 -182.79 -178.76 
2375 -182.76 -184.19 -178.76 
2376 -185.72 -182.71 -178.76 
2377 -185.78 -182.58 -178.76 
2378 -181.68 -182.59 -178.76 
2379 -185.94 -182.73 -178.76 
2380 -183.97 -182.78 -178.76 
2381 -185.89 -182.58 -178.76 
2382 -185.83 -182.63 -178.76 
2383 -186.42 -182.37 -178.76 
2384 -187.48 -182.49 -178.76 
2385 -182.39 -184.18 -178.76 
2386 -183.54 -184.26 -178.76 
2387 -181.92 -184.32 -178.76 
2388 -184.59 -184.37 -178.76 
2389 -184.46 -183.05 -178.76 
2390 -185.20 -181.62 -178.76 
2391 -181.24 -182.97 -178.76 
2392 -183.39 -181.58 -178.76 
2393 -184.35 -181.69 -178.76 
2394 -187.01 -181.41 -178.76 
2395 -185.32 -181.53 -178.76 
2396 -184.15 -181.37 -178.76 
2397 -182.81 -181.42 -178.76 
2398 -189.11 -181.55 -178.76 
2399 -185.11 -181.52 -178.76 
2400 -185.94 -181.34 -178.76 
2401 -181.87 -181.59 -178.76 
2402 -184.80 -181.58 -178.76 
2403 -184.95 -181.67 -178.76 
2404 -182.59 -181.65 -178.76 
2405 -183.97 -181.58 -178.76 
2406 -186.77 -181.55 -178.76 
2407 -184.06 -181.59 -178.76 
2408 -184.50 -181.39 -178.76 
2409 -184.11 -181.46 -178.76 
2410 -186.89 -181.42 -178.76 
2411 -183.56 -181.66 -178.76 
2412 -182.59 -180.30 -178.76 
2413 -186.96 -181.64 -178.76 
2414 -184.91 -181.60 -178.76 
2415 -188.57 -181.71 -178.76 
2416 -187.30 -181.79 -178.76 
2417 -184.27 -181.75 -178.76 
2418 -186.10 -181.65 -178.76 
2419 -185.44 -181.49 -178.76 
2420 -182.72 -181.54 -178.76 
2421 -189.67 -181.55 -178.76 
2422 -183.88 -181.52 -178.76 
2423 -182.39 -181.40 -178.76 
2424 -187.39 -181.41 -178.76 
2425 -184.38 -181.28 -178.76 
2426 -184.14 -181.30 -178.76 
2427 -185.17 -181.34 -178.76 
2428 -182.98 -181.35 -178.76 
2429 -181.71 -181.61 -178.76 
2430 -183.66 -181.73 -178.76 
2431 -182.52 -179.95 -178.76 
2432 -186.02 -181.68 -178.76 
2433 -182.33 -183.01 -178.76 
2434 -185.55 -179.76 -178.76 
2435 -182.12 -182.79 -178.76 
2436 -184.67 -181.27 -178.76 
2437 -185.64 -182.67 -178.76 
2438 -186.02 -181.23 -178.76 
2439 -185.08 -181.40 -178.76 
2440 -184.50 -182.79 -178.76 
2441 -187.02 -182.71 -178.76 
2442 -184.78 -181.17 -178.76 
2443 -183.92 -181.30 -178.76 
2444 -184.66 -179.85 -178.76 
2445 -183.36 -181.54 -178.76 
2446 -184.14 -179.87 -178.76 
2447 -184.43 -179.84 -178.76 
2448 -180.29 -179.91 -178.76 
2449 -184.92 -181.60 -178.76 
2450 -184.10 -181.64 -178.76 
2451 -186.20 -181.64 -178.76 
2452 -182.97 -181.41 -178.76 
2453 -187.68 -181.52 -178.76 
2454 -184.92 -180.00 -178.76 
2455 -182.71 -180.27 -178.76 
2456 -183.19 -180.47 -178.76 
2457 -185.03 -180.41 -178.76 
2458 -182.81 -180.39 -178.76 
2459 -188.04 -182.02 -178.76 
2460 -184.88 -180.42 -178.76 
2461 -182.26 -182.09 -178.76 
2462 -183.43 -181.90 -178.76 
2463 -181.14 -186.28 -178.76 
2464 -182.18 -180.34 -178.76 
2465 -182.96 -182.01 -178.76 
2466 -184.59 -181.77 -178.76 
2467 -190.44 -181.77 -178.76 
2468 -196.23 -182.01 -178.76 
2469 -184.74 -183.28 -178.76 
2470 -184.58 -183.26 -178.76 
2471 -183.83 -182.03 -178.76 
2472 -183.01 -180.38 -178.76 
2473 -182.62 -180.47 -178.76 
2474 -182.97 -180.38 -178.76 
2475 -186.03 -180.24 -178.76 
2476 -185.85 -181.85 -178.76 
2477 -184.06 -181.82 -178.76 
2478 -184.49 -182.01 -178.76 
2479 -184.56 -184.98 -178.76 
2480 -180.58 -183.53 -178.76 
2481 -184.40 -183.57 -178.76 
2482 -186.08 -182.10 -178.76 
2483 -183.76 -182.10 -178.76 
2484 -185.14 -183.45 -178.76 
2485 -184.08 -182.21 -178.76 
2486 -185.45 -182.32 -178.76 
2487 -182.13 -182.51 -178.76 
2488 -185.74 -180.89 -178.76 
2489 -185.83 -182.45 -178.76 
2490 -185.33 -180.86 -178.76 
2491 -187.29 -184.09 -178.76 
2492 -184.84 -182.30 -178.76 
2493 -184.55 -180.80 -178.76 
2494 -181.53 -182.35 -178.76 
2495 -186.95 -180.91 -178.76 
2496 -189.33 -183.93 -178.76 
2497 -187.71 -183.78 -178.76 
2498 -186.21 -185.20 -178.76 
2499 -183.83 -183.75 -178.76 
2500 -185.60 -183.62 -178.76 
2501 -192.56 -183.64 -178.76 
2502 -186.33 -186.70 -178.76 
2503 -180.88 -186.42 -178.76 
2504 -182.03 -184.65 -178.76 
2505 -184.78 -184.71 -178.76 
2506 -187.31 -186.43 -178.76 
2507 -183.20 -184.91 -178.76 
2508 -185.90 -186.28 -178.76 
2509 -183.97 -184.86 -178.76 
2510 -182.92 -184.98 -178.76 
2511 -182.21 -184.81 -178.76 
2512 -182.33 -183.38 -178.76 
2513 -184.54 -185.98 -178.76 
2514 -183.53 -185.97 -178.76 
2515 -186.15 -184.31 -178.76 
2516 -181.58 -185.94 -178.76 
2517 -187.56 -185.91 -178.76 
2518 -181.85 -184.08 -178.76 
2519 -181.51 -184.00 -178.76 
2520 -189.29 -184.26 -178.76 
2521 -185.92 -184.35 -178.76 
2522 -183.81 -184.43 -178.76 
2523 -186.60 -181.78 -178.76 
2524 -185.35 -184.80 -178.76 
2525 -185.47 -183.14 -178.76 
2526 -180.85 -183.24 -178.76 
2527 -184.14 -183.31 -178.76 
2528 -183.53 -183.42 -178.76 
2529 -186.39 -180.54 -178.76 
2530 -184.02 -182.07 -178.76 
2531 -182.77 -183.54 -178.76 
2532 -187.51 -183.50 -178.76 
2533 -184.48 -184.89 -178.76 
2534 -181.04 -184.90 -178.76 
2535 -194.47 -183.29 -178.76 
2536 -185.46 -184.87 -178.76 
2537 -185.21 -181.85 -178.76 
2538 -184.87 -183.30 -178.76 
2539 -187.62 -183.31 -178.76 
2540 -184.39 -181.76 -178.76 
2541 -182.95 -181.81 -178.76 
2542 -181.48 -183.37 -178.76 
2543 -188.28 -184.75 -178.76 
2544 -182.08 -183.27 -178.76 
2545 -186.04 -183.30 -178.76 
2546 -186.00 -183.25 -178.76 
2547 -182.68 -183.19 -178.76 
2548 -184.47 -183.20 -178.76 
2549 -189.56 -184.73 -178.76 
2550 -182.97 -183.22 -178.76 
2551 -184.96 -183.36 -178.76 
2552 -183.98 -184.83 -178.76 
2553 -184.98 -183.01 -178.76 
2554 -184.99 -183.14 -178.76 
2555 -183.84 -183.10 -178.76 
2556 -184.84 -183.18 -178.76 
2557 -184.23 -183.31 -178.76 
2558 -185.23 -183.18 -178.76 
2559 -184.32 -181.88 -178.76 
2560 -182.96 -180.37 -178.76 
2561 -184.82 -183.74 -178.76 
2562 -182.89 -181.98 -178.76 
2563 -182.21 -185.17 -178.76 
2564 -183.50 -181.90 -178.76 
2565 -185.79 -181.73 -178.76 
2566 -186.12 -183.31 -178.76 
2567 -187.41 -184.79 -178.76 
2568 -187.22 -184.46 -178.76 
2569 -186.18 -182.76 -178.76 
2570 -184.06 -182.50 -178.76 
2571 -187.07 -184.03 -178.76 
2572 -183.25 -184.06 -178.76 
2573 -183.54 -182.86 -178.76 
2574 -188.58 -187.12 -178.76 
2575 -184.81 -182.49 -178.76 
2576 -182.90 -181.06 -178.76 
2577 -184.52 -185.60 -178.76 
2578 -183.37 -183.96 -178.76 
2579 -180.92 -184.15 -178.76 
2580 -183.74 -183.42 -178.76 
2581 -185.21 -185.58 -178.76 
2582 -184.27 -185.56 -178.76 
2583 -184.06 -184.06 -178.76 
2584 -186.81 -185.59 -178.76 
2585 -184.56 -183.92 -178.76 
2586 -184.26 -182.32 -178.76 
2587 -184.24 -183.94 -178.76 
2588 -183.27 -183.34 -178.76 
2589 -184.20 -183.72 -178.76 
2590 -183.59 -183.71 -178.76 
2591 -182.23 -183.78 -178.76 
2592 -182.64 -186.17 -178.76 
2593 -184.92 -187.65 -178.76 
2594 -185.98 -184.98 -178.76 
2595 -185.98 -184.84 -178.76 
2596 -185.17 -186.23 -178.76 
2597 -183.53 -184.65 -178.76 
2598 -184.50 -186.21 -178.76 
2599 -180.47 -184.61 -178.76 
2600 -184.08 -186.12 -178.76 
2601 -186.85 -187.75 -178.76 
2602 -185.31 -186.26 -178.76 
2603 -181.31 -183.20 -178.76 
2604 -179.43 -186.22 -178.76 
2605 -182.60 -184.53 -178.76 
2606 -186.03 -188.73 -178.76 
2607 -182.79 -188.80 -178.76 
2608 -182.75 -188.82 -178.76 
2609 -187.83 -188.88 -178.76 
2610 -183.53 -188.73 -178.76 
2611 -186.31 -187.24 -178.76 
2612 -185.21 -187.33 -178.76 
2613 -188.85 -187.26 -178.76 
2614 -184.09 -188.74 -178.76 
2615 -185.06 -187.28 -178.76 
2616 -184.45 -187.13 -178.76 
2617 -186.12 -187.10 -178.76 
2618 -186.10 -185.85 -178.76 
2619 -184.31 -187.64 -178.76 
2620 -183.32 -187.62 -178.76 
2621 -180.83 -187.67 -178.76 
2622 -177.81 -183.25 -178.76 
2623 -185.13 -183.25 -177.81 
2624 -181.22 -183.14 -177.81 
2625 -182.48 -183.20 -177.81 
2626 -184.02 -183.21 -177.81 
2627 -182.15 -186.39 -177.81 
2628 -184.85 -184.80 -177.81 
2629 -184.68 -184.85 -177.81 
2630 -182.29 -186.27 -177.81 
2631 -185.56 -184.95 -177.81 
2632 -184.14 -186.40 -177.81 
2633 -184.84 -186.40 -177.81 
2634 -184.39 -187.91 -177.81 
2635 -181.14 -187.93 -177.81 
2636 -185.13 -187.52 -177.81 
2637 -185.76 -187.85 -177.81 
2638 -180.63 -187.69 -177.81 
2639 -183.59 -187.85 -177.81 
2640 -178.35 -184.65 -177.81 
2641 -184.06 -187.80 -177.81 
2642 -181.20 -186.04 -177.81 
2643 -186.73 -187.73 -177.81 
2644 -183.61 -187.51 -177.81 
2645 -185.11 -185.96 -177.81 
2646 -183.75 -187.95 -177.81 
2647 -187.17 -187.88 -177.81 
2648 -182.32 -185.99 -177.81 
2649 -181.15 -184.95 -177.81 
2650 -181.21 -184.83 -177.81 
2651 -184.09 -186.17 -177.81 
2652 -183.32 -186.15 -177.81 
2653 -184.42 -186.24 -177.81 
2654 -185.93 -186.37 -177.81 
2655 -186.79 -184.48 -177.81 
2656 -184.34 -187.24 -177.81 
2657 -182.57 -184.54 -177.81 
2658 -186.33 -187.54 -177.81 
2659 -185.43 -187.43 -177.81 
2660 -184.93 -184.64 -177.81 
2661 -185.06 -185.81 -177.81 
2662 -184.19 -185.92 -177.81 
2663 -186.54 -186.21 -177.81 
2664 -183.33 -185.85 -177.81 
2665 -182.54 -187.31 -177.81 
2666 -184.59 -185.67 -177.81 
2667 -183.74 -185.57 -177.81 
2668 -184.10 -185.77 -177.81 
2669 -188.38 -186.03 -177.81 
2670 -186.48 -186.00 -177.81 
2671 -186.50 -183.10 -177.81 
2672 -181.27 -183.00 -177.81 
2673 -183.66 -183.08 -177.81 
2674 -183.44 -181.48 -177.81 
2675 -187.45 -184.43 -177.81 
2676 -183.80 -182.82 -177.81 
2677 -183.12 -183.96 -177.81 
2678 -182.40 -181.32 -177.81 
2679 -188.25 -179.99 -177.81 
2680 -184.29 -182.93 -177.81 
2681 -188.54 -181.68 -177.81 
2682 -183.60 -180.29 -177.81 
2683 -183.34 -178.87 -177.81 
2684 -186.30 -181.97 -177.81 
2685 -185.89 -180.31 -177.81 
2686 -183.77 -182.02 -177.81 
2687 -185.34 -183.58 -177.81 
2688 -187.47 -182.01 -177.81 
2689 -193.01 -183.59 -177.81 
2690 -182.22 -183.64 -177.81 
2691 -183.41 -183.80 -177.81 
2692 -183.46 -180.78 -177.81 
2693 -184.66 -180.65 -177.81 
2694 -186.71 -180.72 -177.81 
2695 -182.76 -182.33 -177.81 
2696 -182.83 -180.74 -177.81 
2697 -190.70 -180.75 -177.81 
2698 -183.11 -180.92 -177.81 
2699 -181.60 -180.94 -177.81 
2700 -209.76 -182.38 -177.81 
2701 -184.23 -182.62 -177.81 
2702 -188.40 -182.48 -177.81 
2703 -183.63 -180.98 -177.81 
2704 -181.97 -182.60 -177.81 
2705 -182.49 -182.60 -177.81 
2706 -186.28 -181.21 -177.81 
2707 -184.89 -179.43 -177.81 
2708 -184.12 -181.13 -177.81 
2709 -183.06 -180.82 -177.81 
2710 -184.59 -182.28 -177.81 
2711 -186.68 -182.25 -177.81 
2712 -187.10 -182.12 -177.81 
2713 -186.11 -182.30 -177.81 
2714 -186.07 -183.59 -177.81 
2715 -182.63 -182.35 -177.81 
2716 -184.50 -185.47 -177.81 
2717 -185.87 -182.31 -177.81 
2718 -182.48 -183.88 -177.81 
2719 -185.23 -183.70 -177.81 
2720 -183.66 -185.17 -177.81 
2721 -182.02 -180.62 -177.81 
2722 -184.55 -183.74 -177.81 
2723 -185.95 -181.96 -177.81 
2724 -180.79 -181.69 -177.81 
2725 -185.94 -180.28 -177.81 
2726 -186.39 -180.29 -177.81 
2727 -184.99 -180.24 -177.81 
2728 -183.61 -182.00 -177.81 
2729 -183.01 -181.94 -177.81 
2730 -185.54 -180.43 -177.81 
2731 -184.22 -185.04 -177.81 
2732 -184.05 -184.93 -177.81 
2733 -185.75 -182.06 -177.81 
2734 -185.01 -183.23 -177.81 
2735 -184.96 -184.92 -177.81 
2736 -184.17 -182.32 -177.81 
2737 -184.22 -182.07 -177.81 
2738 -184.42 -183.55 -177.81 
2739 -182.82 -183.53 -177.81 
2740 -181.01 -183.46 -177.81 
2741 -184.98 -184.79 -177.81 
2742 -182.78 -184.85 -177.81 
2743 -186.21 -186.25 -177.81 
2744 -183.30 -186.16 -177.81 
2745 -184.44 -184.75 -177.81 
2746 -184.52 -187.80 -177.81 
2747 -182.93 -187.78 -177.81 
2748 -185.60 -184.73 -177.81 
2749 -186.94 -182.31 -177.81 
2750 -183.30 -183.70 -177.81 
2751 -186.17 -185.05 -177.81 
2752 -210.87 -182.04 -177.81 
2753 -185.02 -185.09 -177.81 
2754 -184.35 -186.69 -177.81 
2755 -185.89 -185.35 -177.81 
2756 -186.06 -186.72 -177.81 
2757 -182.91 -186.62 -177.81 
2758 -184.36 -186.62 -177.81 
2759 -218.66 -186.67 -177.81 
2760 -188.46 -185.45 -177.81 
2761 -189.51 -182.52 -177.81 
2762 -185.90 -183.92 -177.81 
2763 -184.90 -185.31 -177.81 
2764 -184.32 -182.39 -177.81 
2765 -182.65 -183.89 -177.81 
2766 -183.79 -183.81 -177.81 
2767 -184.42 -183.74 -177.81 
2768 -186.65 -180.90 -177.81 
2769 -181.27 -181.25 -177.81 
2770 -184.09 -184.17 -177.81 
2771 -183.33 -182.90 -177.81 
2772 -187.68 -182.67 -177.81 
2773 -184.38 -183.97 -177.81 
2774 -188.59 -182.31 -177.81 
2775 -186.23 -182.40 -177.81 
2776 -181.51 -182.54 -177.81 
2777 -185.10 -184.25 -177.81 
2778 -185.11 -182.39 -177.81 
2779 -183.27 -187.06 -177.81 
2780 -186.64 -183.98 -177.81 
2781 -220.15 -184.01 -177.81 
2782 -187.16 -185.56 -177.81 
2783 -179.33 -186.84 -177.81 
2784 -185.06 -184.11 -177.81 
2785 -185.11 -184.06 -177.81 
2786 -186.42 -185.34 -177.81 
2787 -185.10 -186.69 -177.81 
2788 -183.80 -186.88 -177.81 
2789 -185.60 -185.26 -177.81 
2790 -185.66 -183.82 -177.81 
2791 -184.47 -186.94 -177.81 
2792 -180.30 -185.46 -177.81 
2793 -186.04 -185.58 -177.81 
2794 -185.09 -183.95 -177.81 
2795 -183.47 -185.64 -177.81 
2796 -185.45 -187.12 -177.81 
2797 -184.38 -182.70 -177.81 
2798 -186.23 -184.30 -177.81 
2799 -184.67 -185.91 -177.81 
2800 -181.92 -184.06 -177.81 
2801 -187.97 -184.05 -177.81 
2802 -185.54 -186.94 -177.81 
2803 -185.52 -183.99 -177.81 
2804 -185.06 -183.98 -177.81 
2805 -185.49 -182.54 -177.81 
2806 -185.15 -183.98 -177.81 
2807 -184.81 -186.94 -177.81 
2808 -188.62 -186.75 -177.81 
2809 -185.46 -183.84 -177.81 
2810 -185.92 -184.09 -177.81 
2811 -183.55 -184.34 -177.81 
2812 -184.65 -184.18 -177.81 
2813 -182.18 -184.11 -177.81 
2814 -184.24 -184.27 -177.81 
2815 -184.50 -184.39 -177.81 
2816 -181.49 -182.76 -177.81 
2817 -185.42 -184.10 -177.81 
2818 -188.21 -182.66 -177.81 
2819 -184.59 -182.84 -177.81 
2820 -185.76 -184.51 -177.81 
2821 -188.81 -184.18 -177.81 
2822 -189.81 -182.88 -177.81 
2823 -186.63 -183.03 -177.81 
2824 -182.90 -183.20 -177.81 
2825 -188.05 -183.07 -177.81 
2826 -183.36 -183.19 -177.81 
2827 -185.12 -181.58 -177.81 
2828 -182.73 -181.46 -177.81 
2829 -185.35 -182.57 -177.81 
2830 -213.54 -181.18 -177.81 
2831 -185.03 -182.84 -177.81 
2832 -186.82 -182.92 -177.81 
2833 -181.84 -181.44 -177.81 
2834 -187.35 -181.78 -177.81 
2835 -184.85 -181.61 -177.81 
2836 -187.44 -181.24 -177.81 
2837 -184.02 -179.86 -177.81 
2838 -189.87 -181.45 -177.81 
2839 -187.26 -181.61 -177.81 
2840 -184.08 -179.85 -177.81 
2841 -183.96 -181.53 -177.81 
2842 -184.33 -183.03 -177.81 
2843 -191.71 -183.00 -177.81 
2844 -184.23 -182.92 -177.81 
2845 -183.68 -182.93 -177.81 
2846 -186.86 -182.86 -177.81 
2847 -185.70 -182.89 -177.81 
2848 -184.13 -181.49 -177.81 
2849 -185.06 -182.57 -177.81 
2850 -182.78 -180.68 -177.81 
2851 -185.77 -180.78 -177.81 
2852 -187.41 -180.78 -177.81 
2853 -181.98 -180.76 -177.81 
2854 -183.10 -182.41 -177.81 
2855 -182.21 -182.33 -177.81 
2856 -185.22 -182.37 -177.81 
2857 -184.98 -182.34 -177.81 
2858 -185.69 -182.49 -177.81 
2859 -194.08 -180.90 -177.81 
2860 -183.08 -183.82 -177.81 
2861 -186.15 -182.31 -177.81 
2862 -186.64 -183.90 -177.81 
2863 -186.63 -183.62 -177.81 
2864 -185.71 -183.89 -177.81 
2865 -184.20 -183.63 -177.81 
2866 -184.68 -183.68 -177.81 
2867 -185.43 -182.00 -177.81 
2868 -184.64 -182.13 -177.81 
2869 -187.62 -180.77 -177.81 
2870 -185.52 -182.13 -177.81 
2871 -184.29 -182.42 -177.81 
2872 -184.09 -180.66 -177.81 
2873 -185.62 -182.11 -177.81 
2874 -186.29 -184.97 -177.81 
2875 -183.36 -184.97 -177.81 
2876 -184.10 -183.61 -177.81 
2877 -185.53 -184.75 -177.81 
2878 -182.78 -185.06 -177.81 
2879 -185.51 -184.97 -177.81 
2880 -185.18 -186.39 -177.81 
2881 -185.39 -185.13 -177.81 
2882 -182.37 -183.65 -177.81 
2883 -186.08 -183.70 -177.81 
2884 -185.27 -183.34 -177.81 
2885 -187.35 -183.74 -177.81 
2886 -186.27 -183.81 -177.81 
2887 -181.68 -184.15 -177.81 
2888 -185.11 -182.75 -177.81 
2889 -186.56 -184.05 -177.81 
2890 -183.33 -183.89 -177.81 
2891 -186.59 -182.21 -177.81 
2892 -180.59 -183.81 -177.81 
2893 -183.42 -183.82 -177.81 
2894 -183.53 -182.62 -177.81 
2895 -182.76 -184.26 -177.81 
2896 -185.46 -182.37 -177.81 
2897 -186.78 -185.49 -177.81 
2898 -186.31 -183.84 -177.81 
2899 -183.14 -183.86 -177.81 
2900 -184.59 -183.81 -177.81 
2901 -180.38 -180.76 -177.81 
2902 -182.84 -183.89 -177.81 
2903 -185.29 -182.46 -177.81 
2904 -189.28 -181.12 -177.81 
2905 -184.19 -180.83 -177.81 
2906 -183.01 -181.01 -177.81 
2907 -185.23 -182.28 -177.81 
2908 -185.20 -181.15 -177.81 
2909 -184.65 -182.39 -177.81 
2910 -182.94 -183.79 -177.81 
2911 -181.33 -185.39 -177.81 
2912 -184.47 -185.41 -177.81 
2913 -182.72 -185.50 -177.81 
2914 -188.80 -185.58 -177.81 
2915 -180.43 -184.07 -177.81 
2916 -183.31 -185.81 -177.81 
2917 -184.57 -184.32 -177.81 
2918 -182.77 -184.08 -177.81 
2919 -185.34 -184.24 -177.81 
2920 -183.51 -184.27 -177.81 
2921 -184.45 -184.41 -177.81 
2922 -182.22 -182.93 -177.81 
2923 -182.10 -186.00 -177.81 
2924 -183.71 -186.03 -177.81 
2925 -183.19 -182.87 -177.81 
2926 -187.12 -181.76 -177.81 
2927 -185.26 -181.80 -177.81 
2928 -184.41 -183.46 -177.81 
2929 -188.06 -183.45 -177.81 
2930 -184.15 -184.94 -177.81 
2931 -180.26 -184.76 -177.81 
2932 -186.04 -180.27 -177.81 
2933 -181.18 -180.24 -177.81 
2934 -185.18 -184.96 -177.81 
2935 -188.10 -183.47 -177.81 
2936 -214.99 -183.76 -177.81 
2937 -183.84 -183.57 -177.81 
2938 -183.86 -183.66 -177.81 
2939 -185.67 -182.16 -177.81 
2940 -182.23 -183.47 -177.81 
2941 -185.50 -182.06 -177.81 
2942 -186.16 -183.59 -177.81 
2943 -184.23 -182.08 -177.81 
2944 -187.14 -182.21 -177.81 
2945 -183.19 -183.62 -177.81 
2946 -186.34 -182.40 -177.81 
2947 -184.42 -182.29 -177.81 
2948 -184.24 -182.32 -177.81 
2949 -187.65 -179.33 -177.81 
2950 -183.57 -183.69 -177.81 
2951 -184.48 -182.20 -177.81 
2952 -184.08 -183.58 -177.81 
2953 -182.12 -183.68 -177.81 
2954 -182.55 -182.12 -177.81 
2955 -182.14 -182.20 -177.81 
2956 -184.49 -183.68 -177.81 
2957 -183.81 -183.59 -177.81 
2958 -182.75 -183.61 -177.81 
2959 -188.22 -183.47 -177.81 
2960 -186.36 -182.27 -177.81 
2961 -183.14 -182.03 -177.81 
2962 -182.17 -181.96 -177.81 
2963 -186.35 -181.96 -177.81 
2964 -180.34 -182.18 -177.81 
2965 -184.96 -181.94 -177.81 
2966 -183.86 -181.92 -177.81 
2967 -188.11 -183.34 -177.81 
2968 -183.66 -181.55 -177.81 
2969 -182.80 -182.98 -177.81 
2970 -182.52 -183.13 -177.81 
2971 -184.68 -184.69 -177.81 
2972 -182.96 -183.09 -177.81 
2973 -184.72 -184.87 -177.81 
2974 -181.70 -181.91 -177.81 
2975 -182.39 -183.33 -177.81 
2976 -183.66 -181.87 -177.81 
2977 -184.36 -181.46 -177.81 
2978 -184.63 -181.52 -177.81 
2979 -183.01 -181.46 -177.81 
2980 -185.90 -181.67 -177.81 
2981 -184.52 -181.41 -177.81 
2982 -184.50 -179.95 -177.81 
2983 -182.46 -179.54 -177.81 
2984 -180.76 -182.49 -177.81 
2985 -186.77 -183.93 -177.81 
2986 -181.75 -181.15 -177.81 
2987 -183.17 -182.49 -177.81 
2988 -181.65 -181.33 -177.81 
2989 -185.34 -182.87 -177.81 
2990 -184.32 -179.57 -177.81 
2991 -183.51 -181.35 -177.81 
2992 -186.42 -182.74 -177.81 
2993 -180.40 -181.31 -177.81 
2994 -182.68 -182.88 -177.81 
2995 -182.66 -181.74 -177.81 
2996 -181.95 -184.71 -177.81 
2997 -184.83 -183.32 -177.81 
2998 -181.66 -183.31 -177.81 
2999 -185.10 -181.80 -177.81 
3000 -184.18 -180.55 -177.81 
3001 -187.15 -182.25 -177.81 
3002 -183.52 -180.64 -177.81 
3003 -186.81 -180.71 -177.81 
3004 -183.51 -180.40 -177.81 
3005 -182.33 -181.56 -177.81 
3006 -179.25 -179.80 -177.81 
3007 -183.95 -182.82 -177.81 
3008 -183.87 -184.21 -177.81 
3009 -184.21 -182.94 -177.81 
3010 -183.66 -182.89 -177.81 
3011 -182.75 -184.10 -177.81 
3012 -181.91 -182.57 -177.81 
3013 -184.78 -185.41 -177.81 
3014 -181.54 -184.08 -177.81 
3015 -184.94 -183.95 -177.81 
3016 -183.18 -184.15 -177.81 
3017 -182.96 -184.17 -177.81 
3018 -184.24 -184.32 -177.81 
3019 -180.10 -182.85 -177.81 
3020 -186.18 -182.86 -177.81 
3021 -183.01 -181.57 -177.81 
3022 -184.13 -181.54 -177.81 
3023 -185.58 -181.44 -177.81 
3024 -184.02 -180.46 -177.81 
3025 -181.15 -180.34 -177.81 
3026 -184.00 -180.03 -177.81 
3027 -184.41 -180.06 -177.81 
3028 -181.91 -179.58 -177.81 
3029 -184.71 -179.62 -177.81 
3030 -185.03 -179.60 -177.81 
3031 -183.31 -182.81 -177.81 
3032 -181.52 -179.87 -177.81 
3033 -184.76 -181.32 -177.81 
3034 -182.68 -179.85 -177.81 
3035 -184.95 -179.80 -177.81 
3036 -180.86 -179.71 -177.81 
3037 -185.17 -179.58 -177.81 
3038 -183.72 -179.88 -177.81 
3039 -184.88 -179.99 -177.81 
3040 -184.39 -183.18 -177.81 
3041 -182.86 -183.12 -177.81 
3042 -185.45 -181.47 -177.81 
3043 -182.54 -181.33 -177.81 
3044 -185.51 -181.23 -177.81 
3045 -185.17 -181.48 -177.81 
3046 -182.81 -181.45 -177.81 
3047 -177.71 -184.43 -177.81 
3048 -182.53 -181.36 -177.71 
3049 -185.31 -181.23 -177.71 
3050 -182.70 -181.36 -177.71 
3051 -182.23 -179.88 -177.71 
3052 -182.44 -181.48 -177.71 
3053 -182.08 -181.74 -177.71 
3054 -184.68 -183.12 -177.71 
3055 -182.34 -184.93 -177.71 
3056 -181.92 -180.40 -177.71 
3057 -183.40 -182.01 -177.71 
3058 -184.05 -177.47 -177.71 
3059 -182.67 -180.57 -177.71 
3060 -184.07 -182.02 -177.71 
3061 -181.42 -180.31 -177.71 
3062 -186.10 -180.22 -177.71 
3063 -183.84 -178.59 -177.71 
3064 -183.45 -177.12 -177.71 
3065 -181.60 -178.63 -177.71 
3066 -181.89 -180.10 -177.71 
3067 -179.49 -180.36 -177.71 
3068 -182.27 -181.76 -177.71 
3069 -179.99 -180.09 -177.71 
3070 -183.47 -180.14 -177.71 
3071 -184.30 -180.11 -177.71 
3072 -187.88 -184.62 -177.71 
3073 -185.77 -183.02 -177.71 
3074 -182.75 -181.58 -177.71 
3075 -183.10 -182.95 -177.71 
3076 -183.40 -180.02 -177.71 
3077 -182.51 -179.98 -177.71 
3078 -182.72 -179.70 -177.71 
3079 -182.61 -181.30 -177.71 
3080 -183.98 -180.08 -177.71 
3081 -183.83 -180.00 -177.71 
3082 -182.21 -178.72 -177.71 
3083 -181.59 -180.31 -177.71 
3084 -183.08 -180.49 -177.71 
3085 -184.31 -179.12 -177.71 
3086 -187.21 -177.43 -177.71 
3087 -183.77 -180.61 -177.71 
3088 -186.09 -180.58 -177.71 
3089 -181.13 -179.22 -177.71 
3090 -182.48 -179.30 -177.71 
3091 -181.78 -182.11 -177.71 
3092 -181.85 -181.95 -177.71 
3093 -180.74 -183.39 -177.71 
3094 -182.38 -184.91 -177.71 
3095 -180.41 -183.37 -177.71 
3096 -181.98 -180.36 -177.71 
3097 -181.78 -183.01 -177.71 
3098 -182.15 -183.10 -177.71 
3099 -183.78 -183.11 -177.71 
3100 -182.31 -181.44 -177.71 
3101 -180.18 -181.43 -177.71 
3102 -185.36 -182.88 -177.71 
3103 -183.00 -181.65 -177.71 
3104 -184.00 -181.72 -177.71 
3105 -184.28 -180.03 -177.71 
3106 -185.16 -178.28 -177.71 
3107 -181.48 -179.98 -177.71 
3108 -181.40 -178.42 -177.71 
3109 -179.83 -180.24 -177.71 
3110 -177.58 -178.65 -177.71 
3111 -186.47 -178.61 -177.58 
3112 -180.97 -180.09 -177.58 
3113 -182.74 -179.63 -177.58 
3114 -182.56 -179.66 -177.58 
3115 -182.25 -181.03 -177.58 
3116 -184.44 -179.79 -177.58 
3117 -179.87 -179.94 -177.58 
3118 -179.42 -180.16 -177.58 
3119 -181.92 -178.61 -177.58 
3120 -181.41 -179.69 -177.58 
3121 -184.24 -181.18 -177.58 
3122 -182.74 -181.15 -177.58 
3123 -181.02 -179.69 -177.58 
3124 -182.76 -180.00 -177.58 
3125 -180.41 -179.88 -177.58 
3126 -187.00 -180.15 -177.58 
3127 -180.91 -180.37 -177.58 
3128 -178.17 -180.02 -177.58 
3129 -182.98 -179.76 -177.58 
3130 -179.12 -181.24 -177.58 
3131 -181.70 -182.84 -177.58 
3132 -184.37 -182.79 -177.58 
3133 -180.66 -181.30 -177.58 
3134 -186.30 -181.20 -177.58 
3135 -180.50 -182.36 -177.58 
3136 -179.58 -182.27 -177.58 
3137 -184.12 -182.41 -177.58 
3138 -182.36 -180.62 -177.58 
3139 -184.52 -182.30 -177.58 
3140 -180.37 -182.14 -177.58 
3141 -185.47 -182.70 -177.58 
3142 -183.12 -184.22 -177.58 
3143 -181.85 -181.08 -177.58 
3144 -181.85 -178.03 -177.58 
3145 -184.08 -179.82 -177.58 
3146 -182.85 -181.17 -177.58 
3147 -182.45 -182.51 -177.58 
3148 -184.89 -179.63 -177.58 
3149 -178.96 -181.27 -177.58 
3150 -188.22 -179.84 -177.58 
3151 -182.37 -181.85 -177.58 
3152 -182.02 -178.77 -177.58 
3153 -181.30 -182.93 -177.58 
3154 -184.31 -181.22 -177.58 
3155 -182.44 -182.90 -177.58 
3156 -177.28 -182.57 -177.58 
3157 -179.82 -181.13 -177.28 
3158 -183.73 -181.62 -177.28 
3159 -184.92 -179.86 -177.28 
3160 -180.32 -181.21 -177.28 
3161 -180.88 -178.18 -177.28 
3162 -181.19 -182.82 -177.28 
3163 -181.43 -182.83 -177.28 
3164 -180.67 -179.96 -177.28 
3165 -183.70 -181.27 -177.28 
3166 -182.31 -179.75 -177.28 
3167 -184.59 -185.46 -177.28 
3168 -184.20 -184.22 -177.28 
3169 -183.67 -183.91 -177.28 
3170 -184.64 -185.71 -177.28 
3171 -186.14 -186.94 -177.28 
3172 -183.71 -187.01 -177.28 
3173 -182.41 -187.06 -177.28 
3174 -184.85 -185.63 -177.28 
3175 -182.71 -182.74 -177.28 
3176 -183.93 -184.29 -177.28 
3177 -182.49 -181.36 -177.28 
3178 -185.24 -182.95 -177.28 
3179 -180.56 -180.16 -177.28 
3180 -183.77 -180.20 -177.28 
3181 -179.55 -178.53 -177.28 
3182 -183.05 -178.53 -177.28 
3183 -180.19 -180.08 -177.28 
3184 -180.93 -181.60 -177.28 
3185 -185.21 -181.67 -177.28 
3186 -180.51 -180.04 -177.28 
3187 -183.14 -181.42 -177.28 
3188 -179.24 -182.46 -177.28 
3189 -178.37 -184.37 -177.28 
3190 -181.18 -184.54 -177.28 
3191 -179.45 -187.26 -177.28 
3192 -180.70 -182.58 -177.28 
3193 -182.73 -182.12 -177.28 
3194 -184.54 -185.27 -177.28 
3195 -182.34 -183.65 -177.28 
3196 -180.60 -183.59 -177.28 
3197 -182.05 -185.16 -177.28 
3198 -177.47 -185.07 -177.28 
3199 -184.70 -186.70 -177.28 
3200 -179.86 -185.04 -177.28 
3201 -178.89 -186.46 -177.28 
3202 -184.38 -185.14 -177.28 
3203 -182.54 -187.99 -177.28 
3204 -183.30 -185.02 -177.28 
3205 -184.22 -186.59 -177.28 
3206 -181.19 -183.68 -177.28 
3207 -180.80 -184.96 -177.28 
3208 -180.55 -184.88 -177.28 
3209 -183.28 -185.01 -177.28 
3210 -180.30 -183.62 -177.28 
3211 -183.57 -184.90 -177.28 
3212 -184.13 -185.11 -177.28 
3213 -181.24 -186.46 -177.28 
3214 -181.19 -184.91 -177.28 
3215 -183.40 -185.00 -177.28 
3216 -184.81 -184.83 -177.28 
3217 -182.61 -183.60 -177.28 
3218 -184.41 -183.61 -177.28 
3219 -183.60 -183.66 -177.28 
3220 -180.69 -185.27 -177.28 
3221 -181.07 -185.15 -177.28 
3222 -184.01 -184.07 -177.28 
3223 -183.91 -183.80 -177.28 
3224 -182.94 -183.83 -177.28 
3225 -180.80 -183.80 -177.28 
3226 -193.86 -183.80 -177.28 
3227 -179.73 -182.29 -177.28 
3228 -182.41 -183.55 -177.28 
3229 -184.12 -183.68 -177.28 
3230 -183.14 -183.60 -177.28 
3231 -181.14 -183.40 -177.28 
3232 -178.58 -183.36 -177.28 
3233 -180.13 -183.59 -177.28 
3234 -183.01 -185.15 -177.28 
3235 -183.21 -184.82 -177.28 
3236 -181.95 -184.68 -177.28 
3237 -181.84 -186.14 -177.28 
3238 -183.49 -186.00 -177.28 
3239 -181.72 -186.18 -177.28 
3240 -180.43 -186.35 -177.28 
3241 -186.62 -185.88 -177.28 
3242 -182.74 -187.64 -177.28 
3243 -185.29 -182.93 -177.28 
3244 -182.86 -184.18 -177.28 
3245 -183.61 -184.09 -177.28 
3246 -181.13 -184.26 -177.28 
3247 -180.34 -185.87 -177.28 
3248 -180.46 -184.86 -177.28 
3249 -180.80 -186.13 -177.28 
3250 -182.07 -184.42 -177.28 
3251 -180.16 -185.72 -177.28 
3252 -182.28 -184.10 -177.28 
3253 -215.38 -184.06 -177.28 
3254 -182.41 -184.09 -177.28 
3255 -182.90 -182.49 -177.28 
3256 -180.22 -183.92 -177.28 
3257 -176.44 -183.83 -177.28 
3258 -184.10 -185.34 -176.44 
3259 -181.74 -185.54 -176.44 
3260 -183.62 -187.08 -176.44 
3261 -180.71 -187.20 -176.44 
3262 -182.44 -187.00 -176.44 
3263 -178.63 -185.44 -176.44 
3264 -183.71 -187.00 -176.44 
3265 -183.29 -185.33 -176.44 
3266 -181.76 -185.48 -176.44 
3267 -180.44 -186.91 -176.44 
3268 -180.79 -185.55 -176.44 
3269 -184.24 -185.57 -176.44 
3270 -180.14 -185.98 -176.44 
3271 -181.16 -186.21 -176.44 
3272 -181.85 -185.92 -176.44 
3273 -182.21 -185.64 -176.44 
3274 -183.69 -185.69 -176.44 
3275 -181.34 -185.70 -176.44 
3276 -184.15 -184.61 -176.44 
3277 -177.82 -185.83 -176.44 
3278 -183.11 -186.00 -176.44 
3279 -185.56 -184.59 -176.44 
3280 -182.85 -186.23 -176.44 
3281 -185.37 -184.88 -176.44 
3282 -181.20 -184.54 -176.44 
3283 -182.27 -181.42 -176.44 
3284 -181.18 -182.70 -176.44 
3285 -177.43 -181.45 -176.44 
3286 -181.73 -181.56 -176.44 
3287 -184.47 -181.64 -176.44 
3288 -183.92 -181.64 -176.44 
3289 -181.59 -183.13 -176.44 
3290 -182.37 -183.22 -176.44 
3291 -183.32 -181.65 -176.44 
3292 -183.53 -183.15 -176.44 
3293 -182.14 -183.17 -176.44 
3294 -182.45 -183.27 -176.44 
3295 -181.10 -183.04 -176.44 
3296 -184.34 -182.93 -176.44 
3297 -179.64 -184.44 -176.44 
3298 -183.98 -184.58 -176.44 
3299 -181.51 -184.54 -176.44 
3300 -185.09 -183.31 -176.44 
3301 -182.42 -183.52 -176.44 
3302 -182.71 -182.12 -176.44 
3303 -181.08 -182.13 -176.44 
3304 -181.34 -182.02 -176.44 
3305 -184.21 -182.08 -176.44 
3306 -184.23 -182.10 -176.44 
3307 -182.56 -183.42 -176.44 
3308 -182.71 -183.44 -176.44 
3309 -184.98 -183.51 -176.44 
3310 -183.39 -185.02 -176.44 
3311 -181.08 -183.63 -176.44 
3312 -183.25 -183.53 -176.44 
3313 -181.49 -183.19 -176.44 
3314 -180.68 -183.28 -176.44 
3315 -181.56 -184.73 -176.44 
3316 -181.48 -184.40 -176.44 
3317 -181.69 -184.29 -176.44 
3318 -181.68 -182.72 -176.44 
3319 -183.34 -184.33 -176.44 
3320 -181.15 -182.74 -176.44 
3321 -183.31 -182.74 -176.44 
3322 -180.21 -182.71 -176.44 
3323 -178.17 -183.35 -176.44 
3324 -182.38 -183.14 -176.44 
3325 -183.83 -183.05 -176.44 
3326 -181.02 -183.10 -176.44 
3327 -180.24 -184.63 -176.44 
3328 -182.35 -184.73 -176.44 
3329 -182.09 -183.13 -176.44 
3330 -179.49 -183.14 -176.44 
3331 -181.08 -183.31 -176.44 
3332 -180.46 -183.16 -176.44 
3333 -181.29 -183.25 -176.44 
3334 -180.75 -183.36 -176.44 
3335 -183.43 -183.34 -176.44 
3336 -179.95 -183.38 -176.44 
3337 -180.72 -181.88 -176.44 
3338 -181.24 -181.86 -176.44 
3339 -181.47 -180.34 -176.44 
3340 -183.00 -182.10 -176.44 
3341 -180.31 -182.05 -176.44 
3342 -180.42 -181.95 -176.44 
3343 -182.19 -181.90 -176.44 
3344 -182.28 -181.99 -176.44 
3345 -179.48 -181.86 -176.44 
3346 -186.98 -183.46 -176.44 
3347 -179.92 -182.00 -176.44 
3348 -182.77 -182.26 -176.44 
3349 -182.53 -182.42 -176.44 
3350 -182.60 -183.92 -176.44 
3351 -182.23 -182.46 -176.44 
3352 -182.19 -182.35 -176.44 
3353 -181.70 -182.16 -176.44 
3354 -180.36 -182.15 -176.44 
3355 -182.51 -182.43 -176.44 
3356 -184.04 -182.45 -176.44 
3357 -180.96 -182.50 -176.44 
3358 -183.19 -182.47 -176.44 
3359 -184.56 -182.45 -176.44 
3360 -179.87 -180.76 -176.44 
3361 -180.99 -182.43 -176.44 
3362 -182.51 -182.47 -176.44 
3363 -178.31 -182.50 -176.44 
3364 -185.14 -182.43 -176.44 
3365 -181.69 -180.87 -176.44 
3366 -180.65 -182.58 -176.44 
3367 -182.29 -182.40 -176.44 
3368 -182.74 -182.49 -176.44 
3369 -184.40 -182.57 -176.44 
3370 -178.84 -182.44 -176.44 
3371 -184.32 -182.55 -176.44 
3372 -182.47 -182.60 -176.44 
3373 -180.65 -179.78 -176.44 
3374 -183.95 -179.75 -176.44 
3375 -182.20 -179.72 -176.44 
3376 -181.02 -179.49 -176.44 
3377 -180.33 -179.50 -176.44 
3378 -179.82 -179.56 -176.44 
3379 -180.41 -179.38 -176.44 
3380 -182.60 -179.42 -176.44 
3381 -183.38 -179.47 -176.44 
3382 -180.77 -179.46 -176.44 
3383 -183.21 -181.07 -176.44 
3384 -181.30 -179.48 -176.44 
3385 -181.45 -176.37 -176.44 
3386 -181.66 -179.52 -176.44 
3387 -183.44 -181.11 -176.44 
3388 -181.80 -178.31 -176.44 
3389 -180.15 -176.87 -176.44 
3390 -181.00 -178.33 -176.44 
3391 -183.05 -178.29 -176.44 
3392 -181.85 -176.73 -176.44 
3393 -183.84 -179.84 -176.44 
3394 -182.53 -176.82 -176.44 
3395 -178.95 -176.76 -176.44 
3396 -179.13 -176.90 -176.44 
3397 -183.54 -176.98 -176.44 
3398 -178.61 -178.58 -176.44 
3399 -185.49 -178.62 -176.44 
3400 -182.47 -178.70 -176.44 
3401 -183.91 -178.98 -176.44 
3402 -181.28 -178.88 -176.44 
3403 -183.07 -178.78 -176.44 
3404 -181.14 -178.73 -176.44 
3405 -180.71 -178.91 -176.44 
3406 -179.17 -178.82 -176.44 
3407 -184.71 -178.93 -176.44 
3408 -185.32 -178.86 -176.44 
3409 -181.06 -178.83 -176.44 
3410 -182.29 -178.75 -176.44 
3411 -181.48 -178.57 -176.44 
3412 -180.02 -178.76 -176.44 
3413 -180.47 -178.67 -176.44 
3414 -179.11 -178.63 -176.44 
3415 -181.85 -178.83 -176.44 
3416 -180.76 -178.86 -176.44 
3417 -181.13 -178.98 -176.44 
3418 -180.41 -179.03 -176.44 
3419 -179.21 -180.49 -176.44 
3420 -182.64 -179.08 -176.44 
3421 -183.67 -179.11 -176.44 
3422 -182.18 -178.90 -176.44 
3423 -182.39 -177.33 -176.44 
3424 -183.52 -177.43 -176.44 
3425 -179.77 -177.31 -176.44 
3426 -178.94 -178.54 -176.44 
3427 -180.03 -176.80 -176.44 
3428 -181.86 -177.02 -176.44 
3429 -181.42 -177.02 -176.44 
3430 -178.20 -177.12 -176.44 
3431 -181.55 -178.60 -176.44 
3432 -179.39 -178.64 -176.44 
3433 -182.04 -177.20 -176.44 
3434 -180.66 -177.12 -176.44 
3435 -181.35 -177.29 -176.44 
3436 -183.08 -177.27 -176.44 
3437 -181.21 -177.11 -176.44 
3438 -181.34 -177.04 -176.44 
3439 -179.72 -176.91 -176.44 
3440 -181.41 -176.94 -176.44 
3441 -182.68 -176.70 -176.44 
3442 -178.03 -176.99 -176.44 
3443 -182.54 -176.89 -176.44 
3444 -180.17 -176.92 -176.44 
3445 -181.92 -176.88 -176.44 
3446 -179.98 -177.05 -176.44 
3447 -180.82 -177.06 -176.44 
3448 -182.85 -177.02 -176.44 
3449 -181.96 -175.73 -176.44 
3450 -177.41 -175.61 -176.44 
3451 -183.34 -175.60 -176.44 
3452 -180.66 -175.55 -176.44 
3453 -179.95 -175.45 -176.44 
3454 -184.45 -178.29 -176.44 
3455 -178.21 -176.88 -176.44 
3456 -180.09 -175.34 -176.44 
3457 -180.99 -176.82 -176.44 
3458 -179.83 -176.91 -176.44 
3459 -180.77 -175.19 -176.44 
3460 -180.17 -175.37 -176.44 
3461 -181.88 -175.41 -176.44 
3462 -182.19 -176.83 -176.44 
3463 -179.69 -176.91 -176.44 
3464 -179.31 -176.87 -176.44 
3465 -180.68 -176.78 -176.44 
3466 -178.45 -177.09 -176.44 
3467 -180.15 -176.98 -176.44 
3468 -182.63 -176.92 -176.44 
3469 -182.06 -175.40 -176.44 
3470 -182.68 -175.42 -176.44 
3471 -179.65 -176.98 -176.44 
3472 -180.23 -175.47 -176.44 
3473 -182.46 -175.39 -176.44 
3474 -177.15 -176.81 -176.44 
3475 -183.30 -178.60 -176.44 
3476 -177.48 -176.94 -176.44 
3477 -178.12 -176.96 -176.44 
3478 -182.51 -175.44 -176.44 
3479 -180.53 -176.88 -176.44 
3480 -179.97 -176.91 -176.44 
3481 -180.70 -176.98 -176.44 
3482 -180.48 -176.85 -176.44 
3483 -180.48 -176.93 -176.44 
3484 -182.24 -175.48 -176.44 
3485 -182.31 -175.48 -176.44 
3486 -176.62 -176.86 -176.44 
3487 -177.42 -177.04 -176.44 
3488 -179.35 -176.91 -176.44 
3489 -182.44 -175.28 -176.44 
3490 -185.16 -176.99 -176.44 
3491 -181.21 -176.98 -176.44 
3492 -179.85 -176.78 -176.44 
3493 -181.83 -176.85 -176.44 
3494 -185.18 -176.73 -176.44 
3495 -181.47 -176.82 -176.44 
3496 -179.84 -176.75 -176.44 
3497 -174.30 -176.78 -176.44 
3498 -183.44 -176.72 -174.30 
3499 -183.04 -176.77 -174.30 
3500 -179.58 -175.31 -174.30 
3501 -181.61 -175.23 -174.30 
3502 -184.73 -175.18 -174.30 
3503 -180.16 -176.79 -174.30 
3504 -180.92 -176.73 -174.30 
3505 -180.47 -175.25 -174.30 
3506 -177.07 -175.15 -174.30 
3507 -184.79 -176.54 -174.30 
3508 -185.31 -176.44 -174.30 
3509 -179.91 -176.51 -174.30 
3510 -176.92 -176.55 -174.30 
3511 -180.64 -176.60 -174.30 
3512 -180.84 -175.20 -174.30 
3513 -180.07 -176.65 -174.30 
3514 -181.60 -176.81 -174.30 
3515 -180.21 -176.69 -174.30 
3516 -180.10 -179.75 -174.30 
3517 -179.27 -176.60 -174.30 
3518 -180.09 -175.08 -174.30 
3519 -181.53 -178.09 -174.30 
3520 -182.00 -175.07 -174.30 
3521 -183.82 -176.50 -174.30 
3522 -181.63 -174.94 -174.30 
3523 -181.83 -176.44 -174.30 
3524 -176.88 -176.55 -174.30 
3525 -182.16 -174.93 -174.30 
3526 -179.81 -173.63 -174.30 
3527 -181.76 -175.03 -174.30 
3528 -178.34 -174.94 -174.30 
3529 -180.08 -174.71 -174.30 
3530 -180.56 -176.44 -174.30 
3531 -184.43 -176.22 -174.30 
3532 -180.02 -174.71 -174.30 
3533 -183.41 -174.63 -174.30 
3534 -180.40 -176.17 -174.30 
3535 -182.44 -176.14 -174.30 
3536 -182.99 -176.08 -174.30 
3537 -175.02 -176.09 -174.30 
3538 -179.87 -176.09 -174.30 
3539 -181.01 -176.14 -174.30 
3540 -182.75 -174.96 -174.30 
3541 -181.92 -174.95 -174.30 
3542 -177.67 -176.51 -174.30 
3543 -180.53 -177.97 -174.30 
3544 -183.09 -176.41 -174.30 
3545 -182.19 -176.49 -174.30 
3546 -180.48 -176.53 -174.30 
3547 -182.12 -176.55 -174.30 
3548 -182.94 -176.53 -174.30 
3549 -181.77 -176.42 -174.30 
3550 -180.72 -176.45 -174.30 
3551 -180.18 -176.35 -174.30 
3552 -175.29 -174.83 -174.30 
3553 -180.02 -174.79 -174.30 
3554 -176.80 -176.42 -174.30 
3555 -177.76 -176.45 -174.30 
3556 -177.72 -176.40 -174.30 
3557 -179.63 -178.16 -174.30 
3558 -181.93 -176.54 -174.30 
3559 -178.78 -176.62 -174.30 
3560 -182.45 -176.61 -174.30 
3561 -180.45 -176.61 -174.30 
3562 -181.34 -176.52 -174.30 
3563 -180.70 -176.54 -174.30 
3564 -175.71 -176.67 -174.30 
3565 -182.44 -176.68 -174.30 
3566 -180.30 -176.63 -174.30 
3567 -179.61 -176.90 -174.30 
3568 -181.16 -176.96 -174.30 
3569 -179.06 -178.47 -174.30 
3570 -180.09 -176.72 -174.30 
3571 -176.78 -176.75 -174.30 
3572 -180.32 -178.29 -174.30 
3573 -181.13 -176.63 -174.30 
3574 -181.66 -176.59 -174.30 
3575 -178.61 -176.55 -174.30 
3576 -182.71 -178.00 -174.30 
3577 -180.50 -177.91 -174.30 
3578 -180.13 -177.90 -174.30 
3579 -179.67 -177.83 -174.30 
3580 -177.57 -176.37 -174.30 
3581 -179.10 -176.29 -174.30 
3582 -178.08 -174.82 -174.30 
3583 -185.06 -178.09 -174.30 
3584 -179.82 -176.65 -174.30 
3585 -180.99 -178.13 -174.30 
3586 -182.63 -179.51 -174.30 
3587 -179.19 -178.12 -174.30 
3588 -179.80 -176.65 -174.30 
3589 -179.29 -178.00 -174.30 
3590 -181.48 -176.26 -174.30 
3591 -185.37 -177.83 -174.30 
3592 -179.72 -179.42 -174.30 
3593 -180.19 -179.55 -174.30 
3594 -182.81 -178.04 -174.30 
3595 -179.52 -179.74 -174.30 
3596 -179.83 -176.64 -174.30 
3597 -176.89 -179.58 -174.30 
3598 -176.95 -179.55 -174.30 
3599 -183.60 -176.32 -174.30 
3600 -182.47 -176.26 -174.30 
3601 -179.53 -176.38 -174.30 
3602 -177.88 -176.46 -174.30 
3603 -184.10 -176.52 -174.30 
3604 -183.12 -174.97 -174.30 
3605 -182.66 -176.34 -174.30 
3606 -179.91 -176.39 -174.30 
3607 -179.67 -176.45 -174.30 
3608 -182.20 -176.54 -174.30 
3609 -177.26 -178.12 -174.30 
3610 -178.91 -176.59 -174.30 
3611 -184.27 -176.66 -174.30 
3612 -181.14 -176.70 -174.30 
3613 -180.11 -176.78 -174.30 
3614 -181.14 -178.32 -174.30 
3615 -184.80 -178.40 -174.30 
3616 -176.95 -178.53 -174.30 
3617 -175.01 -178.46 -174.30 
3618 -181.58 -178.51 -174.30 
3619 -181.07 -178.65 -174.30 
3620 -182.19 -178.76 -174.30 
3621 -177.11 -177.31 -174.30 
3622 -181.30 -177.40 -174.30 
3623 -175.56 -177.43 -174.30 
3624 -182.51 -177.31 -174.30 
3625 -179.81 -177.24 -174.30 
3626 -181.21 -175.76 -174.30 
3627 -181.51 -177.34 -174.30 
3628 -180.93 -177.24 -174.30 
3629 -180.18 -177.35 -174.30 
3630 -182.70 -177.24 -174.30 
3631 -185.30 -177.61 -174.30 
3632 -179.73 -177.47 -174.30 
3633 -180.47 -177.44 -174.30 
3634 -178.15 -177.47 -174.30 
3635 -183.80 -178.98 -174.30 
3636 -181.22 -179.06 -174.30 
3637 -177.06 -179.02 -174.30 
3638 -179.40 -179.09 -174.30 
3639 -180.42 -179.08 -174.30 
3640 -180.73 -178.81 -174.30 
3641 -177.71 -177.60 -174.30 
3642 -181.87 -177.53 -174.30 
3643 -179.25 -177.77 -174.30 
3644 -177.54 -176.17 -174.30 
3645 -179.53 -175.79 -174.30 
3646 -185.97 -175.86 -174.30 
3647 -182.26 -175.98 -174.30 
3648 -178.29 -175.98 -174.30 
3649 -180.41 -178.69 -174.30 
3650 -180.72 -176.06 -174.30 
3651 -179.81 -175.77 -174.30 
3652 -183.42 -175.75 -174.30 
3653 -181.21 -175.75 -174.30 
3654 -176.60 -174.31 -174.30 
3655 -179.65 -174.58 -174.30 
3656 -179.62 -177.06 -174.30 
3657 -182.43 -177.32 -174.30 
3658 -180.35 -174.32 -174.30 
3659 -181.26 -174.51 -174.30 
3660 -181.27 -174.54 -174.30 
3661 -181.85 -172.75 -174.30 
3662 -180.60 -172.82 -174.30 
3663 -181.08 -172.98 -174.30 
3664 -180.64 -172.97 -174.30 
3665 -181.68 -174.42 -174.30 
3666 -182.63 -174.78 -174.30 
3667 -177.47 -172.98 -174.30 
3668 -182.25 -173.07 -174.30 
3669 -179.99 -175.83 -174.30 
3670 -181.67 -175.71 -174.30 
3671 -181.85 -175.57 -174.30 
3672 -182.71 -175.49 -174.30 
3673 -178.03 -177.03 -174.30 
3674 -181.15 -177.06 -174.30 
3675 -183.22 -175.35 -174.30 
3676 -179.87 -175.48 -174.30 
3677 -181.76 -175.53 -174.30 
3678 -180.48 -175.57 -174.30 
3679 -182.53 -177.08 -174.30 
3680 -180.04 -177.04 -174.30 
3681 -177.36 -177.20 -174.30 
3682 -180.64 -176.81 -174.30 
3683 -178.25 -176.76 -174.30 
3684 -181.24 -176.87 -174.30 
3685 -181.51 -176.81 -174.30 
3686 -180.81 -175.59 -174.30 
3687 -179.30 -175.67 -174.30 
3688 -180.30 -175.61 -174.30 
3689 -178.14 -175.58 -174.30 
3690 -177.65 -175.65 -174.30 
3691 -180.26 -175.69 -174.30 
3692 -180.56 -175.81 -174.30 
3693 -184.44 -175.70 -174.30 
3694 -181.19 -175.67 -174.30 
3695 -180.58 -175.68 -174.30 
3696 -177.95 -175.66 -174.30 
3697 -177.74 -175.62 -174.30 
3698 -180.58 -177.10 -174.30 
3699 -177.84 -177.12 -174.30 
3700 -178.44 -177.23 -174.30 
3701 -178.21 -175.71 -174.30 
3702 -178.98 -175.63 -174.30 
3703 -178.47 -175.70 -174.30 
3704 -179.79 -175.75 -174.30 
3705 -176.75 -175.73 -174.30 
3706 -179.11 -174.16 -174.30 
3707 -181.87 -175.66 -174.30 
3708 -179.01 -175.71 -174.30 
3709 -177.95 -175.59 -174.30 
3710 -181.29 -175.79 -174.30 
3711 -176.08 -175.68 -174.30 
3712 -177.25 -175.76 -174.30 
3713 -179.12 -175.74 -174.30 
3714 -181.00 -175.79 -174.30 
3715 -178.77 -175.96 -174.30 
3716 -180.31 -175.89 -174.30 
3717 -179.81 -175.90 -174.30 
3718 -179.75 -175.72 -174.30 
3719 -178.14 -175.87 -174.30 
3720 -179.58 -175.93 -174.30 
3721 -177.63 -175.93 -174.30 
3722 -180.33 -175.87 -174.30 
3723 -178.53 -175.84 -174.30 
3724 -182.07 -175.79 -174.30 
3725 -182.49 -175.87 -174.30 
3726 -182.99 -175.82 -174.30 
3727 -177.80 -175.84 -174.30 
3728 -176.20 -174.39 -174.30 
3729 -181.38 -175.83 -174.30 
3730 -183.21 -175.88 -174.30 
3731 -180.53 -175.92 -174.30 
3732 -179.41 -175.91 -174.30 
3733 -182.23 -175.90 -174.30 
3734 -179.85 -175.94 -174.30 
3735 -180.84 -175.82 -174.30 
3736 -181.53 -175.93 -174.30 
3737 -178.73 -175.78 -174.30 
3738 -181.39 -175.79 -174.30 
3739 -180.50 -175.78 -174.30 
3740 -181.50 -175.76 -174.30 
3741 -181.03 -175.81 -174.30 
3742 -180.25 -175.85 -174.30 
3743 -176.85 -175.60 -174.30 
3744 -180.33 -175.60 -174.30 
3745 -177.74 -175.68 -174.30 
3746 -180.97 -175.52 -174.30 
3747 -179.76 -175.58 -174.30 
3748 -177.55 -175.66 -174.30 
3749 -178.22 -175.61 -174.30 
3750 -180.65 -175.55 -174.30 
3751 -182.96 -175.54 -174.30 
3752 -178.95 -175.54 -174.30 
3753 -177.79 -175.54 -174.30 
3754 -176.65 -175.47 -174.30 
3755 -178.02 -175.42 -174.30 
3756 -180.80 -176.92 -174.30 
3757 -178.43 -175.57 -174.30 
3758 -179.85 -175.59 -174.30 
3759 -177.96 -175.59 -174.30 
3760 -179.70 -175.60 -174.30 
3761 -178.77 -175.61 -174.30 
3762 -180.61 -175.68 -174.30 
3763 -180.23 -175.74 -174.30 
3764 -179.90 -175.76 -174.30 
3765 -178.27 -175.77 -174.30 
3766 -179.33 -175.79 -174.30 
3767 -182.69 -175.81 -174.30 
3768 -180.63 -175.82 -174.30 
3769 -179.96 -175.92 -174.30 
3770 -176.91 -175.82 -174.30 
3771 -179.72 -175.86 -174.30 
3772 -183.79 -175.88 -174.30 
3773 -181.29 -175.96 -174.30 
3774 -180.33 -175.98 -174.30 
3775 -178.52 -176.05 -174.30 
3776 -183.65 -176.14 -174.30 
3777 -178.19 -176.19 -174.30 
3778 -180.29 -176.24 -174.30 
3779 -179.23 -174.71 -174.30 
3780 -182.25 -174.73 -174.30 
3781 -180.58 -174.78 -174.30 
3782 -183.33 -174.80 -174.30 
3783 -178.36 -176.31 -174.30 
3784 -181.75 -174.83 -174.30 
3785 -179.94 -174.83 -174.30 
3786 -180.97 -174.74 -174.30 
3787 -178.14 -176.22 -174.30 
3788 -181.55 -176.11 -174.30 
3789 -182.16 -176.08 -174.30 
3790 -180.77 -176.07 -174.30 
3791 -178.20 -176.12 -174.30 
3792 -181.46 -176.15 -174.30 
3793 -177.42 -176.07 -174.30 
3794 -178.77 -176.06 -174.30 
3795 -176.30 -176.05 -174.30 
3796 -178.46 -174.62 -174.30 
3797 -181.64 -176.11 -174.30 
3798 -182.73 -176.00 -174.30 
3799 -178.81 -175.86 -174.30 
3800 -178.99 -175.84 -174.30 
3801 -180.41 -175.81 -174.30 
3802 -177.50 -175.78 -174.30 
3803 -179.70 -175.72 -174.30 
3804 -178.49 -175.82 -174.30 
3805 -182.14 -175.73 -174.30 
3806 -181.92 -175.62 -174.30 
3807 -178.04 -175.66 -174.30 
3808 -178.03 -175.67 -174.30 
3809 -180.41 -175.73 -174.30 
3810 -180.77 -175.75 -174.30 
3811 -178.90 -175.67 -174.30 
3812 -179.89 -175.60 -174.30 
3813 -180.40 -175.64 -174.30 
3814 -181.71 -175.68 -174.30 
3815 -179.90 -175.71 -174.30 
3816 -177.87 -175.66 -174.30 
3817 -182.41 -175.70 -174.30 
3818 -180.99 -175.71 -174.30 
3819 -178.51 -175.68 -174.30 
3820 -178.79 -175.73 -174.30 
3821 -179.87 -175.79 -174.30 
3822 -178.08 -175.76 -174.30 
3823 -179.52 -174.23 -174.30 
3824 -182.40 -174.21 -174.30 
3825 -179.76 -174.26 -174.30 
3826 -181.76 -174.27 -174.30 
3827 -178.16 -174.26 -174.30 
3828 -180.35 -174.23 -174.30 
3829 -177.42 -174.33 -174.30 
3830 -179.62 -175.75 -174.30 
3831 -181.53 -174.30 -174.30 
3832 -178.17 -174.36 -174.30 
3833 -179.09 -174.37 -174.30 
3834 -176.47 -175.91 -174.30 
3835 -177.32 -176.00 -174.30 
3836 -179.19 -175.94 -174.30 
3837 -178.23 -174.49 -174.30 
3838 -177.83 -174.55 -174.30 
3839 -178.83 -174.54 -174.30 
3840 -180.55 -174.56 -174.30 
3841 -178.23 -174.68 -174.30 
3842 -186.04 -176.10 -174.30 
3843 -180.08 -176.04 -174.30 
3844 -178.11 -174.45 -174.30 
3845 -180.96 -172.92 -174.30 
3846 -179.32 -172.95 -174.30 
3847 -179.08 -174.53 -174.30 
3848 -179.96 -172.94 -174.30 
3849 -180.53 -172.96 -174.30 
3850 -177.69 -174.50 -174.30 
3851 -177.21 -174.48 -174.30 
3852 -177.53 -175.79 -174.30 
3853 -178.54 -174.48 -174.30 
3854 -182.20 -174.42 -174.30 
3855 -181.63 -174.31 -174.30 
3856 -180.25 -174.23 -174.30 
3857 -179.38 -174.26 -174.30 
3858 -178.84 -175.71 -174.30 
3859 -177.55 -175.65 -174.30 
3860 -179.55 -175.67 -174.30 
3861 -181.27 -175.49 -174.30 
3862 -179.24 -175.55 -174.30 
3863 -183.30 -175.39 -174.30 
3864 -177.28 -175.63 -174.30 
3865 -179.69 -175.52 -174.30 
3866 -181.18 -175.53 -174.30 
3867 -180.43 -175.49 -174.30 
3868 -177.52 -175.39 -174.30 
3869 -181.49 -175.39 -174.30 
3870 -179.99 -175.50 -174.30 
3871 -179.18 -175.33 -174.30 
3872 -179.02 -175.52 -174.30 
3873 -181.75 -173.89 -174.30 
3874 -179.01 -175.51 -174.30 
3875 -177.98 -175.31 -174.30 
3876 -178.99 -175.27 -174.30 
3877 -179.69 -175.34 -174.30 
3878 -181.59 -175.21 -174.30 
3879 -177.68 -176.67 -174.30 
3880 -180.47 -176.66 -174.30 
3881 -178.66 -175.19 -174.30 
3882 -179.98 -175.31 -174.30 
3883 -181.08 -176.72 -174.30 
3884 -179.55 -176.81 -174.30 
3885 -179.24 -173.68 -174.30 
3886 -182.73 -175.42 -174.30 
3887 -180.01 -175.42 -174.30 
3888 -183.34 -175.46 -174.30 
3889 -180.66 -175.41 -174.30 
3890 -177.65 -175.45 -174.30 
3891 -178.32 -175.38 -174.30 
3892 -178.02 -175.33 -174.30 
3893 -178.65 -175.45 -174.30 
3894 -180.22 -175.58 -174.30 
3895 -178.93 -175.52 -174.30 
3896 -178.33 -175.53 -174.30 
3897 -181.45 -177.10 -174.30 
3898 -180.33 -177.05 -174.30 
3899 -183.03 -177.08 -174.30 
3900 -179.40 -177.03 -174.30 
3901 -180.37 -176.81 -174.30 
3902 -179.64 -176.97 -174.30 
3903 -183.54 -175.47 -174.30 
3904 -181.32 -175.40 -174.30 
3905 -182.32 -175.26 -174.30 
3906 -178.69 -175.23 -174.30 
3907 -178.22 -175.35 -174.30 
3908 -179.54 -175.12 -174.30 
3909 -179.67 -175.09 -174.30 
3910 -179.35 -175.13 -174.30 
3911 -182.07 -175.03 -174.30 
3912 -177.88 -175.20 -174.30 
3913 -178.77 -175.14 -174.30 
3914 -180.83 -176.46 -174.30 
3915 -182.12 -175.32 -174.30 
3916 -175.35 -175.19 -174.30 
3917 -175.80 -175.22 -174.30 
3918 -180.55 -175.38 -174.30 
3919 -178.06 -175.52 -174.30 
3920 -178.72 -175.47 -174.30 
3921 -180.63 -175.44 -174.30 
3922 -179.37 -175.49 -174.30 
3923 -177.64 -175.38 -174.30 
3924 -180.72 -175.42 -174.30 
3925 -181.17 -175.54 -174.30 
3926 -179.45 -175.59 -174.30 
3927 -178.92 -175.59 -174.30 
3928 -181.42 -175.50 -174.30 
3929 -180.15 -174.16 -174.30 
3930 -181.86 -175.29 -174.30 
3931 -176.89 -175.41 -174.30 
3932 -180.21 -175.43 -174.30 
3933 -179.35 -175.23 -174.30 
3934 -177.01 -175.33 -174.30 
3935 -182.58 -175.36 -174.30 
3936 -178.62 -175.61 -174.30 
3937 -179.91 -174.16 -174.30 
3938 -181.60 -174.08 -174.30 
3939 -178.22 -174.34 -174.30 
3940 -179.63 -174.05 -174.30 
3941 -181.26 -173.87 -174.30 
3942 -181.86 -175.64 -174.30 
3943 -178.30 -175.71 -174.30 
3944 -181.18 -177.04 -174.30 
3945 -180.49 -174.05 -174.30 
3946 -176.74 -175.56 -174.30 
3947 -176.03 -177.28 -174.30 
3948 -181.50 -176.97 -174.30 
3949 -180.33 -176.75 -174.30 
3950 -183.08 -176.80 -174.30 
3951 -183.47 -175.61 -174.30 
3952 -178.99 -177.05 -174.30 
3953 -180.43 -177.10 -174.30 
3954 -177.60 -177.20 -174.30 
3955 -178.69 -177.03 -174.30 
3956 -181.03 -173.99 -174.30 
3957 -181.43 -173.91 -174.30 
3958 -182.39 -175.40 -174.30 
3959 -180.72 -175.22 -174.30 
3960 -179.37 -175.21 -174.30 
3961 -181.30 -175.47 -174.30 
3962 -180.48 -175.36 -174.30 
3963 -175.97 -173.82 -174.30 
3964 -179.94 -175.49 -174.30 
3965 -180.26 -175.46 -174.30 
3966 -178.03 -175.31 -174.30 
3967 -182.37 -175.24 -174.30 
3968 -180.83 -173.76 -174.30 
3969 -179.66 -176.65 -174.30 
3970 -178.82 -175.21 -174.30 
3971 -180.07 -175.14 -174.30 
3972 -184.41 -173.65 -174.30 
3973 -177.70 -173.68 -174.30 
3974 -178.26 -173.63 -174.30 
3975 -182.36 -173.62 -174.30 
3976 -181.72 -173.59 -174.30 
3977 -177.28 -172.38 -174.30 
3978 -177.94 -173.86 -174.30 
3979 -180.46 -175.34 -174.30 
3980 -177.81 -174.07 -174.30 
3981 -178.51 -174.06 -174.30 
3982 -181.80 -175.36 -174.30 
3983 -179.60 -173.97 -174.30 
3984 -180.13 -175.66 -174.30 
3985 -180.22 -177.18 -174.30 
3986 -178.81 -173.97 -174.30 
3987 -177.66 -172.62 -174.30 
3988 -182.63 -172.74 -174.30 
3989 -178.39 -174.20 -174.30 
3990 -179.53 -174.07 -174.30 
3991 -181.86 -174.07 -174.30 
3992 -178.97 -174.16 -174.30 
3993 -180.15 -172.60 -174.30 
3994 -176.57 -173.88 -174.30 
3995 -179.57 -175.45 -174.30 
3996 -177.84 -175.47 -174.30 
