iteration,time_sampling,stoc_pol_mean,stoc_pol_std,stoc_pol_max,stoc_pol_min,rollout_success,alpha,delta,time_vpg,time_npg,kl_dist,surr_improvement,running_score,rwd_sparse,rwd_dense,success_percentage,num_samples,time_VF,VF_error_before,VF_error_after,eval_score,eval_success
0,5.044456243515015,-336.0075867709774,28.09823293006063,-265.70690031690475,-408.73546116828265,0.0,1.015089079601338,0.1,0.08632826805114746,0.49536967277526855,0.05756583,0.1036814,-336.0075867709774,-3.287993663964915,-3.359633241108425,0.0,9600,1.7953155040740967,0.9991995325532406,0.20030065831304647,-298.66719115832655,0.0
1,4.7799177169799805,-334.8303321380329,26.610949553131633,-256.21397443477707,-400.6597348697363,0.0,1.2164748022016716,0.1,0.04697012901306152,0.4291238784790039,0.055423297,0.084745385,-335.88986130768296,-3.2761437277379097,-3.347853192711901,0.0,9600,1.8395066261291504,0.20207314976772886,0.10548312254048224,-297.948212940143,0.0
2,4.899977445602417,-336.2970078831486,30.552378140713383,-264.1572955841967,-404.85216854157363,0.0,1.2350817685708906,0.1,0.04231595993041992,0.6298754215240479,0.053584944,0.08461512,-335.93057596522954,-3.2904234979627938,-3.362364033294071,0.0,9600,1.609611988067627,0.11456175339747503,0.0799157454102031,-298.6482165083119,0.0
3,4.776853561401367,-335.70205248784015,30.948870824572154,-248.36056958915538,-405.92544697673276,0.0,1.2294571591148802,0.1,0.028792619705200195,0.37444210052490234,0.049235903,0.081346534,-335.9077236174906,-3.284980002306457,-3.3565662744257363,0.0,9600,1.067185878753662,0.08742654316551983,0.053167717549145406,-300.58882767251225,0.0
4,4.8142054080963135,-334.3098726992244,27.266788494244594,-257.83097273869697,-397.0659363311776,0.0,1.176982459772354,0.1,0.016631126403808594,0.4892868995666504,0.051199052,0.09259483,-335.74793852566404,-3.270822783897645,-3.3425896031294386,0.0,9600,1.8114910125732422,0.057622188938855956,0.025343585300811225,-303.9183081277969,0.0
5,5.316859722137451,-334.18379682263577,28.62929477123003,-281.91028259329806,-395.71376671835395,0.0,1.2222814761642318,0.1,0.010701179504394531,0.3765897750854492,0.04909502,0.08519983,-335.59152435536123,-3.269696620545371,-3.341483473131047,0.0,9600,1.523141860961914,0.031168167416328423,0.010475513995817158,-305.50500123575745,0.0
6,4.853409051895142,-340.58710793245086,27.218084958022253,-270.6687943617587,-399.03886786453216,0.0,1.2670930367587534,0.1,0.017122745513916016,0.37137436866760254,0.04964398,0.07893242,-336.0910827130702,-3.33350817683835,-3.4053701973906,0.0,9600,2.327019214630127,0.012771039768296796,0.004753882757663973,-306.7083019734427,0.0
7,4.866046905517578,-338.1702923475992,28.558026572988922,-286.30997390729834,-398.3367367505762,0.0,1.1650167744111843,0.1,0.029847383499145508,0.36917901039123535,0.052686464,0.08925154,-336.29900367652306,-3.309317175588568,-3.3811648259391145,0.0,9600,2.037301778793335,0.005215530271326763,0.0033979082035113053,-304.4569318128492,0.0
8,5.076548099517822,-331.56067618173006,28.257692804263357,-269.06997139374124,-398.6960137851187,0.0,1.1796679197575544,0.1,0.011449098587036133,0.3875386714935303,0.048291504,0.086302444,-335.82517092704376,-3.243159626322576,-3.315194108596956,0.0,9600,2.717919111251831,0.004844213406719611,0.0033350166321193826,-298.75807947693,0.0
9,4.922592639923096,-335.4375454438983,29.787642716509907,-266.73130268308387,-415.450903731635,0.0,1.2365969087249018,0.1,0.014478921890258789,0.25816965103149414,0.05144989,0.079226926,-335.7864083787292,-3.2817958059223717,-3.353838284398305,0.0,9600,1.8439381122589111,0.0045700521126543795,0.003144832807202827,-297.1087368667196,0.0
10,5.007847547531128,-333.6705866174172,28.257863194707458,-260.2498720957718,-389.0641638272403,0.0,1.1895000923554104,0.1,0.011139631271362305,0.37282466888427734,0.050788306,0.08373917,-335.57482620259805,-3.2642602847006734,-3.336148765940585,0.0,9600,2.0306384563446045,0.003974480264120335,0.002979939350242423,-298.0132419634761,0.0
11,4.737279415130615,-328.96449116152684,30.634969822019087,-250.88741420627713,-397.2319877894024,0.0,1.13890196573166,0.1,0.01672816276550293,0.33614230155944824,0.051754087,0.08914148,-334.9137926984909,-3.217426675720161,-3.2892527901372297,0.0,9600,1.9023349285125732,0.004814311407198792,0.003076381821775025,-295.78883112386444,0.0
12,4.876319169998169,-335.27530886956106,28.449069788526156,-263.9631737975643,-402.01258676658387,0.0,1.1535324286449886,0.1,0.010480642318725586,0.39720726013183594,0.0479307,0.08097017,-334.949944315598,-3.2803584918905204,-3.3522824601146333,0.0,9600,2.7214195728302,0.004682364615184094,0.0025006998544258763,-293.25420151920514,0.0
13,4.81796407699585,-327.5664706793023,26.396580811365066,-270.7461872345466,-377.53472652567973,0.0,1.115289615573428,0.1,0.019470691680908203,0.43821215629577637,0.04924684,0.08761314,-334.21159695196843,-3.203298887074174,-3.2751093773819338,0.0,9600,2.3985915184020996,0.004127333598126574,0.0020366678006229987,-292.27871202255216,0.0
14,4.799592971801758,-327.9575393205685,30.279684796897392,-254.1421749894844,-409.6574982788277,0.0,1.225095186702809,0.1,0.013451814651489258,0.3870701789855957,0.051434983,0.08534958,-333.5861911888285,-3.2071263347361736,-3.2790613078247084,0.0,9600,2.1031880378723145,0.0033572730227347746,0.0022796834862049663,-293.81812090422716,0.0
15,6.15405011177063,-326.48075394705705,25.460561174762546,-270.7504311717182,-381.6615845810791,0.0,1.112322298875138,0.1,0.016426563262939453,0.33695316314697266,0.049263258,0.08754567,-332.87564746465137,-3.192839846347592,-3.264483290997751,0.0,9600,2.175875663757324,0.0033488304198446275,0.002173379933217901,-290.7779517333023,0.0
16,4.912051677703857,-327.7084429896054,29.90845846581043,-242.78133034161473,-391.175182566947,0.0,1.189633222517622,0.1,0.01312565803527832,0.4187939167022705,0.05020099,0.08487889,-332.35892701714675,-3.2052830836265116,-3.276686704008427,0.0,9600,2.247077226638794,0.0034822398175445583,0.0022584016627057216,-290.5617923072687,0.0
17,4.8480610847473145,-321.7637041812382,30.371292724820073,-241.0946342595927,-392.61457682632187,0.0,1.2006669164152846,0.1,0.014372587203979492,0.4314103126525879,0.052035373,0.08479612,-331.29940473355595,-3.1457954038379863,-3.2173446617856243,0.0,9600,2.2362112998962402,0.004277304616007818,0.00233591981366258,-291.6539296195165,0.0
18,5.005012273788452,-320.13529718549825,27.446231672003933,-242.597139295374,-391.4551769944087,0.0,1.2077119919542132,0.1,0.01685309410095215,0.3556652069091797,0.051029537,0.0821347,-330.1829939787502,-3.129862092769212,-3.201016399076277,0.0,9600,3.2797651290893555,0.0035605808273958574,0.0020320821406310742,-290.5691676916969,0.0
19,4.93373966217041,-319.927359238143,30.590038773700922,-244.8825805466795,-391.64056516138527,0.0,1.2389719230104563,0.1,0.014151334762573242,0.42136049270629883,0.049966052,0.080101244,-329.15743050468944,-3.1280602145451426,-3.198904674396943,0.0,9600,2.0594213008880615,0.0036540081166237573,0.0023965669634967894,-289.43421436338576,0.0
20,4.665590286254883,-312.0942869746358,30.32330280497014,-240.09033305026188,-380.2401725335779,0.0,1.2129576807927445,0.1,0.013353824615478516,0.3970975875854492,0.051535003,0.084286995,-327.45111615168406,-3.0497622428708886,-3.120679482667775,0.0,9600,2.1240241527557373,0.004368267055201876,0.0022568042902240694,-289.915128242057,0.0
21,4.820703506469727,-319.85966971602784,27.277713936898685,-249.8533406037174,-376.5507033884777,0.0,1.1438524203547678,0.1,0.02020263671875,0.49781036376953125,0.05246367,0.088308714,-326.69197150811846,-3.1272049851283086,-3.1982077349147313,0.0,9600,1.981903076171875,0.003598021969263729,0.0017918512275945742,-291.68461068594024,0.0
22,4.853224277496338,-317.87543532493873,24.52757464697427,-264.8689720478523,-372.46358869548,0.0,1.1204039039918747,0.1,0.028583049774169922,0.3946046829223633,0.050992902,0.0894747,-325.8103178898005,-3.107943053575628,-3.1784440576265793,0.0,9600,2.3193016052246094,0.002357505963864261,0.0012551111721202082,-290.83627124404615,0.0
23,4.766796112060547,-315.2714796118653,29.091835357760885,-240.65345729579082,-395.71977816638343,0.0,1.228915024148564,0.1,0.0663602352142334,0.8618321418762207,0.049905702,0.08237701,-324.756434062007,-3.0814643598187,-3.1522787318741483,0.0,9600,3.4451498985290527,0.0035738417336462144,0.0018533992336049819,-285.16530328558053,0.0
24,5.112337827682495,-314.62636874135336,30.937004750697735,-251.5688729623667,-405.4797470125783,0.0,1.0875229902426156,0.1,0.041665077209472656,0.6043636798858643,0.04853042,0.08528643,-323.74342752994164,-3.0754188968741634,-3.1459069062828076,0.0,9600,3.0402305126190186,0.003296869637616644,0.0014893142843776957,-281.59362005568505,0.0
25,4.95447564125061,-311.5700573954847,29.98163901047235,-234.7551851892741,-389.12577529983434,0.0,1.170439075738546,0.1,0.01366567611694336,0.42076659202575684,0.050254982,0.08330662,-322.52609051649597,-3.044546328943811,-3.115347651276655,0.0,9600,2.2173426151275635,0.003029754788950976,0.0016051062117877274,-283.3992251309935,0.0
26,4.718440771102905,-307.559694279945,25.601952636825395,-248.52300277644645,-371.78514754597717,0.0,1.2056174798250558,0.1,0.014178991317749023,0.4958686828613281,0.049570415,0.084358476,-321.0294508928409,-3.004724145177055,-3.075546541343184,0.0,9600,1.9890055656433105,0.0022951897408516535,0.0011019346735551972,-282.4981514699297,0.0
27,4.846888780593872,-308.1688866439554,28.808852439644177,-252.1130565313205,-391.74683105809316,0.0,1.179020321591688,0.1,0.04727673530578613,0.9366464614868164,0.05242156,0.08218144,-319.7433944679523,-3.011050043288592,-3.081593739528221,0.0,9600,4.579512119293213,0.0029600202722124725,0.0015170121072900138,-285.6967053237536,0.0
28,4.931070566177368,-302.2897434327763,25.49006422122517,-247.75435484747987,-358.6290489499284,0.0,1.172542397778003,0.1,0.05354928970336914,0.6497137546539307,0.050211523,0.08590633,-317.99802936443473,-2.952248391293013,-3.0228574968441535,0.0,9600,3.988682508468628,0.0033214825459662416,0.0014281597841970769,-286.07388051719374,0.0
29,4.926703453063965,-300.00772816908415,24.901312824033464,-233.6065044825053,-366.57026381520745,0.0,1.1463568052181912,0.1,0.032404422760009766,0.46602344512939453,0.051101837,0.08419702,-316.19899924489965,-2.929428283304965,-2.9998591579747518,0.0,9600,2.8644602298736572,0.0025462777588747907,0.0009552114379281672,-283.7100865382919,0.0
30,4.975285530090332,-306.3167932701638,28.943500254624556,-230.91208492835705,-389.9574531377874,0.0,1.1794826605749327,0.1,0.016840696334838867,0.48398280143737793,0.050377376,0.08571392,-315.2107786474261,-2.99238927266798,-3.0630695284058564,0.0,9600,2.9711456298828125,0.0024463680268677745,0.001024916838793352,-287.13545829015607,0.0
31,4.818655967712402,-301.9697902222879,27.198928338659098,-223.22288636527404,-358.5075861255557,0.0,1.130625056027605,0.1,0.017162799835205078,0.4934806823730469,0.051413376,0.08717694,-313.88667980491226,-2.9489763353131733,-3.0195008161677794,0.0,9600,2.9540722370147705,0.002664101037418277,0.0012857227639297816,-280.995017012483,0.0
32,6.106307744979858,-301.81883763753837,26.16104635931866,-217.49645377252742,-359.0858592816109,0.0,1.1147630071046852,0.1,0.028697729110717773,0.4501805305480957,0.05156638,0.091134176,-312.6798955881749,-2.9480542581798503,-3.0181355675773376,0.0,9600,2.877512216567993,0.0028138521981653296,0.0012163375964292329,-282.4452537089294,0.0
33,4.782495498657227,-295.5109498455053,29.926632967739124,-219.4314040746878,-366.81762914167473,0.0,1.1859552577365595,0.1,0.032594919204711914,0.4290034770965576,0.050328348,0.0868753,-310.96300101390796,-2.8849856153208115,-2.955118481610318,0.0,9600,2.931988000869751,0.0028786038153993964,0.001302251925857083,-281.2320823825858,0.0
34,4.834583520889282,-295.31818944544835,27.69328876232414,-243.46334108888607,-365.6896621089225,0.0,1.1479529937683444,0.1,0.02856731414794922,0.3579850196838379,0.05109738,0.09114267,-309.398519857062,-2.8824831514382843,-2.9531559601892874,0.0,9600,2.276012659072876,0.003112460816124469,0.0012305765290320922,-282.22597587795946,0.0
35,4.7790138721466064,-298.2052318560097,27.55044117793061,-237.70016855203767,-385.2336629600568,0.0,1.1876265355205375,0.1,0.04130816459655762,0.4560253620147705,0.04997272,0.082377605,-308.2791910569568,-2.9115426080468936,-2.9819305243485155,0.0,9600,3.3249104022979736,0.0025946497320597627,0.0012232714029994565,-280.82999507309626,0.0
36,4.765504598617554,-292.51691013484566,27.757098626357582,-219.50806713239223,-358.5988296031069,0.0,1.1336348102528895,0.1,0.06322574615478516,0.8771471977233887,0.051662214,0.08790326,-306.70296296474567,-2.854548984455929,-2.9249142666654415,0.0,9600,3.597429037094116,0.0027189271196781982,0.0011895953830721832,-280.5090814076576,0.0
37,4.884181976318359,-286.5590397440995,24.995811298122952,-203.35065040599957,-347.0061436392153,0.0,1.1778845031289087,0.1,0.028967857360839844,0.47133636474609375,0.05030954,0.08425284,-304.6885706426811,-2.7956936657001954,-2.865662989875881,0.0,9600,2.1233468055725098,0.002455429372347539,0.0011954301471591392,-281.15686209800947,0.0
38,4.833184242248535,-288.8109549259966,27.2098100256157,-217.69082263679482,-361.2613649215164,0.0,1.1274032835255496,0.1,0.05357170104980469,0.5462381839752197,0.05048113,0.08805747,-303.1008090710127,-2.8182026201115065,-2.8880848612691814,0.0,9600,3.3480052947998047,0.002519867297637606,0.0008985858184059353,-278.80720467363625,0.0
39,6.098370552062988,-294.041999522699,25.885321158981945,-243.77973278009804,-374.58418456056165,0.0,1.160148108678897,0.1,0.029239416122436523,0.4452016353607178,0.051465996,0.08711597,-302.1949281161813,-2.8702949638425372,-2.9403855306349587,0.0,9600,2.2320027351379395,0.002331386431974079,0.0009083754029297231,-276.9662730869683,0.0
40,4.925305366516113,-287.4655018180733,27.032457208879613,-225.73909426832228,-352.43892322452507,0.0,1.1262638578861628,0.1,0.02853250503540039,0.46488165855407715,0.049761765,0.089230314,-300.7219854863705,-2.8053289878416483,-2.874645691059257,0.0,9600,2.9178202152252197,0.003093893669081592,0.0011599797273264142,-275.83459950173426,0.0
41,4.964950323104858,-284.1374828218674,25.36897064385246,-227.747876880638,-353.4443722549415,0.0,1.1588311130689348,0.1,0.06805682182312012,0.9380507469177246,0.05080504,0.09498835,-299.0635352199202,-2.771856863040263,-2.8414863878540717,0.0,9600,2.85835337638855,0.0025898865834094033,0.0011241443428835194,-274.5753837615702,0.0
42,4.7163474559783936,-283.61752921894805,27.035578085947392,-228.78430664214542,-354.71248818791486,0.0,1.0897881585560056,0.1,0.02872014045715332,0.7942850589752197,0.05078612,0.08759693,-297.51893461982297,-2.767005925167878,-2.8362404393775353,0.0,9600,3.1969821453094482,0.002092476204332123,0.0009785618942594616,-271.8458638375578,0.0
43,5.623367547988892,-281.93474786604156,27.45273315204495,-212.15098007118831,-350.6315250758376,0.0,1.2218692442334813,0.1,0.013441085815429688,0.39786219596862793,0.051492453,0.08491304,-295.96051594444486,-2.749953129844913,-2.819359465598199,0.0,9600,3.218841552734375,0.0029894611928097657,0.001073702812341779,-269.5441984466656,0.0
44,4.710742712020874,-286.46777802882707,27.03538540418254,-208.8437918697788,-352.4721505692758,0.0,1.1450485282612122,0.1,0.013602256774902344,0.3739473819732666,0.050099757,0.088355795,-295.0112421528831,-2.795393760591684,-2.864552187764358,0.0,9600,2.174168348312378,0.0022786215770446636,0.0010227159533520594,-272.90335413637433,0.0
45,4.921963214874268,-278.0171227916133,27.31065584413698,-222.09590482452916,-343.6000833219248,0.0,1.175145516717493,0.1,0.015616178512573242,0.3977046012878418,0.050785244,0.081788264,-293.3118302167561,-2.711201528690697,-2.7801681091654937,0.0,9600,2.8561456203460693,0.0023402164118440758,0.001010111634042506,-269.66417868052633,0.0
46,4.940946102142334,-283.9979295579532,24.300916479475333,-232.10789061694118,-350.40217161375983,0.0,1.1518467268448287,0.1,0.017281055450439453,0.43921613693237305,0.049464732,0.08293942,-292.3804401508758,-2.7711873574661863,-2.8400140540930963,0.0,9600,2.485596179962158,0.00239554209983638,0.0008060509859536841,-269.1922454229502,0.0
47,4.957401990890503,-279.4920528741133,24.930570801390473,-231.36963888599794,-352.0515234833147,0.0,1.0953480526272352,0.1,0.019042491912841797,0.39990997314453125,0.050243985,0.09405689,-291.09160142319956,-2.7262148062882474,-2.795073014952098,0.0,9600,2.6485042572021484,0.0015350141997870353,0.0006146516391911941,-267.37093675932164,0.0
48,4.77030086517334,-276.7888854862904,27.417559496140314,-202.75245050624213,-345.7112443619183,0.0,1.1728929130277883,0.1,0.013388872146606445,0.36578822135925293,0.05077806,0.08863841,-289.6613298295087,-2.699396137000646,-2.7679309505738394,0.0,9600,2.2066829204559326,0.0021048298848759485,0.0009630456797717206,-267.6963856675733,0.0
49,4.930034875869751,-276.0097116851693,27.54292862843355,-194.4859493018051,-346.8585802994667,0.0,1.174303312028349,0.1,0.04141378402709961,0.4519774913787842,0.0503306,0.082533866,-288.2961680150748,-2.691378613320733,-2.7601449322018947,0.0,9600,2.0660202503204346,0.0024945168804959093,0.0009277083467620164,-267.72967272050107,0.0
50,4.8095948696136475,-273.27049662208816,19.736074287681898,-226.15869679230852,-317.8882146314138,0.0,1.1708075567650444,0.1,0.013679265975952148,0.39032673835754395,0.050218634,0.09083168,-286.7936008757761,-2.6640230714323176,-2.73280850739363,0.0,9600,2.043133020401001,0.0020164455533262715,0.0008423822144951119,-267.2024330365711,0.0
51,4.694681882858276,-271.4304297544867,21.048865876039766,-225.55841079341477,-320.5815884881663,0.0,1.1902955237365362,0.1,0.012589216232299805,0.38170528411865234,0.050936054,0.08630328,-285.2572837636472,-2.6460825645572315,-2.714412902385199,0.0,9600,1.8458268642425537,0.002251375634998922,0.0008259220084863044,-267.5057561219524,0.0
52,4.677980422973633,-270.8026556692351,22.53909830634178,-226.1974162774724,-319.2982486053613,0.0,1.2156527317761994,0.1,0.012544393539428711,0.34620213508605957,0.05115902,0.088121876,-283.811820954206,-2.639511557133848,-2.708249475116167,0.0,9600,2.225510835647583,0.0018935773140997775,0.0007867578641583374,-266.82263769997695,0.0
53,4.980080604553223,-267.0778434281581,25.886572099001327,-193.97025413520737,-326.4934100526367,0.0,1.1442281592329957,0.1,0.04133033752441406,0.4622657299041748,0.05061503,0.083828695,-282.1384232016012,-2.602408035318732,-2.671049823770856,0.0,9600,2.166707992553711,0.0020697531724121897,0.0008594600572639751,-264.20339735717073,0.0
54,4.62370491027832,-269.8631662358393,25.232285640208723,-199.003169668114,-328.7703377354891,0.0,1.0936324700556401,0.1,0.010741472244262695,0.346219539642334,0.050579745,0.09426221,-280.910897505025,-2.6304164756037007,-2.6988420721313617,0.0,9600,1.7728369235992432,0.002142596894255927,0.0009686470409911907,-261.533258801736,0.0
55,4.748120546340942,-265.0922971265856,25.019390823724354,-215.15247854038466,-333.97077608909075,0.0,1.1335827122668212,0.1,0.0180661678314209,0.41829848289489746,0.04979724,0.08498672,-279.329037467181,-2.582660020680887,-2.651289110516293,0.0,9600,2.156911611557007,0.00234490344773789,0.0010698380029205714,-259.5201504436076,0.0
56,4.784183979034424,-268.98777534264315,24.297202848341982,-211.70325936581605,-323.0411277547883,0.0,1.1775030982420174,0.1,0.01754927635192871,0.4120347499847412,0.051124357,0.08340475,-278.29491125472725,-2.621129786378301,-2.6899705703982852,0.0,9600,3.1358134746551514,0.0021409821471244745,0.000767580081608447,-258.3324263129348,0.0
57,4.767702579498291,-262.6464881847274,24.34225469267234,-211.91787586260375,-317.8254657562984,0.0,1.1522283500650707,0.1,0.017251014709472656,0.5244872570037842,0.050796427,0.08998158,-276.73006894772726,-2.5583068407570244,-2.626735498276602,0.0,9600,2.4245541095733643,0.0016529457826902263,0.0006347296450715952,-255.04858757806863,0.0
58,4.823735952377319,-266.2397588304114,24.733452540051534,-201.21767520403063,-324.57159015949367,0.0,1.1156118253493998,0.1,0.017960548400878906,0.4586629867553711,0.05008314,0.090281315,-275.6810379359957,-2.5940056295001157,-2.662551138530262,0.0,9600,2.6555960178375244,0.001723491966175046,0.0006899305377822891,-252.962988571601,0.0
59,4.576551914215088,-263.0529462452137,26.920317617791024,-186.56728704170806,-324.2399589615894,0.0,1.0678201554095048,0.1,0.013334035873413086,0.3619565963745117,0.05144418,0.09479906,-274.4182287669175,-2.5625942483529847,-2.630759998230525,0.0,9600,3.1134371757507324,0.002327953982152538,0.0008996289288641311,-254.43754793325405,0.0
60,4.567119121551514,-265.34395267307667,23.942138284057528,-200.43036213135784,-349.4993174960812,0.0,1.1473595289761116,0.1,0.037299394607543945,0.641371488571167,0.051550094,0.09025674,-273.5108011575334,-2.5853399846227507,-2.6534949294599923,0.0,9600,3.0157015323638916,0.0017757445398719324,0.0006481260366678804,-252.16591767169456,0.0
61,4.614315986633301,-265.4644076549431,26.439323933363518,-214.71877426192006,-352.4088323282344,0.0,1.0031276436678407,0.1,0.06226801872253418,0.886681079864502,0.050619766,0.1003428,-272.7061618072744,-2.586211150758867,-2.6547572574959006,0.0,9600,2.1923508644104004,0.001967075491002544,0.0006824621708938561,-253.9090873604177,0.0
62,4.5999369621276855,-257.38717150089064,26.991859469732074,-172.45459297554615,-329.5208843773961,0.0,1.1502312590381663,0.1,0.03527331352233887,0.8737306594848633,0.050120097,0.08940036,-271.174262776636,-2.5062086434656523,-2.5742570807930534,0.0,9600,2.696938991546631,0.0016689301854261893,0.0005799120745815774,-253.43191939118478,0.0
63,4.610050916671753,-260.47004468905936,22.91861277981658,-209.46464942844824,-312.14098634377933,0.0,1.120078258323581,0.1,0.06491208076477051,0.906611442565918,0.050888266,0.08669313,-270.10384096787834,-2.5365641532943894,-2.6048110690827224,0.0,9600,2.7165186405181885,0.0015538505302105353,0.0006195473972213674,-254.8471169792346,0.0
64,4.575599193572998,-258.6135680482273,27.129139048495333,-194.49642022620313,-329.66299173455127,0.0,1.0681872005539694,0.1,0.018483400344848633,0.7563879489898682,0.05034141,0.093938455,-268.9548136759133,-2.5186110336462906,-2.5864329938602406,0.0,9600,2.9626269340515137,0.001444665443917723,0.0006053941987107253,-252.90977659280946,0.0
65,4.656248331069946,-260.49368498400406,23.510195399078135,-213.20329403444717,-317.703877415178,0.0,1.2090129496664015,0.1,0.029727697372436523,0.6838605403900146,0.05017936,0.081291184,-268.10870080672237,-2.5378744414970953,-2.605036929992583,0.0,9600,2.589341402053833,0.0017823344197728027,0.000676874286366937,-252.24878736563824,0.0
66,4.751237869262695,-258.6115011414668,23.69654299291993,-209.4127659254236,-315.1090560743551,0.0,1.189314048401782,0.1,0.01588916778564453,0.5704648494720459,0.050806772,0.08456091,-267.1589808401968,-2.518593173138904,-2.58644805208494,0.0,9600,2.5429024696350098,0.001579313320652799,0.0006290509275915632,-254.0621163814278,0.0
67,4.851572513580322,-260.31899685091906,28.407527267534412,-199.02496361670902,-345.5100628976093,0.0,1.0896237328189085,0.1,0.028687715530395508,0.5779922008514404,0.050321214,0.090239026,-266.47498244126905,-2.5358660131551543,-2.603639477081019,0.0,9600,3.169485569000244,0.001715616895248891,0.0005794920585385696,-252.00830517922003,0.0
68,6.04548454284668,-260.14889462736903,25.758657219518916,-195.50442725485453,-316.07916057101755,0.0,1.152343253041483,0.1,0.015668630599975586,0.5171501636505127,0.05055847,0.089749314,-265.84237365987906,-2.5340042998997236,-2.6017232324313384,0.0,9600,2.5105855464935303,0.0012478158615954076,0.0005350227108649107,-251.03797969286612,0.0
69,4.655248165130615,-260.7285317912828,23.12879464609682,-207.16967609441184,-316.15048920670375,0.0,1.154297466420795,0.1,0.017863988876342773,0.5033853054046631,0.05180866,0.0862593,-265.33098947301943,-2.5401638983785815,-2.607465658626572,0.0,9600,2.318798542022705,0.0015596059656088693,0.0006162890233824133,-251.4810887124185,0.0
70,4.57184910774231,-257.60931557396503,24.061175062932424,-189.44040047560162,-320.2080057650307,0.0,1.1235191143792755,0.1,0.014070272445678711,0.5438792705535889,0.04994283,0.091912456,-264.558822083114,-2.509096623899584,-2.5763091615766407,0.0,9600,2.471039056777954,0.001834863668008526,0.0006264758749800221,-250.707488219713,0.0
71,4.5234057903289795,-258.07124098319326,26.48531861152802,-198.91181185311154,-325.9125229984831,0.0,1.0749854555720881,0.1,0.01723337173461914,0.4272291660308838,0.049639065,0.0972005,-263.91006397312196,-2.5136511196151132,-2.581057919420481,0.0,9600,1.980423927307129,0.001885857246850899,0.0006559028975537215,-250.35228729392372,0.0
72,4.629773855209351,-258.368555021704,24.359229326518342,-212.8189068715009,-317.57242156680593,0.0,1.1882913021138035,0.1,0.018488168716430664,0.47583889961242676,0.050037645,0.082325034,-263.3559130779802,-2.5163753157155146,-2.583967415567589,0.0,9600,1.8894858360290527,0.0014988754571240452,0.0006728403420429164,-249.76011157948074,0.0
73,4.857331991195679,-259.70823285282535,23.653898717388365,-186.00242777333742,-316.6486264246699,0.0,1.0800657454009288,0.1,0.028696060180664062,0.47860050201416016,0.05087238,0.09896732,-262.9911450554647,-2.5296991384529277,-2.5972784672665283,0.0,9600,2.753971815109253,0.00147696025393791,0.0006306122554979393,-249.74350971132708,0.0
74,4.767044544219971,-259.9227307925453,28.076891548932522,-194.19499758536165,-322.6624997857335,0.0,1.1485192730387581,0.1,0.06500601768493652,0.8469297885894775,0.051189557,0.0877337,-262.68430362917275,-2.532077655623995,-2.5995250691072105,0.0,9600,2.7734625339508057,0.0014855835408499806,0.0006332878704987045,-250.3087338361923,0.0
75,5.121721029281616,-258.27042386721627,26.292132465070814,-203.1962488866773,-342.0527345710939,0.0,1.0975180002644505,0.1,0.0652921199798584,0.7030627727508545,0.050181355,0.090778336,-262.2429156529771,-2.515930741903979,-2.5828623249878664,0.0,9600,3.999333381652832,0.0017999993781725081,0.0006539787040584731,-246.73462690207248,0.0
76,4.804517984390259,-257.0715194084364,24.06760069330861,-199.68722167748368,-305.24070181008534,0.0,1.0753293219029478,0.1,0.04476594924926758,0.5814104080200195,0.04933817,0.10432776,-261.72577602852306,-2.5036669865532426,-2.570867326603254,0.0,9600,3.386847496032715,0.0016573006105119806,0.0005880106551785896,-249.4804345502478,0.0
77,4.781443119049072,-254.74608792618554,27.255997576617734,-194.6795125829719,-318.4697087429203,0.0,1.1582191786979417,0.1,0.014475345611572266,0.5249016284942627,0.049871884,0.09420377,-261.0278072182893,-2.480555738703579,-2.54783389097103,0.0,9600,2.271761178970337,0.0017973944655989996,0.0006222127447423014,-247.7891362455198,0.0
78,4.79329514503479,-260.9072998705599,26.539971132656365,-199.38272010761693,-320.49103733609763,0.0,1.0914627245029143,0.1,0.01139211654663086,0.4557490348815918,0.050804023,0.09615879,-261.0157564835163,-2.541743069122971,-2.609386842856814,0.0,9600,2.4669880867004395,0.0013911805334854326,0.0005693322807584848,-247.3296502453881,0.0
79,4.505306720733643,-252.7677324993925,23.13458899319866,-199.00046453850476,-321.7562463122546,0.0,1.1152527178342744,0.1,0.017105817794799805,0.43826866149902344,0.050680388,0.09215638,-260.19095408510395,-2.4604015584618684,-2.527928820558001,0.0,9600,2.716381072998047,0.0017945090052657584,0.0005796977447745146,-245.40076204678525,0.0
80,4.565227508544922,-255.40383755832264,27.578216515119333,-201.33004332776605,-329.7241360007505,0.0,1.102163212705065,0.1,0.01671314239501953,0.39682698249816895,0.051509023,0.0915098,-259.7122424324258,-2.4863591885744794,-2.554381518210963,0.0,9600,2.326636791229248,0.0017602483731435925,0.0005517269539307243,-249.2574122103639,0.0
81,4.717583417892456,-256.21758271598765,22.313423558245628,-205.21349518179372,-304.08535577502545,0.0,1.0925943970186291,0.1,0.0569760799407959,1.0951268672943115,0.04939142,0.101250574,-259.362776460782,-2.4946240396279955,-2.5624941024431425,0.0,9600,4.612446546554565,0.0018350477547651,0.0007036700301653588,-246.1795504670036,0.0
82,4.859529495239258,-254.66181034036705,25.730983371565312,-179.1786170010841,-306.6278325360384,0.0,1.1219077608437622,0.1,0.06222367286682129,0.8967795372009277,0.051148143,0.087403774,-258.8926798487405,-2.479378514229913,-2.5468948156557487,0.0,9600,2.1084401607513428,0.0014239186394868234,0.0005261804818238394,-246.34394477076683,0.0
83,5.666720867156982,-252.61035353692145,23.08736398867116,-192.81153135253476,-313.7324484788206,0.0,1.1903939809185429,0.1,0.01973867416381836,0.678349494934082,0.04997679,0.088966005,-258.2644472175586,-2.459209617327077,-2.526559668072654,0.0,9600,1.9708609580993652,0.001718596265192684,0.000635617828253677,-247.74739632464738,0.0
84,4.7812659740448,-251.14721460850924,26.3546476604713,-194.28564388456317,-317.0331040122631,0.0,1.108833897850923,0.1,0.10510921478271484,0.7877140045166016,0.050364982,0.09411292,-257.55272395665367,-2.4449484490386806,-2.5118808962355064,0.0,9600,3.927973508834839,0.0019867424512507517,0.0007093894858620186,-249.1454894361386,0.0
85,5.711164951324463,-249.96729418328292,26.79077357759853,-191.99598815371306,-311.92771559520213,0.0,1.1028695968772968,0.1,0.029022216796875,0.4232213497161865,0.05062684,0.092302345,-256.7941809793166,-2.4329387622729146,-2.499965605230736,0.0,9600,2.515279531478882,0.0018602273381767601,0.0006142313069255429,-250.51781913793246,0.0
86,4.725916862487793,-254.2537476549568,24.9098232317707,-199.33113101646794,-318.6762544755054,0.0,1.1182038157918848,0.1,0.014102935791015625,0.40128278732299805,0.049968097,0.08736253,-256.5401376468806,-2.4760910123654334,-2.5430882173853355,0.0,9600,2.582829236984253,0.0012605184495125166,0.000885762871578038,-251.80870225248316,0.0
87,5.928513765335083,-257.9899895215441,28.09847038195639,-193.93860518575156,-319.47925872002736,0.0,1.0752283084879442,0.1,0.017816543579101562,0.46663427352905273,0.05046071,0.09253839,-256.685122834347,-2.512938598859678,-2.5801017953213967,0.0,9600,2.330183506011963,0.002009686061562423,0.0006052717587404134,-252.71036311230154,0.0
88,4.822204351425171,-251.8585890120481,27.137315217771857,-190.67903513607274,-320.03335428537264,0.0,1.098844453340449,0.1,0.029082536697387695,0.45252060890197754,0.05007901,0.09130444,-256.2024694521171,-2.452010915167574,-2.5190173421177247,0.0,9600,2.4500486850738525,0.0018087237970491191,0.0006491499136996699,-252.65766258019175,0.0
89,4.5581910610198975,-246.5271489976667,25.727871233774415,-194.92426363045058,-315.6075802758549,0.0,1.2150714364384456,0.1,0.06999731063842773,0.8733820915222168,0.05057593,0.08320344,-255.23493740667206,-2.398901779469485,-2.465676798963139,0.0,9600,2.5167205333709717,0.0016943482950210625,0.000536137419685035,-249.81090684938334,0.0
90,4.606840372085571,-249.0398717860803,25.90211544387197,-181.2976108671898,-307.37534117892216,0.0,1.1659780063740546,0.1,0.028707265853881836,0.7710549831390381,0.049773026,0.08298318,-254.6154308446129,-2.424118789698552,-2.490739958551623,0.0,9600,3.0554580688476562,0.0024063121021660958,0.000708263867871466,-249.82655773699713,0.0
91,4.564786195755005,-245.459485567793,25.905685207924783,-176.76301143278508,-311.89274415772275,0.0,1.0590869180559224,0.1,0.018291234970092773,0.6473689079284668,0.05059207,0.09601731,-253.6998363169309,-2.3887172485937236,-2.455025177087812,0.0,9600,2.477915048599243,0.0015575937543960792,0.0005672914916355977,-245.89009496873706,0.0
92,4.576106548309326,-248.8970649440348,28.828580329719994,-187.60434137940732,-364.8133520071263,0.0,1.2259111117803196,0.1,0.01793813705444336,0.6195724010467529,0.050382994,0.07801081,-253.2195591796413,-2.422803728068906,-2.489216901017738,0.0,9600,2.6016335487365723,0.0017672317270046286,0.0005174111257658542,-248.49644154593335,0.0
93,5.840911626815796,-246.63745538635794,22.476425529495298,-197.49129480399077,-297.20750202989257,0.0,1.12409701965838,0.1,0.034131765365600586,0.5521080493927002,0.051396977,0.092112355,-252.56134880031297,-2.400327298313229,-2.4667176114184404,0.0,9600,2.5948407649993896,0.0015695049931350865,0.0006217536094371485,-247.82878695725702,0.0
94,4.730214357376099,-250.79340211511513,25.105305093323047,-201.56100004828554,-312.7426218282825,0.0,1.1063315457251581,0.1,0.01674509048461914,0.42282629013061523,0.050310697,0.08801678,-252.3845541317932,-2.441605462078949,-2.5082923025722743,0.0,9600,2.4394354820251465,0.0015042615070918366,0.0005088584383604036,-242.69115831665545,0.0
95,4.726720333099365,-251.20691774592953,25.852353089392405,-195.44880149572947,-323.18438418319033,0.0,1.1067940103772815,0.1,0.012292861938476562,0.39098167419433594,0.05053552,0.09698867,-252.26679049320686,-2.4462417825370357,-2.512467958130219,0.0,9600,1.9968304634094238,0.0014669245306109823,0.0005912433938075116,-244.31480607656565,0.0
96,4.6949286460876465,-247.3848611956861,25.417412875300567,-175.0027732351232,-328.3487333732549,0.0,1.1498995889791646,0.1,0.02030467987060547,0.49251389503479004,0.050281696,0.08312578,-251.77859756345478,-2.4077363956045867,-2.4742097075174807,0.0,9600,2.343719244003296,0.0017741337436542439,0.0005700849382075838,-245.46652473560087,0.0
97,4.729959487915039,-246.59632607044492,24.714213393614692,-163.5248302309159,-322.0197244344474,0.0,1.1292876446560034,0.1,0.028965234756469727,0.511185884475708,0.050106525,0.08806402,-251.2603704141538,-2.4003968861616385,-2.4665044006273447,0.0,9600,2.414475917816162,0.0019613108361823234,0.000588069169664012,-244.5929462044104,0.0
98,4.839598655700684,-250.9235612636833,24.339576107707273,-184.70505382139717,-306.55192369812085,0.0,1.1575016645815763,0.1,0.016846179962158203,0.3754432201385498,0.05111821,0.08648567,-251.22668949910678,-2.442922882799682,-2.5094441116353656,0.0,9600,2.4766504764556885,0.0017726791999754625,0.00048248843576767487,-243.41441267086907,0.0
99,4.613634824752808,-250.84803586181553,26.220295240472534,-171.93140585716634,-331.3891271456289,0.0,1.1009710512907604,0.1,0.02915668487548828,0.45173120498657227,0.050229084,0.096288815,-251.18882413537767,-2.4422956528840256,-2.5088339842490357,0.0,9600,2.37929630279541,0.0013693293748750389,0.00046395888463495393,-242.01381492606296,0.0
100,4.571428537368774,-241.32855514716974,23.543640703814177,-182.64029885812045,-291.3088010897217,0.0,1.0872800924579271,0.1,0.029091596603393555,0.3922429084777832,0.05122367,0.090899535,-250.20279723655688,-2.347719938788353,-2.413746887633747,0.0,9600,2.4021973609924316,0.0019609208679387366,0.000638185107878813,-241.70076982728946,0.0
101,4.61114501953125,-244.74089753499655,23.88243524508648,-180.82232340299228,-302.4567771168548,0.0,1.118661778793667,0.1,0.014692068099975586,0.4846153259277344,0.050663963,0.094496205,-249.65660726640084,-2.3813045979149474,-2.447813639111445,0.0,9600,1.8233191967010498,0.0017003027523004454,0.0005135680963689964,-239.26016923918556,0.0
102,4.6465253829956055,-242.06325626111789,22.82487091351321,-185.28023856531365,-295.9336073445164,0.0,1.1215001322690956,0.1,0.014729499816894531,0.579808235168457,0.05076667,0.09018021,-248.89727216587255,-2.355027073403088,-2.420985653181924,0.0,9600,3.3876492977142334,0.0017536209943408599,0.0005318644014493502,-239.29314767160173,0.0
103,4.632115364074707,-246.20213428345505,24.75868959921896,-195.82442455853348,-317.2102031700121,0.0,1.088962058926157,0.1,0.021872997283935547,0.6003868579864502,0.050583314,0.1269677,-248.6277583776308,-2.396201735906738,-2.4624302470315524,0.0,9600,2.591477632522583,0.0013606813651758773,0.00044505561060523014,-242.65147982968244,0.0
104,4.685377836227417,-242.15645908089542,25.081418548441256,-182.30580132181973,-303.15758319887505,0.0,1.1564167126905944,0.1,0.013879537582397461,0.37165164947509766,0.049910273,0.083095916,-247.98062844795726,-2.356186541492668,-2.4219307700673256,0.0,9600,2.617863178253174,0.0015466523951697785,0.0005606436403758601,-244.25291784445756,0.0
105,4.99484395980835,-248.4466474305281,28.294735160061997,-186.46857306682102,-322.40197919722647,0.0,1.120224758494703,0.1,0.028489112854003906,0.45957517623901367,0.05034356,0.08622911,-248.02723034621437,-2.4187379946203245,-2.4848907304989476,0.0,9600,2.4415483474731445,0.0021570548155940383,0.0007500513634574952,-243.6775841606436,0.0
106,4.757823705673218,-240.1947000979948,25.790006609444877,-192.13013303714547,-307.0378949729676,0.0,1.1321341221623198,0.1,0.015261411666870117,0.5715818405151367,0.050256457,0.10626164,-247.2439773213924,-2.3365474246833973,-2.4024162207974764,0.0,9600,1.8289515972137451,0.0018336142474272834,0.0004310188228459777,-243.69561214254048,0.0
107,4.903726816177368,-242.95416927016387,25.736996967639744,-190.19489664648543,-303.6329246445491,0.0,1.091986474618055,0.1,0.01610541343688965,0.49977755546569824,0.0509252,0.09345978,-246.81499651626956,-2.364032461653575,-2.429950482651978,0.0,9600,2.1363656520843506,0.001399718988589335,0.0006841759967050887,-243.18943480985527,0.0
108,4.703791618347168,-242.59111821972456,26.396628094405365,-174.6772169236919,-310.3262894900273,0.0,1.1144999566620792,0.1,0.018194913864135742,0.49271202087402344,0.050873026,0.08193307,-246.39260868661506,-2.3601790307362855,-2.426280804420254,0.0,9600,2.8302862644195557,0.001596022475577085,0.0004627571865725899,-243.64104485271886,0.0
109,4.72657036781311,-238.24953536413162,27.43218091568586,-171.2089109552402,-307.5224270478114,0.0,1.140587492965331,0.1,0.012405633926391602,0.4402143955230713,0.050378636,0.08795766,-245.57830135436672,-2.3177143636622337,-2.3830067044456396,0.0,9600,2.8199195861816406,0.0017217440070339048,0.0005117894752922077,-243.21663226064857,0.0
110,4.721594572067261,-238.65832430264103,23.41005344199445,-179.51635100714572,-292.51899549250686,0.0,1.098044404477432,0.1,0.010257959365844727,0.4412801265716553,0.049768846,0.089005515,-244.88630364919416,-2.3218375137248035,-2.3871818062722467,0.0,9600,1.9216995239257812,0.0016767370035065616,0.0005364740087993257,-244.14108615688787,0.0
111,4.578992128372192,-236.06128022974735,22.91607336983409,-183.3115157677043,-297.91882130961716,0.0,1.1542980966614134,0.1,0.013007640838623047,0.4140744209289551,0.050050355,0.092411324,-244.0038013072495,-2.2956356466078853,-2.361101170171287,0.0,9600,2.0138776302337646,0.001583431826036049,0.0005442161111795782,-243.77148064491854,0.0
112,4.624592304229736,-237.82876685245992,25.044675505657732,-186.5743599648585,-292.42327146967864,0.0,1.1612220234722104,0.1,0.02927875518798828,0.7580902576446533,0.050468832,0.0872314,-243.38629786177052,-2.313248637265154,-2.3789043072302682,0.0,9600,2.2665603160858154,0.0018421285612435386,0.0006003864854110575,-244.40768113614158,0.0
113,4.715334415435791,-240.86878408973894,23.026320702577888,-189.79224154873185,-317.4261503830953,0.0,1.1184903481365305,0.1,0.0653834342956543,0.9262590408325195,0.049270537,0.09302589,-243.13454648456735,-2.343689010796294,-2.4091522359940876,0.0,9600,2.5743370056152344,0.0019106584152205157,0.00048463900870349537,-243.4767293302953,0.0
114,4.737043142318726,-236.24478571222733,21.870111647389532,-181.77757702027168,-283.7438313043672,0.0,1.1309266882490032,0.1,0.01869678497314453,0.5565938949584961,0.049208473,0.088004656,-242.44557040733335,-2.2976059106448488,-2.36291476576387,0.0,9600,3.060642957687378,0.001374749735089921,0.0004547530591812145,-241.52720485908986,0.0
115,4.694065570831299,-238.25061404327423,26.747514269912276,-183.102682540402,-295.9591535080495,0.0,1.1369391448563035,0.1,0.06671595573425293,0.8582634925842285,0.050111093,0.1001969,-242.02607477092744,-2.3178739463773392,-2.382974946202092,0.0,9600,3.160057306289673,0.001507393014001135,0.0004251155279956888,-241.00640132114899,0.0
116,4.7529778480529785,-239.6014924078662,26.399583208090945,-163.09519105593657,-332.91121341060943,0.0,1.1086520713876273,0.1,0.041517019271850586,0.7214126586914062,0.050498735,0.08839832,-241.78361653462133,-2.331050315394565,-2.3964006114147827,0.0,9600,2.8939614295959473,0.002080505008698623,0.00077772239365739,-242.48071859811154,0.0
117,4.870365142822266,-239.05418840339064,23.281436234424344,-182.53172423192274,-295.7301052212497,0.0,1.0842613129495733,0.1,0.028882980346679688,0.6202020645141602,0.050453383,0.09268833,-241.51067372149828,-2.32595041618738,-2.391065643891704,0.0,9600,2.84738826751709,0.0020492535611165027,0.0005173319711204754,-241.2887476148743,0.0
118,4.622653961181641,-239.75743403932526,22.14697393054293,-187.77284573223585,-304.1706316558461,0.0,1.0605256290820242,0.1,0.018813371658325195,0.6063418388366699,0.050684944,0.098517835,-241.33534975328098,-2.3326512335395164,-2.3980202942054367,0.0,9600,2.7572243213653564,0.001354505886850453,0.0004921442360908314,-241.4084454279645,0.0
119,4.659517288208008,-244.19912644281632,22.706090230233556,-182.62949997732022,-305.64778511357116,0.0,1.1020949876921702,0.1,0.017783641815185547,0.5462713241577148,0.050898954,0.08929888,-241.6217274222345,-2.377096016080325,-2.442522547628576,0.0,9600,2.6435647010803223,0.001434090467120293,0.0004069921194420508,-239.71193264203956,0.0
120,4.6249542236328125,-243.16068649733998,22.826301937804136,-182.20018623178098,-306.3473825255574,0.0,1.105286199640573,0.1,0.06487655639648438,0.8649873733520508,0.050878353,0.088058755,-241.77562332974506,-2.366362145193529,-2.4319226111076273,0.0,9600,2.7731776237487793,0.0013726880318697674,0.0004932642753316473,-239.37685465910832,0.0
121,4.494220018386841,-236.45157069138065,23.780214735131647,-191.99281120048943,-304.89762032947704,0.0,1.0970706029837338,0.1,0.04125618934631348,0.6554915904998779,0.050240867,0.09750276,-241.24321806590862,-2.299987532982371,-2.365077178116328,0.0,9600,3.0635931491851807,0.0017580058483615071,0.0004921731717194229,-238.30009082446938,0.0
122,4.730471134185791,-237.51337726209655,24.82310561746222,-180.03201774022045,-293.7665012990337,0.0,1.0899806857063898,0.1,0.028651952743530273,0.6814417839050293,0.049493346,0.09054416,-240.87023398552742,-2.310917244280336,-2.3756734315542714,0.0,9600,3.320944309234619,0.001900415742588476,0.0005951512460278929,-236.42596441304596,0.0
123,4.537567615509033,-233.74386118413597,24.993246870288573,-176.22594916594608,-300.0014586999821,0.0,1.0984900812692984,0.1,0.02149057388305664,0.5802733898162842,0.050420426,0.0916448,-240.1575967053883,-2.2728724681662844,-2.3379349381366215,0.0,9600,1.9877500534057617,0.0017266709535126183,0.0005709513934236246,-237.2631863506615,0.0
124,4.718892335891724,-240.61655619161823,27.234817378820143,-175.8145025433456,-293.28309039755555,0.0,1.0129676076432752,0.1,0.014603614807128906,0.41809844970703125,0.04988963,0.098751254,-240.2034926540113,-2.3413472380118,-2.4066309951966325,0.0,9600,2.1774942874908447,0.0016186043200861573,0.0005250956844669728,-239.64674244986537,0.0
125,4.668099641799927,-232.73488053974071,22.978152250262774,-172.27720600903237,-289.5947171890518,0.0,1.1054776984170704,0.1,0.012278079986572266,0.4293980598449707,0.05003642,0.09174812,-239.45663144258424,-2.2626257659153004,-2.3278050186859054,0.0,9600,2.1094186305999756,0.0019794595553179607,0.0005421241461610713,-241.45880185008997,0.0
126,4.693611145019531,-237.9272693242175,24.523584424454132,-174.95388140746437,-290.6439533995083,0.0,1.1224098494436805,0.1,0.041176557540893555,0.44933032989501953,0.04984088,0.0853754,-239.30369523074756,-2.31469364380899,-2.379716450883299,0.0,9600,2.4304516315460205,0.0016201353047532645,0.0004214678224199907,-240.556354089256,0.0
127,4.834686040878296,-238.8068974852275,23.189300509047783,-188.77069522737688,-311.4137618853713,0.0,1.1251260229177684,0.1,0.041905879974365234,0.533048152923584,0.050975572,0.08558869,-239.25401545619556,-2.323385443506378,-2.3885161089686533,0.0,9600,2.4574334621429443,0.001497427021254411,0.0004205650221685522,-239.420743247776,0.0
128,4.6144797801971436,-235.11397991147342,24.9066681147031,-167.13540806444058,-299.2571233549728,0.0,1.0548050960058757,0.1,0.02914118766784668,0.415895938873291,0.05034374,0.09213019,-238.84001190172333,-2.2866457081440967,-2.3515869873224826,0.0,9600,2.115140438079834,0.0019458911467810699,0.000542061674312377,-240.05303325584447,0.0
129,4.5232086181640625,-233.19417061939308,24.4152649284422,-180.42013375141806,-301.68247165106783,0.0,1.114481494926579,0.1,0.0640861988067627,0.9287397861480713,0.050418623,0.093880415,-238.2754277734903,-2.267164907005776,-2.33245826888489,0.0,9600,3.2153899669647217,0.0019982979293070168,0.0005352026868817438,-236.66481951656215,0.0
130,4.53764796257019,-235.684028891617,23.84073770519412,-188.5421987079696,-303.6797061879718,0.0,1.2017021325311203,0.1,0.02892613410949707,0.5486042499542236,0.049927197,0.08285921,-238.01628788530297,-2.292195738471232,-2.357336413906707,0.0,9600,2.8415229320526123,0.0014538290886649185,0.00048584294265971434,-237.9243128162874,0.0
131,4.499392032623291,-241.19570199974711,25.13281383024989,-170.2971361658141,-306.49884356690256,0.0,1.1401136207310427,0.1,0.02028822898864746,0.5887279510498047,0.048784416,0.07965426,-238.3342292967474,-2.347501896028906,-2.4123910818409797,0.0,9600,2.376239538192749,0.0015487881651279048,0.0005603089653733721,-238.4041844439145,0.0
132,4.555314302444458,-235.24118927530185,26.113435730650718,-178.29832619521068,-288.351965797098,0.0,1.0908852200995505,0.1,0.06577706336975098,0.4816293716430664,0.050050978,0.09513062,-238.02492529460287,-2.288211964919824,-2.352960327673395,0.0,9600,2.291882276535034,0.0016946990185249425,0.0005840451577839766,-238.0514868735951,0.0
133,4.584479808807373,-233.06982357759864,24.823844878227103,-172.01459276755165,-284.10181034547014,0.0,1.1879589666828607,0.1,0.018117904663085938,0.563417911529541,0.049353078,0.08096174,-237.52941512290244,-2.2666802762853497,-2.331173331637824,0.0,9600,2.7707481384277344,0.0016577202975297262,0.0005877875441115604,-238.5104017722834,0.0
134,4.817343711853027,-240.12992979694423,25.82665461372032,-167.15692152653122,-309.35655813850263,0.0,1.1012445361813497,0.1,0.04463076591491699,0.5961532592773438,0.04992115,0.091094255,-237.7894665903066,-2.3365018490031946,-2.401719603895802,0.0,9600,3.05389666557312,0.0015671889994739111,0.00044125297721687317,-237.13416900616375,0.0
135,4.644505262374878,-232.2020908410209,22.928300162375653,-174.55057720391395,-306.13948244965405,0.0,1.0304321812913675,0.1,0.03231525421142578,0.5946805477142334,0.049870804,0.08786914,-237.23072901537805,-2.257623819944274,-2.3226726519748273,0.0,9600,3.6149537563323975,0.002180884222522819,0.00041132289037156005,-237.20706595899,0.0
136,5.032457113265991,-231.12266399510096,24.41367802994055,-169.9753715418295,-300.8691693744487,0.0,1.0494468252240485,0.1,0.01870250701904297,0.46360325813293457,0.05036005,0.12905394,-236.61992251335036,-2.2466696275660296,-2.311732139810949,0.0,9600,2.970902919769287,0.001585483369401066,0.0004443943339290873,-238.00721695257366,0.0
137,4.780835866928101,-235.05055350217478,24.17133182279402,-178.6847343579026,-296.110596771732,0.0,1.0913893482241923,0.1,0.02892899513244629,0.4413483142852783,0.04975505,0.09743593,-236.4629856122328,-2.285956938895996,-2.3510431158274026,0.0,9600,3.177255630493164,0.0012994523600421122,0.0005755997215940327,-237.24704378563678,0.0
138,4.555596590042114,-235.08963588075235,26.24719460528047,-162.4766161012011,-290.4453852599371,0.0,1.0866101538662374,0.1,0.029656171798706055,0.4556107521057129,0.04998198,0.08155097,-236.32565063908476,-2.2864085552530473,-2.3514361136302644,0.0,9600,2.3064146041870117,0.001276591875889313,0.00035411751787077777,-235.45561836193667,0.0
139,4.536659240722656,-236.0424304254943,23.990106336908113,-174.2860879295434,-281.2816111155577,0.0,1.1064390591663535,0.1,0.014272689819335938,0.4485330581665039,0.05052015,0.09589802,-236.29732861772573,-2.2959991587286033,-2.360937750444368,0.0,9600,2.6409239768981934,0.0013168538395249196,0.0004549227235313161,-236.17830340698353,0.0
140,4.565664529800415,-234.3536604640766,24.588900076478385,-164.29725713754397,-289.96172764763753,0.0,1.1700636620487324,0.1,0.012503623962402344,0.38167548179626465,0.04956531,0.09009257,-236.10296180236082,-2.278792897214268,-2.3440251999264365,0.0,9600,1.9411067962646484,0.0012477491516442998,0.0003075380226766366,-235.32879738899442,0.0
141,4.554288387298584,-233.7664913195755,26.115804097556357,-165.32881570813962,-296.6430223825959,0.0,1.130862463452146,0.1,0.011028766632080078,0.32985544204711914,0.049551416,0.088481784,-235.8693147540823,-2.2727752366226763,-2.3380825770119733,0.0,9600,2.0318586826324463,0.0016431789814947415,0.0004441116312898574,-234.34978445620706,0.0
142,4.474357604980469,-233.71214484531336,26.996331258209974,-178.66014063283274,-300.3493116197904,0.0,1.1117774571443115,0.1,0.03222465515136719,0.4816458225250244,0.049568094,0.091109715,-235.65359776320543,-2.271916359257634,-2.337513371924714,0.0,9600,2.635288953781128,0.0017020096851619866,0.0003935595515743035,-232.4432463074294,0.0
143,4.608938217163086,-235.2452138242336,25.755627057370816,-179.45282805662518,-298.08076226504164,0.0,1.1628956177573895,0.1,0.018544912338256836,0.5101480484008789,0.049561795,0.088060066,-235.61275936930824,-2.28771637579473,-2.3530410693863932,0.0,9600,2.7792203426361084,0.002020127765862915,0.00045478228305152735,-231.85049038908772,0.0
144,4.608919382095337,-233.37111254671848,26.184130724633224,-174.81794723414765,-292.922159341009,0.0,1.0654342680227624,0.1,0.04612874984741211,0.5909075736999512,0.050206706,0.104336835,-235.38859468704925,-2.2686034273312434,-2.3341971792137497,0.0,9600,2.6099915504455566,0.001790148693760526,0.0004442706035969203,-231.00958005297963,0.0
145,4.6572535037994385,-235.05372655283938,23.428452174399183,-176.50263011648767,-310.29298980111435,0.0,1.075614545470044,0.1,0.04126548767089844,0.5334103107452393,0.050121117,0.08427065,-235.35510787362827,-2.2855337764949564,-2.3510974792912296,0.0,9600,3.0864570140838623,0.001490590671675285,0.00042069345364069725,-231.51141981184048,0.0
146,4.656097173690796,-233.09782363888075,24.382535995008634,-176.99173957819593,-299.2413834757394,0.0,1.0568398669362382,0.1,0.0410158634185791,0.43616318702697754,0.05038904,0.08781007,-235.12937945015352,-2.265745165797039,-2.331638745274912,0.0,9600,2.8880646228790283,0.0016654070830858588,0.0004853527509139963,-231.39830943349858,0.0
147,4.85304856300354,-233.07326735513445,27.447823257596376,-164.87518001561335,-300.311648509435,0.0,1.1298641313104643,0.1,0.05987381935119629,0.8842380046844482,0.05036173,0.08561037,-234.9237682406516,-2.2660736241651898,-2.3312549788339982,0.0,9600,2.1987805366516113,0.001578440043217408,0.00042978272843612747,-231.25508173036263,0.0
148,5.19128155708313,-233.17191128928832,23.5305481639876,-194.812418581237,-289.23242613737506,0.0,1.014016444361297,0.1,0.0659785270690918,0.9078192710876465,0.04985233,0.09000158,-234.7485825455153,-2.2665614916916095,-2.33221860520281,0.0,9600,2.2970762252807617,0.0016253818997232403,0.00046434758876396834,-231.33705581515915,0.0
149,4.614920377731323,-232.95988191466753,26.06231740827167,-172.6374952809815,-290.8938116784439,0.0,1.1210199398174894,0.1,0.03423357009887695,0.7871110439300537,0.05091567,0.09831981,-234.56971248243053,-2.2645279226500814,-2.3301434538245136,0.0,9600,2.753455638885498,0.0013299209334417255,0.0003969498601522271,-232.17226236459942,0.0
150,4.529653549194336,-227.5709928572369,26.804227673668237,-175.88958811583743,-288.5248554693595,0.0,1.1153003135019306,0.1,0.06464242935180664,0.9057040214538574,0.050272565,0.089866646,-233.86984051991118,-2.2105518094680763,-2.27625858111336,0.0,9600,2.4524986743927,0.0019867800735104938,0.0005516043172633518,-231.29954373795323,0.0
151,4.65622615814209,-232.34267696410015,23.217850924194874,-175.55950529370293,-295.19867592650274,0.0,1.0727109468812883,0.1,0.022273778915405273,0.9475724697113037,0.050875284,0.09256482,-233.71712416433007,-2.258431948682083,-2.3239565295308804,0.0,9600,2.6852517127990723,0.0013451900487172093,0.0003524150302008615,-231.33782486756405,0.0
152,4.743232250213623,-228.56630228089634,28.932611666112248,-163.1554831419451,-309.1656981989363,0.0,1.132990277688833,0.1,0.018431663513183594,0.5829699039459229,0.049628675,0.08953427,-233.2020419759867,-2.2204469507301288,-2.2863048306808795,0.0,9600,2.669360399246216,0.0015494476530786977,0.0003908730668686169,-230.36548468213144,0.0
153,4.774667978286743,-227.2799488128248,26.709485899142848,-153.7250969904613,-289.5039038640228,0.0,1.0459892634851293,0.1,0.058091163635253906,0.6902649402618408,0.050000444,0.10460866,-232.60983265967053,-2.20806407411864,-2.273535119113642,0.0,9600,3.5249483585357666,0.0012264812154294319,0.0003923811689741502,-228.70405762849248,0.0
154,4.669090747833252,-230.99267645311787,25.910850007793087,-162.8703661075076,-303.1390523507457,0.0,1.1301045544629993,0.1,0.015790939331054688,0.6033823490142822,0.049977247,0.085439734,-232.44811703901527,-2.2448832215305834,-2.3104278540053347,0.0,9600,1.932114601135254,0.0014570083988563493,0.00041576400633785504,-230.01235205024267,0.0
155,4.708178758621216,-229.76590236465123,25.059510988164828,-174.4844304934009,-290.5243189397542,0.0,1.1422882993454608,0.1,0.017508506774902344,0.6230900287628174,0.050055124,0.09174909,-232.17989557157887,-2.232359653153242,-2.2982457026061236,0.0,9600,1.93178391456604,0.0014419624734584495,0.0004548146112695519,-227.07159263752743,0.0
156,4.8420469760894775,-233.2578830057504,25.96466345318726,-165.82798685571228,-283.3950547556259,0.0,1.105600217248583,0.1,0.02257084846496582,0.5265622138977051,0.049888797,0.090585016,-232.28769431499603,-2.2672214820879124,-2.333086967344811,0.0,9600,1.7750070095062256,0.0015329071620301643,0.0003696994494454355,-229.85528998582953,0.0
157,5.901060342788696,-230.0402030504916,23.121829179848582,-181.9159225982933,-302.63945268244026,0.0,1.1266409561749078,0.1,0.041777849197387695,0.45163512229919434,0.05022738,0.096517175,-232.0629451885456,-2.2352807370102377,-2.3009659460981493,0.0,9600,1.736790657043457,0.0015137306112248945,0.00041771422683916867,-229.26003760801683,0.0
158,4.585811614990234,-228.83168979171236,24.672630794288878,-178.78702466856004,-289.1072723460358,0.0,1.129115894913589,0.1,0.016285181045532227,0.3884725570678711,0.049903896,0.099138685,-231.7398196488623,-2.2229593964404213,-2.289017114577556,0.0,9600,2.217930793762207,0.0017622063148313768,0.0004147118036576842,-229.94015599627065,0.0
159,4.7235753536224365,-231.48607169220793,22.963578357832485,-185.3098136050667,-290.63635618362406,0.0,1.0417526924669058,0.1,0.017722368240356445,0.445904016494751,0.04921181,0.0999819,-231.71444485319688,-2.2498272553904815,-2.3154724207606794,0.0,9600,2.0585484504699707,0.0016802402287076326,0.00043641667837814307,-227.2498475737208,0.0
160,4.580296516418457,-233.05122036325236,27.029463483608847,-169.5876642853021,-307.7019089398552,0.0,1.119626710600967,0.1,0.01666998863220215,0.4223442077636719,0.049743425,0.08954218,-231.84812240420243,-2.2649822951317584,-2.3309600650369036,0.0,9600,2.6014904975891113,0.0012888472118751575,0.00032886088233269995,-226.0182928855235,0.0
161,4.538537263870239,-225.31031322134723,23.414538295125457,-170.3280391542817,-287.19106276048575,0.0,1.0780865827699169,0.1,0.06628775596618652,0.9168639183044434,0.050883103,0.085824706,-231.19434148591694,-2.1884481249914027,-2.2538230182948333,0.0,9600,3.0783255100250244,0.0013451817357116758,0.0003424746430384656,-225.5544203348129,0.0
162,4.655733346939087,-229.37680539850007,24.19042236202519,-177.3410523220968,-314.70539013635107,0.0,1.0218970558709295,0.1,0.04581308364868164,0.743729829788208,0.05028622,0.11607793,-231.01258787717524,-2.2291741796933504,-2.2944352559784607,0.0,9600,4.90067720413208,0.0013052225401792772,0.00045340592616303454,-224.66837023460326,0.0
163,4.66194748878479,-230.45645575408966,24.808909245746,-166.88012991341398,-298.8542851881512,0.0,1.1050413610813388,0.1,0.01793670654296875,0.7343337535858154,0.04953618,0.087682776,-230.9569746648667,-2.239801766639779,-2.304986317597304,0.0,9600,2.449434995651245,0.0015253376278513131,0.0004322170234047508,-224.41443351066505,0.0
164,4.740936994552612,-229.0534905835997,24.81363534381324,-161.48397277697407,-288.27277844131424,0.0,1.1039799151951746,0.1,0.017819881439208984,0.7367558479309082,0.049235106,0.095247366,-230.76662625674,-2.226128557839231,-2.291254490786032,0.0,9600,2.4431827068328857,0.0014858080824071678,0.0003736553705156533,-225.53380448880966,0.0
165,4.710820436477661,-229.4636130916186,24.80927249906198,-164.45776350317524,-285.11531976036,0.0,1.0373905506361736,0.1,0.04464864730834961,0.6376848220825195,0.050139688,0.09308249,-230.63632494022787,-2.2304830548143992,-2.29520656921533,0.0,9600,3.0232646465301514,0.0014698567847326338,0.000372706124666467,-225.57582349750615,0.0
166,4.709894418716431,-226.71104141170122,21.863479009162923,-181.1111414981623,-293.5152158216433,0.0,1.126919256996377,0.1,0.021963834762573242,0.5885779857635498,0.049904965,0.085429996,-230.24379658737521,-2.202768866898562,-2.267781352856494,0.0,9600,2.4702224731445312,0.0012088608507436328,0.0003247091458758259,-228.09159133774935,0.0
167,4.558776140213013,-228.1305402307555,24.205236023725295,-163.5491594687784,-292.59980083674685,0.0,1.0507303734100804,0.1,0.013839960098266602,0.5088772773742676,0.049637828,0.11036074,-230.03247095171324,-2.2169113975934702,-2.2818141773599976,0.0,9600,2.8725693225860596,0.0014089749670957912,0.0004423689891016302,-228.36050052449542,0.0
168,4.662629127502441,-227.46277775933058,22.360720187730134,-185.57084882858567,-284.6949926882753,0.0,1.0850834632226742,0.1,0.04161262512207031,0.48920702934265137,0.05038675,0.090500325,-229.77550163247497,-2.2106396863097775,-2.2752374782541844,0.0,9600,2.9482462406158447,0.002026130971845705,0.0005292105879467177,-228.59313508142574,0.0
169,4.540187120437622,-227.17666983577797,24.69566489705934,-163.19655978724563,-285.7813594895743,0.0,1.0691436199340842,0.1,0.045154571533203125,0.5248799324035645,0.049378093,0.093472175,-229.51561845280528,-2.20793449782813,-2.27228055114561,0.0,9600,3.1748642921447754,0.0013662733003970901,0.00030685642658143087,-227.2832981191072,0.0
170,4.566307783126831,-231.19154836114248,25.740353403858197,-174.23554412799126,-290.92285464540606,0.0,1.0504049864267322,0.1,0.04161214828491211,0.5053095817565918,0.049906284,0.100733556,-229.68321144363898,-2.247960296542603,-2.3123964875124594,0.0,9600,1.911916971206665,0.001601608360608948,0.00038668877082652706,-227.87623750323058,0.0
171,5.7737579345703125,-230.55595500475079,23.04474927304181,-168.41548887407214,-301.6622641353764,0.0,1.0558523842368706,0.1,0.011863946914672852,0.43227291107177734,0.049571775,0.095913455,-229.77048579975016,-2.241803470948423,-2.306089113764538,0.0,9600,1.7417867183685303,0.0013220187652244469,0.0004840017432845077,-229.64555977330446,0.0
172,4.7856056690216064,-228.51046237490814,26.701900079094653,-167.35794068558826,-289.8744961661854,0.0,1.1620217037545364,0.1,0.013496160507202148,0.47403979301452637,0.049197555,0.082943015,-229.64448345726595,-2.2213485701337983,-2.2856441961768765,0.0,9600,2.0468873977661133,0.0016278010099533607,0.0003294264908536523,-233.10194892759876,0.0
173,4.731243133544922,-228.8178491289849,23.630490638533953,-167.93545857936618,-289.871631829017,0.0,1.1017788643601096,0.1,0.010230541229248047,0.3526911735534668,0.05055128,0.08783337,-229.56182002443785,-2.224512111814269,-2.2887490484613244,0.0,9600,1.71482515335083,0.001419247544571267,0.00044324592157103275,-233.72376285094802,0.0
174,4.736021995544434,-229.22594022438957,21.490371697225203,-182.3202467697084,-275.65903582680727,0.0,1.060552824250474,0.1,0.016804218292236328,0.4182119369506836,0.04993389,0.09276926,-229.52823204443303,-2.228639964325651,-2.2927723898327037,0.0,9600,2.382474660873413,0.001724013697013624,0.0004155273789544033,-233.37146885741447,0.0
175,4.641763925552368,-227.41064164788486,21.704531725491936,-163.8056578006808,-280.47553587719733,0.0,1.0728879377235951,0.1,0.018256425857543945,0.39781689643859863,0.049651623,0.09322244,-229.31647300477823,-2.210660587915632,-2.274634559922339,0.0,9600,2.1914448738098145,0.0015348890569693932,0.0003845998586900395,-233.07297563694044,0.0
176,4.809016942977905,-227.41182503664945,22.40529605475935,-181.4836782409713,-281.9736785570832,0.0,1.0611564552605999,0.1,0.012504339218139648,0.39092087745666504,0.050262723,0.09499561,-229.12600820796536,-2.2110477996924955,-2.2747780140616567,0.0,9600,1.6789405345916748,0.0011767111494015896,0.0003266255124021039,-231.42253564411118,0.0
177,4.559353828430176,-222.50103268715384,24.445137489801745,-171.42210008277974,-290.2672875810974,0.0,1.0941751623093823,0.1,0.016670942306518555,0.36213159561157227,0.04959317,0.09256705,-228.4635106558842,-2.1618809148422353,-2.22564353569912,0.0,9600,2.1662161350250244,0.0014044924286272338,0.0003692356576626139,-229.88941630784473,0.0
178,4.5061304569244385,-221.62071578431252,23.304528591304262,-174.66865146322874,-280.8919080981064,0.0,1.1360497608506925,0.1,0.03231978416442871,0.43955135345458984,0.05010327,0.08290601,-227.77923116872705,-2.1533287243788455,-2.2167914507434463,0.0,9600,3.09295392036438,0.0011890570760070469,0.0004411058491587683,-229.39349793971917,0.0
179,5.009376287460327,-228.97909556398233,22.851730980490167,-181.60537946188043,-308.6078035709005,0.0,1.0673230609029931,0.1,0.017641067504882812,0.4756796360015869,0.05032335,0.094525285,-227.89921760825257,-2.2265190329729845,-2.2902244298949364,0.0,9600,2.0624611377716064,0.001651491110904549,0.0004215371995762945,-227.94345047103434,0.0
180,4.68105411529541,-226.47056206857744,23.79981650345178,-167.1463642161664,-272.1607420117605,0.0,1.087457783196747,0.1,0.05670785903930664,0.5211377143859863,0.05069366,0.090952314,-227.75635205428506,-2.2015958448630584,-2.265368429521839,0.0,9600,2.865675449371338,0.0014660304597432872,0.000371850289193026,-228.7533222235075,0.0
181,4.534714698791504,-222.5953579954763,24.696740652116677,-160.75041388781318,-275.02678023354207,0.0,1.0610624538034141,0.1,0.016323566436767578,0.346832275390625,0.049857415,0.094258726,-227.24025264840418,-2.1629629636078325,-2.2265870578987204,0.0,9600,2.1490049362182617,0.0013007126746214205,0.00042848154780571743,-228.72962082565203,0.0
182,4.8076348304748535,-229.00110389795387,26.051992781960447,-168.54460370373485,-283.03852247147194,0.0,1.02238271952399,0.1,0.01030874252319336,0.31919002532958984,0.049972165,0.09170469,-227.41633777335915,-2.2268328140475058,-2.2905530129414964,0.0,9600,2.5361108779907227,0.0020350296818630927,0.0004745903861601441,-227.46240998964487,0.0
183,5.320897102355957,-228.04788704210682,24.425489984655087,-169.3578621905473,-279.54886491646175,0.0,1.113182301795737,0.1,0.0479588508605957,0.6693470478057861,0.04916061,0.09492509,-227.47949270023392,-2.216905574962625,-2.2809799176828602,0.0,9600,2.9051506519317627,0.0011559919521926933,0.00036972202575375054,-227.06412363669116,0.0
184,4.674151659011841,-225.4097841594997,23.615356609463458,-168.7210845622664,-304.2030061579233,0.0,1.079804403982563,0.1,0.020731210708618164,0.7562539577484131,0.049547177,0.090517215,-227.27252184616052,-2.1904747837472063,-2.2546515937985854,0.0,9600,2.1056015491485596,0.001460573528925566,0.00040644649467447996,-225.71234754646474,0.0
185,4.736095905303955,-225.20695772438617,22.157734177078563,-179.3378376076363,-297.1578185544881,0.0,1.0493233602024552,0.1,0.013337135314941406,0.3910939693450928,0.050069965,0.097278565,-227.06596543398308,-2.1889422292174645,-2.2528217390821457,0.0,9600,2.821990728378296,0.001828366575778953,0.00037412646790850775,-228.400456957314,0.0
186,4.813543796539307,-224.146211662936,23.391862476166974,-169.6522867700946,-280.05032354330285,0.0,1.0633074036719783,0.1,0.04111456871032715,0.44367432594299316,0.049412347,0.09319836,-226.7739900568784,-2.178302772640819,-2.242095602960496,0.0,9600,2.543821096420288,0.00195784237602582,0.00043573751787236875,-227.48011145797338,0.0
187,4.650293350219727,-223.27042914777886,24.586145263216526,-167.3380808782749,-287.45313770142417,0.0,1.0503332372428014,0.1,0.013753890991210938,0.43861913681030273,0.050567564,0.09272953,-226.42363396596843,-2.1696998319717014,-2.2332415447591285,0.0,9600,1.954984188079834,0.0013646364360170229,0.00039838521305775066,-226.8389920195496,0.0
188,5.281344175338745,-225.36296327483524,24.664054242528156,-163.40706004956948,-278.55547633049,0.0,1.046136718184416,0.1,0.03259611129760742,0.4104464054107666,0.05039127,0.1001353,-226.3175668968551,-2.1902219951237853,-2.254271479205786,0.0,9600,2.756899118423462,0.0016336442736578978,0.0004427512976924007,-226.27325691899534,0.0
189,4.679930210113525,-227.87098151266446,23.416225150484,-169.60304227683375,-274.5835054567929,0.0,1.2095197322836155,0.1,0.028775691986083984,0.33794569969177246,0.050385613,0.08449058,-226.47290835843603,-2.2153238189026023,-2.279389894783689,0.0,9600,1.850775957107544,0.001622231058789799,0.00030893681724467503,-225.65004543076049,0.0
190,4.572293043136597,-224.78153113769017,26.08951691174097,-167.51398190103546,-288.4770747722896,0.0,1.1305444103150184,0.1,0.0684196949005127,0.8812000751495361,0.050116397,0.084200315,-226.30377063636146,-2.1846841975284965,-2.2484041312730265,0.0,9600,3.4185211658477783,0.001983351227780702,0.0004296162548194418,-226.65287464362072,0.0
191,4.555664777755737,-222.21835428287713,24.213565969425403,-156.9346175837655,-279.4569844965563,0.0,1.0498712347701604,0.1,0.0449068546295166,0.6934106349945068,0.049901523,0.12201542,-225.89522900101304,-2.1585746271749087,-2.2227747612757622,0.0,9600,3.471578598022461,0.001396022366811995,0.00033800375894683156,-226.05165431943124,0.0
192,4.728289365768433,-223.15658050321497,23.69506844636719,-171.3974775982754,-284.59642712252366,0.0,1.0525527674999273,0.1,0.02962350845336914,0.45300745964050293,0.04979052,0.083130784,-225.62136415123325,-2.1676532312758927,-2.232229210066944,0.0,9600,2.928558111190796,0.002317917805610747,0.0003919100686945639,-225.38377666753502,0.0
193,4.7701191902160645,-231.11654025224394,25.669121390795723,-179.78075924060857,-299.35469611211414,0.0,1.1242604540716918,0.1,0.0413358211517334,0.4888644218444824,0.04889832,0.096157275,-226.17088176133433,-2.246998057138652,-2.3117774649433276,0.0,9600,2.9543099403381348,0.0016213549767673762,0.00041218839692890063,-226.5419279698052,0.0
194,4.838512420654297,-226.22687044683448,22.962340310928074,-165.37197314912177,-283.4678333110395,0.0,1.0979302473332668,0.1,0.01474142074584961,0.341630220413208,0.05047943,0.09175091,-226.17648062988437,-2.198670472982339,-2.262727595772013,0.0,9600,1.8556668758392334,0.0019000677458285847,0.0003853519944534908,-226.19932710840916,0.0
195,4.665432453155518,-224.46545786540278,26.39563494431467,-166.22852692333268,-311.9490689356473,0.0,1.023811651978046,0.1,0.01683950424194336,0.3294353485107422,0.04925328,0.09494944,-226.0053783534362,-2.1812011635548125,-2.2452690223237206,0.0,9600,2.1533796787261963,0.0016232210879683242,0.00035861055064523984,-225.3752708023548,0.0
196,4.742283821105957,-226.1433886479292,25.742026259536203,-143.0689711674627,-289.9275907784542,0.0,1.0937479725736905,0.1,0.013383626937866211,0.38217592239379883,0.0503823,0.09520149,-226.0191793828855,-2.1978693601487884,-2.2619734463753773,0.0,9600,2.2368557453155518,0.0014513265889689346,0.0004369638571104682,-225.15066730275748,0.0
197,5.806772708892822,-230.16692389016603,26.282442207822776,-159.9241598618826,-291.43688867856474,0.0,1.0564481520432754,0.1,0.04123210906982422,0.4914836883544922,0.049957406,0.09322791,-226.43395383361357,-2.2377800159681147,-2.3022006947549807,0.0,9600,3.297353982925415,0.0017116080533376955,0.0004202896662980503,-224.49598885048584,0.0
198,4.607574701309204,-224.4194919896505,22.02822753908311,-174.42673606297305,-285.52123823137805,0.0,1.050453820543326,0.1,0.0301055908203125,0.474545955657959,0.049809616,0.08982145,-226.23250764921727,-2.180644961512465,-2.244842286277427,0.0,9600,3.0015037059783936,0.0015405290289519306,0.0003605912925530279,-223.2287793127079,0.0
199,5.54763650894165,-224.67514322250804,24.228596407995532,-148.9703656286543,-282.95487560548895,0.0,1.0261058381632395,0.1,0.04113650321960449,0.40479445457458496,0.050045513,0.091632165,-226.07677120654637,-2.1829509361615256,-2.247228201267569,0.0,9600,2.764070510864258,0.0017762979594381303,0.00041597391470502807,-222.59155394088648,0.0
200,4.5448338985443115,-223.00455205563352,24.260246219880027,-163.14297136022324,-272.84086184298786,0.0,1.080427995724501,0.1,0.009923219680786133,0.3496675491333008,0.049889874,0.09458152,-225.76954929145506,-2.166526226505663,-2.2306148451515013,0.0,9600,1.8785834312438965,0.0013752691799707743,0.0004318875743674483,-222.90365175048836,0.0
201,4.530570983886719,-222.26354579457475,30.516822819754783,-96.04744187819993,-287.7993792031393,0.0,1.1532541165213324,0.1,0.016008615493774414,0.5456953048706055,0.050336882,0.08248921,-225.41894894176704,-2.1628060555872586,-2.223078009570078,0.0,9600,2.3831613063812256,0.0031775707609076422,0.0008237290200706699,-222.00042684984658,0.0
202,4.666277885437012,-221.335991109498,22.602088266771453,-166.00990002038776,-279.3597707516549,0.0,1.034670705265209,0.1,0.019747018814086914,0.4473593235015869,0.05000307,0.10232169,-225.01065315854015,-2.1500461793114107,-2.2141125504471226,0.0,9600,2.3199281692504883,0.0016576762515874558,0.0003714744683659273,-222.9953357798974,0.0
203,4.98435378074646,-220.9808576045191,25.128027712664117,-155.58751115632697,-271.7751143707709,0.0,1.1357424292812115,0.1,0.06696295738220215,0.8471102714538574,0.049941067,0.09816621,-224.60767360313804,-2.146270669005,-2.2104619865795434,0.0,9600,2.8489224910736084,0.0021522725890367627,0.00041091631842263374,-222.34977703153885,0.0
204,4.654834508895874,-221.98450053896045,24.115641805912166,-169.3185277892573,-287.9583027734836,0.0,1.0868010013048737,0.1,0.017981767654418945,0.6573126316070557,0.049927756,0.09466622,-224.34535629672027,-2.155730003330133,-2.2204112586669926,0.0,9600,2.0381240844726562,0.0014588997286525422,0.0003724745987973318,-224.69525801119545,0.0
205,4.8129823207855225,-227.95763768368002,28.08724958897913,-171.72467545596857,-300.70539928781983,0.0,1.0794304575876297,0.1,0.02885127067565918,0.5234434604644775,0.049343776,0.09031429,-224.70658443541626,-2.2156695623642966,-2.280131913312417,0.0,9600,2.7730231285095215,0.0018260380550871123,0.0004114426301030594,-224.3448929010389,0.0
206,4.720858573913574,-223.9848225828495,25.200279268674834,-150.57744559409122,-319.3323980655894,0.0,1.0391614776620202,0.1,0.028683185577392578,0.5125412940979004,0.049687516,0.0976542,-224.6344082501596,-2.1762142729288665,-2.2404108843146076,0.0,9600,2.526970624923706,0.0012733035079933622,0.00042814659055382976,-224.9147523279481,0.0
207,4.6635401248931885,-220.00678437539742,27.462496900785492,-158.63603598731592,-284.1393483335262,0.0,1.144483288011099,0.1,0.03307700157165527,0.48593616485595703,0.04946417,0.09030558,-224.17164586268336,-2.1364254856630827,-2.2008848005804182,0.0,9600,2.625051736831665,0.001959584518429985,0.0004412470189146226,-222.76363469327032,0.0
208,4.619154691696167,-226.88766383516153,24.97390540093235,-172.42843916490676,-298.5346425583725,0.0,1.0477160148218407,0.1,0.015944957733154297,0.5003933906555176,0.049782034,0.08942871,-224.44324765993116,-2.204802590927234,-2.269485820014582,0.0,9600,2.6198534965515137,0.0013983518260415884,0.000488492585119383,-221.56466195584818,0.0
209,4.537972927093506,-218.5272612413811,26.66406790017113,-159.99637299530622,-279.5286355826463,0.0,1.1541822070423502,0.1,0.012158870697021484,0.4069843292236328,0.05012143,0.092956744,-223.85164901807616,-2.1210085656630455,-2.1858984762637843,0.0,9600,2.002298593521118,0.0016487570016793305,0.0004461047357650774,-222.32928057903416,0.0
210,4.655060529708862,-220.45602704890678,24.241334269285506,-167.1161781393998,-291.7434112243558,0.0,1.0792261864911217,0.1,0.011431455612182617,0.32875895500183105,0.04959652,0.09603017,-223.51208682115924,-2.1403712929543612,-2.2050355307861746,0.0,9600,1.724944829940796,0.001142825777576379,0.00030666173828484104,-221.87881466313357,0.0
211,4.617105484008789,-228.31780564561527,24.17364759995807,-152.62594056980518,-279.1180644710371,0.0,1.0093024393143366,0.1,0.010842323303222656,0.31302952766418457,0.05004424,0.08977845,-223.99265870360483,-2.2192079754778473,-2.2838343988077834,0.0,9600,1.664780855178833,0.001128624937292169,0.0003819174464755859,-221.12416769123752,0.0
212,4.736193895339966,-226.77986740862147,22.779735408882587,-174.06040208154863,-293.25228795712394,0.0,1.051124109918933,0.1,0.0294189453125,0.4071037769317627,0.05006255,0.10156295,-224.2713795741065,-2.2036251964756377,-2.268275711025758,0.0,9600,1.8409149646759033,0.0018695682957630263,0.0004414638041593448,-221.1218828847915,0.0
213,4.652026176452637,-222.05358615660634,27.02887530707487,-167.70918740938876,-288.5195159261265,0.0,1.0447914722215343,0.1,0.012489795684814453,0.39751553535461426,0.04938092,0.09405752,-224.04960023235648,-2.1563028675309646,-2.2209899035942753,0.0,9600,1.9442672729492188,0.0015579140328427768,0.00046979914247324654,-220.4262492343565,0.0
214,4.663562059402466,-221.05396557937593,26.365960751679438,-154.45403208690922,-267.98437272044345,0.0,1.0477400083334116,0.1,0.03235816955566406,0.4559149742126465,0.049226224,0.09773375,-223.75003676705842,-2.146890022509877,-2.21114990746395,0.0,9600,2.577899932861328,0.0021011718323409715,0.0004057141237146344,-221.9530276447714,0.0
215,4.80653977394104,-222.6878214335849,22.521170002762506,-171.84059982396028,-270.1901479756959,0.0,1.051360625002949,0.1,0.028705835342407227,0.3913993835449219,0.04964047,0.09170511,-223.64381523371108,-2.163169870317449,-2.2275636568823654,0.0,9600,2.5369789600372314,0.0014011588196338265,0.0003641987513445757,-222.9333868808392,0.0
216,4.799466609954834,-222.69632789434823,27.197387177184197,-165.50159324548002,-293.97386072537927,0.0,1.084212785915645,0.1,0.04114174842834473,0.3720662593841553,0.049558107,0.08815876,-223.54906649977482,-2.1631037024915667,-2.227683488616121,0.0,9600,2.2522263526916504,0.0013719727563171775,0.0003270131122023533,-220.42186346948512,0.0
217,4.5249083042144775,-218.70638948276238,26.22573903061048,-164.7346268537553,-288.5588634896169,0.0,1.0109273821529674,0.1,0.010007143020629883,0.3622324466705322,0.050052825,0.090204276,-223.06479879807358,-2.1235901492544826,-2.187711229620019,0.0,9600,2.5918948650360107,0.0018436982689400564,0.0003382875840490908,-220.44831174189187,0.0
218,4.654272794723511,-222.41932057569542,27.565994022909695,-160.9132761564605,-310.33781231977235,0.0,1.1271531635274463,0.1,0.013228416442871094,0.4551076889038086,0.04967049,0.08314209,-223.0002509758358,-2.160874881680648,-2.2247366184800996,0.0,9600,2.1683509349823,0.0020136884026853447,0.00042869080749113593,-221.96315219774763,0.0
219,4.53116512298584,-221.71494476157966,24.407571359151518,-159.25841115528058,-267.2406140265737,0.0,1.0945770083649522,0.1,0.012005805969238281,0.4493992328643799,0.050540384,0.09493985,-222.87172035441017,-2.1537871115394305,-2.2176906301348844,0.0,9600,2.367518186569214,0.0015816376069981931,0.0003703476124353288,-219.76000076789734,0.0
220,4.5883564949035645,-219.52300966299973,24.066612310993087,-152.2911694483588,-274.451090395085,0.0,1.0308306229735555,0.1,0.012683868408203125,0.44985485076904297,0.04988501,0.09788167,-222.5368492852691,-2.1325948812393167,-2.195895066842947,0.0,9600,2.0301904678344727,0.0016129488954737356,0.00040618136856500467,-222.96781783872134,0.0
221,4.514872312545776,-224.08869699155107,25.974384272382874,-163.347770435973,-278.0850512185511,0.0,1.0455907060726632,0.1,0.041170597076416016,0.4577503204345703,0.04869822,0.11040558,-222.69203405589732,-2.177380751835544,-2.2414047554194787,0.0,9600,2.0132503509521484,0.0015958449895094413,0.0003800758319705247,-224.02281557213422,0.0
222,4.714346408843994,-223.66066341774672,24.885666403467933,-154.32643561098806,-296.75621121878856,0.0,1.0183731216873828,0.1,0.02014756202697754,0.5835418701171875,0.05008688,0.10306195,-222.78889699208227,-2.173701315429721,-2.2370832423854363,0.0,9600,1.8922779560089111,0.0020706041983947787,0.0004585064827568994,-224.47630637000623,0.0
223,4.718561887741089,-219.2871377167327,23.535347176523253,-160.41784428591234,-306.7650104648388,0.0,1.096584304377522,0.1,0.013103485107421875,0.4102327823638916,0.050113507,0.09629177,-222.4387210645473,-2.1296387177197578,-2.1934201973138285,0.0,9600,2.657721757888794,0.0015430181755022871,0.00035732497860090854,-223.43286062292458,0.0
224,4.717211008071899,-219.36755832772042,26.26100779583633,-162.42445797464035,-274.55064246379607,0.0,1.0939884521426433,0.1,0.018597126007080078,0.4875297546386719,0.049120642,0.09667558,-222.13160479086463,-2.1310199668724317,-2.194527503806979,0.0,9600,1.9246578216552734,0.0012759854629767586,0.00034041519217001243,-222.35057544701698,0.0
225,4.834197998046875,-223.27804111099576,25.725006342141036,-176.3943611924637,-301.61164117302417,0.0,1.064272049140682,0.1,0.0121002197265625,0.40972328186035156,0.050573558,0.091125034,-222.24624842287773,-2.170181451887653,-2.233359186687386,0.0,9600,1.861210823059082,0.0018659696059190292,0.0004358332852047823,-222.43103148130513,0.0
226,4.580368518829346,-221.27240101017676,26.258248365900343,-154.67418267465297,-282.13436324072205,0.0,1.0335773063049163,0.1,0.010579347610473633,0.3106873035430908,0.05013331,0.1053085,-222.14886368160762,-2.149697790805791,-2.213206468042057,0.0,9600,1.8226063251495361,0.0017625836388393539,0.0004206385598006148,-221.68493514816538,0.0
227,4.499249458312988,-218.32363373455166,25.899946159927023,-146.82011230495718,-309.18171331186244,0.0,1.1192613105117686,0.1,0.01688075065612793,0.3247358798980713,0.04952977,0.09232301,-221.76634068690203,-2.120412693542411,-2.183942322225718,0.0,9600,2.235990524291992,0.0023651185175876917,0.0006639570847267025,-220.46092762908944,0.0
228,4.709425210952759,-225.3157515514229,25.773807230278578,-178.5272049228359,-319.5660840980502,0.0,1.083367884544319,0.1,0.028920650482177734,0.3481144905090332,0.049238797,0.0859725,-222.12128177335413,-2.1902711919068927,-2.2537351922035023,0.0,9600,2.5609376430511475,0.0022372175689121692,0.00048267807882852043,-216.02196339765464,0.0
229,4.609698295593262,-223.67322174594605,26.56025732699733,-156.77570063608485,-313.1518179626497,0.0,1.0647546829198418,0.1,0.018275737762451172,0.4892263412475586,0.04965689,0.09343662,-222.27647577061333,-2.173998794657181,-2.237470914674527,0.0,9600,2.0820558071136475,0.0016898124542334546,0.00046511795088822404,-218.61127966253113,0.0
230,4.645842790603638,-217.42383665075394,26.162919604420193,-153.3402374714264,-278.94030097956323,0.0,1.1401132894812729,0.1,0.013692617416381836,0.4987905025482178,0.048470184,0.086347796,-221.79121185862738,-2.1117428583792095,-2.1749707610245967,0.0,9600,2.190885066986084,0.0022502274227953075,0.0004968692886824219,-217.620626390216,0.0
231,4.612039089202881,-218.07616285851927,27.416847087099764,-154.38112007608245,-313.8615005076165,0.0,1.0748913399324953,0.1,0.011945724487304688,0.40828371047973633,0.05038464,0.08899549,-221.4197069586166,-2.118248969811104,-2.1814036156160266,0.0,9600,2.2812247276306152,0.00180067874369253,0.0003816902223256993,-216.2858992021391,0.0
232,4.7248430252075195,-220.11832514636504,24.413518311592323,-159.1512406212065,-277.71568393780177,0.0,1.0469652943760699,0.1,0.04462242126464844,0.4213838577270508,0.04943679,0.093568474,-221.28956877739142,-2.13860754946283,-2.2019017704579995,0.0,9600,2.5073981285095215,0.0016034249684749096,0.0003920171173227919,-216.4106327632748,0.0
233,4.67400050163269,-223.40607507132154,24.79227192341037,-164.91540265519507,-284.061090713999,0.0,1.0481695138215776,0.1,0.028846025466918945,0.3887448310852051,0.05005752,0.088774666,-221.50121940678443,-2.171156300058902,-2.2345542685466433,0.0,9600,2.404195547103882,0.0014898816635178758,0.00039564748575079733,-217.08047364515747,0.0
234,4.6707069873809814,-215.83497407774198,29.526876153557925,-158.92656466154438,-320.9401721278084,0.0,1.1075987732321237,0.1,0.016532182693481445,0.36917734146118164,0.04989432,0.08800372,-220.93459487388017,-2.095720711876932,-2.159033537831967,0.0,9600,2.792759895324707,0.0015869556531475282,0.0004225297400161912,-217.01124433787092,0.0
235,4.737512826919556,-219.36111072878643,25.423393645079862,-155.96976210410014,-277.3082378846796,0.0,1.1018612335862237,0.1,0.02842855453491211,0.3014681339263916,0.049725845,0.09076449,-220.77724645937082,-2.1311848976400047,-2.1942238763279946,0.0,9600,2.821143627166748,0.0015033080484429919,0.00036279381760506745,-217.09200506777768,0.0
236,4.535685062408447,-219.61222147794385,28.44250316701424,-154.29053642752842,-282.2604470130617,0.0,1.1814996423319324,0.1,0.010424375534057617,0.3406982421875,0.04982575,0.08226924,-220.66074396122812,-2.1332220256659693,-2.1967399822529305,0.0,9600,1.866910696029663,0.0015494929130267679,0.0004820787188198139,-218.70189591118748,0.0
237,4.485907793045044,-222.54140275397143,27.041585207182422,-165.414927278902,-284.14126848020294,0.0,1.000852870017651,0.1,0.028641700744628906,0.4414653778076172,0.049697112,0.0966387,-220.84880984050244,-2.162799929903614,-2.2261540692962516,0.0,9600,2.0854485034942627,0.0015162210904365197,0.0003815619616452827,-217.79524000489965,0.0
238,4.553046703338623,-222.8506685398319,26.31249423072743,-159.02130902059477,-288.3979198430747,0.0,1.128757950535373,0.1,0.012540102005004883,0.4622366428375244,0.050210275,0.085929714,-221.04899571043538,-2.1657083088698,-2.229031762538291,0.0,9600,2.305769920349121,0.001875893581303941,0.00042025931284058306,-216.25731271568247,0.0
239,4.512758493423462,-219.69992098578632,23.121513547102946,-165.7284725722372,-276.75405715532446,0.0,1.0948072316209096,0.1,0.012232780456542969,0.4110374450683594,0.04907525,0.09020361,-220.91408823797047,-2.1346163737519075,-2.1975501961020183,0.0,9600,2.1512439250946045,0.0025902877035737554,0.0005153196310503327,-217.37357712364647,0.0
240,4.524523735046387,-220.04613412941623,25.013730721878087,-143.44482167855307,-274.5834161236895,0.0,1.075983935395969,0.1,0.041170358657836914,0.5028932094573975,0.049633116,0.09909286,-220.82729282711506,-2.1375983983712388,-2.2012832208896094,0.0,9600,1.950094223022461,0.0015360340441015366,0.00038576605373379335,-214.80892671474209,0.0
241,4.649140357971191,-214.9365189047418,26.2241980333325,-152.71445992004374,-279.73044946763497,0.0,1.0702099968389092,0.1,0.02875661849975586,0.4931783676147461,0.04993779,0.094994634,-220.23821543487773,-2.0868691479404413,-2.1499565493799033,0.0,9600,1.9260404109954834,0.0015070431252321762,0.00035599991242912045,-216.0260477679601,0.0
242,4.663089752197266,-213.22509563602196,23.78152758343629,-150.7600307660752,-269.0335499775271,0.0,1.040921421004802,0.1,0.015573978424072266,0.4833245277404785,0.049915284,0.09989212,-219.53690345499217,-2.0699178506247002,-2.1328991194011357,0.0,9600,1.8414521217346191,0.001845600039840566,0.00045757000512819786,-217.2302555184673,0.0
243,4.635376214981079,-215.1455149113863,27.354339224913733,-156.2767306344129,-284.2588529781533,0.0,1.0410843129693936,0.1,0.0160982608795166,0.44262123107910156,0.05049287,0.10200408,-219.0977646006316,-2.0890011656324403,-2.1521513024758714,0.0,9600,1.6679191589355469,0.0022827638845688463,0.0005731359821400216,-214.49636032951932,0.0
244,4.8028857707977295,-213.31146349929395,27.066692224609664,-153.4069344169784,-285.5229802177295,0.0,1.03356533684756,0.1,0.015284538269042969,0.4754500389099121,0.04949272,0.09666184,-218.51913449049783,-2.0706496035719177,-2.1338385394772215,0.0,9600,1.563556432723999,0.002257129351118898,0.0005360159171732464,-216.4439574969531,0.0
245,4.747476100921631,-223.11552013943773,24.103247862756934,-167.2398628260245,-285.19961639114854,0.0,1.0383431032512658,0.1,0.0139923095703125,0.5199518203735352,0.050231773,0.10057733,-218.97877305539183,-2.1678005028514327,-2.231717499887329,0.0,9600,1.7756526470184326,0.0022096031036415342,0.00039626465245775396,-216.56086202751385,0.0
246,4.619563102722168,-221.0868895161843,23.46840930432654,-167.27121025057542,-272.8698783700279,0.0,1.0966881654678553,0.1,0.01977992057800293,0.4559640884399414,0.049046874,0.09640405,-219.1895847014711,-2.1483667281902274,-2.2115596678525447,0.0,9600,1.8524525165557861,0.002262803098176024,0.000436160709366435,-216.08953232373304,0.0
247,4.468477010726929,-219.45470293067274,23.48698707513739,-162.13196309379168,-293.38589411251456,0.0,1.0534503461682319,0.1,0.01751399040222168,0.5022115707397461,0.04998988,0.09956663,-219.21609652439125,-2.131784872917532,-2.1951869964058197,0.0,9600,2.697303056716919,0.0021850487600294064,0.000492997300291884,-214.79787112821364,0.0
248,4.633154392242432,-220.84682961174573,27.627518203747233,-150.43267737981193,-286.4955121687945,0.0,1.107106888786402,0.1,0.018027305603027344,0.5680515766143799,0.049144138,0.09028401,-219.3791698331267,-2.1459736936309857,-2.2091510896242963,0.0,9600,2.7266085147857666,0.0030564763978327405,0.0006064053357901235,-217.55138827569164,0.0
249,4.5475194454193115,-220.34041515086446,25.116556459631486,-150.42541703950107,-274.56767527611925,0.0,1.0430424217261987,0.1,0.012192487716674805,0.46860814094543457,0.050099146,0.09750512,-219.47529436490046,-2.1408367401532455,-2.2040588274794195,0.0,9600,2.06329607963562,0.002614610809692295,0.0005172697087922832,-218.83620688178567,0.0
250,4.592881202697754,-213.70838901772808,26.665892550367914,-152.79277390533116,-271.9748751868527,0.0,1.0288939417447194,0.1,0.0175321102142334,0.5433473587036133,0.050157033,0.09276119,-218.89860383018322,-2.0744327741372257,-2.137776892733625,0.0,9600,3.6092350482940674,0.0021779893391791986,0.0005566925001009895,-220.55477546123308,0.0
251,4.63468074798584,-217.4759702350963,28.219881303228195,-153.6513615336984,-290.5732259596574,0.0,1.1374251297262548,0.1,0.06520390510559082,0.6299898624420166,0.049609076,0.09079053,-218.75634047067453,-2.1119217834715474,-2.175299835296034,0.0,9600,2.1182985305786133,0.001793663462320828,0.00043547865865287404,-220.43931807131247,0.0
252,4.666703224182129,-221.4585709253545,24.408517539579723,-161.8412348077594,-288.2353261739964,0.0,1.0874738323365618,0.1,0.013045787811279297,0.49431419372558594,0.049864788,0.09220938,-219.02656351614252,-2.151741997359761,-2.215275397432361,0.0,9600,1.9522359371185303,0.0020248303889273023,0.0005925398783193705,-223.65245822834603,0.0
253,4.7506256103515625,-214.69830507103498,23.02159779562645,-163.81908660308423,-265.14242230784185,0.0,1.1268246371628323,0.1,0.013366222381591797,0.35282015800476074,0.04955424,0.08503639,-218.59373767163177,-2.0843819650431965,-2.147708039302376,0.0,9600,2.631974935531616,0.00231854352260181,0.0005000502632386081,-222.1032069791072,0.0
254,4.719836950302124,-210.17686193543395,27.617358907113974,-157.01486730155807,-292.66964100420023,0.0,1.1685355927202643,0.1,0.01318049430847168,0.33324694633483887,0.049718842,0.090790294,-217.752050098012,-2.0389710943955426,-2.102458364620252,0.0,9600,2.2741341590881348,0.0019897964704969117,0.0004909957752917884,-220.7814682400648,0.0
255,4.527726173400879,-220.34755732135488,25.95010762246115,-141.22438176682329,-272.4313709018277,0.0,1.0748395729887807,0.1,0.02986931800842285,0.6060559749603271,0.050343934,0.09114329,-218.0116008203463,-2.1408494770426687,-2.2040855528523076,0.0,9600,2.4087464809417725,0.0017526568869296638,0.0003693884489305428,-220.8836684018148,0.0
256,4.614706039428711,-219.12622494858235,25.80357398508654,-164.0935472332416,-291.071484227866,0.0,1.095292784135407,0.1,0.033067941665649414,0.4794178009033203,0.050303414,0.092191696,-218.12306323316992,-2.1282759063496637,-2.1917273804426833,0.0,9600,2.8467068672180176,0.0021628812128820394,0.00038444861035638215,-222.91968614867187,0.0
257,4.490236759185791,-217.73074298604126,28.282840181664593,-90.55727375496545,-269.96464133924,0.0,1.0821908081482727,0.1,0.013331890106201172,0.432145357131958,0.049393054,0.09905503,-218.08383120845707,-2.1192287719040923,-2.1781176853978534,0.0,9600,1.612379550933838,0.002731972264092172,0.0006612787306889774,-218.05447732028117,0.0
258,4.479250192642212,-218.02839806879365,27.75673872566151,-141.9994701461584,-294.2243598451462,0.0,1.0503177841686069,0.1,0.016774415969848633,0.4638485908508301,0.05020769,0.0929087,-218.07828789449076,-2.1180488861570548,-2.1808042716213856,0.0,9600,1.9287536144256592,0.0035052870808351165,0.0005593158732291432,-218.43714848870147,0.0
259,4.595605134963989,-221.71857825054346,29.234923948324752,-148.68539598310025,-289.3839769274963,0.0,1.0717735483689677,0.1,0.01195073127746582,0.44239258766174316,0.04950664,0.094750136,-218.442316930096,-2.1543916890328756,-2.2179165941690258,0.0,9600,1.8347902297973633,0.0020057155262542207,0.0005721668713247535,-219.77938919653943,0.0
260,5.202868700027466,-209.7407404349248,26.811297871112327,-147.9672218392217,-290.6820026495575,0.0,1.093419982556903,0.1,0.013267278671264648,0.4399096965789795,0.050035503,0.09148738,-217.5721592805789,-2.0351129811059057,-2.0981476207116354,0.0,9600,2.0632107257843018,0.0026041757012888926,0.0005666103671832573,-220.38055332095863,0.0
261,4.666490077972412,-213.7209089888893,22.01080318340387,-172.43360578139806,-261.7984514998884,0.0,1.0410503077898519,0.1,0.01071929931640625,0.3472905158996582,0.049294945,0.09511852,-217.18703425140993,-2.0750228602639624,-2.13795166668099,0.0,9600,1.5125758647918701,0.0022161358580478742,0.00046280105298233026,-221.92327023617014,0.0
262,4.58148717880249,-214.80485728621105,24.32134038278123,-160.76329463801156,-276.4604606760926,0.0,1.0932224150754142,0.1,0.010748147964477539,0.3112013339996338,0.049965,0.09041693,-216.94881655489002,-2.0853554894992268,-2.1486173696005966,0.0,9600,1.512171745300293,0.00212574737138435,0.0005609268826127327,-224.51715042328163,0.0
263,4.590624570846558,-215.57075180985092,25.90629363269731,-149.73097084138104,-276.72473699936126,0.0,1.122628783140525,0.1,0.010784387588500977,0.30033445358276367,0.049618624,0.09005814,-216.81101008038613,-2.093801548362788,-2.1564919711487476,0.0,9600,1.4965531826019287,0.0028048710211022684,0.0005023491336742853,-224.74005592547962,0.0
264,4.774478435516357,-214.1230497727511,25.367246318593,-138.86865308208434,-268.3228525432877,0.0,1.0443712813539026,0.1,0.03219199180603027,0.37987637519836426,0.049755108,0.10820993,-216.54221404962263,-2.0800815249669133,-2.1420187908395922,0.0,9600,2.5597879886627197,0.0018712550810461809,0.0005281750882472055,-225.68785727438922,0.0
265,4.72403621673584,-215.38150363550963,27.32430287795343,-156.48396224745102,-284.10515927060015,0.0,1.0953564733621861,0.1,0.01670241355895996,0.39959239959716797,0.049035087,0.092627496,-216.4261430082113,-2.0915491274394635,-2.154505554284071,0.0,9600,2.2428295612335205,0.0024916266880789886,0.0005171089666247455,-222.5751089349845,0.0
266,4.453905344009399,-218.63916144084888,26.68212143005859,-154.64049925728958,-272.4301611843962,0.0,1.0837655235760202,0.1,0.009926319122314453,0.3291459083557129,0.0501394,0.08820263,-216.6474448514751,-2.124214956399751,-2.1871882624359467,0.0,9600,2.6690101623535156,0.0018114738093494658,0.00038822661748918606,-222.0887403639618,0.0
267,4.534502267837524,-216.99883331348136,26.614005884465357,-158.63105917317898,-278.8547753812659,0.0,1.0649855815271558,0.1,0.015862226486206055,0.39767026901245117,0.049863175,0.09379752,-216.6825836976757,-2.1081866956325466,-2.170813373246417,0.0,9600,2.6709487438201904,0.0025144816894182844,0.0005049094942511481,-222.64492379940398,0.0
268,4.614006280899048,-211.8914397529527,27.70236050662966,-141.3159886188789,-279.7431385738774,0.0,1.0524858759786575,0.1,0.029027223587036133,0.41025257110595703,0.049708597,0.08686666,-216.20346930320343,-2.0568840224729192,-2.1195105799685092,0.0,9600,2.362008810043335,0.0027159502840724747,0.0005173459891170307,-223.68260451047448,0.0
269,4.427651882171631,-218.41805877581646,23.080308656058456,-171.42828030949576,-281.7128166431887,0.0,1.1104218827311663,0.1,0.02878856658935547,0.3768603801727295,0.050239526,0.0986224,-216.42492825046475,-2.1225158975039102,-2.184828850180294,0.0,9600,2.2828264236450195,0.0019013947390151432,0.0004325112563617462,-223.24602382219655,0.0
270,4.689948320388794,-217.9076891001258,27.10535806853795,-149.5298743383963,-275.282785926008,0.0,1.1045829466441281,0.1,0.013288259506225586,0.31003665924072266,0.049713925,0.0934501,-216.57320433543086,-2.116570018158164,-2.1798432839044057,0.0,9600,2.1329946517944336,0.0025007156686878934,0.0004609229892068194,-222.4065259958681,0.0
271,4.687825918197632,-217.98565230365162,24.21022035397585,-156.84892021945598,-268.0563550275154,0.0,1.0448573322236219,0.1,0.012712955474853516,0.4071178436279297,0.04970753,0.094225466,-216.71444913225295,-2.117259380227124,-2.1805035936445396,0.0,9600,2.300107717514038,0.002426020075323728,0.0004371451515640326,-220.61340018539846,0.0
272,4.69590425491333,-215.48789107498666,25.96331599138292,-154.67343009065814,-294.76592068428766,0.0,1.110329164820036,0.1,0.02407073974609375,0.34046149253845215,0.049730986,0.09154072,-216.59179332652633,-2.0927431205163805,-2.1556469147862134,0.0,9600,2.3642568588256836,0.002164734593074567,0.0004164658059044479,-220.98503982606053,0.0
273,4.652496814727783,-213.8994722027716,26.44971485506753,-140.00300802151975,-274.80252020401565,0.0,1.0475714459641843,0.1,0.01638317108154297,0.39694952964782715,0.04926983,0.09270893,-216.32256121415085,-2.07703118587516,-2.1395340892172228,0.0,9600,2.7678866386413574,0.0026525651159280588,0.0005279316510877197,-220.16849475658967,0.0
274,4.689071416854858,-216.20853947731567,25.09700958132434,-160.28780448811017,-285.159121652199,0.0,1.1411031917195535,0.1,0.013345003128051758,0.47443556785583496,0.049358267,0.09125398,-216.31115904046734,-2.099884976474027,-2.1628050667357663,0.0,9600,2.791177749633789,0.0018778245762314605,0.00043385441298053525,-222.2578458170106,0.0
275,4.5901572704315186,-213.8347473083306,21.66843638232203,-172.44794060999513,-267.9709773250136,0.0,1.0817057735618345,0.1,0.02877211570739746,0.35558629035949707,0.049692575,0.09431753,-216.06351786725367,-2.0763845641101937,-2.1391043119384077,0.0,9600,2.5376319885253906,0.0028310291322888566,0.000599669222093649,-220.68183206899448,0.0
276,4.453912258148193,-212.7048976646354,24.155970854062506,-158.49306146696335,-265.93959360922724,0.0,1.0573960825134323,0.1,0.013301849365234375,0.32841992378234863,0.04957741,0.09488056,-215.72765584699187,-2.0651090157608634,-2.1277048341666633,0.0,9600,2.328671932220459,0.0025550561967233646,0.00044275688285612657,-221.5895224736414,0.0
277,4.502726316452026,-216.26264490992006,25.10572609935719,-167.55540765356653,-273.59130301259563,0.0,1.0237555275768504,0.1,0.010471105575561523,0.35905027389526367,0.049650963,0.09481731,-215.7811547532847,-2.1002983195267073,-2.1631333169814315,0.0,9600,2.2517435550689697,0.0020386121662302375,0.00043311885466817496,-223.7249806084218,0.0
278,4.505675554275513,-219.1533508157619,25.386903370796404,-159.73874080826621,-269.96922775580003,0.0,1.0431033428724175,0.1,0.01043558120727539,0.3465301990509033,0.05003703,0.094782576,-216.11837435953242,-2.129165066386633,-2.1921144381445323,0.0,9600,2.16605806350708,0.0023364734390217763,0.0004967522682828186,-226.3052214303801,0.0
279,4.544381856918335,-213.0542461274615,26.35350064012531,-153.13731536173108,-297.1744400176831,0.0,1.0616241186166018,0.1,0.0443568229675293,0.43657755851745605,0.04939157,0.09336459,-215.81196153632533,-2.068513732046924,-2.1312151318132435,0.0,9600,2.5336391925811768,0.002024812052966012,0.0004378272124741484,-224.54037869895893,0.0
280,4.524474382400513,-218.40633096917358,28.126137113267333,-154.29791242259475,-271.3131526734767,0.0,1.0904586825829834,0.1,0.017596960067749023,0.36167168617248535,0.050201297,0.09238967,-216.07139847961014,-2.1218106336317266,-2.184687775134889,0.0,9600,3.0999953746795654,0.0023717070862912604,0.00043434472980973204,-225.517480539315,0.0
281,4.85077428817749,-215.23830139538802,26.93849953428798,-150.46146293601032,-304.1765133329681,0.0,1.1057828630239144,0.1,0.02861952781677246,0.4140360355377197,0.050212834,0.09164123,-215.98808877118793,-2.09023497922657,-2.153116534705832,0.0,9600,1.7791776657104492,0.0017477253570919225,0.0004625905689572305,-224.5675778806722,0.0
282,4.637803792953491,-216.67275730810033,26.279315438075407,-152.49366882283496,-273.117103713528,0.0,1.045500780513214,0.1,0.016536235809326172,0.3398149013519287,0.049956243,0.08750296,-216.0565556248792,-2.1052077345043356,-2.167341445829768,0.0,9600,2.2399144172668457,0.0023007578344687025,0.00048457912713855404,-224.0601203979554,0.0
283,4.681567192077637,-213.47993244147833,20.84993088178681,-149.28939295741088,-276.5041127096149,0.0,1.0694772151620786,0.1,0.02867412567138672,0.44201087951660156,0.050397933,0.11001083,-215.7988933065391,-2.073014778970679,-2.1354571913439813,0.0,9600,2.6143202781677246,0.002676267651868425,0.00038889578339373454,-225.8403252320115,0.0
284,4.809463262557983,-211.48615847756875,25.506952501345392,-159.2429575712533,-284.37455294317886,0.0,1.0269346070837686,0.1,0.03411984443664551,0.4075014591217041,0.0497874,0.1022378,-215.36761982364206,-2.0531271086105587,-2.1154752946594577,0.0,9600,3.0123116970062256,0.0017878519153657437,0.0004457122221950543,-224.00215538823062,0.0
285,4.60900354385376,-214.80509368774187,26.421937721746,-160.52466437665888,-269.2891892290489,0.0,1.089415403255934,0.1,0.029081106185913086,0.4159691333770752,0.05002165,0.09324243,-215.31136721005205,-2.0866076702418552,-2.148843009789367,0.0,9600,2.9252166748046875,0.0024570792594308458,0.00044719293699174847,-224.3129445665264,0.0
286,4.494869232177734,-214.23591584801775,24.73406612804073,-165.56281965046682,-279.89871424492765,0.0,1.0539246800098063,0.1,0.018133878707885742,0.43894457817077637,0.049550913,0.09736345,-215.20382207384864,-2.0807128691921686,-2.1430765757407517,0.0,9600,2.4708821773529053,0.001967871962713999,0.00041382479391994067,-226.75554269643862,0.0
287,4.550067901611328,-209.03049429859323,27.110728755972236,-137.095106856367,-287.1272674895447,0.0,1.043198487455614,0.1,0.01250600814819336,0.5068862438201904,0.048691653,0.09916787,-214.5864892963231,-2.028740507786444,-2.0910446267213323,0.0,9600,2.979367971420288,0.002063198377773049,0.0004550614450699907,-225.28628735987755,0.0
288,4.461262941360474,-214.86174805771176,24.265578915630527,-165.6879612338675,-290.4713436540407,0.0,1.0637942866641212,0.1,0.028580188751220703,0.3827016353607178,0.049909323,0.09476507,-214.61401517246196,-2.0869415247562557,-2.149331739180649,0.0,9600,2.7232673168182373,0.0021769003993376626,0.0005078166563099755,-224.40195296332638,0.0
289,4.504405498504639,-213.10150246324784,23.92516024291174,-153.95479582451006,-274.41850594544223,0.0,1.048252363047683,0.1,0.013759374618530273,0.4033694267272949,0.04967712,0.09020665,-214.46276390154054,-2.0696074315328095,-2.131805694844669,0.0,9600,2.1545464992523193,0.002280730821748205,0.0004737811137748145,-223.76773679990646,0.0
290,5.835355281829834,-212.0022362372941,33.87414253678022,-46.47276756025667,-278.9424154970348,0.0,1.2506565603359,0.1,0.029202938079833984,0.3777313232421875,0.05010174,0.090538695,-214.2167111351159,-2.0693323020606313,-2.120704584594875,0.0,9600,2.228574752807617,0.008645132564907705,0.002004665582078138,-222.94160287979372,0.0
291,4.656317710876465,-217.50423101204947,27.11630285760012,-146.3638189006293,-312.06805411643757,0.0,1.1128721526579413,0.1,0.013342618942260742,0.341663122177124,0.050302077,0.08663515,-214.54546312280925,-2.1137539757714645,-2.175694443961826,0.0,9600,2.2018442153930664,0.004598162998246073,0.0006105736193091145,-221.91063661978183,0.0
292,4.665345907211304,-211.16315444815498,27.299217262340225,-145.81105849452157,-275.6286661810692,0.0,1.078230335993011,0.1,0.012140035629272461,0.44495320320129395,0.050009094,0.09309984,-214.20723225534385,-2.050088568145485,-2.1123334459204686,0.0,9600,2.520375967025757,0.0033366219145725216,0.0005665207859677286,-223.11405637203336,0.0
293,4.604736566543579,-211.0783749457506,25.39804361238774,-154.6894228630359,-277.23836108756905,0.0,1.116825561861245,0.1,0.042075395584106445,0.5097517967224121,0.0502316,0.09714673,-213.89434652438453,-2.0496217276150115,-2.11143865432053,0.0,9600,3.2669146060943604,0.0020152928586944807,0.000483089168605025,-222.93081793685042,0.0
294,4.77148175239563,-213.41130938636294,22.590340634623658,-145.5033269470004,-268.81970764735104,0.0,1.0938816990356437,0.1,0.06425929069519043,0.879265546798706,0.049761444,0.09518998,-213.8460428105824,-2.0728546195592727,-2.134839852489314,0.0,9600,2.4691927433013916,0.0021737926373004797,0.00047191647617859033,-223.3124961125534,0.0
295,4.596779108047485,-209.93101498980982,25.98680419569454,-131.42034740463595,-263.27497795049493,0.0,1.047220189669303,0.1,0.041376352310180664,0.6159632205963135,0.04988633,0.09289707,-213.45454002850514,-2.0382209899394534,-2.0999782782229546,0.0,9600,2.435276985168457,0.0025630618732120553,0.0004945035962610605,-225.57618002166416,0.0
296,4.444849729537964,-213.50390239445255,27.629229783468865,-157.4672038736876,-274.1208287811134,0.0,1.0749121598471443,0.1,0.05710411071777344,0.5905442237854004,0.049923174,0.09111903,-213.45947626509988,-2.0739438167869046,-2.135836512026108,0.0,9600,3.629429817199707,0.0021768006621714587,0.0005371667397930888,-226.17049951435018,0.0
297,4.502939462661743,-210.24786288832055,28.143630302676154,-143.2594325741266,-272.3340972681393,0.0,1.1419447556369795,0.1,0.028740882873535156,0.48877787590026855,0.05009284,0.082867034,-213.13831492742193,-2.041295941488735,-2.1031531544977784,0.0,9600,2.263775587081909,0.00277259706959086,0.0005226701224194936,-226.53519873834824,0.0
298,4.4597742557525635,-217.40097302469925,22.83453133488182,-166.3314978792275,-262.2502024087854,0.0,1.0788207048658727,0.1,0.014381647109985352,0.516132116317749,0.049408805,0.09573147,-213.56458073714967,-2.112723299399071,-2.17474042785828,0.0,9600,1.6499204635620117,0.002785401628189339,0.0005152543382240829,-229.84422489173443,0.0
299,4.542803049087524,-215.8993191804635,25.60014323262035,-150.31734845638334,-264.1464051091755,0.0,1.058451600936248,0.1,0.013212442398071289,0.46834826469421387,0.04942621,0.094932124,-213.79805458148104,-2.09800304502594,-2.15990936747721,0.0,9600,1.8799190521240234,0.002362490539846251,0.0005136741738145074,-229.08919581533394,0.0
300,4.526246786117554,-211.94501792729284,23.260606144377487,-152.48079775663817,-270.9610077718107,0.0,1.129580690465231,0.1,0.030324459075927734,0.4530067443847656,0.0502612,0.08718087,-213.61275091606223,-2.0585276530107084,-2.120061511946295,0.0,9600,2.3346240520477295,0.0023668948375510468,0.0005125096790790271,-229.3378109771873,0.0
301,4.695276975631714,-215.56178508234777,33.35542478878027,-9.698397116935904,-263.69152000860953,0.0,1.3647283904369656,0.1,0.04405784606933594,0.4542264938354492,0.049805418,0.084500656,-213.8076543326908,-2.1084325502382604,-2.1564707711100612,0.0,9600,2.69884991645813,0.011322764038517112,0.0018835144146989772,-228.21576299853564,0.0
302,4.65451192855835,-217.14175422863892,27.00959550062477,-145.2288125129278,-288.2800028605082,0.0,1.0986937304341982,0.1,0.01924896240234375,0.4713873863220215,0.049249593,0.08714011,-214.14106432228562,-2.1104701888201367,-2.171973663606471,0.0,9600,3.1207995414733887,0.005015265775387881,0.0007239900450347134,-227.81314948041106,0.0
303,4.642043113708496,-211.34856642143635,26.900773527698366,-159.01219828322505,-286.32528880636534,0.0,1.0303310335498785,0.1,0.01608109474182129,0.4514167308807373,0.04967672,0.100746915,-213.8618145322007,-2.052288426401795,-2.1142003470044095,0.0,9600,2.792555570602417,0.003815446634985587,0.000824289146388003,-228.94680135448536,0.0
304,4.462917804718018,-211.22156364596233,24.76634044826752,-147.17326926697007,-262.735630054367,0.0,1.0802024504380563,0.1,0.03241920471191406,0.48598694801330566,0.050002385,0.092295244,-213.59778944357686,-2.050835795021332,-2.1128616568257814,0.0,9600,2.3363592624664307,0.0027749880781152533,0.0006615581692220931,-227.5329413104219,0.0
305,4.496988534927368,-213.86341982369268,25.53903806954112,-120.85767825890909,-284.1017654259575,0.0,1.0579616468846518,0.1,0.032184600830078125,0.5522873401641846,0.049295977,0.090763934,-213.62435248158843,-2.0798230077304756,-2.1392475869528895,0.0,9600,3.686633825302124,0.0027630846458684345,0.0006593835876722447,-229.4059516575002,0.0
306,4.5685577392578125,-209.97986349372323,28.74787376928224,-147.2557607685346,-275.50550584897434,0.0,1.0554197629352384,0.1,0.028858184814453125,0.4507863521575928,0.050025053,0.09801195,-213.2599035828019,-2.0388567848233308,-2.1004373583217553,0.0,9600,2.675016403198242,0.002154901952826353,0.00047599302420189615,-228.57646458379412,0.0
307,4.40661358833313,-214.40303451954696,28.926128981214035,-144.073574051645,-283.87000057222144,0.0,1.1788049161742762,0.1,0.03229808807373047,0.4552021026611328,0.04969793,0.08693494,-213.3742166764764,-2.0867603129921863,-2.145170268240887,0.0,9600,2.124556541442871,0.0038724735050991404,0.0006457269926106661,-228.75859362075516,0.0
308,4.502590656280518,-211.31145089381093,25.60766855867571,-151.50096110276212,-264.02464457181935,0.0,1.0992604242560946,0.1,0.013621807098388672,0.4059889316558838,0.049455088,0.09731138,-213.16794009820984,-2.053064482881211,-2.11383506608612,0.0,9600,2.2910566329956055,0.0034514067397226514,0.0005747503731020878,-228.78298847320286,0.0
309,4.5409767627716064,-216.55914205377874,32.00943791358185,-105.06931333003926,-302.5857822213328,0.0,1.0818982938466715,0.1,0.028876066207885742,0.6023733615875244,0.050033886,0.097821504,-213.50706029376676,-2.108814109090018,-2.166335861575661,0.0,9600,2.8299660682678223,0.0036076407626066827,0.000640547552190264,-227.28571948724849,0.0
310,4.624524354934692,-212.41209130523853,26.35986385525715,-151.49886716553948,-282.65805626378466,0.0,1.1447617237538519,0.1,0.01511240005493164,0.5441346168518066,0.049641866,0.09058764,-213.39756339491393,-2.063909501961834,-2.124899418655147,0.0,9600,2.140990972518921,0.0026895996319795264,0.0006484615750563576,-228.01947393260303,0.0
311,4.585994243621826,-210.67859029551138,26.919612250745327,-156.19049348535378,-272.431254673316,0.0,1.0934212974355975,0.1,0.029296398162841797,0.4283618927001953,0.04981582,0.1011543,-213.12566608497366,-2.0465881827833643,-2.107689208039956,0.0,9600,2.668325901031494,0.003015988609361133,0.0006485810498922332,-228.66498410816416,0.0
312,4.676753044128418,-211.2081958126323,25.57412715272857,-142.3928741946628,-264.2762949560435,0.0,1.0506204950386926,0.1,0.013158321380615234,0.4393327236175537,0.050040558,0.13588583,-212.93391905773956,-2.0518412090074905,-2.112721976214313,0.0,9600,1.635373592376709,0.0027270905514481065,0.0006398291233706407,-228.0941734856394,0.0
313,4.684544324874878,-210.1498811058633,24.184715907950856,-140.66053001212563,-274.7888417187439,0.0,1.1450716832894203,0.1,0.04666709899902344,0.6721749305725098,0.049926598,0.08434563,-212.65551526255194,-2.041660939497534,-2.1022874824866395,0.0,9600,2.2258496284484863,0.003638646998243861,0.0006932348477731234,-226.85397878435248,0.0
314,4.405777454376221,-211.77307225898107,26.094285332815662,-154.84191145299195,-273.33682299782544,0.0,1.0838620371813246,0.1,0.01817035675048828,0.6980936527252197,0.050017398,0.09334091,-212.56727096219487,-2.057825089468316,-2.11844625151201,0.0,9600,2.880800247192383,0.0021877430961538672,0.0006257098934187599,-228.0035524319387,0.0
315,4.4950501918792725,-214.68264061373387,23.948045791344217,-151.18483429811337,-273.8060809602685,0.0,1.100158315721255,0.1,0.018690109252929688,0.6691594123840332,0.049692024,0.09380871,-212.77880792734877,-2.086933215802006,-2.147569975818094,0.0,9600,2.5408565998077393,0.002651572622112465,0.0006154695131057429,-227.41952187587427,0.0
316,4.513107538223267,-215.32035306694343,26.272994765428408,-154.0495368457753,-271.490002452741,0.0,1.0664183629152575,0.1,0.01814866065979004,0.5092298984527588,0.049703207,0.09259553,-213.03296244130826,-2.0930573545787516,-2.153804294221452,0.0,9600,2.864928960800171,0.002378151173625792,0.0005746723578235104,-227.26104275131877,0.0
317,4.470776557922363,-209.47102716908327,23.572643767287342,-148.08353107333122,-277.53010852235377,0.0,1.0575505738568156,0.1,0.029031753540039062,0.5717158317565918,0.049167704,0.10362963,-212.67676891408576,-2.034996704248771,-2.095468866712038,0.0,9600,2.816680431365967,0.00251917233023995,0.00044929035052366714,-229.87121408935292,0.0
318,4.468552350997925,-206.20688524444634,23.885947045840126,-149.47942649005492,-270.13702290355644,0.0,1.0570543453413248,0.1,0.021453142166137695,0.6462726593017578,0.049820885,0.09788319,-212.02978054712182,-2.002378726501202,-2.0628835196097524,0.0,9600,4.1374592781066895,0.002659183168890192,0.0005741829831369375,-227.81815664710095,0.0
319,4.56661581993103,-214.27904218427273,24.804756692726496,-158.46940768748132,-279.06106154455006,0.0,1.0637015104266394,0.1,0.02911686897277832,0.46796441078186035,0.049769443,0.09031608,-212.2547067108369,-2.0829153295903056,-2.1435387798876206,0.0,9600,3.1117568016052246,0.0025834004857242343,0.0005005444822926945,-227.09991332609866,0.0
320,4.672975063323975,-209.24417883710507,31.157699081924143,-22.932864963019473,-282.4155573175988,0.0,1.16680312273771,0.1,0.013672351837158203,0.4044315814971924,0.049456317,0.1240633,-211.95365392346372,-2.044154904247595,-2.0932015561336628,0.0,9600,2.454254150390625,0.0061744628200704355,0.0016802813080418076,-227.29568779226375,0.0
321,4.552229166030884,-208.3803338674611,24.623231447943173,-153.829561938621,-258.41717266097066,0.0,1.0512808022502516,0.1,0.018016338348388672,0.40953779220581055,0.04973164,0.09821895,-211.59632191786346,-2.023406066917639,-2.084507657613366,0.0,9600,2.4336395263671875,0.003104586691492404,0.0006935155019261859,-230.26242678338403,0.0
322,4.6282618045806885,-210.2739423060856,25.36723709814228,-130.91044220715352,-260.6264361908095,0.0,1.1276730147424106,0.1,0.013557910919189453,0.34993624687194824,0.04980393,0.09246835,-211.4640839566857,-2.0447040609347726,-2.103514844285659,0.0,9600,2.310716390609741,0.003640415942078451,0.0006689688329030182,-228.14295820534608,0.0
323,4.628851413726807,-209.96274644754726,30.8057108386224,-85.33743303813253,-285.85081005928936,0.0,1.1006111914588492,0.1,0.01941084861755371,0.45586442947387695,0.049620964,0.090583354,-211.31395020577185,-2.044368749682199,-2.1004517078442784,0.0,9600,3.1765854358673096,0.004429557485489222,0.0007850337673940232,-228.61708289564191,0.0
324,4.4253246784210205,-215.5635257624771,28.115949683629374,-138.35270566114642,-307.6268489078939,0.0,1.1221174527411624,0.1,0.012579202651977539,0.42760658264160156,0.049919505,0.08888601,-211.7389077614424,-2.0970648999843866,-2.156097773603745,0.0,9600,2.7107832431793213,0.0034310353416419095,0.0006156570000290787,-228.903006716598,0.0
325,4.584107398986816,-210.48666595494774,21.526014958053416,-162.12468606546017,-258.4878257350383,0.0,1.073184529290234,0.1,0.017326831817626953,0.4400770664215088,0.049322814,0.092655875,-211.61368358079292,-2.045312821452308,-2.1056124632028212,0.0,9600,2.004798412322998,0.004059711978060903,0.0006703281688878748,-228.9701139721762,0.0
326,4.474912643432617,-207.86287010141476,24.099323747777746,-146.82912019278336,-254.21119248378045,0.0,1.0924697392495015,0.1,0.016598939895629883,0.3042876720428467,0.049340706,0.10095513,-211.2386022328551,-2.0191267878272474,-2.0794000820783887,0.0,9600,2.058018684387207,0.0024228945720816894,0.0004912445071455848,-227.78630351506433,0.0
327,4.363911867141724,-210.4114420766916,25.034449765899637,-149.90753589717764,-290.1529515031376,0.0,1.1232506628072532,0.1,0.028711795806884766,0.3787558078765869,0.04925466,0.11001312,-211.15588621723876,-2.0452012407441322,-2.104620355210636,0.0,9600,2.3716399669647217,0.0029675987649733604,0.0006269922596855883,-225.26409692068117,0.0
328,4.460511207580566,-215.69334900940547,22.248871284707857,-154.42395576120188,-264.48492593194385,0.0,1.1200190043899447,0.1,0.009583234786987305,0.39424920082092285,0.04973915,0.08357793,-211.60963249645545,-2.0969783807234315,-2.1575485298883232,0.0,9600,2.195817470550537,0.0027227070348833436,0.0004418630085644785,-224.211235975695,0.0
329,4.4639198780059814,-210.15563456638233,22.285858118406473,-158.91387130987303,-266.24534811282496,0.0,1.1031341474421685,0.1,0.045980215072631836,0.6011457443237305,0.050263744,0.09275182,-211.46423270344815,-2.041815616288075,-2.102140365545137,0.0,9600,2.7610652446746826,0.0027299010924188476,0.0005170618193384838,-223.4846705801814,0.0
330,4.420277118682861,-214.20247123254293,24.75916410348834,-149.97627979222216,-281.3327974809773,0.0,1.101359083386451,0.1,0.02892279624938965,0.6338763236999512,0.050075136,0.09678429,-211.73805655635763,-2.0816906709125638,-2.14263228963931,0.0,9600,2.4930191040039062,0.002846932356669888,0.000615867283923713,-223.06475443504533,0.0
331,4.733963251113892,-207.7607313503855,28.49899436548447,-121.56977110998135,-269.59572218666153,0.0,1.1439979083094363,0.1,0.03256678581237793,0.5316221714019775,0.049699236,0.08666405,-211.34032403576043,-2.022512653200631,-2.0783265282918095,0.0,9600,3.0415353775024414,0.004089432629359697,0.0006824183275127432,-222.27489604377564,0.0
332,4.581294536590576,-207.8016175577978,23.907251085619357,-161.81967552629595,-271.6810227010529,0.0,1.0436065934362886,0.1,0.014251708984375,0.3568406105041504,0.049974497,0.098666005,-210.98645338796416,-2.018665571488272,-2.0789015067434833,0.0,9600,2.223642110824585,0.0029899204128384337,0.0005277395078648918,-223.66908247289894,0.0
333,4.803166389465332,-208.43438204348908,24.16764859388351,-155.1595494374199,-259.21750411251554,0.0,1.0908920874583712,0.1,0.04180645942687988,0.43304443359375,0.0496292,0.09444839,-210.73124625351664,-2.0246775329846067,-2.085032994941253,0.0,9600,2.1915123462677,0.003322424896392074,0.0005602527316675906,-222.64900768227105,0.0
334,4.5870583057403564,-208.41367768446366,26.766203387783783,-137.6687006736807,-283.0300279699527,0.0,1.0546348491547715,0.1,0.013501644134521484,0.3416783809661865,0.04972523,0.09437206,-210.49948939661135,-2.0248492299656875,-2.084874122351471,0.0,9600,1.8874337673187256,0.002768719470862114,0.0006050496913576409,-220.1984911473673,0.0
335,4.512131690979004,-211.83927142570374,27.177529029636865,-140.0444405759888,-285.569025637001,0.0,1.1041835240969418,0.1,0.022584199905395508,0.33249330520629883,0.049537648,0.088593766,-210.6334675995206,-2.0588579630257566,-2.119156237673579,0.0,9600,3.1173410415649414,0.002516035821623517,0.0005026497053295239,-219.28160696850807,0.0
336,4.532760858535767,-211.41947255082084,26.678467927739757,-72.18252002014162,-256.45784660264445,0.0,1.1695681418029793,0.1,0.022201061248779297,0.44569897651672363,0.049730703,0.08973731,-210.71206809465065,-2.061344556233631,-2.114815933964322,0.0,9600,2.167168617248535,0.0045190567868882035,0.0008262187405250591,-217.74363450683572,0.0
337,4.442452430725098,-208.14873564321263,28.78343324177131,-97.28733320760368,-286.3690084631803,0.0,1.0979792097301282,0.1,0.018764257431030273,0.4352865219116211,0.05019114,0.08961426,-210.45573484950685,-2.025852216060032,-2.0821539773894737,0.0,9600,1.7445902824401855,0.003984211901578971,0.0006646548628952827,-217.54692556915182,0.0
338,4.478900909423828,-204.34281658338355,25.29876218686633,-149.7373958653551,-278.5077829344569,0.0,1.0941282684317999,0.1,0.03252601623535156,0.47374963760375977,0.049841534,0.09459507,-209.84444302289452,-1.9845380672019381,-2.0441735591697388,0.0,9600,2.7605345249176025,0.0029435800444622506,0.0006978382507554269,-218.98993554943291,0.0
339,4.5082480907440186,-209.07631664428087,23.05554923207885,-166.1658297654065,-272.20142739574203,0.0,1.0389955170316083,0.1,0.04418373107910156,0.4801757335662842,0.049609784,0.09966734,-209.76763038503316,-2.0311370831652065,-2.0913629548589787,0.0,9600,2.402618408203125,0.0024680887246274407,0.0006444078581706471,-218.77184209575472,0.0
340,4.7265305519104,-212.24070410992553,26.391946432431364,-150.26801444021154,-266.9345783838228,0.0,1.1068153758971548,0.1,0.010236740112304688,0.3593149185180664,0.049484078,0.08375054,-210.01493775752238,-2.0627437407400735,-2.1230163079705684,0.0,9600,2.227856159210205,0.0037688698727874914,0.0006833072228843675,-219.80837266803695,0.0
341,4.556958913803101,-205.40545725888103,24.653481314240427,-150.84662790758995,-263.77584353847624,0.0,1.1221125050788083,0.1,0.01050877571105957,0.3575270175933838,0.049446754,0.08978603,-209.55398970765825,-1.9950480725959487,-2.054816838206057,0.0,9600,2.137197256088257,0.003202743503767167,0.0006647219222645353,-217.92789339302684,0.0
342,4.710402488708496,-206.95877204908925,24.24078344540173,-153.7920716513547,-266.0991388389489,0.0,1.1424706310374684,0.1,0.054517269134521484,0.8725457191467285,0.049212176,0.08896212,-209.29446794180134,-2.010759817985754,-2.070346880176969,0.0,9600,2.4387717247009277,0.004046335101964661,0.0006392096938187688,-219.42397698362998,0.0
343,4.704862356185913,-210.25883881526605,25.67825553872736,-135.86489802801756,-268.46583331888365,0.0,1.0552325842631836,0.1,0.04233217239379883,0.7286202907562256,0.049858905,0.09256794,-209.3909050291478,-2.043551689179617,-2.103317369788506,0.0,9600,2.897615909576416,0.00250870786936855,0.0006482653633957626,-218.83621542289245,0.0
344,4.414396286010742,-206.23812340447503,26.977229471783907,-111.19847256764795,-281.61982988818266,0.0,1.0846047970493342,0.1,0.013581037521362305,0.4607546329498291,0.049976785,0.08871894,-209.07562686668052,-2.005967314649316,-2.0632010394897535,0.0,9600,2.2035958766937256,0.0031933649756885046,0.0006289771583087542,-218.45946620098522,0.0
345,4.4217963218688965,-212.9241301421811,24.98793234274888,-134.37657503733752,-271.42939263367487,0.0,1.071969440122129,0.1,0.012415647506713867,0.4262540340423584,0.049858894,0.09809058,-209.46047719423058,-2.071575769823189,-2.1299115820086425,0.0,9600,1.7305006980895996,0.0029371786667944143,0.0005485917026758329,-216.3528452408038,0.0
346,4.481153249740601,-211.8696178191868,24.568677781414163,-159.52328972660635,-265.4019382980351,0.0,1.0767381348449385,0.1,0.022530317306518555,0.46590495109558105,0.05013302,0.09771498,-209.7013912567262,-2.0593625214951756,-2.1194263000689113,0.0,9600,2.189756155014038,0.0025923982655485394,0.0005608684363508802,-217.25042589339822,0.0
347,4.475796937942505,-212.2791460661281,23.97620485324983,-154.29397855059614,-272.7686469897058,0.0,1.1439457627022573,0.1,0.012496232986450195,0.4088780879974365,0.05045199,0.08384237,-209.9591667376664,-2.0632111351001243,-2.123586237139546,0.0,9600,2.065176010131836,0.003579933502418003,0.0005798399653474152,-217.2899044657436,0.0
348,4.464020729064941,-206.39618301159462,27.48290582441123,-136.18484733327324,-264.9075112240761,0.0,1.0583265646568651,0.1,0.02881622314453125,0.37618207931518555,0.049936954,0.09521113,-209.60286836505924,-2.006202037885514,-2.0653170986022746,0.0,9600,2.6174376010894775,0.002856084340596513,0.0005382740988879431,-218.57055251284288,0.0
