iteration,time_sampling,stoc_pol_mean,stoc_pol_std,stoc_pol_max,stoc_pol_min,rollout_success,alpha,delta,time_vpg,time_npg,kl_dist,surr_improvement,running_score,rwd_sparse,rwd_dense,success_percentage,num_samples,time_VF,VF_error_before,VF_error_after,eval_score,eval_success
0,1.87070631980896,-24.57587937599712,13.319759918766287,16.136125764850732,-67.17632065766043,0.0,3.308533290747845,0.1,0.027718305587768555,0.3932957649230957,0.050614595,0.029322257,-24.57587937599712,-0.2237855766854213,-0.23514085141056926,0.0,9224,0.6897635459899902,0.9926986414755711,0.38440505085455684,-22.38333168166898,0.0
1,1.6768467426300049,-21.34366872549627,14.56888438176199,29.699842862532673,-65.44499497994579,0.0,3.4283965358604105,0.1,0.010298490524291992,0.21491765975952148,0.056984603,0.029786352,-24.252658310947034,-0.1913849141583018,-0.20283079412352714,0.0,9273,0.8785042762756348,0.5222745949949377,0.40940120928417995,-10.80374581611154,0.0
2,1.9868378639221191,-10.815742541478954,22.298703923358055,172.4784683210265,-69.54069700303832,0.0,4.335222953587971,0.1,0.01523733139038086,0.2533433437347412,0.050472766,0.026669292,-22.908966734000227,-0.13174299661580255,-0.10807830627574384,0.0,9580,0.9462518692016602,0.9294438370727705,0.8072334071823534,-10.015073046793352,0.0
3,1.7707583904266357,-7.970420849873162,18.545527794059286,82.9572646588731,-62.204530301650905,0.0,3.740647799958709,0.1,0.010474681854248047,0.22237491607666016,0.049215022,0.027753022,-21.41511214558752,-0.11936263051136022,-0.07962236613701373,0.0,9541,0.9396927356719971,0.8647425357164704,0.8322554025822455,3.492751139308062,6.25
4,1.7963478565216064,-10.437331491663656,14.625675395237817,70.9249061682451,-74.357662917529,0.0,3.978339245085636,0.1,0.01014852523803711,0.22984933853149414,0.053167153,0.025447438,-20.317334080195135,-0.12532642385959092,-0.10429031755920393,0.0,9586,1.0506346225738525,0.7038459432641171,0.6735722716275803,-19.042250754018283,0.0
5,1.8464937210083008,-6.621723781892005,21.421632789195314,159.387038565863,-28.41671553784833,0.0,3.9991757437932005,0.1,0.011665105819702148,0.22595643997192383,0.051370263,0.026820846,-18.947773050364823,-0.11282644042589345,-0.06615977375922677,0.0,9600,1.2085332870483398,0.9369411196526665,0.9128804701399339,-18.956875575879554,0.0
6,1.948925256729126,-6.679556541034561,19.276674149758495,120.33553991564301,-21.13558613448466,0.0,3.696838560009742,0.1,0.0106201171875,0.21755170822143555,0.046456676,0.02938581,-17.720951399431797,-0.11173129352175877,-0.06673129352175877,0.0,9600,1.2347288131713867,0.9090092627368435,0.8833064554313111,-9.922894361393833,0.0
7,1.784121036529541,-6.2887672891277395,25.49510524359536,130.53577123804934,-55.07123429955915,1.0416666666666667,4.139660453253523,0.1,0.01154947280883789,0.23607826232910156,0.052646868,0.027287226,-16.577732988401394,-0.11339949750869975,-0.06280042879579321,1.0416666666666667,9570,1.3938558101654053,0.9564181389459061,0.9217982380087116,-15.332445981239488,0.0
8,1.7893881797790527,-5.062813932565885,21.46437488932734,140.26385500545373,-18.21316670588502,0.0,3.5790236296658144,0.1,0.010307550430297852,0.2037045955657959,0.051370457,0.030744929,-15.426241082817842,-0.10223764699319919,-0.050570980326532546,0.0,9600,1.2619073390960693,1.0081867246498268,0.9079773388366289,-8.956939407428955,0.0
9,1.790048360824585,-3.5116303972655936,26.185342676763696,180.65776115040944,-28.88343254636146,1.0416666666666667,4.138889979630681,0.1,0.017859935760498047,0.21854257583618164,0.053925846,0.025058946,-14.234780014262618,-0.10378477214008651,-0.0350347721400865,1.0416666666666667,9600,1.2794198989868164,0.9786841895480762,0.9438193514758279,-4.772660834769957,0.0
10,1.8190762996673584,-3.1672139726743818,28.24324152837771,198.7969636364222,-31.43931746047323,1.0416666666666667,4.532256745536161,0.1,0.009882926940917969,0.19937443733215332,0.050997484,0.021181101,-13.128023410103795,-0.10493523756310126,-0.031601904229767906,1.0416666666666667,9600,1.280247449874878,0.9454669681382697,0.9302523362634642,35.15725925217876,6.25
11,1.7875924110412598,6.470769479917916,62.84900645929817,521.285830771792,-18.83811994889493,4.166666666666667,4.415225109369344,0.1,0.009788036346435547,0.2008225917816162,0.05011409,0.025248108,-11.168144121101625,-0.08941747002132856,0.06474919664533811,4.166666666666667,9600,1.2871274948120117,1.000372765780261,0.9632979576021063,17.397575752314197,6.25
12,1.9029278755187988,-7.104426791807505,15.744211318574502,111.68670884241268,-27.653607199223195,0.0,2.947657957257475,0.1,0.009130239486694336,0.20203638076782227,0.05144337,0.03663257,-10.761772388172213,-0.10014419399395169,-0.07097752732728503,0.0,9600,1.3234126567840576,1.5121846664214607,0.815222724551615,36.204965196140115,6.25
13,1.785210132598877,-7.019238734208156,14.029990794928818,94.69841083438222,-20.66141632114759,0.0,3.267457157088645,0.1,0.00958108901977539,0.1941072940826416,0.052265562,0.037351757,-10.387519022775807,-0.10093792589133722,-0.07010459255800389,0.0,9600,1.3185288906097412,0.8270242334238136,0.8088184935564117,14.541857377761243,6.25
14,1.7904820442199707,-3.272129192755179,27.14332662682067,164.43494985443277,-16.299661376672315,2.0833333333333335,3.6364421289523374,0.1,0.009588241577148438,0.2042696475982666,0.052577868,0.044366393,-9.675980039773744,-0.0984990807497005,-0.03266574741636716,2.0833333333333335,9600,1.3475797176361084,0.9603987297320704,0.9450950890808932,37.813057276988566,6.25
15,1.7857539653778076,-3.5168666082710853,21.19150497210627,135.44683800363572,-18.892913174167102,1.0416666666666667,4.026527373857169,0.1,0.009401321411132812,0.20400333404541016,0.051096603,0.028555013,-9.060068696623478,-0.09467242132144511,-0.03550575465477844,1.0416666666666667,9600,1.3597874641418457,0.9475419293152048,0.9087457242415471,14.96301342281749,0.0
16,1.8371312618255615,-1.725799398580951,34.6863887029317,260.531602132417,-23.73703861018956,2.0833333333333335,4.332829366514002,0.1,0.009744882583618164,0.19957518577575684,0.051484905,0.027283134,-8.326641766819225,-0.09845586724662247,-0.017205867246622483,2.0833333333333335,9600,1.3915154933929443,0.9788008501925468,0.9604380339874841,36.89043182637371,6.25
17,1.8619914054870605,-0.7211859557462744,29.86814397832008,220.56678608367295,-16.174469944538284,0.0,3.748849675001629,0.1,0.009017467498779297,0.1951732635498047,0.04986218,0.029061133,-7.56609618571193,-0.08592224635126751,-0.0075889130179341985,0.0,9600,1.4178082942962646,0.9482279425334112,0.9312436844470547,62.700406583926295,12.5
18,1.8150372505187988,5.5013672346599165,54.61366757600739,377.05653037375,-14.618779293526039,3.125,4.275166026616449,0.1,0.010564565658569336,0.21824908256530762,0.05326129,0.024822108,-6.259349843674746,-0.08828739927749747,0.05421260072250254,3.125,9600,1.4570364952087402,0.97975717115104,0.9222199392140936,14.406168626596378,6.25
19,2.037407636642456,1.8656055215035832,38.62892101741296,236.4908643222112,-15.492028240467091,2.0833333333333335,4.630027918940379,0.1,0.01024770736694336,0.2093641757965088,0.049980182,0.020893173,-5.446854307156913,-0.08588876691734466,0.01827789974932201,2.0833333333333335,9600,1.3546555042266846,0.9316326119799868,0.9212163911708534,6.879017252206364,6.25
20,1.8018879890441895,-1.6001012159379604,25.344043581843323,163.39409739170137,-14.00163016510774,1.0416666666666667,3.575952041716248,0.1,0.011455059051513672,0.21596693992614746,0.052562587,0.0278638,-5.0621789980350185,-0.08846112631198834,-0.015961126311988337,1.0416666666666667,9600,1.3299880027770996,1.020234677442171,0.9279347966374959,-3.374331126633898,0.0
21,1.82193922996521,-1.9694774675188682,23.670476620183745,152.4344657197401,-14.34823246952491,0.0,4.238552545686195,0.1,0.010925531387329102,0.2205815315246582,0.047669288,0.025057526,-4.752908844983404,-0.08088684999860123,-0.019636849998601238,0.0,9600,1.3110933303833008,0.9459432734417468,0.9306100447276239,-6.100396996103408,0.0
22,1.823026180267334,2.336671577489185,46.38257112644297,328.96296882794735,-15.667911840738864,3.125,4.698900375206569,0.1,0.01359701156616211,0.22890210151672363,0.04196249,0.021062639,-4.043950802736145,-0.08824106092898254,0.02342560573768415,3.125,9600,1.2341530323028564,0.961296323766663,0.924804549349578,39.10874403833459,6.25
23,1.788064956665039,4.286591729231708,38.60972662128507,225.1802283866885,-15.060683801281273,2.0833333333333335,4.056701217029654,0.1,0.010387659072875977,0.2105565071105957,0.05468268,0.026878428,-3.2108965495393593,-0.08707736776495105,0.04292263223504896,2.0833333333333335,9600,1.262303113937378,0.9300867138833608,0.8870893932204698,-3.4990946355377606,0.0
24,1.8062341213226318,2.0129307621466555,42.52285868319902,328.99510769237844,-14.660014794312495,2.0833333333333335,4.262519076437061,0.1,0.009215593338012695,0.2113969326019287,0.05379341,0.025323309,-2.688513818370758,-0.08107464569880586,0.020175354301194128,2.0833333333333335,9600,1.2477569580078125,0.9681674158839954,0.9285673481014819,-10.176947544461914,0.0
25,1.9045376777648926,-3.4721197014896528,16.19507378171283,71.84165497602633,-15.28401317099048,0.0,3.9624381093783163,0.1,0.010157346725463867,0.2081141471862793,0.049363405,0.027090156,-2.7668744066826476,-0.08509158488817677,-0.03509158488817677,0.0,9600,1.255619764328003,0.9933954585945014,0.828901704468979,-7.76356718230657,0.0
26,1.8088667392730713,7.047378374615756,38.01586669385161,192.67246796614907,-14.62082189388978,2.0833333333333335,3.9250539834342235,0.1,0.009646892547607422,0.2059338092803955,0.051812984,0.029249739,-1.785449128552807,-0.07824410761919152,0.07050589238080848,2.0833333333333335,9600,1.2315051555633545,0.9257848134052027,0.8481045812249122,-6.411470981154062,0.0
27,1.8419654369354248,4.362575901428264,39.35643987433064,257.0895977640317,-13.813364183564964,3.125,3.93049278700245,0.1,0.009786367416381836,0.20145368576049805,0.04828498,0.029694125,-1.1706466255546997,-0.07633638453802377,0.043663615461976245,3.125,9600,1.2341606616973877,0.9110260835434504,0.8711358517611889,-7.557779716926897,0.0
28,1.8199045658111572,6.9959922025473675,41.17628635071068,248.91463549850977,-15.598642376826641,2.0833333333333335,3.9028848039214465,0.1,0.009742498397827148,0.20192956924438477,0.049901042,0.030021477,-0.35398274274449304,-0.08208313420850448,0.07000019912482884,2.0833333333333335,9600,1.2481718063354492,0.870316506901417,0.7989157766427475,-6.273372276660448,0.0
29,1.8294010162353516,-0.7318596960028788,23.304519757821907,120.35015240409726,-15.282162321637,2.0833333333333335,3.628756087062743,0.1,0.009418487548828125,0.19694948196411133,0.05097579,0.030891296,-0.39177043807033163,-0.08228884187868533,-0.0072888418786853275,2.0833333333333335,9600,1.2252776622772217,1.1033067449574627,0.7666481407674075,-4.676099587243213,0.0
30,1.8326799869537354,3.057454722383685,32.58872579015345,212.9420972953524,-19.415001899561663,0.0,3.8974541960731486,0.1,0.009467840194702148,0.20090079307556152,0.054221854,0.026344202,-0.04684792202492993,-0.07813686907264705,0.030613130927352947,0.0,9600,1.2921032905578613,0.8797443089744211,0.8089155511861893,-6.650113331284717,0.0
31,1.8140785694122314,14.916824905760976,55.89388840895219,268.2959687213854,-24.908011483794382,2.0833333333333335,3.8695629921099557,0.1,0.011982440948486328,0.2043919563293457,0.05261076,0.027611038,1.4495193607536607,-0.07995230170851193,0.14838103162482139,2.0833333333333335,9600,1.3008649349212646,0.8314995796988026,0.7144299868734417,-7.259721465767628,0.0
32,2.0477843284606934,12.888255762248576,48.94796583862644,261.01329915776546,-14.546680975610764,3.125,4.322389459800822,0.1,0.009697437286376953,0.2159898281097412,0.049916446,0.022875328,2.5933930009031525,-0.07733679042429926,0.12891320957570074,3.125,9600,1.3466556072235107,0.7470016811145868,0.7165823221954122,-5.6057480151561325,0.0
33,1.7416627407073975,10.282755863172804,42.33428825736496,208.87526740226397,-16.08096783802346,1.0416666666666667,3.637548144934407,0.1,0.008907556533813477,0.19382357597351074,0.04923171,0.02521367,3.362329287130118,-0.07670601578130394,0.10287731755202943,1.0416666666666667,9600,1.3355462551116943,0.7173585117746021,0.6303852947983333,31.601624607797675,6.25
34,1.7990660667419434,5.0747912233836505,37.63173176485473,257.1832708612547,-15.729825053170863,1.0416666666666667,3.9232275013256808,0.1,0.009981870651245117,0.20715022087097168,0.04736248,0.029499177,3.5335754807554713,-0.07837251995914944,0.050794146707517224,1.0416666666666667,9600,1.3543567657470703,0.8342131290307184,0.7235178703823939,-7.664029982757212,0.0
35,1.8113481998443604,11.479159148692522,55.74319320230716,288.85158475748574,-15.218259255414353,4.166666666666667,5.016573315503604,0.1,0.009837865829467773,0.21419644355773926,0.05262138,0.019754259,4.328133847549177,-0.07973508498563729,0.11401491501436271,4.166666666666667,9600,1.3921880722045898,0.8041087453895404,0.7130805374756427,-7.651436437740358,0.0
36,1.8166582584381104,16.093673812543102,74.27868453942217,453.32659600471067,-14.745732036212072,4.166666666666667,4.758244408740937,0.1,0.010374069213867188,0.21001362800598145,0.05213525,0.020601518,5.504687844048569,-0.0773634354415341,0.16055323122513257,4.166666666666667,9600,1.3509008884429932,0.7802183551308186,0.755357607365306,-8.40340663071175,0.0
37,1.79780912399292,8.1740825436731,44.72495932593473,236.1096754698727,-13.743402809090714,2.0833333333333335,4.71820745081232,0.1,0.010146141052246094,0.21863389015197754,0.046333514,0.022407219,5.771627314011022,-0.07115217639883996,0.08176449026782671,2.0833333333333335,9600,1.3543436527252197,0.8114995946387668,0.722660632859019,-8.635641077889483,0.0
38,1.9304850101470947,9.82327189025213,52.84795769482728,284.3004900974912,-15.138871336066249,4.166666666666667,4.624181210567024,0.1,0.011941909790039062,0.2159736156463623,0.055116933,0.020990934,6.176791771635133,-0.07964874468054216,0.09785125531945782,4.166666666666667,9600,1.297529935836792,0.7878628609003044,0.7213783864929146,-9.245098209603096,0.0
39,1.7747015953063965,10.831545606879471,44.98079432896626,192.40333010192865,-15.161383629500154,3.125,3.479375853889465,0.1,0.010265111923217773,0.21120691299438477,0.05071821,0.031210238,6.642267155159567,-0.07415060744346934,0.10834939255653066,3.125,9600,1.26169753074646,0.7375463500938549,0.6792741490538868,-9.909203557600742,0.0
40,1.8201320171356201,17.851771580272196,60.98067111601724,319.48980504593794,-15.09805750411815,4.166666666666667,4.70894572963591,0.1,0.010256767272949219,0.21488451957702637,0.05104328,0.022449583,7.76321759767083,-0.06643526320026859,0.17856473679973142,4.166666666666667,9600,1.2892119884490967,0.7969487308806134,0.7207418829723092,-9.35084793692386,0.0
41,1.7815406322479248,11.047839534327503,53.63258274782819,300.7975990478783,-16.481610907611422,2.0833333333333335,4.189548166282092,0.1,0.009972572326660156,0.2107234001159668,0.056453697,0.025256338,8.091679791336498,-0.07781009074608729,0.11052324258724604,2.0833333333333335,9600,1.256270170211792,0.855996681128725,0.7279460596742816,-9.736909329407593,0.0
42,1.7882440090179443,26.520107850968085,67.74683538785555,273.3270675729664,-20.75998855807077,6.25,3.6688229143299163,0.1,0.009711980819702148,0.21259379386901855,0.05172877,0.02950367,9.934522597299658,-0.07853209614796648,0.26438457051870023,6.25,9600,1.2481913566589355,0.6197843824319291,0.4932179675923559,-8.702680897454599,0.0
43,1.7968719005584717,14.51920830701531,51.0066058511503,216.53554759949023,-15.809619324970036,4.166666666666667,3.748164266937825,0.1,0.013459444046020508,0.21691226959228516,0.047949545,0.02906309,10.392991168271223,-0.07187654353809249,0.14520678979524085,4.166666666666667,9600,1.2244477272033691,0.9400989466508933,0.7029638575508926,-7.118083237971371,0.0
44,1.8961389064788818,14.213123617713256,54.324698037549844,293.0631125123365,-14.61922739149585,5.208333333333333,3.711676560305923,0.1,0.009751081466674805,0.20512914657592773,0.05169842,0.03062765,10.775004413215427,-0.07490729659950479,0.1417593700671619,5.208333333333333,9600,1.2140564918518066,0.720849304592065,0.66163684753792,-7.812997395207725,0.0
45,2.0310399532318115,14.846215736102215,60.33683047263578,337.46401776799206,-16.97105201940586,4.166666666666667,4.431690679492531,0.1,0.009258747100830078,0.19571232795715332,0.05277893,0.025403507,11.182125545504107,-0.0773322627551682,0.1485010705781651,4.166666666666667,9600,1.204371452331543,0.6770518353399438,0.6024178578635071,-4.940992051252173,0.0
46,1.8140206336975098,14.705857737097643,55.922024434427435,297.1720834106432,-15.380777673151487,5.208333333333333,3.8855664071850855,0.1,0.009798049926757812,0.20062923431396484,0.051554613,0.027416533,11.53449876466346,-0.07831362899601553,0.14710303767065114,5.208333333333333,9600,1.2451131343841553,0.7833451131850218,0.6392356651834442,16.748129561168913,0.0
47,1.8049499988555908,17.316075695034865,65.38248092602136,308.98640169960635,-15.828213937118132,6.25,3.8622010108031413,0.1,0.009465217590332031,0.21044301986694336,0.049398836,0.028609542,12.112656457700602,-0.08013368872359548,0.17319964460973789,6.25,9600,1.2215614318847656,0.7377755827414898,0.6898932232174328,8.601432287692845,6.25
48,1.7731025218963623,29.312676374018384,79.33830788786972,341.278986415736,-14.707399051734575,5.208333333333333,3.5839894256717986,0.1,0.00960397720336914,0.19806265830993652,0.050161656,0.02772749,13.83265844933238,-0.0735073849080339,0.29274261509196614,5.208333333333333,9600,1.1921405792236328,0.713664503304224,0.6411145424316126,11.61714285430673,6.25
49,1.7496850490570068,34.60738958579501,96.38863544267146,449.68325267924314,-15.387335389365251,5.208333333333333,3.9095143732656235,0.1,0.008905649185180664,0.19159293174743652,0.050896756,0.025178937,15.910131562978643,-0.07139741677767518,0.3461025832223248,5.208333333333333,9600,1.228553056716919,0.6668245281575952,0.618430212475273,-3.126432365861033,0.0
50,1.781930923461914,8.578204590194103,46.88907109123561,257.02148700798057,-18.06242484184704,2.0833333333333335,3.865697307979773,0.1,0.009708881378173828,0.20048284530639648,0.050835706,0.0262738,15.17693886570019,-0.07626701750067151,0.08539964916599514,2.0833333333333335,9600,1.2355077266693115,0.9825871277837873,0.6703224057126925,-5.483097556357055,0.0
51,2.0028512477874756,20.282519950128066,61.51739954502582,305.2159368103894,-14.265121251765585,6.25,3.9332364066342245,0.1,0.009261131286621094,0.20705413818359375,0.049330927,0.026743526,15.687496974142979,-0.0700619560840502,0.20243804391594977,6.25,9600,1.2957031726837158,0.7766220043040057,0.5841171563959672,-3.973769246169562,0.0
52,1.8148882389068604,26.56232162916058,74.84571280161117,353.535139160295,-13.25894550333479,4.166666666666667,3.701102499577895,0.1,0.009320259094238281,0.21381902694702148,0.053692456,0.028712448,16.77497943964474,-0.0660224685081829,0.2656441981584837,4.166666666666667,9600,1.3222427368164062,0.624238622610213,0.5910638388796163,15.30372056480266,6.25
53,1.837813138961792,24.2702861640996,84.50270067658319,597.9310389990343,-14.509513837193078,8.333333333333334,4.29332466763003,0.1,0.01132059097290039,0.22110962867736816,0.048345376,0.025854783,17.524510112090226,-0.07352833995416114,0.24272166004583892,8.333333333333334,9600,1.314789056777954,0.7398045053473925,0.6415025759958556,46.96722129756779,6.25
54,1.8549220561981201,21.557859084983722,76.22088123606046,449.7281146585314,-14.086803633122544,6.25,3.7702732643318297,0.1,0.009777545928955078,0.20058441162109375,0.05184577,0.028612178,17.927845009379578,-0.07146265826542618,0.21562067506790714,6.25,9600,1.3564577102661133,0.6680264067065705,0.6250637321995282,14.468644836186705,0.0
55,1.8528902530670166,24.69999198328705,69.85758870993766,297.0989923621696,-15.499293725060312,3.125,3.6769613727407435,0.1,0.008859395980834961,0.20693731307983398,0.049826697,0.025505455,18.605059706770323,-0.06671073424941261,0.2470392657505874,3.125,9600,1.369840145111084,0.6117348599116318,0.5713906309573789,34.560880170108256,6.25
56,1.8046190738677979,22.78292374320564,70.46113382525596,333.03175847544554,-13.50005978409367,6.25,3.8389680821235057,0.1,0.009873390197753906,0.21209287643432617,0.05068236,0.03095915,19.022846110413855,-0.07005634009383029,0.22786032657283636,6.25,9600,1.3550446033477783,0.6413202997888592,0.5817558221209334,19.802841436703574,6.25
57,1.9034595489501953,23.49712955615195,80.51246970592807,602.0412346829502,-13.216101753719462,6.25,4.258557069774108,0.1,0.009690999984741211,0.22223162651062012,0.047644306,0.026714196,19.470274454987667,-0.06543434144135925,0.23373232522530743,6.25,9600,1.3497962951660156,0.732363546871823,0.6815633603954442,-0.3959647533237911,0.0
58,1.8071515560150146,23.134580972723317,58.88981877001799,289.1239050806105,-14.687280346656268,4.166666666666667,4.695996593552594,0.1,0.009984493255615234,0.21195197105407715,0.055924684,0.020959333,19.836705106761233,-0.06823213643944175,0.23051786356055823,4.166666666666667,9600,1.4002151489257812,0.6062972964718968,0.48449410617615823,36.26779054098792,6.25
59,1.8422126770019531,20.42824270129705,69.19015743578986,401.9483462180799,-14.509994869185647,5.208333333333333,5.1349357259982815,0.1,0.007955312728881836,0.20354557037353516,0.05402306,0.018957347,19.895858866214816,-0.06652034252171683,0.2043129908116165,5.208333333333333,9600,1.3421201705932617,0.6911815663780561,0.6339555680563193,36.73886793081841,6.25
60,1.8536350727081299,24.352901062843753,68.77078548912301,289.37616742817886,-14.236632953746243,7.291666666666667,4.426489291982489,0.1,0.009822845458984375,0.21579647064208984,0.045017015,0.023360977,20.34156308587771,-0.06768366047517892,0.243566339524821,7.291666666666667,9600,1.3235292434692383,0.5980454982268026,0.5248019474126728,43.6878746945725,6.25
61,1.7955131530761719,32.09518009498132,90.02498330904504,485.8124082314118,-13.434730119992194,6.25,4.763489154580093,0.1,0.009771585464477539,0.21622991561889648,0.047970288,0.023034956,21.51692478678807,-0.06611483803535778,0.32096849529797555,6.25,9600,1.3228378295898438,0.677625872335221,0.6047209673844082,26.193190348540856,0.0
62,1.7959485054016113,27.893689316940065,71.10139839647334,276.9445253168428,-12.657658381051256,4.166666666666667,4.173279888259197,0.1,0.00967717170715332,0.21352267265319824,0.05109329,0.023436379,22.15460123980327,-0.06643701014965471,0.27897965651701195,4.166666666666667,9600,1.295640468597412,0.49013508524271127,0.4413212141548172,-0.9365392707082019,0.0
63,1.8013291358947754,16.113248159550317,50.634472544410585,204.58531264886773,-13.944243164212875,5.208333333333333,6.016924425457967,0.1,0.009841680526733398,0.21244263648986816,0.051621743,0.016604757,21.55046593177798,-0.06676237966597413,0.16115428700069254,5.208333333333333,9600,1.2610549926757812,0.5567868546204903,0.4120907470237711,38.978682626208084,6.25
64,1.9785325527191162,34.990514711191786,92.5821557738626,642.4121845475112,-14.334738637130153,4.166666666666667,4.187085699697985,0.1,0.009851694107055664,0.20904159545898438,0.049136773,0.026276784,22.89447080971936,-0.06423658275994991,0.34993008390671676,4.166666666666667,9600,1.2601275444030762,0.6984312079912534,0.5643965245851172,55.31667488273341,6.25
65,1.7638871669769287,18.998643287962118,60.92754056432972,297.2478206524631,-13.852909817727365,2.0833333333333335,3.912574283884849,0.1,0.009911298751831055,0.202897310256958,0.049203783,0.025708046,22.504888057543635,-0.06540280938429256,0.18959719061570746,2.0833333333333335,9600,1.286689043045044,0.6629405258302197,0.48731966420048467,30.00609938171776,6.25
66,1.8055307865142822,48.43384271118828,94.29611948498577,353.3859682075692,-15.122045217798515,7.291666666666667,3.9080938357380965,0.1,0.010261058807373047,0.21263337135314941,0.050301295,0.025826395,25.097783522908102,-0.06272462206627417,0.48435871126705915,7.291666666666667,9600,1.248755693435669,0.4855418657358167,0.37238475888095907,64.41996985768193,6.25
67,2.1506028175354004,54.15681236711123,122.0585273342039,477.9094385619583,-15.553671428316429,13.541666666666666,4.579730649456224,0.1,0.010567188262939453,0.21051311492919922,0.04448253,0.018943528,28.003686407328416,-0.06508568728226806,0.5411643127177319,13.541666666666666,9600,1.2313826084136963,0.5092922961133937,0.40772359752466664,33.618653726211946,6.25
68,1.8175437450408936,30.719463058078674,87.22306174388633,449.59472741496944,-15.394722632658494,7.291666666666667,3.68458515547421,0.1,0.009186983108520508,0.19936180114746094,0.048604295,0.026421448,28.27526407240344,-0.06528495284265258,0.30679838049068076,7.291666666666667,9600,1.2192282676696777,0.590717592585107,0.46923014675281527,44.972508796426666,0.0
69,1.8028793334960938,33.3606923446544,81.40762542441357,333.57901066317174,-12.653516655754622,7.291666666666667,4.278989450533066,0.1,0.009374141693115234,0.20074820518493652,0.042748928,0.021361815,28.783806899628537,-0.063453031104526,0.3332136355621407,7.291666666666667,9600,1.2577178478240967,0.46279992355333094,0.3288184950295596,45.843106761563426,0.0
70,1.8906373977661133,26.07827621063627,74.39996024017931,417.64855380421227,-13.911041822586682,4.166666666666667,3.712281273343562,0.1,0.009145498275756836,0.19670796394348145,0.042620897,0.023138318,28.51325383072931,-0.06543093716408584,0.26081906283591416,4.166666666666667,9600,1.2559659481048584,0.4840505516471415,0.4024467662158785,53.4785091060297,12.5
71,1.825591802597046,33.40517916142019,86.98508782920402,401.55862117970264,-13.473191742550693,8.333333333333334,4.060413208226889,0.1,0.009239435195922852,0.20354151725769043,0.044444155,0.02491456,29.002446363798402,-0.06341886348368496,0.33408113651631505,8.333333333333334,9600,1.2978618144989014,0.5547602708008138,0.46578919191211826,52.075084406142714,12.5
72,1.8084995746612549,29.305816057933963,88.20421026130435,502.0988686370537,-15.235073812909079,7.291666666666667,3.987485642776312,0.1,0.00903010368347168,0.19955134391784668,0.04843195,0.035998102,29.03278333321196,-0.0698233467539769,0.2930933199126897,7.291666666666667,9600,1.3006713390350342,0.4656170193030865,0.3906976438937289,68.87313874192809,0.0
73,1.6997175216674805,31.47541249862813,78.64710449559304,361.585204512276,-13.067424844889182,4.166666666666667,3.8869726303050514,0.1,0.009552478790283203,0.21177268028259277,0.048335023,0.028006136,29.277046249753575,-0.06564895183308846,0.31476771483357824,4.166666666666667,9600,1.3476719856262207,0.4210865297341749,0.3703267420363691,47.66205944937028,6.25
74,1.7745494842529297,46.23309763362604,100.1769511389483,457.759904124265,-14.256338608191955,12.5,4.581284433414893,0.1,0.009958982467651367,0.2053384780883789,0.05230207,0.022728072,30.972651388140825,-0.0609779230050009,0.46235541032833244,12.5,9600,1.3559105396270752,0.3835504432020198,0.3222298222526061,26.22997777259088,12.5
75,1.8631691932678223,30.558576337880094,97.21185757305635,469.5207819808854,-14.064678213746056,6.25,3.8588712419996156,0.1,0.010425329208374023,0.22431182861328125,0.04682578,0.02684326,30.931243883114753,-0.06688969176416867,0.3051936415691646,6.25,9600,1.3992674350738525,0.5093944451111361,0.36424850611592424,1.5069958252113556,0.0
76,1.8744661808013916,43.35206253482749,87.84535017590511,377.71398467344324,-13.82938003667697,7.291666666666667,3.8942689805325594,0.1,0.009812593460083008,0.22185158729553223,0.049659666,0.029120818,32.17332574828603,-0.05979939816114895,0.43311726850551774,7.291666666666667,9600,1.3399460315704346,0.5750633672624318,0.3663109548759407,-2.1073075937381884,0.0
77,1.7996022701263428,43.55714670107545,95.36091885792477,365.34007262912536,-14.488143497070222,14.583333333333334,3.672254456566674,0.1,0.010167360305786133,0.21931123733520508,0.051607106,0.02811706,33.311707843564974,-0.06606377254981284,0.43476956078352047,14.583333333333334,9600,1.4048528671264648,0.37183916359971836,0.28969555823087684,21.644235490634895,0.0
78,1.7846827507019043,31.331366249405736,72.25513417356761,292.6429341522675,-12.655523016692646,6.25,4.6865038406579025,0.1,0.010787248611450195,0.21212458610534668,0.053990033,0.020197885,33.11367368414905,-0.06665766895366651,0.31334233104633347,6.25,9600,1.3511033058166504,0.4266697767252414,0.31750454621365326,15.253418321696238,0.0
79,1.8430767059326172,41.58812396549977,112.38137080349745,613.9908703722267,-14.463443737278011,10.416666666666666,3.8767383616849833,0.1,0.01062464714050293,0.21427464485168457,0.052977268,0.023422398,33.961118712284126,-0.06534533364847944,0.41590466635152046,10.416666666666666,9600,1.3356890678405762,0.520408751661953,0.3962590650527053,22.370183180611697,0.0
80,1.832655429840088,28.781685643850505,67.07415880977831,301.34915469993297,-14.534442423286887,6.25,3.489022942211541,0.1,0.009472370147705078,0.20920848846435547,0.050299555,0.029910514,33.44317540544076,-0.06134567007021994,0.28698766326311337,6.25,9600,1.29325532913208,0.5403483871813252,0.34008672677987384,4.215274446753849,6.25
81,1.8041183948516846,35.332938424368415,95.84108413238766,457.92113057064455,-13.263486108759707,5.208333333333333,4.514071186694138,0.1,0.009869813919067383,0.21355342864990234,0.050784606,0.021343658,33.63215170733353,-0.06664665228974809,0.3529366810435853,5.208333333333333,9600,1.3165574073791504,0.4624591141038615,0.3534297211108983,0.9625779380694965,6.25
82,1.8326663970947266,54.403146872897175,120.54884671218679,614.2993562428194,-15.202963042283505,11.458333333333334,4.672895560418789,0.1,0.009830236434936523,0.21274065971374512,0.052241594,0.02060854,35.70925122388989,-0.0638772761267334,0.5432060572066,11.458333333333334,9600,1.2957546710968018,0.384592058912458,0.3423641848134487,9.308670005888484,6.25
83,2.0173959732055664,46.904718144700674,101.2632967806918,425.8974078748911,-14.09660085371813,9.375,4.325587711036133,0.1,0.010842323303222656,0.2269134521484375,0.045926843,0.01928198,36.82879791597097,-0.06051581010627296,0.46823418989372717,9.375,9600,1.3506190776824951,0.3205499022866175,0.26441754733186446,28.541216158596214,6.25
84,1.7899093627929688,37.9892651405928,94.87472773034632,465.8804098261647,-14.1374000057637,11.458333333333334,3.475713367023859,0.1,0.013038873672485352,0.2118518352508545,0.0506078,0.028601233,36.94484463843316,-0.05842851332224933,0.3790714866777507,11.458333333333334,9600,1.2330234050750732,0.5426070999607162,0.42508792204062146,15.54309805480308,0.0
85,1.7958788871765137,39.033606742237474,100.26002156448003,594.2741021656093,-13.621061115525706,8.333333333333334,3.6761863487292774,0.1,0.009270906448364258,0.19965267181396484,0.04893995,0.025903985,37.15372084881359,-0.06380306024633757,0.3895302730869958,8.333333333333334,9600,1.275803804397583,0.40441164486683384,0.3264086339653004,35.73145463363221,6.25
86,1.7687852382659912,54.81032790369472,106.77109696146613,373.576809587392,-14.870382783083626,13.541666666666666,4.147712693051319,0.1,0.009381532669067383,0.1983635425567627,0.045392226,0.02073362,38.91938155430171,-0.05896877394083227,0.5472812260591677,13.541666666666666,9600,1.240964412689209,0.2996759307441396,0.2655377454498923,46.58070142558677,12.5
87,1.8204262256622314,70.47288254032001,129.17450668056128,469.8169093191604,-14.010527773549331,13.541666666666666,4.279874444360442,0.1,0.009180784225463867,0.2048053741455078,0.046144977,0.021900646,42.074731652903544,-0.06025389362277674,0.70391277304389,13.541666666666666,9600,1.3217732906341553,0.3045594476854096,0.25503395897363906,5.885761667613576,0.0
88,1.8117566108703613,74.55723683351748,129.95216971336606,482.13967470555616,-14.085900309474265,14.583333333333334,4.535209111781433,0.1,0.009141206741333008,0.19492173194885254,0.04849055,0.021796677,45.32298217096494,-0.057324914362668226,0.7447584189706652,14.583333333333334,9600,1.2551312446594238,0.2935798565245855,0.25042082225826695,6.2883524204358086,0.0
89,1.9107975959777832,59.8144649938414,125.70639536465447,569.8575255929363,-14.115066544026043,11.458333333333334,4.691707262553587,0.1,0.009047746658325195,0.19623875617980957,0.04588846,0.01807341,46.772130453252586,-0.058922644304169235,0.5969106890291641,11.458333333333334,9600,1.2949168682098389,0.3128935664085748,0.25740425054442817,5.552984879915384,0.0
90,1.803636074066162,74.84800764858304,137.76436614544363,674.3181697395117,-13.962452929098157,15.625,3.6544972249188294,0.1,0.00899815559387207,0.1965644359588623,0.049786326,0.032194123,49.57971817278563,-0.060251120337111996,0.7476655463295546,15.625,9600,1.2731525897979736,0.28199939591854223,0.2512149105065947,24.535056236332395,0.0
91,1.817901849746704,43.78045346087919,108.96581758445825,526.3258634913539,-13.83129866193515,9.375,3.6474883698713327,0.1,0.009057044982910156,0.19713282585144043,0.047254074,0.027227828,48.99979170159499,-0.06509309684897148,0.43740690315102854,9.375,9600,1.309922456741333,0.4099733793721338,0.31369982533884516,50.56619975234158,6.25
92,1.8508872985839844,49.01824036597899,110.3558560306579,482.02150372432504,-13.902940054522729,11.458333333333334,4.483353601951053,0.1,0.009225606918334961,0.19702982902526855,0.050767597,0.023954494,49.00163656803339,-0.060629485721362064,0.4902038476119713,11.458333333333334,9600,1.3836817741394043,0.3810872866709675,0.2806474999640241,50.80346369775923,6.25
93,1.8231174945831299,64.43767520897914,114.41393711729025,465.7208964432059,-15.388339792219043,10.416666666666666,3.799165551822278,0.1,0.00957942008972168,0.21083903312683105,0.04860747,0.025216874,50.54524043212797,-0.054351680867495755,0.643564985799171,10.416666666666666,9600,1.388486623764038,0.36286311110526265,0.2668067496249299,31.165906042818488,6.25
94,1.8402397632598877,43.948398336262734,110.9499133778401,461.64973701694316,-12.788357498166025,10.416666666666666,3.9032772824538022,0.1,0.009061813354492188,0.20761775970458984,0.04752385,0.024608098,49.885556222541446,-0.06091491996380776,0.4382517467028589,10.416666666666666,9600,1.385878086090088,0.27128079109239095,0.23477244364322641,28.122297166321545,0.0
95,1.9413738250732422,44.38517611592001,97.07932307375292,401.7608714430179,-13.033482359997555,8.333333333333334,4.306493711136909,0.1,0.00894784927368164,0.19705843925476074,0.04772779,0.022175571,49.335518211879304,-0.05987248618773111,0.44346084714560224,8.333333333333334,9600,1.3774776458740234,0.41665510697770675,0.2721192575130514,70.23436720486909,6.25
96,1.8289480209350586,66.59422043498161,122.56253163152623,581.9412244524203,-13.356217908914953,15.625,3.711744185841284,0.1,0.009610652923583984,0.2121737003326416,0.049603276,0.026896784,51.06138843418954,-0.056550111024807094,0.6642832223085261,15.625,9600,1.393404245376587,0.3399862490543991,0.2424989901928482,131.31409473750554,12.5
97,1.7948329448699951,44.87218139326175,107.8372707341983,393.6913829768183,-13.61448216668599,9.375,4.016402781976602,0.1,0.009813070297241211,0.21152138710021973,0.047718715,0.024879806,50.44246773009676,-0.0633164974927312,0.4487668358406021,9.375,9600,1.37882399559021,0.41683757451987374,0.2544821049499744,136.65521275123234,12.5
98,1.7966163158416748,47.56322736574495,100.51953811968566,438.07666461907513,-14.295392860435767,9.375,4.140303284060409,0.1,0.009500741958618164,0.20159196853637695,0.052087232,0.02569272,50.15454369366158,-0.060604265240227974,0.47522906809310533,9.375,9600,1.398725986480713,0.28126755191440217,0.2033660169687181,131.35715024931224,12.5
99,1.8036460876464844,55.21319108906342,123.86853329045373,454.0361211095259,-14.789456780619389,12.5,3.5467977016006778,0.1,0.010059833526611328,0.213151216506958,0.051049307,0.029575244,50.660408433201766,-0.06407980018716836,0.5513368664794983,12.5,9600,1.36317777633667,0.21904943163006108,0.17176253310313747,153.1707402546266,12.5
100,1.795806646347046,73.9986502458325,120.96476580290629,469.8398583435111,-14.23045896064553,14.583333333333334,3.121686938904474,0.1,0.012410402297973633,0.23966479301452637,0.051303487,0.030375047,52.99423261446484,-0.056653819161392595,0.7395961808386073,14.583333333333334,9600,1.338346242904663,0.25203923884872315,0.1985746797231755,173.51645635185076,12.5
101,1.9167625904083252,46.6990059558187,117.24766860652592,457.64805844222377,-14.010432182795107,7.291666666666667,4.066947567419063,0.1,0.009635448455810547,0.21858763694763184,0.050356884,0.024830144,52.36470994860023,-0.06215658750385405,0.4670100791628126,7.291666666666667,9600,1.3092739582061768,0.3476425651605541,0.2598959204892718,157.72199352610318,12.5
102,1.8009469509124756,60.17439333000984,115.56815673123464,457.66760749808105,-12.895305682620098,11.458333333333334,3.222245833192792,0.1,0.010218381881713867,0.20755553245544434,0.04902106,0.029797578,53.145678286741195,-0.05573325036039093,0.6013500829729423,11.458333333333334,9600,1.26637864112854,0.24154623337657974,0.1734937899772271,157.0450889240464,12.5
103,1.8222196102142334,54.81680764611779,113.71104751385246,413.9436474849629,-12.749794927466867,10.416666666666666,3.490992714370643,0.1,0.01002812385559082,0.20729660987854004,0.048214532,0.028916385,53.312791222678854,-0.0572206580780791,0.5477793419219209,10.416666666666666,9600,1.251880168914795,0.28884761814163523,0.24597059905323582,130.23921593006895,12.5
104,1.7803235054016113,48.07449666085819,101.23114756500175,377.86654639311485,-13.829265205942093,10.416666666666666,3.2927666466476397,0.1,0.009232759475708008,0.20108795166015625,0.05048377,0.029348997,52.78896176649678,-0.06298628380638144,0.4803470495269519,10.416666666666666,9600,1.2600085735321045,0.26426921194589725,0.17721851445785067,110.66513967981079,6.25
105,1.8718745708465576,82.49441511855132,148.22563646967583,510.1444645409896,-13.417518705302808,16.666666666666668,4.085702006778271,0.1,0.009060859680175781,0.20733642578125,0.04893536,0.022302186,55.75950710170224,-0.059203420342207456,0.8245465796577925,16.666666666666668,9600,1.2344868183135986,0.2966689166668413,0.18178844093854352,71.7550576354545,6.25
106,1.7992322444915771,46.55274496530566,106.77608237974673,445.73595062642187,-14.698643544347602,5.208333333333333,4.36029675537383,0.1,0.00918269157409668,0.19850635528564453,0.049099628,0.023466459,54.83883088806258,-0.0615253896281028,0.4651412770385639,5.208333333333333,9600,1.2365539073944092,0.2949492115201494,0.21521424479054732,107.03358652208004,12.5
107,1.789703130722046,48.46445678642445,116.95923694299175,450.01439538742954,-14.20768114478355,8.333333333333334,3.9595656133918444,0.1,0.009729623794555664,0.1947634220123291,0.05028371,0.025153505,54.20139347789877,-0.06159215888035646,0.48299117445297685,8.333333333333334,9600,1.289499282836914,0.29826144400299404,0.22062583742446754,116.1017179425663,12.5
108,2.0250632762908936,43.50630941933101,114.10249492934678,502.3610937909494,-14.30114823551455,8.333333333333334,4.3622964016066685,0.1,0.009525775909423828,0.2311267852783203,0.051442135,0.024193252,53.131885072041996,-0.05948849337557751,0.4346781732910891,8.333333333333334,9600,1.3295109272003174,0.3372960889319236,0.2511582539218979,180.48203622379737,12.5
109,1.7957377433776855,76.78887450706084,133.00370973309978,526.3439084194863,-14.790706693116915,14.583333333333334,3.6760276553961355,0.1,0.009741067886352539,0.20233488082885742,0.051652223,0.026326949,55.497584015543886,-0.05791353730272452,0.7675031293639422,14.583333333333334,9600,1.3171026706695557,0.27661178808445086,0.20555571965015146,136.65317860580066,6.25
110,1.8254485130310059,75.81368408230847,140.5512690580614,502.1319236310134,-13.89696239092061,11.458333333333334,4.719473761623027,0.1,0.00948476791381836,0.20219635963439941,0.049972277,0.020274343,57.52919402222035,-0.05519067068437086,0.7573093293156292,11.458333333333334,9600,1.366499900817871,0.28951796906763727,0.22102040013579297,87.96729228286068,6.25
111,1.8155550956726074,70.26230225097255,137.53012611148856,470.20051841449674,-13.237089633993767,14.583333333333334,4.015238859265102,0.1,0.008509159088134766,0.18549513816833496,0.04844019,0.022611137,58.80250484509558,-0.05820084630110541,0.7009658203655613,14.583333333333334,9600,1.3594164848327637,0.257130822038229,0.15081475944828987,66.9486563937316,6.25
112,1.7450273036956787,81.86136966948571,144.4881305763395,522.1936308310152,-11.516699225549392,14.583333333333334,3.9550144469164743,0.1,0.010991811752319336,0.19203591346740723,0.049534168,0.025462208,61.10839132753459,-0.05220400866797111,0.8186293246653623,14.583333333333334,9600,1.364673137664795,0.2426306618565196,0.16054431544146155,53.91202276024694,6.25
113,1.8469288349151611,69.37622382913786,138.94104625113013,501.95978960762926,-14.770468425693524,12.5,4.51763952144162,0.1,0.009407758712768555,0.2113630771636963,0.045451563,0.019989192,61.93517457769492,-0.056649534405050335,0.6933504655949497,12.5,9600,1.4014625549316406,0.24413665120223801,0.16795833017087886,63.887059251696115,6.25
114,1.7877342700958252,72.12203530748825,140.69308947206693,550.1875326575954,-12.889210135657565,14.583333333333334,3.512158674644541,0.1,0.009401321411132812,0.22810053825378418,0.05185705,0.02971957,62.95386065067426,-0.057089706154693685,0.7212436271786397,14.583333333333334,9600,1.398306131362915,0.19413267011163102,0.16669484239836319,70.83272131595399,6.25
115,2.0284862518310547,74.08636009312505,136.33277132900201,522.2627879874539,-14.335934442330574,13.541666666666666,3.3995919462377264,0.1,0.009152650833129883,0.19586443901062012,0.04828121,0.02583234,64.06711059491934,-0.059936078832532,0.7408972545008012,13.541666666666666,9600,1.3555614948272705,0.13363838443962636,0.11458735629300192,71.12246610198557,6.25
116,1.8141329288482666,57.892538273953896,131.09863225160075,478.27012456518895,-13.537612937884356,12.5,4.089852427827755,0.1,0.011205673217773438,0.2160015106201172,0.047302082,0.023832731,63.4496533628228,-0.05896572785373083,0.5785342721462691,12.5,9600,1.33054518699646,0.24695963185447553,0.19945587231739542,42.40781621191965,6.25
117,1.8192896842956543,106.23508149437653,164.34545312026503,594.4398270234641,-14.323728988390672,16.666666666666668,3.8075832042630666,0.1,0.009684324264526367,0.21445012092590332,0.04788586,0.029031102,67.72819617597818,-0.05055973316985457,1.0606902668301454,16.666666666666668,9600,1.311568021774292,0.24745908413043682,0.1911573932649705,58.65945680650208,6.25
118,1.7829914093017578,47.465932591689985,113.84343362367194,454.2027493449488,-12.635810386519527,9.375,3.727659222056171,0.1,0.010244131088256836,0.21500754356384277,0.049036406,0.028782545,65.70196981754937,-0.05990132440564885,0.4738486755943511,9.375,9600,1.2803058624267578,0.33243099516761404,0.1741973869188861,48.61945059392705,12.5
119,1.7884480953216553,70.27672352264497,143.4644993009842,550.5726030926829,-13.382501336556,17.708333333333332,3.382248006285003,0.1,0.01004481315612793,0.21862030029296875,0.048680514,0.033010516,66.15944518805894,-0.05637298734397523,0.7027936793226915,17.708333333333332,9600,1.2492806911468506,0.2648107978136999,0.1944421759841395,42.2315213824713,6.25
120,1.7208197116851807,51.03082620990239,124.74969006130918,502.3105840913302,-12.468683763532793,10.416666666666666,2.895258790981473,0.1,0.008438587188720703,0.18638038635253906,0.050350413,0.033561304,64.64658329024329,-0.06009430770261289,0.5099056922973872,10.416666666666666,9600,0.8936996459960938,0.27106715689647753,0.21395086607877112,60.922817730326145,6.25
121,1.9031903743743896,70.05116045750502,141.32819695263382,534.248520162637,-14.008579380608602,10.416666666666666,4.026200318356697,0.1,0.009053945541381836,0.19153499603271484,0.051073097,0.02827343,65.18704100696947,-0.06196129653996469,0.6992887034600354,10.416666666666666,9600,0.8939659595489502,0.1863634133740036,0.15630838800060606,86.62461563970655,6.25
122,1.8248002529144287,94.5746621204624,162.0746658541874,550.1212496948558,-13.757515240295485,15.625,3.4151722256958057,0.1,0.011057376861572266,0.2302994728088379,0.04965974,0.027597522,68.12580311831876,-0.056726171278483534,0.94535716205485,15.625,9600,1.3663504123687744,0.1530405769458604,0.12106265250046083,85.56682625621424,6.25
123,1.7578239440917969,79.6543900579916,150.34200228903345,489.9332950202557,-14.200934720029363,16.666666666666668,3.0057111053059207,0.1,0.008908510208129883,0.21709465980529785,0.050503112,0.032855336,69.27866181228605,-0.05678167761877343,0.7948849890478931,16.666666666666668,9600,1.2946124076843262,0.154055970683631,0.12633555202852356,95.33358125077527,18.75
124,1.8169505596160889,66.97434489446081,129.3716100218903,486.33020164405497,-15.087536413181427,12.5,3.556096455467483,0.1,0.01011204719543457,0.21155643463134766,0.045101784,0.02265896,69.04823012050352,-0.060237021753530275,0.6697629782464697,12.5,9600,1.2603778839111328,0.3246394589476501,0.1541208886197476,127.696586311427,18.75
125,1.8065614700317383,45.503516054823535,104.43845884848085,409.74745581931427,-14.607255922914339,7.291666666666667,3.7092582834695107,0.1,0.010526418685913086,0.21846270561218262,0.047672044,0.02489144,66.69375871393552,-0.0632594098966948,0.4550739234366385,7.291666666666667,9600,1.231649398803711,0.2804627951858596,0.1793987880739583,99.56867440556779,18.75
126,1.7629225254058838,67.3595901978827,139.15558975414407,538.4043285174795,-14.276276388905114,10.416666666666666,3.9454103588830534,0.1,0.01000213623046875,0.21924567222595215,0.047227554,0.024441471,66.76034186233025,-0.05888169144655248,0.6732016418867809,10.416666666666666,9600,1.2599003314971924,0.31425475352567744,0.20975322882292652,81.87939580521379,12.5
127,1.841019868850708,75.2215373941349,137.46944811304903,517.9110147176085,-13.275172585869594,15.625,4.016400519194117,0.1,0.010009050369262695,0.21711444854736328,0.04849063,0.023164142,67.60646141551072,-0.05901844055595379,0.7509815594440462,15.625,9600,1.2651293277740479,0.1832003967021295,0.1327082801284845,113.46723083501426,18.75
128,2.7230679988861084,77.79530287566989,144.4659033127844,530.2530571658862,-14.51924186449377,13.541666666666666,3.512092909175537,0.1,0.008313417434692383,0.31651735305786133,0.048579175,0.02987333,68.62534556152664,-0.06038236495767437,0.775450968375659,13.541666666666666,9600,1.4171838760375977,0.1566489244608091,0.13038343981470893,148.6096280116861,18.75
129,1.8558313846588135,82.53691967986227,145.70813194848765,526.3261820895141,-14.561015126726344,15.625,3.378257790135902,0.1,0.009321451187133789,0.19885754585266113,0.048923068,0.026204562,70.0165029733602,-0.055866378143909656,0.823300288522757,15.625,9600,1.2655863761901855,0.20992321793791668,0.15130654291830323,92.28724950811215,12.5
130,1.863410234451294,54.063588410143815,120.85959273391141,546.102104721403,-13.831675433053839,10.416666666666666,4.880621787458194,0.1,0.009104728698730469,0.19855380058288574,0.04811153,0.018033186,68.42121151703857,-0.0635097414997164,0.5398235918336171,10.416666666666666,9600,1.2883460521697998,0.2655412353803688,0.17895978277923613,105.16131511891282,12.5
131,1.7485780715942383,66.09485212812898,147.17058812901277,554.2698659903876,-14.404009961013355,13.541666666666666,3.773060530939999,0.1,0.009381532669067383,0.20580172538757324,0.048406973,0.02779115,68.1885755781476,-0.06652428666525514,0.6605590466680782,13.541666666666666,9600,1.3234691619873047,0.20058940294350286,0.16169936708169586,138.01958406300366,18.75
132,1.8624966144561768,60.38443107761875,131.75864053402273,522.1704656605951,-14.995305101212125,11.458333333333334,3.491927399103863,0.1,0.012277364730834961,0.22459173202514648,0.050839692,0.03173454,67.40816112809472,-0.05740569671245996,0.6013443032875401,11.458333333333334,9600,1.3395047187805176,0.17405054623648133,0.14376635461953974,126.11958688287768,12.5
133,1.8546185493469238,90.00220690400056,181.50444968976652,626.3958648133912,-13.027608760190327,15.625,3.804897942654133,0.1,0.010258197784423828,0.20739078521728516,0.04733321,0.025932653,69.6675657056853,-0.060784016369441245,0.8992159836305588,15.625,9600,1.3613677024841309,0.17566105679967683,0.12077307300072634,73.89431727516995,12.5
134,1.8916051387786865,59.40090165806978,126.52396180608301,485.7405368373747,-13.891445045817573,8.333333333333334,4.270391699820763,0.1,0.010024309158325195,0.2168867588043213,0.048054036,0.025923353,68.64089930092376,-0.060544592471155206,0.5936220741955115,8.333333333333334,9600,1.422025442123413,0.2409545365579698,0.12339873511056938,87.603037218358,12.5
135,1.9649004936218262,74.31716814918924,151.85978744218352,670.555324136053,-13.81161814994891,12.5,3.6791219451794963,0.1,0.009894609451293945,0.21243762969970703,0.04795312,0.030587398,69.20852618575032,-0.059314339094915784,0.7419356609050843,12.5,9600,1.3244199752807617,0.19152799005148474,0.15494108224667258,78.22076384255774,6.25
136,1.7421822547912598,66.48710441524547,132.1800268410509,482.20656583833755,-14.178871400623231,10.416666666666666,3.7553272697636957,0.1,0.009983539581298828,0.21375727653503418,0.050823953,0.02525398,68.93638400869983,-0.05927642531681277,0.6640569080165205,10.416666666666666,9600,1.332590103149414,0.2171669331342359,0.17144330224413895,110.37581299916934,6.25
137,1.800732135772705,75.3015205009251,149.04370969844854,550.1622644423047,-14.394977275438853,14.583333333333334,4.358662269251063,0.1,0.010875701904296875,0.20128273963928223,0.052522026,0.020474393,69.57289765792235,-0.06031576692131326,0.7505175664120202,14.583333333333334,9600,1.302628993988037,0.19731780302814822,0.13584974442374773,108.94066338566842,6.25
138,1.8061368465423584,70.8242459445597,142.38681291165452,494.1974435031226,-13.784513535981278,13.541666666666666,3.6545860929671083,0.1,0.009367227554321289,0.20644092559814453,0.048070855,0.035510723,69.69803248658609,-0.05673190603222289,0.7070180939677772,13.541666666666666,9600,1.2938125133514404,0.20762411518201754,0.13991304491701587,91.46237710035487,6.25
139,1.7849376201629639,76.0871441775413,141.49290261398102,578.2978789811991,-13.860980415783635,10.416666666666666,3.8555311216674606,0.1,0.011542797088623047,0.3170144557952881,0.050035853,0.025338776,70.33694365568161,-0.05494937828699772,0.7596339550463355,10.416666666666666,9600,1.2929584980010986,0.2597430631651045,0.16875843749627598,80.66279874123632,12.5
140,1.8104002475738525,70.3294803417089,132.43599457042492,490.34016663473784,-12.421110059386463,10.416666666666666,3.2876814936197243,0.1,0.011883258819580078,0.2249314785003662,0.049068592,0.036117867,70.33619732428434,-0.05793561902149771,0.7020643809785024,10.416666666666666,9600,1.2687690258026123,0.18466502789346906,0.14511464222746986,77.83263916472904,12.5
141,2.043285846710205,41.13935624367293,118.4196736576676,554.3606926889624,-13.999411629234435,7.291666666666667,3.230036035739592,0.1,0.008898019790649414,0.20574188232421875,0.049334582,0.031014392,67.4165132162232,-0.06482428725905653,0.4114257127409435,7.291666666666667,9600,1.2617621421813965,0.19744992704570724,0.15624656775097906,73.75490430598427,6.25
142,1.8467535972595215,91.8266915412625,151.89387777902311,534.3286209534548,-12.219401836040861,16.666666666666668,3.4005525148094167,0.1,0.008722305297851562,0.1962449550628662,0.052022494,0.034956444,69.85753104872713,-0.053387159214727475,0.9170295074519393,16.666666666666668,9600,1.2698001861572266,0.189255251409646,0.12367912914511059,66.93737035388023,6.25
143,1.846635341644287,72.80719403502769,144.44395071430674,522.1082742932088,-13.834206704850137,16.666666666666668,3.4334920002681852,0.1,0.00880122184753418,0.20144295692443848,0.048907343,0.03515965,70.15249734735718,-0.0593998521921541,0.7276834811411792,16.666666666666668,9600,1.29591703414917,0.1563854905932168,0.1205335556768709,55.76708311916001,12.5
144,1.8420557975769043,64.45993380224841,135.06523242294196,698.6901873512711,-13.43995285917931,8.333333333333334,3.7069936870582234,0.1,0.009326696395874023,0.20663666725158691,0.053189073,0.026006775,69.5832409928463,-0.05580479144222696,0.6446118752244397,8.333333333333334,9600,1.31182861328125,0.19520902823092673,0.14415527430183706,80.55072203794965,12.5
145,1.8369386196136475,62.453791561903955,139.03296593599222,670.5453386281072,-14.488305871649231,8.333333333333334,3.87575563507718,0.1,0.009546279907226562,0.20430922508239746,0.050796445,0.028380474,68.87029604975206,-0.05587247783599599,0.6237108554973374,8.333333333333334,9600,1.3039205074310303,0.24708516526122712,0.19660144842375046,135.43224757251372,6.25
146,1.8396930694580078,82.59742809919419,154.67821344346848,574.1312329856572,-11.967732226739102,14.583333333333334,3.626683765628377,0.1,0.009343147277832031,0.20292925834655762,0.050819714,0.026013464,70.24300925469628,-0.054005529558103345,0.8259944704418966,14.583333333333334,9600,1.332958459854126,0.2292910327531123,0.15324076727111505,120.11548601516813,0.0
147,1.9396045207977295,53.491947842977616,122.9655147153532,490.2648230463568,-14.044864938778137,10.416666666666666,3.5319485691837103,0.1,0.00951528549194336,0.21841001510620117,0.049766473,0.03348441,68.56790311352441,-0.061715761950678925,0.5341175713826544,10.416666666666666,9600,1.3644423484802246,0.18472167579380752,0.10819627278951523,88.45832434390856,6.25
148,1.8321161270141602,74.90886328299156,150.21466113374706,666.5722581345589,-14.604028556766103,11.458333333333334,3.782687166163523,0.1,0.009260177612304688,0.20745277404785156,0.049680207,0.027096862,69.20199913047112,-0.05798029671630014,0.7486863699503664,11.458333333333334,9600,1.3516793251037598,0.20485007596428634,0.16056679928011924,110.18582948657283,6.25
149,2.2156076431274414,67.87925502701579,145.00951529275395,678.5177437078377,-13.883879148597803,12.5,3.3866878751518197,0.1,0.010022401809692383,0.2210981845855713,0.0498998,0.024986397,69.06972472012559,-0.05661534717158192,0.6788013194950846,12.5,9600,1.3933961391448975,0.21655282725278563,0.1692710674546066,134.80609420765623,6.25
150,1.8393032550811768,48.891270728605924,110.72920994408247,473.9316549794118,-13.52909419694055,7.291666666666667,4.324965047851312,0.1,0.014600038528442383,0.2277359962463379,0.05381172,0.024531672,67.05187932097363,-0.05774752841217697,0.48808580492115633,7.291666666666667,9600,1.3909943103790283,0.3435355449644112,0.20228203456299015,132.89618181498133,6.25
151,1.8197908401489258,76.3680049214551,146.53683736180975,522.3740054662991,-14.018842803928644,13.541666666666666,4.079238806646911,0.1,0.010303258895874023,0.22747302055358887,0.045337707,0.019975655,67.98349188102178,-0.05505260314615168,0.762864063520515,13.541666666666666,9600,1.336409568786621,0.26715280592141516,0.18877795954226056,158.44731558601606,6.25
152,1.7846472263336182,74.01353653706761,147.5066139665093,514.3420414595342,-14.520123959702172,10.416666666666666,3.817049570774318,0.1,0.016808748245239258,0.23731637001037598,0.050586578,0.027427698,68.58649634662636,-0.059428465118434866,0.7397382015482318,10.416666666666666,9600,1.3515496253967285,0.18690449564485984,0.14727550930153815,180.60274037276446,18.75
153,2.081224203109741,64.27555247827858,148.18179514309205,542.2275793401599,-13.853762603840277,13.541666666666666,3.559744062664806,0.1,0.009390592575073242,0.20692157745361328,0.05034158,0.025081428,68.15540195979159,-0.06055564240471284,0.6419443575952871,13.541666666666666,9600,1.2920572757720947,0.13917895963634974,0.09980500355991294,160.6119006596377,18.75
154,1.8204374313354492,76.23966052321131,160.79224509793357,562.4700896147343,-13.747338486746326,13.541666666666666,3.091757060050211,0.1,0.009114503860473633,0.2093181610107422,0.049666055,0.03297605,68.96382781613356,-0.06049490401303629,0.7615884293202969,13.541666666666666,9600,1.297307014465332,0.15335843451960127,0.09565153415881025,176.15013814373748,18.75
155,1.859553575515747,92.45725228951811,161.61457830157488,642.3543840321697,-13.164776398454023,13.541666666666666,3.1745029504280327,0.1,0.011008739471435547,0.22189950942993164,0.045775067,0.03276155,71.31317026347202,-0.050434132899942065,0.922065867100058,13.541666666666666,9600,1.2987399101257324,0.21342568796133993,0.16509990715947992,161.59346002056867,18.75
156,1.8551154136657715,76.08899054591694,144.62097712356476,530.2401322630349,-14.478041690137298,12.5,4.200235582255872,0.1,0.009391546249389648,0.21148467063903809,0.049961083,0.02107453,71.7907522917165,-0.05410468207384594,0.7596453179261541,12.5,9600,1.3339722156524658,0.27422996049788334,0.15838932983043957,165.8384338865196,18.75
157,1.8140838146209717,87.62084241744975,166.5228255613739,558.4204709965271,-14.42877192860474,17.708333333333332,4.232576587400817,0.1,0.009278297424316406,0.20040297508239746,0.05047607,0.02296873,73.37376130428983,-0.05295344779416707,0.8762132188724996,17.708333333333332,9600,1.2925593852996826,0.14512929068697505,0.0994763572127062,163.04850034013293,18.75
158,1.7826848030090332,47.652412073105246,128.8825218780052,558.1576336323237,-14.573619987720763,7.291666666666667,3.5534917867768323,0.1,0.00887155532836914,0.2028639316558838,0.050302766,0.03922986,70.80162638117137,-0.05554257973732516,0.4765407535960082,7.291666666666667,9600,1.294299602508545,0.22846172974718384,0.17880413291442726,183.36104294708673,18.75
159,1.9062669277191162,73.04824239778385,149.2865280786768,546.4937741391245,-13.040646360882317,11.458333333333334,3.7311902267009827,0.1,0.009254693984985352,0.20298004150390625,0.047329728,0.02230945,71.02628798283263,-0.05615332918960727,0.7305133374770594,11.458333333333334,9600,1.3038103580474854,0.15205699771309142,0.10902067955725588,184.83245108879134,18.75
160,1.755563497543335,85.29239331931225,163.702207770685,610.5964400139666,-13.956509253448578,15.625,3.6800408493167804,0.1,0.009006023406982422,0.20419549942016602,0.048925158,0.025097545,72.45289851648059,-0.05664457616085885,0.8525220905058077,15.625,9600,1.276681900024414,0.1491779028055885,0.10753405607673118,178.1110645567167,18.75
161,1.8263111114501953,74.29045884569499,153.1227536376948,518.3451805357488,-13.951051589157236,11.458333333333334,3.8803862797967583,0.1,0.009418487548828125,0.2069532871246338,0.04976696,0.03326141,72.63665454940204,-0.055410428978715114,0.742089571021285,11.458333333333334,9600,1.3145325183868408,0.16142357031528456,0.10891749288889346,186.38765466586509,18.75
162,1.7867519855499268,92.46918003950054,158.92656273811303,526.3844205713397,-12.268436806547024,17.708333333333332,3.523497487580808,0.1,0.00953364372253418,0.20929384231567383,0.04988667,0.029618304,74.6199070984119,-0.053191668373469614,0.9243083316265303,17.708333333333332,9600,1.3179497718811035,0.17404197416592676,0.12261972378736243,212.66125196382322,18.75
163,1.8380117416381836,51.4625083654617,129.94586812004235,501.90394919137066,-13.008081754841225,8.333333333333334,4.174039761032188,0.1,0.009084939956665039,0.19635772705078125,0.047360245,0.023214368,72.30416722511688,-0.05994776464188065,0.512968902024786,8.333333333333334,9600,1.3115878105163574,0.22520181319523921,0.12797210720213378,196.6225281023701,18.75
164,1.8256549835205078,85.79331220495004,152.23876585751202,526.0372556329711,-14.191823698339222,15.625,3.633344746736986,0.1,0.009493827819824219,0.2085714340209961,0.043731984,0.023561668,73.6530817231002,-0.05330627167979041,0.856277061653543,15.625,9600,1.3308675289154053,0.1601772599901725,0.11825182579807474,216.71752606240662,18.75
165,1.7907629013061523,78.94984199367742,156.02221582190074,574.3289886185803,-13.817525980325694,11.458333333333334,3.821439723590523,0.1,0.009304285049438477,0.21824955940246582,0.051039897,0.02377291,74.18275775015792,-0.06047799347899711,0.7891053398543363,11.458333333333334,9600,1.340526819229126,0.18180817491269774,0.10430207119127882,187.4148306289756,12.5
166,2.069324493408203,73.66753264989353,143.96674459213415,461.9429320926649,-13.775322496375908,12.5,3.5861330417938615,0.1,0.009471654891967773,0.20749115943908691,0.04991198,0.0229278,74.13123524013149,-0.05540030490888048,0.7358496950911194,12.5,9600,1.3409311771392822,0.1473831115062167,0.09670537649739767,194.84458706836404,18.75
167,1.8140010833740234,103.269651941855,170.82187487037822,530.475457573018,-13.876076574471892,19.791666666666668,4.166534090979826,0.1,0.009802818298339844,0.21904683113098145,0.047255732,0.016767358,77.04507691030385,-0.05894861542953683,1.0318847179037964,19.791666666666668,9600,1.3716561794281006,0.13851484056594365,0.10980359884664265,192.8881137955264,12.5
168,1.7308263778686523,80.50716920920038,151.9347659240589,530.2401738071751,-13.251862372191484,12.5,3.030510175815864,0.1,0.009423017501831055,0.22781085968017578,0.05024792,0.038185023,77.3912861401935,-0.05491661040453228,0.8038333895954678,12.5,9600,1.3607847690582275,0.18979452670550084,0.11893595573226867,191.43488569713736,18.75
169,1.8331623077392578,128.35670096309738,172.46646067025307,558.2482078320702,-14.575982702835388,20.833333333333332,4.160930495665649,0.1,0.009237289428710938,0.19681000709533691,0.050865117,0.025856633,82.48782762248389,-0.049762521219120774,1.2810708121142127,20.833333333333332,9600,1.3302712440490723,0.13034415027088006,0.0921894609110521,182.91522532360977,18.75
170,1.8126766681671143,68.65587700299996,143.94607418043037,546.3640249742434,-14.57012377200707,11.458333333333334,3.415872088851228,0.1,0.010107040405273438,0.2179274559020996,0.04994549,0.03619752,81.1046325605355,-0.05592597156303711,0.6861573617702961,11.458333333333334,9600,1.3335597515106201,0.1299430342283646,0.0788531433439078,189.69962584239406,12.5
171,1.8355138301849365,77.21202603487396,154.34587926186813,582.3624095359685,-12.018479063780891,12.5,3.3850983175382923,0.1,0.010078668594360352,0.22481155395507812,0.04830592,0.036858357,80.71537190796936,-0.05702940951276162,0.7713039238205717,12.5,9600,1.336960792541504,0.14475689413335538,0.08765035193183507,193.41449357447001,18.75
172,1.916825771331787,51.87171656786779,112.14692511925873,441.58226503716196,-13.954375135265431,5.208333333333333,3.888735638799376,0.1,0.009612083435058594,0.2113485336303711,0.05069058,0.022601778,77.8310063739592,-0.05917942467104611,0.5174872419956206,5.208333333333333,9600,1.274148941040039,0.37804560269171217,0.16584691243081762,187.4736288878609,18.75
173,1.7781999111175537,71.24693690384966,137.8877473706698,542.3211653570407,-13.919927761320839,9.375,3.5257331893147197,0.1,0.01002812385559082,0.21528339385986328,0.050575722,0.02664248,77.17259942694824,-0.05667363318146255,0.7116597001518707,9.375,9600,1.292283296585083,0.2358111228438002,0.1429759020170699,161.7684539069142,6.25
174,1.8156428337097168,97.83409370463248,178.4078430859852,550.4253510141493,-13.941965589815359,19.791666666666668,3.933439582954864,0.1,0.01005411148071289,0.22646021842956543,0.044075582,0.022652168,79.23874885471666,-0.056654852610331354,0.9758451473896687,19.791666666666668,9600,1.2809553146362305,0.14632164986344498,0.10944407665678804,170.7730005746893,18.75
175,1.7946221828460693,96.15198618888617,174.15306557912245,662.4874125352827,-14.666035219525586,13.541666666666666,3.5253920029273926,0.1,0.009937763214111328,0.21055889129638672,0.049553666,0.03047492,80.93007258813361,-0.05388456152972632,0.959448771803607,13.541666666666666,9600,1.2750952243804932,0.14771708664565394,0.09945583389402347,158.51426877866675,12.5
176,1.7321715354919434,82.53837643999162,156.5662723672121,598.3224284834079,-15.49133644030268,10.416666666666666,3.56290808570042,0.1,0.009911775588989258,0.21904897689819336,0.04846519,0.030157583,81.09090297331942,-0.055015692626458036,0.824984307373542,10.416666666666666,9600,1.2772741317749023,0.15143370081949886,0.11374826680799059,166.59572856193046,18.75
177,1.8127970695495605,86.95407902043193,161.0330304697839,574.0440943432247,-13.55577142175472,15.625,3.7555711924031536,0.1,0.010091543197631836,0.22115659713745117,0.044865213,0.024488457,81.67722057803067,-0.05587109466098161,0.8674622386723518,15.625,9600,1.248018741607666,0.2071723576710785,0.14515502451030265,171.83639115633486,18.75
178,1.8752295970916748,82.62255296559283,165.41473604279437,598.1937670499162,-12.57775415993667,13.541666666666666,3.2641540297818215,0.1,0.009617328643798828,0.20902323722839355,0.048572604,0.038392443,81.7717538167869,-0.05792059761186555,0.824996069054801,13.541666666666666,9600,1.2490251064300537,0.15607776785085986,0.06992415928754223,193.89400871599676,18.75
179,2.0396573543548584,47.79172520735053,121.79280924952081,522.2235945339651,-14.45438716184031,7.291666666666667,3.4029587875756095,0.1,0.009312868118286133,0.20152783393859863,0.04922142,0.030979142,78.37375095584326,-0.06246917000192672,0.47669749666474,7.291666666666667,9600,1.2544841766357422,0.3232068798654572,0.15638092957290067,174.5929058523564,18.75
180,1.852586269378662,104.6096418850298,171.39865813972702,582.5435604031442,-12.966088070664817,20.833333333333332,3.5464871287157913,0.1,0.010521650314331055,0.20849895477294922,0.047250513,0.025877835,80.99734004876193,-0.05555894320750828,1.044024390125825,20.833333333333332,9600,1.2749478816986084,0.13006867954798815,0.07633299109486948,169.12097274876237,18.75
181,1.828561782836914,84.54305517167963,154.30532304631038,622.3215549511277,-14.112134961269698,13.541666666666666,3.711090349458839,0.1,0.009091615676879883,0.20193743705749512,0.050789632,0.027379142,81.3519115610537,-0.058729424193523776,0.8446039091398095,13.541666666666666,9600,1.2359519004821777,0.12484520273935812,0.08801843982578475,162.32958922780819,12.5
182,1.798433780670166,96.16914277830317,176.0115471965189,554.4109027814266,-12.79117694582215,15.625,3.4335127338756926,0.1,0.008832931518554688,0.20914936065673828,0.047007658,0.027592327,82.83363468277865,-0.05286381317391684,0.9617195201594168,15.625,9600,1.275214433670044,0.12586966476944902,0.09828219650615232,161.83198421297212,12.5
183,1.7996678352355957,100.78434460284184,167.47290159226725,570.4001296696653,-14.059343514507013,19.791666666666668,4.023709744711446,0.1,0.009510993957519531,0.2067258358001709,0.048789572,0.024854355,84.62870567478497,-0.05255873062070717,1.007441269379293,19.791666666666668,9600,1.2501945495605469,0.15637671712138157,0.1105171963155022,171.03465017965038,12.5
184,1.7870802879333496,63.94543347720687,139.71511114934833,506.3065802426391,-13.60876609598295,9.375,3.8876631811785436,0.1,0.008976936340332031,0.19766736030578613,0.049451854,0.022160243,82.56037845502716,-0.060944994638210605,0.6386383386951228,9.375,9600,1.2587456703186035,0.1555290491977958,0.12203790097771014,197.81623229941812,12.5
185,1.8727893829345703,66.65734635323717,147.23647833951566,522.2963243156431,-13.943324970124422,10.416666666666666,3.0566374218938357,0.1,0.009361028671264648,0.20026469230651855,0.050330013,0.025649099,80.97007524484816,-0.056322628619910144,0.6661773713800897,10.416666666666666,9600,1.288484811782837,0.16609204931171714,0.13266479510940926,186.00183454240528,12.5
186,1.8124239444732666,118.71698616089292,185.94488925266927,634.2950213450321,-13.812523551718787,20.833333333333332,3.0276912159444596,0.1,0.009760856628417969,0.20128273963928223,0.050262325,0.028127365,84.74476633645264,-0.04990355055791167,1.1850964494420884,20.833333333333332,9600,1.3130545616149902,0.14587301820773532,0.07222419838493149,194.32499574611197,12.5
187,1.8644156455993652,86.58751087236392,162.54541322335396,546.4831711723152,-13.647918981417108,12.5,3.539729828526252,0.1,0.009115457534790039,0.19745254516601562,0.05019584,0.02674634,84.92904079004377,-0.05328519279564903,0.8646314738710177,12.5,9600,1.296797752380371,0.16420371277238702,0.10175410807348949,186.78188608702382,12.5
188,1.8143765926361084,70.80030636261709,151.4951711063368,586.4250771828072,-13.799541027863377,9.375,3.7481380304800345,0.1,0.008970975875854492,0.1980288028717041,0.05068871,0.024692202,83.5161673473011,-0.05989107211096598,0.7080255945557007,9.375,9600,1.316634178161621,0.22503246914837743,0.14304975932164446,136.62043018776268,12.5
189,1.8421251773834229,106.04275886077671,182.9597119268956,658.4318654547059,-14.059907697108182,14.583333333333334,3.7992467555253198,0.1,0.008930683135986328,0.20630288124084473,0.051707122,0.029541217,85.76882649864866,-0.05330269265414952,1.0600306406791837,14.583333333333334,9600,1.3427321910858154,0.15198043122236732,0.10478172330562005,137.90919102701457,12.5
190,1.8437507152557373,97.31480230774288,168.0039712062286,578.1684229224394,-13.698325102361308,15.625,3.5955668729634924,0.1,0.00915217399597168,0.20265531539916992,0.04834148,0.019312415,86.92342407955809,-0.05392881105152344,0.9723211889484767,15.625,9600,1.352332592010498,0.15461095967990424,0.09430461436608709,99.28997949986507,12.5
191,1.863558292388916,83.30732546928162,168.84446414435655,606.3997411349818,-14.721551210214013,13.541666666666666,3.5775524634148246,0.1,0.008929014205932617,0.21196484565734863,0.048335623,0.031095574,86.56181421853044,-0.060236153896995055,0.8326805127696716,13.541666666666666,9600,1.3719663619995117,0.11052619733756279,0.07002497317249826,143.4410309778919,12.5
192,2.034541130065918,99.10692030945802,168.51381625441297,646.4706822930382,-14.043891928090598,13.541666666666666,3.9179607429965,0.1,0.008682966232299805,0.20533299446105957,0.049603026,0.025984738,87.81632482762319,-0.051419726310832775,0.9906636070225007,13.541666666666666,9600,1.3870532512664795,0.19371268261595223,0.12523748898167703,148.85377670603543,18.75
193,1.8022916316986084,91.24946965763826,165.24960560293516,638.457603364544,-13.974163399230335,14.583333333333334,3.627155430909728,0.1,0.009469985961914062,0.2015390396118164,0.05037691,0.027553136,88.1596393106247,-0.05416955640230731,0.9120804435976927,14.583333333333334,9600,1.3804681301116943,0.15048933475526466,0.11767458177306643,112.26115419082686,12.5
194,1.7625455856323242,83.3329747059678,152.39553480918212,498.0659765354404,-13.177455359803359,11.458333333333334,3.581596098535672,0.1,0.009122848510742188,0.21776223182678223,0.050427593,0.027381178,87.676972850159,-0.053308082719163534,0.8329419172808366,11.458333333333334,9600,1.3879950046539307,0.14050907812059626,0.09207469651310667,153.80911579438276,12.5
195,1.8790757656097412,95.58472581668086,165.12718648824566,574.2294461752817,-13.332555595688971,12.5,3.094691330870205,0.1,0.010734081268310547,0.21577048301696777,0.047624387,0.030023117,88.46774814681119,-0.059551600844261726,0.9550317324890716,12.5,9600,1.3909156322479248,0.12067874997844023,0.08845052798783126,156.8730770275469,18.75
196,1.8349554538726807,88.7849299384929,162.15369672102662,586.3637552403321,-13.353369843343373,13.541666666666666,3.2830086230240014,0.1,0.009639739990234375,0.2186732292175293,0.04985468,0.038393088,88.49946632597937,-0.054219156538922564,0.8866141767944108,13.541666666666666,9600,1.343041181564331,0.14632215406436735,0.10684841816879387,143.7252564927692,18.75
197,1.8125011920928955,87.33246231226804,167.5987780424843,586.166945748324,-11.834272618404324,17.708333333333332,4.05940014805135,0.1,0.009616851806640625,0.19466185569763184,0.048784338,0.0275657,88.38276592460824,-0.053329176853606906,0.8725041564797263,17.708333333333332,9600,1.3474476337432861,0.12200374900655958,0.09478059614368035,164.3181582427921,18.75
198,1.9083101749420166,67.24457635207328,150.09270211565598,537.9487158624834,-14.641744426747746,12.5,4.136049915294802,0.1,0.00957179069519043,0.2129831314086914,0.05024421,0.024960479,86.26894696735475,-0.05753337859728467,0.6716332880693819,12.5,9600,1.3832788467407227,0.21257412138322246,0.1126174478199477,154.07434360059676,18.75
199,1.7974536418914795,62.16907317988487,141.96313039502573,538.0112157569448,-13.688314674031067,12.5,3.956173184917584,0.1,0.01075601577758789,0.23578333854675293,0.050394114,0.023982702,83.85895958860776,-0.05911581252177939,0.6213008541448872,12.5,9600,1.403191328048706,0.17297143346224414,0.08940782835137424,155.5239439405824,18.75
200,1.7992076873779297,75.09797881682884,151.02639113581122,542.1274104362831,-12.818602551073237,12.5,3.342161764948628,0.1,0.009926557540893555,0.2353801727294922,0.049281046,0.03963701,82.98286151142987,-0.05858365333191485,0.750166346668085,12.5,9600,1.3047733306884766,0.16094838138476772,0.10939589895068402,144.79315599628745,18.75
201,1.7834687232971191,64.45728770340132,145.6291376102171,550.0834886143514,-13.719062844110818,11.458333333333334,4.7197469251838795,0.1,0.00899195671081543,0.20850348472595215,0.04998444,0.020750713,81.13030413062702,-0.060394155809967896,0.6437725108566986,11.458333333333334,9600,1.3019731044769287,0.19582240836708814,0.12941371061918358,146.55040880406648,12.5
202,2.159472703933716,94.71752968558098,178.09601106332732,574.2126538335202,-14.633173365594068,17.708333333333332,3.266914409295997,0.1,0.010155439376831055,0.21387767791748047,0.050705574,0.03851258,82.48902668612241,-0.05780936971906433,0.9459406302809357,17.708333333333332,9600,1.326786756515503,0.11930757511439176,0.08911331622130673,150.2790795992031,12.5
203,1.8511555194854736,62.997348752119244,141.05355190595702,538.285823268538,-14.078023724486707,10.416666666666666,3.593306270247138,0.1,0.022753477096557617,0.2178058624267578,0.050087105,0.027743196,80.5398588927221,-0.0591740097092987,0.6295759902907013,10.416666666666666,9600,1.338932752609253,0.15666372508593757,0.09439467263732464,140.52209385498566,12.5
204,1.9142727851867676,69.6576532078135,141.71946983670557,485.5618645272089,-13.711098212284924,10.416666666666666,3.789272008204431,0.1,0.00930166244506836,0.20058131217956543,0.050110407,0.0318805,79.45163832423123,-0.05672818185429479,0.6966051514790386,10.416666666666666,9600,1.3336145877838135,0.15982509469461256,0.10480239028324566,159.01516420686178,18.75
205,1.8177573680877686,80.64204987560952,148.47842419614958,606.2964766851713,-13.420183260263478,8.333333333333334,4.3852930358476065,0.1,0.00912165641784668,0.20385408401489258,0.0486081,0.026133705,79.57067947936906,-0.05191011278809151,0.8051732205452419,8.333333333333334,9600,1.3399567604064941,0.1817967545221591,0.12609203936228394,157.27473681739352,12.5
206,1.8254859447479248,71.65447405963616,139.77680748026583,554.4120976280614,-13.583870531139008,11.458333333333334,3.5371487733242084,0.1,0.009219169616699219,0.19803094863891602,0.048766263,0.030472353,78.77905893739577,-0.057203502662942586,0.7157131640037241,11.458333333333334,9600,1.3186633586883545,0.15372236116192486,0.10046071407912024,164.1071247054415,18.75
207,1.817223072052002,57.02972227983188,127.38585941911909,514.186427242007,-14.28075667714429,8.333333333333334,4.325092761371376,0.1,0.009141921997070312,0.20060229301452637,0.051256977,0.023763325,76.60412527163939,-0.0613603650780686,0.569056301588598,8.333333333333334,9600,1.3753941059112549,0.1960017910573013,0.12752378666947023,165.0574205968502,25.0
208,1.7699394226074219,49.06643038427213,117.23515614383089,490.0884079294969,-13.584344176055355,6.25,3.3792578834872256,0.1,0.009663105010986328,0.1969928741455078,0.0504997,0.03419959,73.85035578290267,-0.06056091475098321,0.4902724185823501,6.25,9600,1.3645658493041992,0.1735705153010619,0.09766576513647834,149.49730486581382,31.25
209,1.8204331398010254,48.34063056114997,126.66298937564109,522.0269552251262,-14.076771345422562,7.291666666666667,3.797457013338354,0.1,0.009273767471313477,0.19730544090270996,0.048174776,0.030469269,71.2993832607274,-0.06116091288326086,0.4813390871167392,7.291666666666667,9600,1.3738999366760254,0.26348600603784733,0.12480759912177995,135.6845672524297,12.5
210,1.9032013416290283,86.18879949857632,140.39924707241528,506.2255463336972,-13.67168389760115,10.416666666666666,4.083291708926104,0.1,0.010222673416137695,0.22563910484313965,0.05010978,0.02743004,72.78832488451229,-0.05435400246379702,0.8606459975362029,10.416666666666666,9600,1.4087817668914795,0.170296026661362,0.11050928036525252,120.83326284392956,12.5
211,1.8478689193725586,109.52291555732064,173.93370220750367,546.3552415774566,-13.12364325511724,18.75,4.287493814024674,0.1,0.014470577239990234,0.21060919761657715,0.04806738,0.021672023,76.46178395179312,-0.05267313914273836,1.0939935275239285,18.75,9600,1.4940643310546875,0.12341299805344759,0.08555865560744091,139.7190512662835,18.75
212,1.8877973556518555,51.192127512284436,128.9787286029553,542.2683099464731,-14.494146852365763,8.333333333333334,4.546169049219708,0.1,0.009204387664794922,0.2113196849822998,0.047920194,0.017557872,73.93481830784226,-0.0551417684718592,0.5111082315281409,8.333333333333334,9600,1.456941843032837,0.26017236288265255,0.1346480768666801,153.81380884954007,18.75
213,1.8444597721099854,104.24566714136898,171.33728830010403,526.1794701185377,-13.632960914326086,19.791666666666668,3.241448665994608,0.1,0.010123491287231445,0.21743369102478027,0.050118145,0.03330884,76.96590319119494,-0.053779671346923776,1.0412203286530761,19.791666666666668,9600,1.4612572193145752,0.13306604956538085,0.09091548954566211,152.51015324653434,25.0
214,1.8006401062011719,92.06147797426286,167.89401261692228,678.499881328121,-14.013132988563598,15.625,4.12471794272305,0.1,0.010084867477416992,0.2260444164276123,0.05019553,0.020228477,78.47546066950173,-0.0539549930838333,0.9189616735828334,15.625,9600,1.467749834060669,0.17130612813463408,0.1334051547965407,150.24482737046853,18.75
215,1.8238565921783447,120.43409370740919,184.47181023390647,602.058754580379,-13.2520244431723,18.75,3.791405196383745,0.1,0.009383916854858398,0.22040319442749023,0.049771987,0.028875535,82.67132397329247,-0.05147537462797719,1.2031079587053561,18.75,9600,1.4524950981140137,0.15104023913333772,0.1112573718058456,151.5201237085856,18.75
216,1.7784247398376465,109.0558047711781,179.92702173337176,654.4333679037574,-13.291080415478461,16.666666666666668,3.2477348692461407,0.1,0.009564638137817383,0.21318960189819336,0.04858849,0.0289762,85.30977205308103,-0.05109791531928106,1.0897354180140522,16.666666666666668,9600,1.489330768585205,0.09016743871866159,0.06635274512431427,138.2602411283499,12.5
217,1.9480600357055664,65.98478469617179,146.12836081128353,562.4036154404,-13.463109396633019,9.375,3.511332234959664,0.1,0.010156869888305664,0.21431756019592285,0.049254052,0.021838274,83.3772733173901,-0.056805966721811894,0.6594440332781882,9.375,9600,1.4475994110107422,0.21317930067001623,0.1259367036263139,140.80735349489385,12.5
218,1.9133188724517822,68.467912268944,130.90513491025615,526.0825232051673,-14.530285836356505,8.333333333333334,3.640753936282718,0.1,0.011285066604614258,0.22183990478515625,0.049259778,0.02915402,81.8863372125455,-0.05239740845212845,0.6846859248812048,8.333333333333334,9600,1.4146273136138916,0.18728362772195456,0.11778643585071487,144.05684212184323,18.75
219,1.8666517734527588,75.09548642989023,152.66047219297013,686.7258592119246,-12.07744524992344,14.583333333333334,4.426083855868762,0.1,0.009586095809936523,0.20323514938354492,0.049574886,0.021415569,81.20725213427997,-0.055293629496674934,0.7492897038366584,14.583333333333334,9600,1.400756597518921,0.1643638327221576,0.11477551732742289,161.87263383365115,12.5
220,1.781193494796753,74.70354987857674,149.5731560606626,546.2799893471348,-14.181153326425628,12.5,3.4499172707032395,0.1,0.009191274642944336,0.19879841804504395,0.048537895,0.051519245,80.55688190870966,-0.05629218339651589,0.746207816603484,12.5,9600,1.3761515617370605,0.18786197657131773,0.12398410003125677,128.23454121927034,6.25
221,1.8497750759124756,103.99515465865348,185.76620071171257,610.4083276887919,-13.403022150288075,20.833333333333332,3.850804635240015,0.1,0.012786626815795898,0.21798324584960938,0.050321538,0.026723115,82.90070918370404,-0.05585432345926425,1.039979009874069,20.833333333333332,9600,1.41111421585083,0.1355053204581891,0.09613578770659031,131.3490659224065,12.5
222,1.8071691989898682,101.58399704231336,174.66302987719493,618.0675983479523,-12.11169771580193,15.625,4.136843693385755,0.1,0.00933218002319336,0.20473957061767578,0.04978494,0.023896012,84.76903796956498,-0.05205575083645681,1.01461091583021,15.625,9600,1.3853957653045654,0.14152184567675052,0.08347336737676941,136.52372984336387,12.5
223,1.9575657844543457,78.2586512458493,154.6428857722173,541.8613274005529,-13.949829722864235,14.583333333333334,3.0720369606670257,0.1,0.009072303771972656,0.1995677947998047,0.05110409,0.030713022,84.11799929719342,-0.05488898405781043,0.7821943492755229,14.583333333333334,9600,1.3829350471496582,0.17963882044808122,0.11337706214772855,128.9396448499229,12.5
224,2.1830897331237793,60.23679376852331,134.99378563367537,514.088885342173,-13.929644876103078,10.416666666666666,4.290240602556665,0.1,0.009503364562988281,0.20216727256774902,0.05004419,0.027683252,81.72987874432641,-0.060527262485082584,0.6019727375149174,10.416666666666666,9600,1.4412009716033936,0.2090891820631434,0.11986526160279043,155.9176240888719,18.75
225,1.8527514934539795,80.51248798652328,148.84358656676966,493.8932230838553,-13.77858398260539,14.583333333333334,3.522258827385468,0.1,0.009550094604492188,0.2084815502166748,0.04946705,0.030018965,81.6081396685461,-0.0552707546509996,0.8047292453490004,14.583333333333334,9600,1.4286856651306152,0.15431866857583834,0.09634339789294778,154.95562209053588,18.75
226,1.8455729484558105,83.79464705197951,148.47535719788723,502.12701406722545,-12.20765012379352,13.541666666666666,3.922103082392611,0.1,0.009430885314941406,0.2066032886505127,0.04965982,0.022139471,81.82679040688944,-0.05286695810957628,0.8371330418904237,13.541666666666666,9600,1.4064910411834717,0.1842592056082351,0.12708741580527663,186.26104473666425,18.75
227,1.8404347896575928,72.50703775255646,130.14134306947523,457.83929280222844,-13.177176280977605,11.458333333333334,4.114746801174764,0.1,0.010136127471923828,0.2075788974761963,0.04794489,0.02827738,80.89481514145615,-0.05575501357720978,0.7234116530894569,11.458333333333334,9600,1.4456148147583008,0.23066722323717312,0.1620844374178895,163.65100035320478,18.75
228,1.8536639213562012,68.82953681577219,139.58017422746457,562.0647901304083,-13.26351524251408,12.5,3.4767332824261707,0.1,0.008782625198364258,0.20040130615234375,0.04953248,0.026838223,79.68828730888775,-0.060021133523687514,0.6883121998096459,12.5,9600,1.438866376876831,0.17823515127581963,0.12204535191680346,166.1478488167119,25.0
229,1.790323257446289,95.83383690408822,177.93952628262264,562.2298228002569,-14.206927275701366,17.708333333333332,3.574701710024129,0.1,0.008861541748046875,0.2102985382080078,0.04919777,0.02989661,81.3028422684078,-0.058324502091763646,0.9562588312415697,17.708333333333332,9600,1.482677698135376,0.1769936559541942,0.08691339884682144,154.3196564584708,12.5
230,1.8795840740203857,59.81053637619096,130.86571861265946,538.108415541919,-12.725007377620395,9.375,3.2419055141471955,0.1,0.012082815170288086,0.25336408615112305,0.05056964,0.030346982,79.15361167918613,-0.06145784721992433,0.598125486113409,9.375,9600,1.482935905456543,0.22247272451603836,0.13201894158402094,151.31406052784033,12.5
231,1.7850065231323242,78.95876246907794,147.6779206931868,578.1420136230105,-13.743047466618508,12.5,4.52767463009939,0.1,0.009386301040649414,0.21155929565429688,0.050612863,0.020656718,79.13412675817531,-0.06165341711244452,0.7883465828875554,12.5,9600,1.4121346473693848,0.1704326627917052,0.10821836471370415,137.2850822844848,12.5
232,1.8277215957641602,90.8471429331575,163.3773342873093,550.1854409697365,-12.993682261712628,16.666666666666668,4.15853385688791,0.1,0.009885072708129883,0.21486401557922363,0.049805272,0.029177908,80.30542837567354,-0.055676221428400785,0.9080737785715994,16.666666666666668,9600,1.4317927360534668,0.1693724991315219,0.107270256112185,115.29484866160445,12.5
233,1.866997480392456,83.93806569003907,155.64991088675228,566.052007929397,-13.176535293273808,11.458333333333334,3.3998539718446024,0.1,0.009899616241455078,0.21718263626098633,0.050259516,0.026236964,80.6686921071101,-0.053930589662294824,0.8385694103377052,11.458333333333334,9600,1.429398775100708,0.190865841201108,0.12160772343492769,145.64329035833364,12.5
234,1.7858879566192627,72.5903153142256,149.46939592797696,534.2532508814201,-13.78000644981026,13.541666666666666,3.9744983674736614,0.1,0.009895801544189453,0.2165999412536621,0.04875747,0.026242703,79.86085442782166,-0.062419725347802234,0.7238302746521978,13.541666666666666,9600,1.436112642288208,0.11288134802243886,0.07735989237731036,129.7193437391517,12.5
235,1.823113203048706,107.22919081973107,182.59174904984218,533.8536811347733,-13.269741431519325,18.75,4.339128140508808,0.1,0.009519815444946289,0.21064400672912598,0.04988925,0.021023277,82.5976880670126,-0.058107272710492895,1.0714760606228404,18.75,9600,1.3675875663757324,0.14693757884296194,0.08951607272982584,127.16328052848894,12.5
236,1.8410437107086182,72.94934669504033,151.18137110561378,546.1096388166387,-13.415379062379632,11.458333333333334,4.816429450692594,0.1,0.00974130630493164,0.2138347625732422,0.049900685,0.026239103,81.63285392981537,-0.06005566994453924,0.7291109967221274,11.458333333333334,9600,1.3937759399414062,0.1775255763157432,0.10425997480307579,131.41017390750343,12.5
237,2.0031182765960693,97.69749329842493,176.31119078106107,614.2888400093861,-14.186719030043173,17.708333333333332,3.8532574134462987,0.1,0.009819269180297852,0.21419453620910645,0.048453018,0.018335849,83.23931786667633,-0.057172476444879945,0.9761608568884533,17.708333333333332,9600,1.326554536819458,0.1369656827697139,0.07768899905482081,139.4996158938631,12.5
238,1.8019378185272217,114.75134934167689,184.94951769600803,622.3902368085093,-13.719834840160678,16.666666666666668,3.762405998435039,0.1,0.009965181350708008,0.21079754829406738,0.051173046,0.026227815,86.39052101417639,-0.052473762134992274,1.1466929045316743,16.666666666666668,9600,1.3433609008789062,0.1360556123957312,0.10365217299399296,149.60360074418708,18.75
239,1.7515859603881836,95.63485809861795,174.87927216957775,574.2518097443659,-13.681700851935725,15.625,3.4423126982609205,0.1,0.009695768356323242,0.21541380882263184,0.048953544,0.025539538,87.31495472262054,-0.05822235469395782,0.9551109786393756,15.625,9600,1.3676681518554688,0.11685957547606704,0.08177290106602393,148.13665254096597,18.75
240,1.805271863937378,108.91336240464949,180.15973309349894,626.5832320717145,-14.928891749275582,18.75,3.5033003983288578,0.1,0.010083675384521484,0.2150588035583496,0.049497463,0.028551808,89.47479549082344,-0.05419187871072656,1.0883081212892736,18.75,9600,1.343291997909546,0.1585131548792131,0.07781207560416263,177.2270439784615,18.75
241,1.8110978603363037,82.46834708359658,162.0881232664199,582.3294833870686,-13.771189441941612,10.416666666666666,3.7007571594772806,0.1,0.010260581970214844,0.21561217308044434,0.05067279,0.022314494,88.77415065010075,-0.057804658094783974,0.8234453419052161,10.416666666666666,9600,1.3679161071777344,0.1466785018992183,0.11207360150376212,186.26177843259006,25.0
242,1.8167312145233154,90.05378977677164,170.86958938226536,602.5122116902858,-13.030153337812525,15.625,3.303866790532098,0.1,0.009814023971557617,0.2090463638305664,0.049016234,0.023401579,88.90211456276785,-0.05569908614488028,0.8993009138551198,15.625,9600,1.3677496910095215,0.13411450352710133,0.08003578448589872,183.04898956636944,18.75
243,1.926758050918579,84.7634771287195,171.64842584377064,570.3649524793,-13.281158455577462,14.583333333333334,3.8658536069584235,0.1,0.010389328002929688,0.21581029891967773,0.04956079,0.027379144,88.48825081936302,-0.05651254206343339,0.8455707912699001,14.583333333333334,9600,1.355722188949585,0.13014753937787088,0.09409368390513156,188.27437981687993,31.25
244,1.8052713871002197,102.39956807808873,188.58801249717914,626.6500276047921,-13.526142539779844,16.666666666666668,4.167190366954693,0.1,0.009509086608886719,0.2026827335357666,0.048692074,0.025743216,89.87938254523559,-0.056832451088101955,1.0227508822452314,16.666666666666668,9600,1.3766350746154785,0.09061885826321123,0.05389839242499608,147.60646756848686,18.75
245,1.8081765174865723,92.3847948545731,164.82384804283396,578.1605104090897,-14.543774590391214,14.583333333333334,3.8119562138688687,0.1,0.01039886474609375,0.2192821502685547,0.050207425,0.025674535,90.12992377616933,-0.05529593351402464,0.9234540664859754,14.583333333333334,9600,1.3655860424041748,0.17601173322676736,0.1226276952080052,156.63184409541117,18.75
246,1.8290081024169922,104.9582749189543,187.6479758343755,646.3162366313386,-14.47266505634103,16.666666666666668,4.282180925830482,0.1,0.009559392929077148,0.20374369621276855,0.05043553,0.025336184,91.61275889044784,-0.057915744530765555,1.047500922135901,16.666666666666668,9600,1.3625826835632324,0.09057622631493975,0.06800447160241295,156.55048599488146,18.75
247,1.7837834358215332,71.68620993130287,151.01698937835883,566.1875187092951,-14.191740746918393,10.416666666666666,3.6656923548615294,0.1,0.009320497512817383,0.2000720500946045,0.0489944,0.023740714,89.62010399453334,-0.05728525278125877,0.7160480805520746,10.416666666666666,9600,1.372795581817627,0.2255176488939086,0.10837845305937306,158.82598829410983,18.75
248,1.809309482574463,77.2465601410265,160.34023043258938,598.3054928157746,-14.514476900382313,12.5,3.5197025764579197,0.1,0.00972747802734375,0.1979200839996338,0.050068855,0.027405122,88.38274960918265,-0.05836395522527941,0.7716360447747205,12.5,9600,1.3273000717163086,0.20192224442808,0.1122212974342351,162.2982352942257,18.75
249,1.8259375095367432,103.13517580678267,177.7297459200462,585.9153748444936,-14.268825824079574,16.666666666666668,4.367811634973461,0.1,0.009433269500732422,0.20103049278259277,0.048345298,0.022229493,89.85799222894265,-0.05780330431930575,1.030113362347361,16.666666666666668,9600,1.3753242492675781,0.13769505302270452,0.08443018851126044,147.58386703549905,12.5
250,2.196443557739258,116.2738239353984,182.52060518389487,574.3737596741688,-12.857578285790346,17.708333333333332,3.1637551092010994,0.1,0.009831428527832031,0.20187687873840332,0.05154657,0.027384058,92.49957539958822,-0.048503478027090714,1.161913188639576,17.708333333333332,9600,1.421621561050415,0.12946240954586175,0.08284975465320965,165.9033889623157,18.75
251,1.801985263824463,116.87707953686834,185.08222498940532,590.3181942346085,-15.102021188067873,20.833333333333332,3.755231218229337,0.1,0.009328126907348633,0.2034604549407959,0.050470494,0.026303377,94.93732581331625,-0.051619637468916325,1.1683803625310836,20.833333333333332,9600,1.4365119934082031,0.1278174393317643,0.09037530140233306,169.94725382366352,18.75
252,1.7568271160125732,67.14530715093234,152.4644796339164,574.5126734457381,-14.061367484205038,7.291666666666667,3.963777665004296,0.1,0.009540319442749023,0.21218419075012207,0.05012908,0.02413156,92.15812394707785,-0.05975994851268701,0.6714900514873131,7.291666666666667,9600,1.429955244064331,0.14613435051381568,0.10230400213954735,162.1183245415786,18.75
253,1.8116748332977295,109.507905545774,191.6800754533842,630.4385552239368,-13.643847008886766,20.833333333333332,3.7353480660588794,0.1,0.009471416473388672,0.20371723175048828,0.048656326,0.025012052,93.89310210694747,-0.054899876943115745,1.0946834563902175,20.833333333333332,9600,1.4235193729400635,0.13092620764875618,0.08790731026589285,167.3837623337149,18.75
254,1.8171091079711914,55.45063772851861,137.2556102333155,558.3077355694717,-12.047470967130309,8.333333333333334,2.85733960580867,0.1,0.008902549743652344,0.19821381568908691,0.049393203,0.028068502,90.04885566910458,-0.06213749798010765,0.5541125020198924,8.333333333333334,9600,1.4312231540679932,0.10501932108990686,0.055775271851100816,170.11794447326002,18.75
255,1.947699785232544,92.76056987522593,165.26983429059237,566.2631116971351,-14.442031853426078,14.583333333333334,3.7733717208871433,0.1,0.010259389877319336,0.2343757152557373,0.048680697,0.02653341,90.32002708971672,-0.05903200573563316,0.9276346609310334,14.583333333333334,9600,1.4845900535583496,0.09214071853816651,0.05705415538772411,157.10976077958708,18.75
256,1.817573070526123,104.70833997139219,180.90269754031186,646.53910396099,-13.855129575119651,15.625,4.148561414696928,0.1,0.009514808654785156,0.21855902671813965,0.048674412,0.027557822,91.75885837788427,-0.05416179495268547,1.0445882050473143,15.625,9600,1.4475178718566895,0.13755793988900325,0.09795079958563507,164.0948727550338,18.75
257,1.8207249641418457,71.74710730554364,163.2659134274692,630.4999556213347,-13.452003414359618,12.5,3.669103611482117,0.1,0.009899377822875977,0.21790504455566406,0.049885843,0.027624318,89.7576832706502,-0.06165675185631486,0.7175099148103518,12.5,9600,1.4929656982421875,0.12079684085398845,0.0697663973725041,156.52398083047223,12.5
258,1.8532376289367676,89.08515031188828,168.17784350946215,606.4737695402927,-14.219358635128094,14.583333333333334,3.216939594891933,0.1,0.009964227676391602,0.21903109550476074,0.047465533,0.02820655,89.69042997477402,-0.058281891678816256,0.8904681083211838,14.583333333333334,9600,1.489898681640625,0.0905840581250938,0.06965901837652219,146.21902379631126,12.5
259,1.807612419128418,91.77560367581985,165.9517126590126,642.397243130596,-13.097963619590612,16.666666666666668,3.6260196805727394,0.1,0.012011528015136719,0.21558809280395508,0.049645826,0.029273657,89.89894734487861,-0.05721379137189158,0.9177862086281086,16.666666666666668,9600,1.4824652671813965,0.13152576882228886,0.09434555475820211,145.1935144934773,12.5
260,1.8245422840118408,139.257775080854,200.28967900258186,578.3459362839291,-13.543251838714827,25.0,3.7323592103971674,0.1,0.009761333465576172,0.2190721035003662,0.04934506,0.024562107,94.83483011847615,-0.05490673170123791,1.3913432682987619,25.0,9600,1.487046480178833,0.10172872035379485,0.07819969510037479,144.93824700332758,12.5
261,1.837118148803711,86.29491352825598,164.00429944867528,566.3423185227751,-14.211212097010893,12.5,3.9527768069845646,0.1,0.009891510009765625,0.22086596488952637,0.047034893,0.023308579,93.98083845945413,-0.057441617261135225,0.8629750494055314,12.5,9600,1.4487106800079346,0.1189494285638712,0.0823117976098493,142.16587117106224,12.5
262,2.0254056453704834,84.07125236598175,170.54770236699127,614.4469187668216,-13.110395318641425,13.541666666666666,3.702852283410388,0.1,0.00968313217163086,0.2139575481414795,0.04866978,0.030078398,92.9898798501069,-0.0542837228004045,0.840299610532929,13.541666666666666,9600,1.3773834705352783,0.18080180304848226,0.10624440773489871,148.46207586599425,12.5
263,1.8651659488677979,89.61338374339267,167.1968589134461,602.4051286336176,-13.98618611343713,15.625,3.3377878314347473,0.1,0.01011967658996582,0.22966575622558594,0.048716035,0.029975371,92.65223023943548,-0.058838422326748296,0.8957449110065849,15.625,9600,1.3940551280975342,0.12971744033639432,0.08370640037337568,142.87688890439117,12.5
264,1.8620810508728027,85.84158275372899,164.259652535803,606.2192387662508,-14.335618973594352,13.541666666666666,3.549352269697082,0.1,0.009284734725952148,0.20857501029968262,0.050378855,0.039571103,91.97116549086483,-0.059487514791508544,0.8571791518751583,13.541666666666666,9600,1.3761484622955322,0.1473915984934731,0.09487484962902398,145.96186580626224,12.5
265,1.8409981727600098,86.48349554580784,152.55658515117722,550.1677756163782,-13.541123931095324,11.458333333333334,3.72363131481117,0.1,0.009946107864379883,0.20430254936218262,0.04973442,0.022278223,91.42239849635914,-0.0601442962387973,0.8627723704278694,11.458333333333334,9600,1.3980538845062256,0.1028020005758396,0.07247593092263444,151.46398623154153,18.75
266,1.8145873546600342,89.80570339990561,169.50718458693603,654.5328546383605,-13.928378758335343,11.458333333333334,4.343192296744227,0.1,0.009260177612304688,0.20792484283447266,0.04997348,0.021219136,91.26072898671379,-0.05359244923216,0.8976575507678399,11.458333333333334,9600,1.3705663681030273,0.13656106759510342,0.0887869796421925,158.49134967045006,18.75
267,1.8086493015289307,124.44986782339284,200.09691722784598,670.3814239639321,-12.88964113952301,25.0,4.0308571132525515,0.1,0.010171175003051758,0.20591092109680176,0.0498055,0.021087475,94.57964287038169,-0.05299150830816901,1.2428418250251643,25.0,9600,1.3508405685424805,0.09946078099899011,0.06906472808302545,171.7282153771725,18.75
268,1.9751780033111572,108.53025189776879,180.74861861074228,630.3941955143717,-14.429745005165538,13.541666666666666,3.6031885820046687,0.1,0.009214401245117188,0.20014381408691406,0.048931997,0.02999143,95.97470377312041,-0.05676500377008761,1.0844849962299123,13.541666666666666,9600,1.3898429870605469,0.12639789706934587,0.07936873308375651,164.48978450724286,18.75
269,1.814021348953247,77.60729317220962,157.5864098985385,626.4316918430125,-12.680029586343098,10.416666666666666,3.973362161421947,0.1,0.009198427200317383,0.200103759765625,0.049355067,0.026830284,94.13796271302934,-0.05890197401221083,0.7756813593211224,10.416666666666666,9600,1.3586714267730713,0.1356871354652655,0.07500786259583553,157.71134058197865,18.75
270,1.8290491104125977,88.93689079733969,172.5434356308241,542.1706026966016,-13.43057874794999,14.583333333333334,4.106304676574435,0.1,0.009083032608032227,0.1978604793548584,0.048741568,0.02395703,93.61785552146038,-0.06142613886343897,0.8894071944698942,14.583333333333334,9600,1.343602180480957,0.1158559524742159,0.07693288822615749,165.962588270721,18.75
271,1.8923048973083496,83.76805529465827,179.83563762607048,666.3762835145897,-13.020809894107712,14.583333333333334,3.7227139716959905,0.1,0.013042926788330078,0.21747636795043945,0.04813755,0.022408416,92.63287549878018,-0.061474174263442184,0.8364424924032244,14.583333333333334,9600,1.409893274307251,0.1499827740602347,0.10978777597164209,157.23179572208468,18.75
272,1.8308169841766357,69.70880623844454,168.0136889602277,610.3947800927223,-13.366833309662507,11.458333333333334,3.9715146943504425,0.1,0.009258747100830078,0.19758176803588867,0.048861824,0.028508484,90.34046857274662,-0.06290213584667391,0.6958478641533262,11.458333333333334,9600,1.3661754131317139,0.11421433751084899,0.0719615126608268,164.96436548410327,25.0
273,1.8162055015563965,73.88594825163416,152.36552585470858,570.058739114663,-13.272772838515356,10.416666666666666,4.474507776174896,0.1,0.009135007858276367,0.19775676727294922,0.05038195,0.023822356,88.69501654063538,-0.0602801823173676,0.7380531510159658,10.416666666666666,9600,1.3756392002105713,0.16706809992871327,0.0867970575462157,170.2172884001419,25.0
274,1.838644027709961,98.84928143147577,184.07564865570302,634.2917714655109,-13.74879057602541,15.625,4.05026647462002,0.1,0.009066104888916016,0.21189522743225098,0.0497154,0.020097632,89.71044302971941,-0.06065175716319978,0.9880982428368,15.625,9600,1.3899033069610596,0.1465988244483212,0.0931893470723792,162.9562264897615,18.75
275,1.9431982040405273,104.66496539001405,189.03359609621714,618.0547425171806,-14.424820817204882,17.708333333333332,4.692682850101555,0.1,0.009428977966308594,0.2004690170288086,0.051311724,0.022928685,91.2058952657489,-0.05584551900263234,1.0445711476640345,17.708333333333332,9600,1.427807331085205,0.13117215354826903,0.0710174611479137,170.1899460632297,18.75
276,1.8799118995666504,80.62736589065368,158.2442129479533,590.2705228535755,-12.817615003765534,10.416666666666666,4.301364536534811,0.1,0.009541034698486328,0.20317554473876953,0.05047277,0.025839029,90.14804232823937,-0.05578212445620426,0.8054678755437958,10.416666666666666,9600,1.4692771434783936,0.18596996947031083,0.10279154769395339,159.58784705938237,18.75
277,1.8080458641052246,118.83966195286297,194.6023945448945,610.246411216464,-13.81066697936592,19.791666666666668,4.147096628526273,0.1,0.009523630142211914,0.21077513694763184,0.04819936,0.023120783,93.01720429070173,-0.053672227146103146,1.1875777728538968,19.791666666666668,9600,1.456902027130127,0.11727505324777966,0.0693260206940742,169.64942391183126,25.0
278,1.8228590488433838,87.1410047901446,167.45081481598737,602.2916088054648,-14.773904171195348,13.541666666666666,3.89553354067345,0.1,0.009631156921386719,0.2267751693725586,0.050418925,0.025209859,92.42958434064602,-0.05649653220254095,0.8689201344641256,13.541666666666666,9600,1.47847318649292,0.1794206782991565,0.11453323470310871,169.42532110227523,18.75
279,1.7704448699951172,73.1822678693478,159.79377546854116,610.1413494569153,-13.624786026045145,9.375,4.023659843867338,0.1,0.010101795196533203,0.21576333045959473,0.04863622,0.025189282,90.5048526935162,-0.061489379611870926,0.7314272870547956,9.375,9600,1.4556751251220703,0.12301730487091872,0.07421796902131804,160.72231814025776,18.75
280,1.82419753074646,105.5295165760521,171.8638853643388,550.1166393741792,-14.188913813946039,15.625,4.52932701225267,0.1,0.009748458862304688,0.21428251266479492,0.049859915,0.021050747,92.0073190817698,-0.055108302367163096,1.0536416976328369,15.625,9600,1.4046778678894043,0.1400056533393574,0.092886240987745,166.4739489869978,25.0
281,1.896259069442749,98.00005722659171,175.92056900049488,594.3386953709444,-12.18159513549415,14.583333333333334,3.380102043818923,0.1,0.009673118591308594,0.21145367622375488,0.0503025,0.030542603,92.60659289625198,-0.054976107555266794,0.9796072257780666,14.583333333333334,9600,1.3491780757904053,0.10750846340282946,0.07466390227601842,159.73363216936076,18.75
282,1.8138060569763184,87.10450008799457,172.7761246977489,634.4109364702214,-13.69100304818832,12.5,3.4073421073708854,0.1,0.009982585906982422,0.21784472465515137,0.050698116,0.023830052,92.05638361542624,-0.058529482975877234,0.8693871836907895,12.5,9600,1.358332633972168,0.12929645896869393,0.09395120297208553,154.00733637060904,18.75
283,1.8420424461364746,93.75122545930355,165.46294643787135,602.2179585512716,-12.019418347535067,16.666666666666668,4.1723362536373205,0.1,0.010098457336425781,0.21431207656860352,0.0482337,0.026662808,92.22586779981397,-0.05371527496444278,0.9375347250355572,16.666666666666668,9600,1.3214426040649414,0.1633845533208041,0.09859998566709986,160.77802806155228,18.75
284,1.8045876026153564,100.1493400807746,176.56007360189417,642.2854401611253,-13.856092744571844,13.541666666666666,3.8360376890764534,0.1,0.010385274887084961,0.21592473983764648,0.050441418,0.02812724,93.01821502791003,-0.05432890367963317,1.0002544296537002,13.541666666666666,9600,1.3113312721252441,0.16422650094121652,0.09964175448861334,175.80513594423738,25.0
285,1.82515549659729,74.18415655081101,163.79730801399248,654.5709248365037,-12.597741933273939,13.541666666666666,3.774012854736331,0.1,0.009695291519165039,0.21171021461486816,0.050249726,0.04421836,91.13480918020014,-0.058554052787120114,0.7410292805462132,13.541666666666666,9600,1.306105136871338,0.12166898524348577,0.08645921717129533,181.34593211305398,25.0
286,1.8108134269714355,83.11890145550377,164.23642181090503,598.5117482351136,-14.3278607389619,13.541666666666666,4.898561392327775,0.1,0.01169276237487793,0.2260434627532959,0.050091147,0.01896482,90.3332184077305,-0.058785707770079666,0.8312142922299204,13.541666666666666,9600,1.3542301654815674,0.1267735670273523,0.08850089386165326,190.44241609964826,18.75
287,1.8268601894378662,115.1911739131574,199.97126855336532,634.4841979149999,-12.945426775479284,18.75,3.669717897143365,0.1,0.009824514389038086,0.21582841873168945,0.049861323,0.027977198,92.8190139582732,-0.05306186926510955,1.1515214640682236,18.75,9600,1.3659918308258057,0.11573689144679632,0.07888415772826841,166.64224071899542,18.75
288,1.9351511001586914,122.779506394871,213.83935099243553,630.6517726449197,-12.775863975604542,21.875,4.187377308133633,0.1,0.010149002075195312,0.21359920501708984,0.049673583,0.023596764,95.81506320193299,-0.05510978611219216,1.2265568805544744,21.875,9600,1.342139482498169,0.16246814109874796,0.09016372408999895,173.23026092646649,18.75
289,2.1277804374694824,95.45594654894734,163.7154354268986,570.3175694440691,-13.391775633566871,13.541666666666666,4.099809949227801,0.1,0.009221315383911133,0.2062239646911621,0.049347363,0.024661878,95.77915153663442,-0.057925807012536856,0.9537408596541299,13.541666666666666,9600,1.3081130981445312,0.12867029735071037,0.07669690605706381,180.47109325089772,18.75
290,1.9888958930969238,102.74387631827938,194.3925061823181,702.8937529742739,-13.722021357105836,17.708333333333332,3.882651959823144,0.1,0.009137630462646484,0.1924448013305664,0.04987945,0.030837508,96.47562401479891,-0.05336867868957804,1.026631321310422,17.708333333333332,9600,1.274982213973999,0.12143656680992194,0.06719379181356135,165.41676747417554,12.5
291,2.204819679260254,74.54730877598398,155.22469287207753,590.5328313521125,-13.164063163443814,9.375,3.591807933895975,0.1,0.008721590042114258,0.18941545486450195,0.050093833,0.024810256,94.28279249091742,-0.05493106930118713,0.7454855973654796,9.375,9600,1.3013758659362793,0.1699104060999697,0.09179760058584055,176.4011373614632,12.5
292,1.8127093315124512,85.4867142046888,159.02538243959748,662.5112454145502,-12.441459235960739,11.458333333333334,3.9337723273800993,0.1,0.009202718734741211,0.19363093376159668,0.050534453,0.027017308,93.40318466229455,-0.05636620566242606,0.8532171276709072,11.458333333333334,9600,1.3320212364196777,0.18420829858368024,0.09044470651180772,176.96916814022464,12.5
293,1.781466007232666,108.14273730751796,198.33169825577087,638.5209824183323,-13.554932433576518,18.75,3.562332621389667,0.1,0.008849143981933594,0.20182394981384277,0.051382117,0.027770167,94.8771399268169,-0.05564808949326153,1.079768577173405,18.75,9600,1.35280179977417,0.09347214949398626,0.04140988817174382,180.29105325840263,18.75
294,1.93359375,87.13896865674816,177.17102091361784,658.3643225165441,-13.667428422560468,12.5,4.202393852090018,0.1,0.008982181549072266,0.1906445026397705,0.048388816,0.020743556,94.10332279981002,-0.05608792097786889,0.871412079022131,12.5,9600,1.3498718738555908,0.14510716704427581,0.08716168337412789,197.98762271742794,25.0
295,1.8370685577392578,85.10223832291324,164.67964846747387,630.4069418505096,-14.224070641771979,9.375,3.372175282246787,0.1,0.009238004684448242,0.2010202407836914,0.04952336,0.030185547,93.20321435212034,-0.05561630341663465,0.851050363250032,9.375,9600,1.3942384719848633,0.17806025612234494,0.14047191524715005,179.0066712244908,18.75
296,2.0151772499084473,83.24175004914433,157.1607771858699,582.4783445605746,-13.983836052916528,11.458333333333334,4.61228251514203,0.1,0.00954580307006836,0.20044398307800293,0.0502692,0.02103899,92.20706792182274,-0.05713460575411753,0.8324487275792158,11.458333333333334,9600,1.4297740459442139,0.2314222858667844,0.0908810605084306,179.24122156955633,18.75
297,1.8458576202392578,81.85094560652887,169.69549567976233,586.608196989329,-14.559553446898903,10.416666666666666,3.7481691710097427,0.1,0.010048866271972656,0.2101883888244629,0.0502126,0.0256544,91.17145569029336,-0.05813196352085575,0.8177013698124775,10.416666666666666,9600,1.4737274646759033,0.12580898748703404,0.09730053943844426,187.0148814892099,18.75
298,1.8523049354553223,96.11190429936325,179.77249562163362,662.6856271598152,-14.058336875415215,15.625,4.185738186894529,0.1,0.009928464889526367,0.21291303634643555,0.05046527,0.027434813,91.66550055120035,-0.05636901641987774,0.9598809835801224,15.625,9600,1.4312858581542969,0.12288971341084813,0.07282364809390594,178.52719163465918,12.5
299,1.8237097263336182,91.36392124482056,161.29274011159774,598.6492334325768,-14.157117628303922,11.458333333333334,4.382815599975243,0.1,0.009247064590454102,0.20174479484558105,0.049200423,0.017573781,91.63534262056238,-0.055921718478917914,0.9128282815210819,11.458333333333334,9600,1.4173369407653809,0.15229236973641228,0.11371766478242366,170.23320380210913,12.5
300,1.818312644958496,86.81054962331821,167.30237552675334,658.7494985704425,-13.485945721278195,12.5,3.699786924351666,0.1,0.009262561798095703,0.22289037704467773,0.047933094,0.025833301,91.15286332083798,-0.05938613170327187,0.8668638682967282,12.5,9600,1.464582920074463,0.13165410597334287,0.07937056052769746,171.25432108650443,12.5
301,2.015537738800049,99.52009279245118,194.74401524694633,642.4331772262148,-11.69265143365695,15.625,4.240627338503126,0.1,0.009840726852416992,0.2439560890197754,0.050504856,0.021730224,91.9895862679993,-0.05518937816223485,0.9943939551710984,15.625,9600,1.3834097385406494,0.13105022447473577,0.09574438870872712,178.67175870759198,12.5
302,1.826146125793457,79.51857615162685,166.1764444488102,650.6517924733791,-13.297129463530188,12.5,4.288232250052297,0.1,0.009560823440551758,0.21169495582580566,0.049246684,0.020890625,90.74248525636206,-0.05397278965126301,0.7943605436820702,12.5,9600,1.3302772045135498,0.17014011077629357,0.11620339955384065,176.16892232975857,18.75
303,1.820788860321045,91.84593710845236,174.36681248500238,682.3105665723689,-14.100232923172529,15.625,3.4863987985398084,0.1,0.010141372680664062,0.21399736404418945,0.049592838,0.03122589,90.85283044157109,-0.05901276249099602,0.9180705708423372,15.625,9600,1.3423240184783936,0.17796324814097944,0.09899303230629873,171.63383051904165,12.5
304,1.8105967044830322,99.86328998960511,168.05776011304692,553.9120095561028,-13.592788762666567,16.666666666666668,3.6284044660347097,0.1,0.009582042694091797,0.21300935745239258,0.04940541,0.027309693,91.7538763963745,-0.05593625481510315,0.9973970785182303,16.666666666666668,9600,1.3035087585449219,0.11366796858309146,0.07884255885590997,162.87882171323167,12.5
305,1.7370100021362305,123.2945031106296,203.00480587543342,658.3443926534288,-13.372104066318334,15.625,3.7473416361854204,0.1,0.009659051895141602,0.2098534107208252,0.04949161,0.034413908,94.9079390678,-0.05078412662949459,1.2317158733705054,15.625,9600,1.3028724193572998,0.0789928198362962,0.05166766125128658,162.62340660454646,12.5
306,1.8171720504760742,99.41899251799107,179.1745290261324,590.6191463487299,-13.849602030929875,14.583333333333334,3.9649811328576887,0.1,0.009799480438232422,0.2200336456298828,0.04887069,0.026259208,95.35904441281912,-0.05370560599726756,0.9925443940027326,14.583333333333334,9600,1.3315393924713135,0.11906743843866748,0.07816415558081168,164.12530267041524,12.5
307,1.8949265480041504,60.899388095478116,158.90377296587272,650.7410805863602,-13.615127193920637,9.375,3.4560057873485217,0.1,0.009307622909545898,0.2111046314239502,0.048993234,0.031340815,91.91307878108502,-0.06015907249523125,0.6081742608381022,9.375,9600,1.3672711849212646,0.17827116809848836,0.10427586236883976,164.64894339895315,18.75
308,2.059210777282715,76.43862509953556,168.95162673925051,686.5411466318559,-13.798671181417287,11.458333333333334,4.0010892428033324,0.1,0.009171247482299805,0.21006321907043457,0.050369486,0.02442294,90.36563341293007,-0.05893186646828954,0.7644014668650438,11.458333333333334,9600,1.3672091960906982,0.14759361100391782,0.08413152416460778,149.6205756187497,12.5
309,1.8463184833526611,118.08152754739679,180.45639949175754,630.6910302950778,-12.952129904962918,16.666666666666668,3.737078236679211,0.1,0.009382963180541992,0.20452332496643066,0.05089061,0.027474256,93.13722282637674,-0.05249256904731908,1.1800074309526811,16.666666666666668,9600,1.377443790435791,0.1100659953536277,0.08054996279627509,164.1741834993167,12.5
310,1.8424429893493652,121.11550778771591,182.85858134783754,586.4935392348848,-12.975292715077693,16.666666666666668,3.808294147782593,0.1,0.009492158889770508,0.2097632884979248,0.050037704,0.026168782,95.93505132251066,-0.04841728556325096,1.209082714436749,16.666666666666668,9600,1.3894875049591064,0.10269751354109176,0.05689724454870149,170.1847255540855,18.75
311,1.8203442096710205,73.94985469391844,169.46716906354385,646.5262714202843,-14.359417020863981,11.458333333333334,4.389900428524832,0.1,0.009714365005493164,0.20225787162780762,0.04722956,0.023282662,93.73653165965143,-0.05798582052990999,0.7390975128034233,11.458333333333334,9600,1.4252278804779053,0.16366986013670787,0.07868993239403385,192.4950730229241,18.75
312,1.8228733539581299,61.01865673376818,139.43872980600798,622.7268932072786,-14.0862075157809,6.25,3.0143731690877478,0.1,0.009348869323730469,0.19974255561828613,0.050096817,0.023071732,90.46474416706312,-0.058546612692609336,0.609786720640724,6.25,9600,1.4051685333251953,0.16725222283739413,0.0835389923163819,185.72353885254856,18.75
313,1.8227119445800781,103.461845553782,187.6578742058093,634.5551843107918,-13.28308067276804,13.541666666666666,4.397900787303007,0.1,0.009513616561889648,0.2041923999786377,0.046506856,0.019209536,91.76445430573501,-0.05118978608827401,1.0346435472450592,13.541666666666666,9600,1.4147677421569824,0.09765356384820786,0.05979697726240598,191.78858791465248,18.75
314,2.051374673843384,80.14486006760036,165.88490033587362,626.6632556276661,-13.988634239268237,11.458333333333334,5.085898130433271,0.1,0.009184598922729492,0.22019147872924805,0.04934134,0.017345462,90.60249488192156,-0.05895503801996547,0.8002116286467013,11.458333333333334,9600,1.5136101245880127,0.07428681233101295,0.050755076117880694,190.54681055090992,18.75
315,1.838104486465454,131.4445835527949,190.11495551836612,610.3348573973249,-13.901642063779608,20.833333333333332,3.887314235344873,0.1,0.00917816162109375,0.20912909507751465,0.050711036,0.022840833,94.6867037490089,-0.05263549585945506,1.3127811708072117,20.833333333333332,9600,1.46828031539917,0.09412845786927435,0.060243744898040054,192.80951138758485,18.75
316,1.840468168258667,61.307145473592094,139.57457329450662,509.6692319034641,-13.63532881108413,12.5,4.278801209271654,0.1,0.01262664794921875,0.22569012641906738,0.050013244,0.023253731,91.34874792146722,-0.059824623390724196,0.6126753766092757,12.5,9600,1.5324320793151855,0.16530698919429937,0.10560398824763213,185.06611891113977,18.75
317,1.809814214706421,90.82806191382286,173.61694535090254,622.6392710691173,-13.301825363197619,10.416666666666666,4.158125027152542,0.1,0.00990605354309082,0.21275043487548828,0.04952314,0.022873135,91.2966793207028,-0.05251534900839103,0.9083179843249424,10.416666666666666,9600,1.454226016998291,0.11323814910768984,0.07432545472643338,199.05213899507595,18.75
318,1.8149645328521729,89.54230313322789,172.90906857756042,662.7372879842962,-12.471589923601082,11.458333333333334,3.5468263739805685,0.1,0.009645462036132812,0.2108011245727539,0.05013268,0.024826124,91.12124170195531,-0.054533583939111153,0.8954664160608887,11.458333333333334,9600,1.4375848770141602,0.12801640546398202,0.06485863662662748,178.25501778498324,18.75
319,1.8485424518585205,95.58570734702623,173.8077072168034,594.5328376693612,-13.708686443276726,12.5,3.7010842033334153,0.1,0.009821653366088867,0.21538686752319336,0.050290573,0.023927718,91.56768826646241,-0.0553762879412992,0.9550403787253674,12.5,9600,1.4337196350097656,0.17644679849798917,0.07813903696737039,170.24336487376098,18.75
320,1.892716407775879,97.74951972869373,181.30373612675837,610.2628004893252,-14.079895745731395,16.666666666666668,3.876078562801987,0.1,0.009749889373779297,0.2158510684967041,0.04868369,0.022264298,92.18587141268554,-0.059569101777705726,0.9775142315556278,16.666666666666668,9600,1.4174342155456543,0.07718022324645288,0.0561384091656727,177.27526852739192,18.75
321,1.8173251152038574,76.96367282574255,157.5641852031187,610.5330743323785,-13.865512793616455,9.375,4.4456912226901,0.1,0.01054525375366211,0.22285151481628418,0.049404338,0.018307831,90.66365155399124,-0.05658562246324369,0.7692477108700896,9.375,9600,1.4915711879730225,0.11021489809694135,0.0732581515985076,175.25651025622045,18.75
322,1.815683126449585,104.92572630489691,196.82797719828017,690.6731532864236,-13.853608270413226,13.541666666666666,3.5153009559932493,0.1,0.009051084518432617,0.18579745292663574,0.04961717,0.036371022,92.08985902908181,-0.05489384825882502,1.048856151741175,13.541666666666666,9600,1.0067410469055176,0.09568393969664551,0.0525292140346682,173.4898137463156,18.75
323,1.807077169418335,83.90885555097985,174.42757976917815,598.425165105229,-13.136054477997964,11.458333333333334,3.936854079777001,0.1,0.008974313735961914,0.19181513786315918,0.048247006,0.020863375,91.2717586812716,-0.055476503033592035,0.838273496966408,11.458333333333334,9600,1.0340697765350342,0.071080518413003,0.04841922841677392,172.00377268768364,18.75
324,1.7930190563201904,84.75077537021455,176.87630247202185,682.7199048728063,-13.509918301236262,10.416666666666666,3.515783903113654,0.1,0.009106159210205078,0.2006218433380127,0.050147846,0.03336502,90.6196603501659,-0.05663589716543297,0.8466974361679004,10.416666666666666,9600,1.4216594696044922,0.09629127281211526,0.06509837558548964,174.00249014168827,18.75
325,1.8172035217285156,86.96487142687967,176.33241699928337,630.4313028637582,-13.477358185357442,13.541666666666666,3.935329468409583,0.1,0.010201454162597656,0.2167656421661377,0.049213428,0.034683853,90.25418145783729,-0.05949272162358845,0.8684239450430783,13.541666666666666,9600,1.440652847290039,0.07331283431958863,0.04589925900614933,175.7545169297545,18.75
326,1.8144586086273193,101.50391974939816,187.71076102549938,618.4876908543919,-14.568642656804078,16.666666666666668,3.470067101528124,0.1,0.010188102722167969,0.2144618034362793,0.04940552,0.02963886,91.37915528699338,-0.057432234976721154,1.0142344316899454,16.666666666666668,9600,1.4221117496490479,0.10225986978236089,0.05859327549444324,175.72817073455565,18.75
327,1.995271921157837,134.69890961878647,208.66761539382233,638.6572007203101,-13.713599306877258,17.708333333333332,3.5353134359772165,0.1,0.009768009185791016,0.21335697174072266,0.04925854,0.02932868,95.71113072017269,-0.05382584044715405,1.345757492886179,17.708333333333332,9600,1.3873682022094727,0.08765273520945856,0.054063240873021216,173.2489755991021,18.75
328,1.8057427406311035,83.25867490312275,177.55768979258534,614.3166070482769,-14.734290853820687,12.5,3.9058946155341943,0.1,0.009949684143066406,0.20952892303466797,0.049706127,0.023864275,94.4658851384677,-0.058653344094652726,0.831763322572014,12.5,9600,1.3899052143096924,0.10108587384212041,0.05895132475290008,185.51197874252,18.75
329,1.7551515102386475,84.79225582930871,173.61139357076274,670.5593571507545,-13.695276148121689,9.375,4.479533451796023,0.1,0.009644269943237305,0.2038877010345459,0.049228266,0.020065418,93.4985222075518,-0.056643223166087185,0.8475234435005795,9.375,9600,1.3605551719665527,0.13211919737669373,0.08527089933396226,188.049367774047,18.75
330,1.7925829887390137,57.915203224585866,163.5822154643534,590.6311321484708,-13.277040564605008,10.416666666666666,3.92603947395976,0.1,0.010149478912353516,0.2308659553527832,0.048755854,0.025024166,89.9401903092552,-0.061654483478245904,0.578345516521754,10.416666666666666,9600,1.4907231330871582,0.1229613000935958,0.0748217931002519,188.08763301109428,18.75
331,1.816291093826294,104.4798323915821,193.68425581170857,670.7947324627819,-13.714496099457225,15.625,3.359182532177527,0.1,0.012226343154907227,0.23195838928222656,0.047971908,0.030792307,91.39415451748789,-0.05476547176085247,1.044817861572481,15.625,9600,1.3787691593170166,0.08074004730117303,0.05110329826143212,189.82710496099213,18.75
332,1.8387231826782227,68.61443941114175,159.50750182950506,630.5815249099863,-14.443226235891482,9.375,3.789368795305343,0.1,0.008946657180786133,0.20557832717895508,0.049806345,0.03010071,89.11618300685328,-0.06051014993037148,0.6853231834029619,9.375,9600,1.3630311489105225,0.10247782840573148,0.0633870091270054,184.82511051293505,18.75
333,1.9061000347137451,128.77847627933843,203.65038562834516,654.6373890187075,-14.379860823106428,15.625,4.109945133945454,0.1,0.00841379165649414,0.2004532814025879,0.04967745,0.02429489,93.0824123341018,-0.05470378218266401,1.286546217817336,15.625,9600,1.383225440979004,0.05989969376737706,0.047850995253389074,191.60374433305591,18.75
