iteration,time_sampling,stoc_pol_mean,stoc_pol_std,stoc_pol_max,stoc_pol_min,rollout_success,alpha,delta,time_vpg,time_npg,kl_dist,surr_improvement,running_score,rwd_sparse,rwd_dense,success_percentage,num_samples,time_VF,VF_error_before,VF_error_after,env_samples,eval_score,eval_success
0,2.1654069423675537,-228.31924848228178,15.394557120464928,-195.74845866558496,-266.7420329812757,0.0,0.4786128527146351,0.1,0.01636648178100586,0.16297698020935059,0.052755285,0.25055096,-228.31924848228178,-0.1070480261364742,-2.9552442258122777,0.0,1996,0.20334124565124512,0.9990371696056983,0.9023573085044753,1996,-270.3757565168967,0.0
1,1.8876750469207764,-229.3842014165482,16.0366434115872,-192.93921325630674,-272.435307357494,0.0,0.548799955039455,0.1,0.06615900993347168,0.4564383029937744,0.050809417,0.20955543,-228.42574377570844,-0.10822074607807963,-2.9693416139522775,0.0,1974,0.1889488697052002,0.9021375278439836,0.3002452055796841,3970,-279.0218574497644,0.0
2,2.0467474460601807,-230.4020766089906,19.30852155964761,-199.97119596024191,-333.89667780644544,0.0,0.6073004494774091,0.1,0.0732109546661377,0.23781633377075195,0.05356432,0.19278179,-228.62337705903667,-0.10852260443575446,-2.983469714265942,0.0,1982,0.1746973991394043,0.30371926985221115,0.13874732632610687,5952,-275.06968364605234,0.0
3,1.886164665222168,-229.1409077214787,16.10077568615461,-199.1778056607326,-277.8435494627356,0.0,0.6063898420288629,0.1,0.00605463981628418,0.411318302154541,0.05807538,0.19347024,-228.67513012528087,-0.10677877401569413,-2.9672651991894305,0.0,2007,0.2263021469116211,0.137029899031197,0.11210191734818657,7959,-288.1042709194698,0.0
4,2.177142381668091,-227.54458731405342,17.30434923828398,-194.64518576924894,-303.7439638413169,0.0,0.6134474957482966,0.1,0.006409168243408203,0.21091294288635254,0.050017804,0.17310919,-228.56207584415813,-0.10741694047658794,-2.9451622210125437,0.0,1983,0.17689895629882812,0.11108306839726924,0.08689458718507358,9942,-291.70449043319644,0.0
5,2.059337615966797,-223.5540042881662,22.845065139328465,-184.7093695458183,-383.6879296955144,0.0,0.5914945139278046,0.1,0.0290987491607666,0.3043022155761719,0.050071955,0.17385831,-228.06126868855893,-0.10652705151232038,-2.8929540038033337,0.0,1965,0.2174241542816162,0.08844007621006483,0.06680913214475856,11907,-276.95136088705897,0.0
6,2.3169238567352295,-230.632133598491,20.481544870168022,-189.74260661528828,-355.0001603542536,0.0,0.5927675860486751,0.1,0.028786897659301758,0.2685978412628174,0.053346217,0.18971643,-228.31835517955213,-0.10808074716074549,-2.9864344377474565,0.0,2003,0.18684864044189453,0.06679599058006994,0.0444089966570138,13910,-282.70512834177134,0.0
7,2.05595064163208,-226.55834407937832,19.640158211771006,-189.82313615664407,-328.99011684639214,0.0,0.6094536348396424,0.1,0.006448268890380859,0.19258332252502441,0.048806775,0.17633528,-228.14235406953475,-0.10653439484948017,-2.932736281346008,0.0,1988,0.2268538475036621,0.04379989406886723,0.02781667376243127,15898,-261.55228116276055,0.0
8,1.882539987564087,-229.14291346349128,16.308725635460426,-190.03425726810966,-273.87594880759576,0.0,0.5773692430253242,0.1,0.03187417984008789,0.7683720588684082,0.051572185,0.20274957,-228.24241000893042,-0.10901654113441657,-2.9669304392103704,0.0,1969,0.21785688400268555,0.02650020334198757,0.019874511804740837,17867,-249.0190917671126,0.0
9,2.0233986377716064,-227.7501172743864,14.287634589821394,-192.74420775586196,-256.89267402736886,0.0,0.5627630465159879,0.1,0.006409645080566406,0.27571868896484375,0.050753396,0.19954714,-228.19318073547603,-0.10750977622700736,-2.9477509432702074,0.0,1982,0.17773222923278809,0.018026277098209514,0.01635069203876666,19849,-259.30053143313796,0.0
10,1.900991678237915,-223.56156695624108,15.013148174918882,-198.14728054295045,-274.78248627140755,0.0,0.5681514500895367,0.1,0.07216095924377441,0.2879934310913086,0.049874622,0.19389504,-227.73001935755252,-0.10644441100020448,-2.891912566355531,0.0,1974,0.17551827430725098,0.019566844116053094,0.018463616212054793,21823,-246.0582106157562,0.0
11,2.2422008514404297,-226.88439733559184,14.385365464782884,-196.32711445780316,-273.0703433125842,0.0,0.610496736594255,0.1,0.01297140121459961,0.2852141857147217,0.050551176,0.17953908,-227.64545715535647,-0.1074820873374804,-2.9354168498422872,0.0,1976,0.16711688041687012,0.016667213518454082,0.015796497444302116,23799,-268.3883307832502,0.0
12,2.058259963989258,-220.06710624881285,14.919705072339683,-191.4540320578954,-260.6123890495867,0.0,0.5730134802951753,0.1,0.031852006912231445,0.15462994575500488,0.049802568,0.1837131,-226.88762206470213,-0.10380010975896321,-2.84500787466227,0.0,1987,0.18303585052490234,0.019854521606058714,0.018128205039958736,25786,-262.08572074112544,0.0
13,2.162726879119873,-219.60870142079503,13.938483547582669,-187.27099688097624,-249.83129572060085,0.0,0.5720070137426622,0.1,0.006897449493408203,0.15453028678894043,0.049707096,0.19338779,-226.1597300003114,-0.10459247682674029,-2.839252180509257,0.0,1970,0.18463921546936035,0.017261617521497304,0.01634155452329725,27756,-311.8548048760897,0.0
14,2.100964307785034,-223.88599045723765,21.16804380642855,-191.90143361823738,-330.4377195209243,0.0,0.5819545816660683,0.1,0.038802385330200195,0.23743057250976562,0.05055523,0.17523009,-225.93235604600403,-0.10360789475832188,-2.8960946329054367,0.0,2030,0.178663969039917,0.024341887636462074,0.02222438152799842,29786,-333.87787893487496,0.0
15,2.0279433727264404,-219.3041903443094,15.58640238691026,-178.0616212529245,-277.1651038897869,0.0,0.6461364580023289,0.1,0.0065042972564697266,0.1524202823638916,0.051528685,0.16668472,-225.26953947583456,-0.10102355079717644,-2.8350950427812864,0.0,2041,0.18253278732299805,0.018767381360880513,0.01760498878810607,31827,-335.84987307152034,0.0
16,2.0394492149353027,-220.1597237494443,14.55992610601445,-181.39995224349042,-252.37916671026971,0.0,0.6030371256709445,0.1,0.006716728210449219,0.21830105781555176,0.04947631,0.17244263,-224.75855790319554,-0.10045616219525694,-2.8458327447856537,0.0,2067,0.18825578689575195,0.017202601224074406,0.01605410301041301,33894,-327.9942924762873,0.0
17,2.0474255084991455,-216.79945307024755,18.94214240847107,-179.1231711693764,-274.6975485724915,0.0,0.6145458567224893,0.1,0.006790876388549805,0.154937744140625,0.05066019,0.17158191,-223.96264741990075,-0.09980244027487832,-2.800940576326548,0.0,2048,0.18770480155944824,0.018804150212370717,0.017932197611659508,35942,-339.541369526616,0.0
18,2.167088270187378,-216.45620689140824,18.81003393193381,-180.9572974464915,-267.03866081710845,0.0,0.6189861834645091,0.1,0.012208223342895508,0.3851907253265381,0.05125273,0.16894722,-223.2120033670515,-0.09922379027564932,-2.7978087937498963,0.0,2056,0.19666361808776855,0.02152397678091611,0.02005179608139479,37998,-255.79587115299435,0.0
19,2.2942395210266113,-218.59746283189838,18.265926384754675,-183.40797915360537,-290.4048962633226,0.0,0.6127359090768133,0.1,0.06047177314758301,0.4272146224975586,0.051271778,0.1746841,-222.7505493135362,-0.09915901512453525,-2.8260956460489512,0.0,2089,0.3122546672821045,0.01934626556098025,0.01841265658477787,40087,-257.89590730017403,0.0
20,2.139932870864868,-214.2588130598257,17.64954246890104,-181.4013906728969,-267.02329733257307,0.0,0.6628136946205864,0.1,0.012191534042358398,0.1950395107269287,0.05059648,0.15923946,-221.90137568816516,-0.0985813753731261,-2.7690424650972005,0.0,2054,0.20974302291870117,0.01996846979810214,0.01824788351311408,42141,-253.1338815487385,0.0
21,2.1355795860290527,-213.16084423301768,17.881804214687882,-180.20376387183302,-271.65782536033055,0.0,0.6194223827368975,0.1,0.006417274475097656,0.21454167366027832,0.050141614,0.17184012,-221.0273225426504,-0.09840256893244843,-2.7542258551613172,0.0,2054,0.2062993049621582,0.017572325413949232,0.016524613940129353,44195,-259.26502981316185,0.0
22,2.1692206859588623,-213.69884481488825,17.455584221230026,-176.7906940953284,-262.0249222614523,0.0,0.6308955283646728,0.1,0.0063724517822265625,0.14392352104187012,0.050518867,0.18642145,-220.29447476987417,-0.09683404257501986,-2.760674441740535,0.0,2085,0.21234345436096191,0.01629292209583613,0.015492075827913133,46280,-242.48611569385105,0.0
23,1.9592475891113281,-211.74924184236963,15.873432269503331,-181.17469227211873,-260.4424192452474,0.0,0.6406958990022114,0.1,0.02524113655090332,0.15575933456420898,0.049700525,0.16883205,-219.43995147712374,-0.09815378739135928,-2.735417129959958,0.0,2058,0.21964049339294434,0.01550491858973055,0.014829003191115601,48338,-255.8733301662792,0.0
24,1.9411802291870117,-208.53862006685537,15.226223993773262,-182.73174531649073,-275.8382255464482,0.0,0.6338154245689882,0.1,0.006302833557128906,0.15131044387817383,0.050286442,0.16031595,-218.34981833609692,-0.0966016379777827,-2.6921684125552665,0.0,2055,0.23622941970825195,0.015795597915486147,0.014661219748196752,50393,-245.23091579110434,0.0
25,2.166144847869873,-211.08917895932072,17.36827826215931,-164.51277670540986,-247.3891151282781,0.0,0.6383022095047846,0.1,0.029181480407714844,0.16173243522644043,0.052001305,0.17768526,-217.62375439841932,-0.09622860857370531,-2.7246691271639443,0.0,2079,0.25472497940063477,0.014522624868776271,0.013888060917143853,52472,-234.1047713538504,0.0
26,2.2679104804992676,-212.6377012812305,21.484652167239165,-161.90791298435278,-314.85795345753024,0.0,0.6607236096876633,0.1,0.0064983367919921875,0.15333032608032227,0.049863804,0.15406911,-217.12514908670045,-0.09532853647590249,-2.745892800149582,0.0,2128,0.2847449779510498,0.021210433203154033,0.020071177702655558,54600,-223.36421874995708,0.0
27,1.953955888748169,-209.04063325476122,15.554057976542019,-176.11862385486742,-249.33019818791786,0.0,0.6124826003324743,0.1,0.06587743759155273,0.2094745635986328,0.05093573,0.18865679,-216.31669750350653,-0.09662913444573036,-2.698922950926276,0.0,2060,0.3025672435760498,0.013546927500594663,0.012724841037622942,56660,-206.29990278656456,0.0
28,2.4356346130371094,-209.40408930245357,21.22030902632337,-170.96104660385691,-280.0713823188687,0.0,0.6636066663597157,0.1,0.080413818359375,0.20554280281066895,0.04986875,0.14378905,-215.62543668340123,-0.09531503690804032,-2.703281613450692,0.0,2110,0.32175564765930176,0.019879746723584484,0.01877446736683781,58770,-221.56714182796202,0.0
29,2.389596462249756,-206.36378094655035,18.056702190326693,-172.26043533372646,-302.128802908351,0.0,0.6305395259691493,0.1,0.006447315216064453,0.20203828811645508,0.05056007,0.15346818,-214.69927110971616,-0.09586569498533755,-2.6635714586500767,0.0,2059,0.28383922576904297,0.019581874627987928,0.017441164383476686,60829,-188.53737515446625,0.0
30,2.034029245376587,-200.9963400211444,18.19895319680332,-170.64951546032597,-255.29854383250114,0.0,0.6256559982187943,0.1,0.006375789642333984,0.15076255798339844,0.050899513,0.16331626,-213.328978000859,-0.0934461402720035,-2.590605221636236,0.0,2076,0.33806443214416504,0.015988617310739157,0.015131762230189581,62905,-211.00514820324165,0.0
31,2.0798816680908203,-206.41586392578907,20.64203741966217,-166.81311384764183,-294.7382961873639,0.0,0.6319768304582148,0.1,0.006958961486816406,0.28940916061401367,0.050788753,0.16305086,-212.637666593352,-0.09488840837751823,-2.6630408094040354,0.0,2090,0.3954613208770752,0.01691949329596906,0.01616523949222073,64995,-181.23167051245025,0.0
32,2.0895519256591797,-200.66393884859176,16.250198166829694,-161.6988704541562,-261.41932716926163,0.0,0.6978339313000546,0.1,0.026408672332763672,0.2748725414276123,0.050775163,0.14339124,-211.44029381887597,-0.09319002462249194,-2.587493727442248,0.0,2085,0.33849000930786133,0.012458442588949042,0.01194103537431882,67080,-186.0195312646335,0.0
33,2.1816463470458984,-202.03551012560195,15.080852856737913,-172.23327766359728,-250.66796173525324,0.0,0.6601896133054551,0.1,0.006899833679199219,0.23730683326721191,0.049210493,0.16033547,-210.49981544954858,-0.09365878922917859,-2.605427790892922,0.0,2084,0.3816039562225342,0.012696683063570769,0.012363699406338557,69164,-180.57324789869702,0.0
34,2.173835277557373,-200.52489286169586,16.142035101256425,-168.43688447356038,-240.86140307378162,0.0,0.6732739026342845,0.1,0.0073375701904296875,0.16144227981567383,0.050650656,0.15206653,-209.50232319076332,-0.09328699415606635,-2.5852448121000906,0.0,2083,0.33648014068603516,0.013196271103896217,0.012761833183190643,71247,-207.7625438686337,0.0
35,2.196319341659546,-200.94969830002194,16.871951241961913,-168.63360460696364,-253.7814838703792,0.0,0.646544340246145,0.1,0.006369352340698242,0.20103836059570312,0.050826114,0.16010027,-208.64706070168918,-0.0923953381018503,-2.589978467036485,0.0,2110,0.3791944980621338,0.01387353412197837,0.01319173707695549,73357,-206.99116236825478,0.0
36,2.168315887451172,-202.29765814046934,19.747554365198102,-164.97254963294245,-262.0134561825978,0.0,0.6049851322658831,0.1,0.006253719329833984,0.14383959770202637,0.050843645,0.15746109,-208.0121204455672,-0.0933865071981357,-2.609686856249453,0.0,2098,0.29279470443725586,0.016212207496084208,0.015048531376624312,75455,-206.6014372788683,0.0
37,2.0356922149658203,-198.8577829064831,19.111634506773186,-166.26608896772711,-286.68238312956,0.0,0.615154341846624,0.1,0.00612330436706543,0.1393594741821289,0.050589345,0.17129575,-207.09668669165882,-0.0921722927938432,-2.5629383185320758,0.0,2102,0.2900874614715576,0.01644779538207346,0.015699311965091,77557,-197.01280763082616,0.0
38,2.4138834476470947,-200.72229517093297,14.465285908844205,-176.98321823826151,-240.32451501590543,0.0,0.6337544811783524,0.1,0.006720542907714844,0.18640518188476562,0.050678026,0.16820829,-206.45924753958624,-0.09230212797150898,-2.5869964047678056,0.0,2109,0.5723748207092285,0.011087617321375984,0.010843202139109283,79666,-204.59501371182478,0.0
39,2.330913782119751,-197.88956070823232,15.856289781488439,-156.49105178369916,-248.79381131365312,0.0,0.6702196766596813,0.1,0.006961345672607422,0.17064380645751953,0.05151867,0.16720526,-205.60227885645088,-0.09118951588253017,-2.54924491864197,0.0,2103,0.34275364875793457,0.01197959378098906,0.011018233543936813,81769,-182.39324278094182,0.0
40,2.2164266109466553,-195.0728576821988,13.748551043766236,-165.4027005144718,-228.62712232407694,0.0,0.665804085146004,0.1,0.006480216979980469,0.14870262145996094,0.050159134,0.16076562,-204.54933673902568,-0.09110792638859,-2.512078737004087,0.0,2101,0.34454822540283203,0.010164205201464686,0.009651632825226039,83870,-194.60934355808527,0.0
41,2.3241560459136963,-198.77380948898386,18.829207604224482,-166.02102115152354,-269.30612165556744,0.0,0.6874569572108458,0.1,0.006070613861083984,0.14454197883605957,0.04978908,0.14191076,-203.9717840140215,-0.09134842082220075,-2.560922988038482,0.0,2122,0.32703089714050293,0.014078240745853598,0.013498203719335546,85992,-176.16854662772795,0.0
42,2.446150541305542,-196.53389697276089,12.823719354826578,-168.341827819258,-229.11077266218777,0.0,0.6369854182391365,0.1,0.006226062774658203,0.14286375045776367,0.051216643,0.16634268,-203.22799530989542,-0.09148687765054832,-2.5311322027700762,0.0,2105,0.289994478225708,0.010156306794997204,0.00979576568100723,88097,-175.00575086058615,0.0
43,2.219182014465332,-195.81071889547525,15.097859719165454,-164.59602247091146,-234.74121704831362,0.0,0.6774283816444956,0.1,0.00696110725402832,0.21422100067138672,0.051416237,0.15105361,-202.48626766845342,-0.09004346115502322,-2.521566899380914,0.0,2136,0.3484609127044678,0.010853479999706853,0.010241097775953759,90233,-181.49034543247458,0.0
44,2.4854705333709717,-197.5196431565369,15.00151475195643,-162.04650917540644,-253.72392780804225,0.0,0.6530320413807336,0.1,0.015435218811035156,0.7061946392059326,0.04930907,0.16416727,-201.98960521726175,-0.09127014749067774,-2.543135312315977,0.0,2126,0.4743320941925049,0.011516966219747538,0.0105065084397591,92359,-168.90506263474384,0.0
45,2.3165228366851807,-195.70723959609555,15.68698471499546,-161.96579097679898,-244.49198250372143,0.0,0.6629161199085063,0.1,0.02961564064025879,0.5439841747283936,0.050308492,0.15038064,-201.36136865514513,-0.09167582223103171,-2.519842214393403,0.0,2102,0.2900052070617676,0.011409924475775705,0.011277639304911704,94461,-167.70983290780146,0.0
46,2.235844850540161,-193.4366871193176,13.71119255773123,-168.87174222165993,-227.6725349604855,0.0,0.6565882650370172,0.1,0.006226062774658203,0.14790654182434082,0.0493702,0.16188978,-200.56890050156238,-0.08975837711109595,-2.4901748372259025,0.0,2128,0.30008411407470703,0.0107824827786993,0.009729926343039428,96589,-164.37371599534512,0.0
47,2.2032880783081055,-191.10276914138697,13.734454750147679,-166.466685838318,-232.8140908681096,0.0,0.6636596904654455,0.1,0.006454944610595703,0.14737606048583984,0.05054191,0.15548864,-199.62228736554485,-0.08992637582858116,-2.4597572115646957,0.0,2104,0.29814839363098145,0.009198294715241964,0.009102205754728969,98693,-176.4003092193375,0.0
48,2.326399564743042,-192.2268541538992,13.447311902355187,-160.64566211051422,-221.8264680574643,0.0,0.6661120297324055,0.1,0.006239891052246094,0.1387484073638916,0.04900913,0.1561954,-198.88274404438027,-0.09121869357921703,-2.474231274228472,0.0,2085,0.294391393661499,0.00987113577870696,0.008984481584109494,100778,-171.0441474274842,0.0
49,2.285935163497925,-190.66099087933807,15.08792861448876,-163.8837314434565,-231.77541238640143,0.0,0.6811802878578443,0.1,0.008110761642456055,0.1605980396270752,0.049418047,0.14400111,-198.06056872787605,-0.09021334279824189,-2.4531215625738847,0.0,2098,0.3571970462799072,0.010500969486682313,0.010457544369091465,102876,-152.1083811249914,0.0
50,2.1391849517822266,-190.95490595548873,13.568601916871676,-164.45682508080068,-229.78364418277374,0.0,0.6497578301464447,0.1,0.053052663803100586,0.24120593070983887,0.050905555,0.17039719,-197.35000245063733,-0.08993618122941682,-2.4567889989695657,0.0,2113,0.3548121452331543,0.009263518255736758,0.008683791386181224,104989,-181.203787457825,0.0
51,2.204083204269409,-193.69792341067992,14.24339621796424,-166.77540592787264,-238.98385561402824,0.0,0.6296585109165093,0.1,0.006376504898071289,0.19519352912902832,0.049804732,0.16055302,-196.98479454664158,-0.09029788802781506,-2.4935325556744696,0.0,2130,0.35465288162231445,0.008972625853169429,0.008551182695199394,107119,-162.27319446117144,0.0
52,2.3707308769226074,-188.2381021380352,15.128424010736552,-155.5466363641695,-226.20125282761202,0.0,0.6562737491634983,0.1,0.006077766418457031,0.14324140548706055,0.049644344,0.15289177,-196.11012530578094,-0.08937556314858415,-2.4218850249438018,0.0,2103,0.29680633544921875,0.010574005354434967,0.009419947898624019,109222,-185.27555640088548,0.0
53,2.200226068496704,-190.00092678399437,15.274947398187805,-164.08602545682805,-232.56817696997723,0.0,0.6737617224437297,0.1,0.012406587600708008,0.5651588439941406,0.04989524,0.15850192,-195.4992054536023,-0.08957502933037205,-2.444148791936281,0.0,2114,0.42882680892944336,0.009913046458735822,0.00938791098870395,111336,-161.75869703634118,0.0
54,2.2358391284942627,-191.208917683443,13.92745804072695,-162.21872743883853,-236.09262082893872,0.0,0.6582401884549383,0.1,0.007527589797973633,0.7602250576019287,0.05094608,0.15306592,-195.07017667658636,-0.08921107351947728,-2.460452602314383,0.0,2139,0.34102773666381836,0.009020617012037302,0.008776301003885486,113475,-160.29587288450378,0.0
55,2.290067672729492,-187.7558353364196,14.26284645840116,-162.4255635236553,-223.19675207214578,0.0,0.673077480856965,0.1,0.04119706153869629,0.32837653160095215,0.048888694,0.15146333,-194.3387425425697,-0.08845906580838697,-2.414195095957074,0.0,2130,0.5456452369689941,0.00917658682447765,0.008850386846200731,115605,-161.44438873219374,0.0
56,2.2514560222625732,-186.38542744779593,14.685409753064755,-161.41778458132083,-224.44080755185445,0.0,0.6594855616741927,0.1,0.045722246170043945,0.15175843238830566,0.050150946,0.15407619,-193.5434110330923,-0.0883970529878153,-2.396661175283073,0.0,2116,0.3097977638244629,0.008767885844061978,0.008325153847304001,117721,-153.19219369636136,0.0
57,2.1668460369110107,-184.8701317029843,14.20956057743982,-156.4403819385064,-241.06414063303575,0.0,0.6962113187565394,0.1,0.00623631477355957,0.1469283103942871,0.050002407,0.14694361,-192.6760831000815,-0.08764010726784068,-2.37590634825119,0.0,2150,0.3006255626678467,0.007953894324251322,0.007558867368940701,119871,-185.6957738817927,0.0
58,2.214759349822998,-185.83258097742828,13.583407138258414,-155.0818328607358,-222.10087962191048,0.0,0.690397968362498,0.1,0.006215333938598633,0.14564275741577148,0.048241716,0.14432126,-191.9917328878162,-0.0873151328876145,-2.3884094455311806,0.0,2162,0.3889594078063965,0.008484307376523439,0.007980243101609098,122033,-169.13490117818105,0.0
59,2.286742687225342,-187.07283034975686,14.085478286318947,-158.7174258505417,-237.13049249271353,0.0,0.6846835339678136,0.1,0.006387948989868164,0.148817777633667,0.049053006,0.14302105,-191.49984263401026,-0.08713576794456405,-2.4062677833876513,0.0,2174,0.30234360694885254,0.008247884354842425,0.007918139930736073,124207,-185.87969064999209,0.0
60,2.4713971614837646,-183.07084329071776,14.087803578001633,-150.0838190056309,-225.70928076994846,0.0,0.7069696804937696,0.1,0.006347179412841797,0.14836907386779785,0.05097284,0.14105545,-190.65694269968103,-0.08632044657939614,-2.3513115592553073,0.0,2170,0.311204195022583,0.008710264040289926,0.007428758906866765,126377,-155.3332833925471,0.0
61,2.2697722911834717,-181.3050344768416,12.873150427588742,-154.75745126096467,-215.74106307768193,0.0,0.6888073229458538,0.1,0.006379127502441406,0.15233564376831055,0.049624562,0.14672694,-189.72175187739708,-0.08566312731085463,-2.328402536365255,0.0,2174,0.30419468879699707,0.00829134925112679,0.00779389236082766,128551,-182.45984317582185,0.0
62,2.2121503353118896,-182.15468682117717,14.599392105228484,-146.2840365784795,-221.11589721483148,0.0,0.6717332489147787,0.1,0.0069730281829833984,0.15857577323913574,0.04983678,0.14894633,-188.9650453717751,-0.08551554422784687,-2.3387878961656274,0.0,2201,0.34479427337646484,0.008958309725003397,0.008541804565931467,130752,-169.46313148121112,0.0
63,2.3037075996398926,-182.41316517379389,12.153556769934879,-153.71943573054006,-208.49385319226593,0.0,0.709546955132526,0.1,0.006899595260620117,0.1493511199951172,0.050149538,0.14477092,-188.30985735197697,-0.08559213920856469,-2.3430109746739713,0.0,2193,0.36177515983581543,0.007127430859588402,0.0067057495422857384,132945,-154.04166007480524,0.0
64,2.3245761394500732,-185.55721570376383,14.704373234090085,-148.76625624720148,-227.38192184859284,0.0,0.7089052503037417,0.1,0.00659942626953125,0.17637872695922852,0.04999069,0.1388783,-188.03459318715568,-0.08496056025440107,-2.38362257268721,0.0,2241,0.4443507194519043,0.009019415349116803,0.008449192155133591,135186,-166.0992976801361,0.0
65,2.676375389099121,-182.44377082476117,13.808976499730626,-158.33725424607962,-250.47138108283986,0.0,0.7144157369964,0.1,0.01199650764465332,0.2777130603790283,0.050791726,0.13438398,-187.47551095091623,-0.08448639828359432,-2.3436673652829545,0.0,2237,0.3491706848144531,0.00783363168235942,0.007554843936652013,137423,-154.9809838939817,0.0
66,2.6816060543060303,-180.45827527957786,14.787919719701124,-152.12713931649552,-216.06311212712626,0.0,0.7699408626068428,0.1,0.006531476974487305,0.15320348739624023,0.051162556,0.12987804,-186.7737873837824,-0.08371448583641643,-2.3179147379833065,0.0,2237,0.35270190238952637,0.00845626047532341,0.008206773626813236,139660,-157.70667646130096,0.0
67,2.3172125816345215,-180.55667755946754,14.161865391609096,-154.7231847289711,-213.23192657962662,0.0,0.6996182204127608,0.1,0.006075382232666016,0.14458012580871582,0.047418952,0.14471073,-186.15207640135094,-0.08511721497908124,-2.318671187139383,0.0,2208,0.31020021438598633,0.007559431320892967,0.007058459139955788,141868,-157.65766058408536,0.0
68,2.418245792388916,-177.28580384321717,13.283697055585924,-149.2961142654566,-214.25490022573226,0.0,0.7432423634732601,0.1,0.006413459777832031,0.14787650108337402,0.049863774,0.14187309,-185.26544914553756,-0.0836419337937168,-2.274216351284763,0.0,2228,0.31227874755859375,0.006845371820356151,0.006619689166287023,144096,-179.2005568161353,0.0
69,2.4879372119903564,-176.77545455326276,12.920518321110825,-148.45089493319725,-204.92306086541345,0.0,0.7196706242952989,0.1,0.006943464279174805,0.14895176887512207,0.05007603,0.13955876,-184.4164496863101,-0.08331819009586104,-2.266864380815688,0.0,2232,0.3260791301727295,0.007009348307847839,0.006862303792614578,146328,-173.7157619753446,0.0
70,2.5207245349884033,-176.9407291899838,15.25073270383383,-151.36174069351762,-226.68592858199423,0.0,0.74425466729532,0.1,0.006626605987548828,0.14883875846862793,0.048659373,0.13464165,-183.66887763667748,-0.08312613725920108,-2.2695979021400405,0.0,2240,0.3387463092803955,0.00843539864359567,0.008069044933800349,148568,-154.23399176878567,0.0
71,2.2073373794555664,-176.4886863692869,14.25228505192853,-144.0464253199625,-212.04404334066146,0.0,0.7404855464021858,0.1,0.00678563117980957,0.15372133255004883,0.04905155,0.13659297,-182.95085850993843,-0.08262876927075168,-2.263754642463745,0.0,2262,0.392319917678833,0.00786356053594137,0.007419161280148808,150830,-163.93269440242926,0.0
72,2.358591318130493,-176.27193584092825,12.663392094060331,-144.58941425491423,-213.00449219837276,0.0,0.7469474630052684,0.1,0.007293224334716797,0.4327433109283447,0.048836384,0.13053836,-182.2829662430374,-0.08277223805330457,-2.2606401181659197,0.0,2248,0.33551526069641113,0.006644863413428538,0.006170639619616701,153078,-149.83879438506688,0.0
73,2.367044687271118,-173.11761277455923,15.203592355782346,-142.002269560838,-210.1315396643368,0.0,0.7436526414248985,0.1,0.006635189056396484,0.15400958061218262,0.0501558,0.13034035,-181.3664308961896,-0.0812190190276883,-2.220213731499973,0.0,2272,0.4009823799133301,0.00856848579776546,0.007832249582326397,155350,-163.8931318907953,0.0
74,2.6405181884765625,-176.03403056003208,14.568599673293209,-146.27322698555915,-217.06446717915375,0.0,0.7188907235604651,0.1,0.005027055740356445,0.1122889518737793,0.048121538,0.13737425,-180.83319086257384,-0.08197342797483731,-2.2575890219286605,0.0,2292,0.2875401973724365,0.008225188990888194,0.007083120637631108,157642,-141.88549143871865,0.0
75,2.2254204750061035,-172.1371906335406,12.225583081385135,-137.3908315912765,-198.96948810598005,0.0,0.7571784779250661,0.1,0.0064983367919921875,0.15673565864562988,0.04884826,0.12936151,-179.96359083967053,-0.08104621934786405,-2.2058096291270712,0.0,2291,0.3876931667327881,0.006531549836877911,0.005863207089775526,159933,-177.1486122965557,0.0
76,2.525381326675415,-172.80238896005048,13.984826112331522,-148.5575322464061,-210.2200341371305,0.0,0.7576813352144507,0.1,0.010228633880615234,0.2609400749206543,0.044847704,0.1239918,-179.24747065170854,-0.08088376718485656,-2.2151470908883417,0.0,2300,0.3746664524078369,0.00705976402560097,0.006757609090496545,162233,-158.57281710837435,0.0
77,2.3309905529022217,-171.27054336055414,13.143138527103885,-148.80689519510065,-202.20333668048335,0.0,0.776649209975088,0.1,0.006615400314331055,0.14826679229736328,0.044850674,0.121810466,-178.44977792259309,-0.08023269249724023,-2.194386391689433,0.0,2320,0.34021496772766113,0.007214822567798933,0.006544024841118481,164553,-162.10886504573375,0.0
78,2.3912181854248047,-169.06871521902787,11.990864519755778,-143.3700532470641,-203.334499976786,0.0,0.7508204567445674,0.1,0.033860206604003906,0.3320004940032959,0.048978027,0.13590282,-177.51167165223657,-0.07930430096682718,-2.165678940913432,0.0,2338,0.4369781017303467,0.006240302895326837,0.0053913259617471366,166891,-161.2666110109278,0.0
79,2.407423496246338,-169.22121725265978,11.860230169324247,-137.553521594875,-197.5885733024685,0.0,0.7974097900163072,0.1,0.04608440399169922,0.14817309379577637,0.05058317,0.12595601,-176.6826262122789,-0.07854146707328728,-2.1668747270623623,0.0,2370,0.3466954231262207,0.0055294384704050676,0.005301327771097248,169261,-160.88906894558542,0.0
80,2.4068832397460938,-167.61065871151212,13.924307638652381,-132.06526142224797,-194.26294069910213,0.0,0.7549285550665857,0.1,0.00669097900390625,0.15454745292663574,0.049978882,0.13481046,-175.77542946220223,-0.07794052271596615,-2.1463033471973842,0.0,2380,0.34822750091552734,0.007038493781098107,0.006421762621315903,171641,-161.92810855941462,0.0
81,2.255624771118164,-168.1716976321038,13.355699995221082,-140.83986067650284,-212.66297326143572,0.0,0.7872123098356506,0.1,0.0063974857330322266,0.1585540771484375,0.050430603,0.12454917,-175.0150562791924,-0.07765118655151007,-2.1541758082101903,0.0,2399,0.3455069065093994,0.006209936352429425,0.005881435048438901,174040,-183.07372704689612,0.0
82,2.6933302879333496,-168.2500625834277,13.039776230245755,-140.8098964344266,-196.37879301320973,0.0,0.7772500315048138,0.1,0.0065152645111083984,0.14979195594787598,0.048341,0.12119502,-174.33855690961593,-0.07833552522515562,-2.1527630122456554,0.0,2388,0.36896395683288574,0.00606102919476803,0.005617565393977047,176428,-193.4366715658197,0.0
83,2.300464630126953,-167.4428579696274,14.081545707329605,-131.40882130933014,-201.10762390058602,0.0,0.8072238311282883,0.1,0.03506636619567871,0.2099611759185791,0.04953557,0.12024058,-173.64898701561708,-0.07720639877070008,-2.1434264288753613,0.0,2407,0.41074299812316895,0.006694608195796628,0.006425332813969339,178835,-172.8706080714067,0.0
84,2.352616310119629,-166.92490640523297,11.577108417863453,-136.2872693029825,-195.30358311107815,0.0,0.7988826172991258,0.1,0.013453483581542969,0.33215904235839844,0.05089949,0.1304332,-172.97657895457866,-0.07702737053576979,-2.136470349891843,0.0,2430,0.46508073806762695,0.005741695172926089,0.0053689328164212265,181265,-199.25577307101565,0.0
85,2.3945915699005127,-168.12530444398632,14.781045824634443,-129.94855510312075,-213.84070242630867,0.0,0.7774852672861993,0.1,0.04628562927246094,0.23017096519470215,0.050600745,0.13177592,-172.49145150351944,-0.0764810563117708,-2.151470570830685,0.0,2466,0.39843010902404785,0.006763067432414659,0.006416667838686065,183731,-195.26563652020056,0.0
86,2.5092291831970215,-167.4619185040428,14.615627567225351,-138.28472027690495,-203.50605154062424,0.0,0.8078384784209994,0.1,0.006512641906738281,0.1562645435333252,0.049829792,0.12327467,-171.98849820357177,-0.07663923967700802,-2.1440760215365056,0.0,2461,0.36246275901794434,0.007439012895125642,0.006937740048495376,186192,-186.58187097755405,0.0
87,2.7547051906585693,-165.83458089324694,13.380892531569893,-137.61505502220265,-199.58001020042852,0.0,0.7975243565018694,0.1,0.006726980209350586,0.5007519721984863,0.049899444,0.13824196,-171.3731064725393,-0.07621210852002064,-2.120881801854092,0.0,2472,0.4201953411102295,0.006036181679455198,0.005881047416340198,188664,-208.00200633657118,0.0
88,2.76442551612854,-166.6377069472075,13.129660140471561,-136.48287846097017,-196.57122479757484,0.0,0.7861258322897204,0.1,0.03455853462219238,0.28626275062561035,0.04998683,0.13040674,-170.89956652000612,-0.07706669216254425,-2.133111645538079,0.0,2458,0.3561856746673584,0.00655688715589438,0.005658404605152255,191122,-184.20648283913073,0.0
89,2.385279893875122,-165.00607708764693,13.81467242246699,-135.50286378068552,-194.18467080447522,0.0,0.7673314016079354,0.1,0.006503582000732422,0.15674400329589844,0.050351895,0.13109033,-170.3102175767702,-0.0770277839951677,-2.1112483989272413,0.0,2428,0.3430290222167969,0.007076382137896149,0.006547235419972105,193550,-198.1009866509021,0.0
90,2.391058921813965,-164.4530147202762,14.749686741019257,-133.4946372705332,-214.35315179001404,0.0,0.7933534126370576,0.1,0.026316404342651367,0.16207003593444824,0.049944665,0.12854074,-169.7244972911208,-0.07582860880009724,-2.103185505987263,0.0,2473,0.34739041328430176,0.00635632490500764,0.0060527969582100044,196023,-205.84384373063062,0.0
91,2.47598934173584,-164.32888811331716,14.191669136558042,-137.83724720605338,-221.0346107442523,1.0416666666666667,0.7727806706784461,0.1,0.07304549217224121,1.0440027713775635,0.05070313,0.12226494,-169.18493637334043,-0.07542459900895353,-2.101239181399725,1.0416666666666667,2493,0.40395689010620117,0.00607496138872122,0.005774367561411249,198516,-214.5307600213294,0.0
92,2.652679681777954,-161.90431303530224,15.390953027164826,-124.08695352252211,-196.06488702572622,1.0416666666666667,0.8012899632911731,0.1,0.012718439102172852,0.21660804748535156,0.050137393,0.12813841,-168.45687403953661,-0.07479492367311229,-2.0699170356763315,1.0416666666666667,2497,0.4107553958892822,0.007008557589196857,0.006817486225790756,201013,-193.52974835155277,0.0
93,2.46351957321167,-163.0732161820637,14.137182581717072,-131.59377874590814,-195.97490133936597,0.0,0.8277237945945641,0.1,0.007152557373046875,0.23006057739257812,0.050798777,0.12244166,-167.91850825378933,-0.07576215064198176,-2.08523664060289,0.0,2484,0.38596034049987793,0.007138371037920655,0.0061699133143425225,203497,-172.23640034148488,0.0
94,2.495950937271118,-162.95946736641284,14.642980004135602,-124.62470629840794,-195.69721232593687,1.0416666666666667,0.790657128842562,0.1,0.006043434143066406,0.1442551612854004,0.050363917,0.12430401,-167.42260416505167,-0.07474884758279472,-2.084226122459387,1.0416666666666667,2527,0.3575558662414551,0.006921123458790351,0.006571443223220437,206024,-169.13710792663676,0.0
95,2.3392586708068848,-161.77241172191196,14.024000832905706,-127.41325637434865,-195.53059892925899,0.0,0.7789682253436467,0.1,0.006363391876220703,0.14787507057189941,0.051125057,0.12635697,-166.8575849207377,-0.07431423214132844,-2.0681730788980146,0.0,2539,0.39095139503479004,0.006185589783206171,0.005855616784418483,208563,-158.5084863760302,0.0
96,2.8235883712768555,-158.9589630489739,13.944586964710913,-127.6153284429366,-192.1464007934652,3.125,0.7994064077736676,0.1,0.04561614990234375,0.28644323348999023,0.050689597,0.12389946,-166.0677227335613,-0.07354498776883772,-2.0300615212287774,3.125,2589,0.3703157901763916,0.006825561449802339,0.00633633199422673,211152,-172.426349189819,0.0
97,2.535832166671753,-157.12198459092997,14.261125718628229,-129.91884022968858,-192.76494877329614,0.0,0.8283056672344643,0.1,0.028171062469482422,0.35642433166503906,0.04966407,0.1179124,-165.1731489192982,-0.07258702789143343,-2.0066148235048984,0.0,2580,0.3690907955169678,0.00729838351062625,0.007003174032443028,213732,-164.2815610748842,0.0
98,2.3554751873016357,-155.79350141066155,16.59950045057801,-111.25428865176596,-202.96077945963842,4.166666666666667,0.7905823090078382,0.1,0.04156088829040527,0.18658137321472168,0.05025938,0.13167006,-164.23518416843453,-0.07259189504608009,-1.9892312302542507,4.166666666666667,2615,0.3627166748046875,0.008167281589836112,0.0077272160244557546,216347,-137.11177221012827,0.0
99,2.622356653213501,-157.57337527403192,16.084056717319758,-121.50037317231072,-186.82306293755323,1.0416666666666667,0.7833679440537293,0.1,0.03659653663635254,0.35818982124328613,0.050194923,0.12322781,-163.56900327899427,-0.07236670189196785,-2.0129293495446867,1.0416666666666667,2634,0.37725090980529785,0.007071666363290128,0.006668066185313637,218981,-102.99085908879624,0.0
100,2.6305925846099854,-156.08100865230176,16.289055250516547,-121.04139283786205,-198.59358794262275,2.0833333333333335,0.8226474114919521,0.1,0.00717926025390625,0.23739027976989746,0.04972696,0.1236568,-162.82020381632503,-0.07173040665338791,-1.9920886284559796,2.0833333333333335,2669,0.4217061996459961,0.007806295970494441,0.007422688629862297,221650,-126.82313847636665,0.0
101,2.7540299892425537,-155.49601181714323,16.649367083792377,-121.42271534035886,-225.97477205887424,1.0416666666666667,0.8103463075340424,0.1,0.006991386413574219,0.21417737007141113,0.050053634,0.11933914,-162.08778461640685,-0.07128211023665806,-1.9844339254634062,1.0416666666666667,2670,0.42866969108581543,0.007078822193195215,0.006608391642621241,224320,-113.3840556746884,0.0
102,2.6006827354431152,-149.79652205517684,15.073101868554938,-123.88998080585377,-189.60356020486418,3.125,0.8199578272430439,0.1,0.006953239440917969,0.20743703842163086,0.05091981,0.12041561,-160.85865836028384,-0.06935126989588236,-1.9082825973176527,3.125,2691,0.42411017417907715,0.007723885993139564,0.006725386691840599,227011,-126.72244652204412,0.0
103,2.569880485534668,-154.78567800030325,16.703179399651336,-122.37833452359956,-208.9714989372775,2.0833333333333335,0.8450220043123496,0.1,0.050081491470336914,1.201305627822876,0.0498146,0.118152216,-160.2513603242858,-0.0709049781380786,-1.9741703652672082,2.0833333333333335,2703,0.4503443241119385,0.009223310735667579,0.007869736400724296,229714,-108.41750527056097,0.0
104,2.646602153778076,-151.30377800176382,17.17072455626576,-114.04402272998763,-203.32637457202048,7.291666666666667,0.8205288558431245,0.1,0.058800697326660156,0.29067301750183105,0.051374204,0.116065,-159.3566020920336,-0.06913520272598277,-1.928115888634152,7.291666666666667,2775,0.45142459869384766,0.009100670294735134,0.008078552368417341,232489,-109.80052347541695,0.0
105,2.924746513366699,-152.9901165909955,18.473173937748967,-115.7813049751515,-203.92992608924766,6.25,0.8552187767802503,0.1,0.04676938056945801,0.33780813217163086,0.04965132,0.115005955,-158.7199535419298,-0.06925304077819949,-1.9503834908379878,6.25,2786,0.3947165012359619,0.008892350680705832,0.008534474657223519,235275,-118.13607049383151,0.0
106,2.6925697326660156,-150.00963005778604,17.421781501756307,-103.71557224200367,-205.03953077655623,10.416666666666666,0.8572133404214244,0.1,0.00617671012878418,0.14686822891235352,0.050662965,0.11550366,-157.84892119351542,-0.0690513536611591,-1.911215180632477,10.416666666666666,2790,0.37984395027160645,0.008384126410833486,0.008428373405804717,238065,-87.01656087331142,100.0
107,2.701603889465332,-147.93341730873186,16.147515989231398,-107.56803429936531,-179.94886458678138,9.375,0.8353273066715915,0.1,0.006544589996337891,0.152144193649292,0.05073902,0.117108814,-156.85737080503708,-0.06867128717801842,-1.8828379540718974,9.375,2785,0.3776402473449707,0.009420093241241457,0.008553739331230987,240850,-94.08316130494501,100.0
108,2.6619129180908203,-148.5622874140595,18.11165681878898,-111.2467537680814,-198.83244232400187,10.416666666666666,0.8299207798915472,0.1,0.00635838508605957,0.1479334831237793,0.05016494,0.1233398,-156.0278624659393,-0.06813133469016903,-1.8911072934369422,10.416666666666666,2838,0.39527058601379395,0.0093920285202439,0.008601184876076215,243688,-76.12622428372521,100.0
109,2.858560085296631,-147.24885067095818,16.04372887849514,-103.41756822404915,-182.2617269161737,15.625,0.8936073146573428,0.1,0.00644683837890625,0.1499025821685791,0.04808879,0.106569186,-155.1499612864412,-0.06805916526361513,-1.8736542852453295,15.625,2831,0.3886075019836426,0.008241270979595983,0.007880942668060845,246519,-65.43125491019795,100.0
110,3.2217934131622314,-147.35573380441267,19.14192431805451,-112.28886713619174,-206.62647246005938,15.625,0.8678429185127585,0.1,0.0063822269439697266,0.1479036808013916,0.04571496,0.10579056,-154.37053853823835,-0.0674855915353108,-1.8745987275224334,15.625,2865,0.39811277389526367,0.009569415483085382,0.009010760794247525,249384,-78.10519939877187,100.0
111,3.182922124862671,-147.30785793289215,17.596772849958505,-92.89196372520087,-194.68693913872315,21.875,0.9236010757246196,0.1,0.007126808166503906,0.16919422149658203,0.049551394,0.11163526,-153.66427047770372,-0.0672769909189128,-1.8745659671825674,21.875,2909,0.461972713470459,0.00965392197378298,0.009025401925635987,252293,-71.870830666692,100.0
112,2.8234989643096924,-142.2501517243596,16.285377405356975,-99.58057709170339,-180.4157002216902,25.0,0.8703673543567267,0.1,0.007218360900878906,0.229400634765625,0.050688613,0.111064255,-152.5228586023693,-0.0665793900704968,-1.8083070569681154,25.0,2896,0.4560256004333496,0.008549332204713028,0.008068592847139804,255189,-42.54004312759872,100.0
113,2.8397889137268066,-146.13711882703555,17.24982055548758,-103.30921136944266,-193.29024641315368,23.958333333333332,0.9177289589748714,0.1,0.006739377975463867,0.16514062881469727,0.049833227,0.10741037,-151.8842846248359,-0.06733311199596966,-1.8584444652549008,23.958333333333332,2910,0.4487876892089844,0.009322104699080114,0.008246818524474363,258099,-37.97247213450544,100.0
114,2.9323103427886963,-136.09819407594117,16.322226780300543,-96.5955599800501,-176.60145309820805,35.416666666666664,0.9056952479658016,0.1,0.06780886650085449,0.3458373546600342,0.05078456,0.11298327,-150.30567556994646,-0.06502869573815619,-1.725376851945823,35.416666666666664,2989,0.4634287357330322,0.01203309427976904,0.009625181914015929,261088,-36.997587995404174,100.0
115,3.0327084064483643,-138.8791032847337,15.988524922021787,-99.00354579310272,-180.5344966732817,35.416666666666664,0.9316135712355861,0.1,0.0067157745361328125,0.2728233337402344,0.04974921,0.10546547,-149.1630183414252,-0.06458824179143931,-1.7618237356669126,35.416666666666664,3036,0.6811387538909912,0.008753908939750678,0.00821649618451508,264124,-54.23345703670908,100.0
116,2.882709264755249,-137.15798751230332,18.114368324482975,-90.95692393719813,-202.45726285564854,26.041666666666668,0.9385037186440174,0.1,0.006505727767944336,0.15740442276000977,0.049107537,0.10436647,-147.962515258513,-0.06487655612306424,-1.7385891056561429,26.041666666666668,2967,0.4127771854400635,0.010718139544867559,0.010194665243364199,267091,-36.76939386524987,100.0
117,2.899984121322632,-139.31263695721324,14.39636188959916,-104.04852893406161,-172.87919287885794,28.125,0.9085528598443546,0.1,0.006476879119873047,0.15720915794372559,0.050618496,0.11146245,-147.09752742838305,-0.06480589191252878,-1.7686876195843375,28.125,3017,0.40388989448547363,0.0074898263375930965,0.00734917728636811,270108,-37.870975247780635,100.0
118,3.1841931343078613,-137.40366844368512,18.236109050338424,-90.18199071237572,-181.83058669129383,35.416666666666664,0.9445542718858462,0.1,0.006941318511962891,0.2133469581604004,0.050944306,0.10561944,-146.12814152991325,-0.0641214419409666,-1.7419572283570097,35.416666666666664,3057,0.8157429695129395,0.01164097035182342,0.01133375478108779,273165,-54.83519693171669,100.0
119,3.1788458824157715,-135.90524498885097,20.380477887534873,-73.70932659037571,-192.40603308769448,36.458333333333336,0.9239585357031489,0.1,0.04705810546875,0.6711184978485107,0.050677255,0.109712526,-145.10585187580702,-0.063610485080095,-1.722979182350134,36.458333333333336,3095,0.4762580394744873,0.012449855232356352,0.011761455203413441,276260,-24.092629603930146,100.0
120,2.914008855819702,-132.95098156581344,17.721725074652447,-88.65738784354532,-176.6477227206156,40.625,0.9646730945745857,0.1,0.006715536117553711,0.15487408638000488,0.048390713,0.10252128,-143.89036484480766,-0.06228947831892181,-1.6837144401491686,40.625,3155,0.4219627380371094,0.010266092861206345,0.009856818922400841,279415,-25.835075112018085,100.0
121,2.785020351409912,-133.76749834521908,18.836961564061365,-84.97151278359296,-189.83327281925716,48.958333333333336,0.9745065231727065,0.1,0.03702545166015625,0.15773630142211914,0.0506259,0.10264782,-142.87807819484883,-0.0632634011823303,-1.6943316203685346,48.958333333333336,3106,0.4825708866119385,0.01178008504130668,0.011353556635493391,282521,-32.99002325114636,100.0
122,3.0643861293792725,-130.76976717359867,19.8903389765894,-68.57813768740431,-181.09167806737597,40.625,0.9493916038050886,0.1,0.00641179084777832,0.15160202980041504,0.04854281,0.104952686,-141.6672470927238,-0.06256729586862453,-1.653814186196369,40.625,3132,0.4260389804840088,0.012470407749514644,0.012018849110064145,285653,-1.3004743569304296,100.0
123,2.9487693309783936,-128.96538196744405,21.52879227491205,-68.73205932674404,-178.66409748677432,55.208333333333336,0.9567846491707137,0.1,0.047659873962402344,0.45148468017578125,0.04682679,0.10438927,-140.39706058019584,-0.06191707284070147,-1.6299053579306182,55.208333333333336,3178,0.46283626556396484,0.015237765670889462,0.014748730577444807,288831,21.502446299920642,100.0
124,2.8450615406036377,-131.16162848074782,19.084210678609868,-86.28086055938674,-174.10909650326866,43.75,0.9917856524984534,0.1,0.013082504272460938,0.22559618949890137,0.04999515,0.09820891,-139.47351737025105,-0.061495222908955094,-1.659859997134052,43.75,3208,0.48297786712646484,0.012025862048298844,0.01178274617232683,292039,25.068456151953875,100.0
125,2.8200361728668213,-129.67939968062646,22.536746867725245,-75.1973928555376,-175.69815154957223,52.083333333333336,0.9917351767606345,0.1,0.006768226623535156,0.16092276573181152,0.044970203,0.09297997,-138.4941056012886,-0.0618177378489822,-1.6401010458745002,52.083333333333336,3205,0.4378702640533447,0.015478040886543892,0.014779977882934097,295244,-23.595660538574467,100.0
126,2.982722282409668,-122.62658322852036,21.66598824804057,-58.81850188932066,-180.5993923377854,70.83333333333333,1.0432293621812867,0.1,0.06995773315429688,0.2202286720275879,0.049973555,0.09872783,-136.90735336401178,-0.060161931155714644,-1.5462260898980018,70.83333333333333,3279,0.4915425777435303,0.016542451194827487,0.015705353211005576,298523,-58.30307371502013,0.0
127,2.869476079940796,-127.81655940040999,22.268007162849468,-82.52874263591332,-192.12834554504775,54.166666666666664,0.9439149946942741,0.1,0.013316631317138672,0.19043254852294922,0.05049326,0.108104415,-135.9982739676516,-0.060421740374232334,-1.6151839145619318,54.166666666666664,3317,0.5508513450622559,0.014706494748129455,0.013495528675087179,301840,34.6595264549416,100.0
128,2.9117376804351807,-124.4746486426093,23.79386823116726,-74.206938543554,-183.97055114430984,62.5,1.012326029562557,0.1,0.006741523742675781,0.15831279754638672,0.04750535,0.099305764,-134.84591143514737,-0.0609076089376309,-1.5722765259332518,62.5,3253,0.4298980236053467,0.01828550530889908,0.017695430472305117,305093,40.60846035110828,100.0
129,3.0950419902801514,-127.16536504310352,21.281468644332243,-81.61853333969339,-187.19196276164303,53.125,0.9435391353907668,0.1,0.050298452377319336,0.16753864288330078,0.04975517,0.10401663,-134.07785679594298,-0.06134703138908753,-1.6046773596186164,53.125,3230,0.4803004264831543,0.014376444877286565,0.013941845081936076,308323,-4.526004618319682,100.0
130,3.0192818641662598,-120.11499823349503,24.99071949612752,-78.63320776613725,-173.3070713115754,61.458333333333336,1.038963637958022,0.1,0.006833314895629883,0.16121411323547363,0.047377408,0.09411705,-132.6815709396982,-0.059335403949497066,-1.513539547635592,61.458333333333336,3336,0.48325157165527344,0.019589244452576052,0.018525678700707197,311659,-108.82999597854449,100.0
131,2.814542770385742,-119.92565597116834,26.09587684863381,-62.50570498809521,-183.3941068752585,58.333333333333336,1.0357688648774117,0.1,0.0065670013427734375,0.15750765800476074,0.04781061,0.09062731,-131.4059794428452,-0.05922003690311598,-1.5108582736441025,58.333333333333336,3355,0.4290812015533447,0.020292930982304995,0.01981178674600964,315014,-162.97798375994665,0.0
132,3.039522409439087,-118.28573838030094,22.870731637273202,-57.48300693046154,-176.66790729746657,63.541666666666664,0.9868443190401686,0.1,0.006544351577758789,0.15193843841552734,0.047681406,0.09966891,-130.09395533659077,-0.058334879287633534,-1.487533100948237,63.541666666666664,3460,0.4591820240020752,0.016508280836574744,0.01580893556694489,318474,-165.73540553981377,0.0
133,3.2270283699035645,-109.96594264180526,27.395640458485854,-50.74897336839081,-171.65202842760337,73.95833333333333,1.0624544627053212,0.1,0.016668319702148438,0.2727224826812744,0.04992147,0.09385289,-128.0811540671122,-0.05720504364095264,-1.3775249932504814,73.95833333333333,3498,0.5367581844329834,0.025349831663039866,0.023731119758957708,321972,-130.51648767847044,100.0
134,2.9718716144561768,-115.65672277782171,23.675663977958305,-57.515706957086614,-175.21403009234785,68.75,1.0032124880143012,0.1,0.006948947906494141,0.19892644882202148,0.048114203,0.095619015,-126.83871093818316,-0.057841584679324355,-1.4520913317867477,68.75,3481,0.517578125,0.019776880108282026,0.017150556135660012,325453,-98.63689930803173,100.0
135,3.072876214981079,-111.87231102043427,26.206326494904037,-65.7065248512383,-176.83967043963833,69.79166666666667,1.0120713227985145,0.1,0.006604909896850586,0.16118121147155762,0.04803921,0.0927433,-125.34207094640827,-0.056854416459712155,-1.4031345537547317,69.79166666666667,3525,0.46895456314086914,0.020181041353641512,0.019075489932641774,328978,-111.60956747765476,100.0
136,3.579723596572876,-113.99824611828006,26.147215482414126,-58.96848417216009,-178.52074754448557,69.79166666666667,1.0732426429145279,0.1,0.007024288177490234,0.23891496658325195,0.04778173,0.08800388,-124.20768846359546,-0.05741700950283102,-1.4309985276850554,69.79166666666667,3527,0.6644556522369385,0.02267528226619018,0.0209642029792177,332505,208.69249369422093,0.0
137,3.238969087600708,-115.09927803658907,27.589420375575713,-52.90896763409418,-207.36491438577343,64.58333333333333,1.0352579312126156,0.1,0.010549545288085938,0.18998074531555176,0.04621299,0.08571466,-123.29684742089482,-0.05612418075994544,-1.4457600676263558,64.58333333333333,3647,0.5505185127258301,0.020919247193808343,0.02039129166120399,336152,228.42345358248056,100.0
138,3.0569705963134766,-111.37412584839586,27.04931660699995,-56.2314106936053,-178.90083462968337,72.91666666666667,1.1388064413515462,0.1,0.0067174434661865234,0.1662750244140625,0.04999745,0.088489346,-122.10457526364493,-0.05643441437547167,-1.3953579026898641,72.91666666666667,3611,0.47774386405944824,0.021600068708522942,0.02074668893291442,339763,-98.00828039898443,100.0
139,3.4279141426086426,-107.68971431228631,26.079408339951282,-58.45387644768018,-185.99379134171832,81.25,1.0359866716567911,0.1,0.032973527908325195,0.16546344757080078,0.046897784,0.08829728,-120.66308916850907,-0.05674231534260277,-1.3472468399124484,81.25,3545,0.48455023765563965,0.021850720398369456,0.021433825838816725,343308,232.85073754917312,100.0
140,3.1207940578460693,-111.95343676729765,27.136561913193606,-48.10568740725419,-182.22382094517627,71.875,1.047994055038074,0.1,0.007556915283203125,0.18044471740722656,0.04637864,0.083963744,-119.79212392838794,-0.05679973423232312,-1.4032438002986636,71.875,3562,0.4866321086883545,0.021526604377447238,0.020264970095191407,346870,225.73057583437668,100.0
141,3.0720818042755127,-107.78146515875834,26.79692951838339,-53.888163870553925,-176.40900036967713,69.79166666666667,1.0734553769220703,0.1,0.0066373348236083984,0.1659388542175293,0.049696527,0.08824183,-118.59105805142498,-0.055838557751769956,-1.347626257282472,69.79166666666667,3635,0.47344517707824707,0.020836843001589864,0.020225317112228202,350505,228.32423178169,100.0
142,3.029815673828125,-108.26295594896884,23.909631760188706,-62.549671727559264,-169.86143021343545,82.29166666666667,1.0385400044169688,0.1,0.0066988468170166016,0.1691267490386963,0.047302112,0.09715346,-117.55824784117937,-0.056690974300266796,-1.353504037665533,82.29166666666667,3526,0.4654669761657715,0.02008072223903069,0.01843868101314238,354031,215.48156312640103,100.0
143,3.1087803840637207,-107.57313683209888,26.648405726017618,-56.32056859602238,-181.09828656994137,76.04166666666667,1.069923529136333,0.1,0.00690007209777832,0.1566023826599121,0.046928115,0.08805458,-116.55973674027132,-0.05596372914416281,-1.3451757108555693,76.04166666666667,3644,0.5310254096984863,0.019468794858281235,0.01887631237013888,357675,220.16568080834082,0.0
144,3.1780447959899902,-96.0638345491157,22.953093553788186,-45.07600022329586,-166.27354758601155,93.75,1.0638003859041567,0.1,0.05736660957336426,0.45121335983276367,0.04718758,0.089519836,-114.51014652115576,-0.05451669789496324,-1.1925619537780878,93.75,3677,0.562368631362915,0.02283093052979683,0.018595843486748427,361352,217.89177849239994,100.0
145,3.112652063369751,-104.13598023685199,26.398728061648885,-48.00412759164812,-176.72226813462908,82.29166666666667,1.0639695919371048,0.1,0.017731428146362305,0.24252796173095703,0.046614125,0.092393175,-113.47272989272538,-0.05554178759300604,-1.29880549204231,82.29166666666667,3685,0.8833560943603516,0.023591382106687344,0.021003597570295556,365037,217.69420508847503,100.0
146,3.533581256866455,-100.97907344926976,27.694800591723485,-45.18338162870464,-166.90910028058312,80.20833333333333,1.101429212670881,0.1,0.019820690155029297,0.16351890563964844,0.0481069,0.089894235,-112.22336424837982,-0.05496422023653333,-1.2561771996751574,80.20833333333333,3688,0.4994933605194092,0.02470330094999729,0.023676420831122338,368725,202.25073652456018,0.0
147,3.0261998176574707,-95.67913402042768,26.579259171846605,-55.6539090004764,-173.34267644268425,87.5,1.0049702426664964,0.1,0.006855964660644531,0.1552140712738037,0.046124857,0.09093795,-110.56894122558461,-0.054286971997167276,-1.1859819888432013,87.5,3716,0.5084681510925293,0.02393588615409754,0.02267526804970748,372441,174.76155487154014,0.0
148,3.1948258876800537,-97.03810920409212,26.756567544432443,-44.11297342449544,-162.73687897095593,84.375,1.1059883784627849,0.1,0.006748199462890625,0.16128182411193848,0.04557726,0.08009459,-109.21585802343536,-0.05430130027061677,-1.204405638009824,84.375,3701,0.5121166706085205,0.022194283859962652,0.02159529493906987,376142,182.6667737801761,0.0
149,3.371333360671997,-97.76369000908672,28.213875951843345,-28.600832517828827,-158.1793509478017,81.25,1.0553745244363197,0.1,0.008004426956176758,0.17960119247436523,0.047013756,0.090359606,-108.0706412220005,-0.05446658220029002,-1.214235993490284,81.25,3726,0.5452492237091064,0.02369752645732444,0.023118498846016522,379868,185.38244566766062,0.0
150,3.2801923751831055,-93.06402756854006,27.744039781292493,-39.36705463781206,-167.39570915487943,85.41666666666667,1.0886870454851245,0.1,0.006989717483520508,0.1638777256011963,0.04792819,0.08777401,-106.56997985665447,-0.05330481505089311,-1.1501637582408488,85.41666666666667,3814,0.5266385078430176,0.025743684689982258,0.024441255347796672,383682,207.43323383564663,0.0
151,3.608708143234253,-95.20875081502459,28.184854738618036,-41.505054603255175,-179.20394672245448,80.20833333333333,1.0551623358742446,0.1,0.006758928298950195,0.16118478775024414,0.049137637,0.08954156,-105.43385695249148,-0.05379096457424589,-1.1812130900703852,80.20833333333333,3750,0.5127568244934082,0.024867431875263343,0.024614536581353173,387432,211.65396223038815,0.0
152,3.482754945755005,-93.61334238690931,24.59632403277462,-40.33768567548872,-154.84763266899483,80.20833333333333,1.0820081830642507,0.1,0.007030010223388672,0.16863632202148438,0.04972888,0.088888064,-104.25180549593327,-0.053169947508044046,-1.1583246778824636,80.20833333333333,3806,0.5188429355621338,0.021695381573540656,0.01981231958817964,391238,96.66650699752917,0.0
153,3.185753107070923,-96.97671487397137,27.331129882460317,-34.0443378528887,-159.9548809680251,82.29166666666667,1.1177820517940245,0.1,0.05911612510681152,1.0173580646514893,0.048346076,0.088709064,-103.52429643373708,-0.053725375344922936,-1.2046321715964377,82.29166666666667,3782,0.5688245296478271,0.024295591257804953,0.02318321553687502,395020,185.2499338323839,0.0
154,3.3814549446105957,-90.93134998478122,27.463154435309647,-29.857983216109133,-161.22611569566882,87.5,1.097993411529909,0.1,0.019240856170654297,0.1636333465576172,0.05012259,0.08919608,-102.26500178884149,-0.05329150409476482,-1.1236078299396668,87.5,3789,0.6084926128387451,0.026515411534189366,0.024486331818382737,398809,209.96245001891415,0.0
155,4.194904565811157,-90.39918152791513,30.638770763152714,-36.20646827667502,-194.55548899599202,85.41666666666667,1.1537012059554042,0.1,0.006934165954589844,0.16921782493591309,0.04973277,0.082945414,-101.07841976274885,-0.053167726125707665,-1.1163161363412593,85.41666666666667,3857,0.5492699146270752,0.02782499158397684,0.026747672760689793,402666,225.88311116446025,0.0
156,3.1462278366088867,-91.61600578078003,28.2706302194438,-30.04583403223454,-182.2636879518722,91.66666666666667,1.037821398247113,0.1,0.006970882415771484,0.17891287803649902,0.050556146,0.09614024,-100.13217836455198,-0.05354800613584774,-1.1312029413033036,91.66666666666667,3808,0.5341577529907227,0.026344487029970894,0.02519628016459813,406474,206.7790626619363,0.0
157,3.374279260635376,-80.90402073103543,23.39042655183955,-40.04977678528419,-155.9028444882648,93.75,1.0986195283686209,0.1,0.007050514221191406,0.17313742637634277,0.049913887,0.09009221,-98.20936260120033,-0.051262971660585833,-0.9895804686500478,93.75,4011,0.5766494274139404,0.023973353876017168,0.020015616611775373,410485,278.12554051121367,100.0
158,3.201465129852295,-90.5647937284253,29.954214353921543,-31.2969051907575,-163.55663170746715,85.41666666666667,1.1087187290120963,0.1,0.007010459899902344,0.16954302787780762,0.047495544,0.08465072,-97.44490571392282,-0.05334282875685329,-1.1183464544994284,85.41666666666667,3815,0.6088593006134033,0.02965896556760434,0.027272488354134688,414300,352.94140120969513,100.0
159,3.2862048149108887,-86.75131539688577,28.926663293529344,-26.313122510801072,-163.29368958787364,90.625,1.1135926022054363,0.1,0.006867408752441406,0.16541004180908203,0.044283677,0.080748126,-96.37554668221912,-0.05259153228925365,-1.0686213936763296,90.625,3915,0.5620224475860596,0.026853884805350163,0.025787740956764723,418215,247.5251274866498,100.0
160,3.7701706886291504,-84.4361038214888,30.309655655769966,-16.948639843259798,-164.89351893823329,84.375,1.1487814628973283,0.1,0.006949424743652344,0.16928458213806152,0.049503107,0.081270754,-95.18160239614609,-0.05197385156628859,-1.036939019587934,84.375,3964,0.580681324005127,0.029893992344644744,0.02890012945984622,422179,238.27785253691619,100.0
161,3.4762895107269287,-83.78628422641576,30.493415126267898,-32.71318919139952,-172.21264801368196,90.625,1.0550035080737135,0.1,0.006966352462768555,0.1648392677307129,0.04347112,0.08314995,-94.04207057917307,-0.05195209865455754,-1.0271312143927986,90.625,3939,0.5642633438110352,0.029482370977589784,0.02917096578170947,426118,203.28970941162927,0.0
162,3.483334541320801,-75.87157574413995,29.43178191059923,-23.21838383689722,-171.40052383635586,90.625,1.2071501994888407,0.1,0.007077217102050781,0.17056894302368164,0.046533525,0.07683881,-92.22502109566976,-0.05083801326369903,-0.9209781747219306,90.625,4021,0.5591850280761719,0.031177968090386667,0.028758081140391908,430139,217.11185369227067,100.0
163,3.1921823024749756,-78.78851894849123,30.621178727525095,-22.500895703187236,-175.62654402757198,89.58333333333333,1.1135064940647237,0.1,0.006914615631103516,0.16268181800842285,0.045078024,0.082930036,-90.8813708809519,-0.051096718045018585,-0.9608349835190803,89.58333333333333,4029,0.5504868030548096,0.03230316391116679,0.03121870767708827,434168,198.42123269230672,0.0
164,3.3789026737213135,-76.38371856772152,24.37440347460642,-33.17770176934279,-147.82066276636982,94.79166666666667,1.1854449281119745,0.1,0.006835222244262695,0.16333627700805664,0.049517434,0.08040966,-89.43160564962886,-0.0506980806569279,-0.9297795226038924,94.79166666666667,4024,0.563791036605835,0.02443167800988927,0.02409688178505646,438192,216.11992368389312,0.0
165,3.651777982711792,-72.63895624826989,27.800890203423524,2.8890855604672794,-172.36476568108696,92.70833333333333,1.164643492325496,0.1,0.006909847259521484,0.16484808921813965,0.047805812,0.08035165,-87.75234070949297,-0.0503924029003757,-0.879156905176794,92.70833333333333,4035,0.5673789978027344,0.028556810320275614,0.027180221042156238,442227,206.28236089438315,0.0
166,3.483415126800537,-69.49298177575292,29.85343505026864,-2.707010876393504,-174.8872664720675,92.70833333333333,1.2002579328311531,0.1,0.007156848907470703,0.16741490364074707,0.047575504,0.07926651,-85.92640481611896,-0.04975097887195207,-0.8373444337566586,92.70833333333333,4115,0.6102418899536133,0.032690001931757424,0.03147311680708966,446342,195.5726025359916,0.0
167,3.4804270267486572,-73.06235897057661,30.50225497954793,5.730217593139251,-169.7922924603725,93.75,1.1059425696841665,0.1,0.006993532180786133,0.17220139503479004,0.047041442,0.08666169,-84.64000023156473,-0.050494674973047826,-0.8843097993435737,93.75,4037,0.5656368732452393,0.03489107199621386,0.03371140304240781,450379,194.91333592976875,0.0
168,3.2689075469970703,-74.99525990272028,30.91727810484316,-15.430457051532684,-142.42089510858423,93.75,1.1854227736957135,0.1,0.006824016571044922,0.16282200813293457,0.048343804,0.076885775,-83.67552619868029,-0.05056946922578711,-0.9101056737533556,93.75,4063,0.5713603496551514,0.03354377098074522,0.03146440792455029,454442,193.35967872204654,0.0
169,3.8198845386505127,-75.27580037703558,32.104471082449294,-7.448660693422816,-152.78589439121583,89.58333333333333,1.1601116376939717,0.1,0.007415771484375,0.16758108139038086,0.048582513,0.08239418,-82.83555361651582,-0.05083299130953306,-0.9123806819359984,89.58333333333333,4130,0.5685300827026367,0.03315049025980412,0.0323662775958297,458572,207.75311220773534,100.0
170,3.7818024158477783,-66.26134645131764,35.11037624576336,16.275840848820422,-159.87921455961006,91.66666666666667,1.1368489848949224,0.1,0.011142492294311523,0.17002511024475098,0.044432107,0.077229306,-81.178132899996,-0.0491443724838271,-0.7926231946915009,91.66666666666667,4268,0.59877610206604,0.045022041625232836,0.04097644224709029,462840,217.14626120192705,100.0
171,3.7596583366394043,-61.87982223743062,32.53978512831134,15.090226110040263,-168.69553807236196,95.83333333333333,1.1910619604093438,0.1,0.007984638214111328,0.18142366409301758,0.045649357,0.079974286,-79.24830183373946,-0.048229027023005626,-0.73720267067301,95.83333333333333,4306,0.6113085746765137,0.037387938941243135,0.035866636747207074,467146,250.0487985196229,100.0
172,3.664989948272705,-60.680541843117794,34.888028705726256,-3.953702506929318,-168.02927044280906,89.58333333333333,1.1316006303214545,0.1,0.0069942474365234375,0.17353081703186035,0.04748331,0.07948939,-77.3915258346773,-0.048156156266545146,-0.7201190506678822,89.58333333333333,4302,0.5727989673614502,0.04285368091506892,0.0422962382060936,471448,229.2665920075005,100.0
173,3.56361985206604,-59.593330298483856,32.9639397487518,12.469517147269805,-145.28017765153817,92.70833333333333,1.2091426643360548,0.1,0.008379459381103516,0.16887378692626953,0.04816942,0.08035261,-75.61170628105795,-0.048362760888836974,-0.7054900039014521,92.70833333333333,4261,0.5855822563171387,0.040757048999740246,0.04082799677188367,475709,392.41721395042936,100.0
174,3.3385918140411377,-55.317876847480825,37.568251887626325,18.55787766052555,-161.50826923845284,92.70833333333333,1.2154415044552593,0.1,0.007009983062744141,0.16402840614318848,0.047896452,0.076266065,-73.58232333770023,-0.047867992685993094,-0.6486514316454158,92.70833333333333,4305,0.5803563594818115,0.05675538492347442,0.053921262969984535,480014,442.52449250942766,100.0
175,3.5294113159179688,-59.473257267034136,35.96223640224214,43.73966406017722,-164.5644965520769,93.75,1.2270316491951037,0.1,0.007429361343383789,0.1695570945739746,0.049116448,0.07684633,-72.17141673063362,-0.048175704855984026,-0.7041284905420088,93.75,4300,0.5870802402496338,0.04609093859273018,0.04498672691653763,484314,444.89674426933584,100.0
176,3.988806962966919,-49.440766956668796,38.490115980626314,40.77247630645614,-157.80717342507606,94.79166666666667,1.2153812408931,0.1,0.007571697235107422,0.17232227325439453,0.045580406,0.07639106,-69.89835175323714,-0.047109313779668906,-0.569636567246992,94.79166666666667,4395,0.5925300121307373,0.056075180743893074,0.053492655500195156,488709,248.94731164231894,100.0
177,4.062613010406494,-43.87577542119985,35.81366803367406,24.69789986373987,-138.5228340295052,97.91666666666667,1.249766986562223,0.1,0.009934186935424805,0.1863996982574463,0.046892736,0.07546493,-67.29609412003342,-0.046346310626471765,-0.4954278027734789,97.91666666666667,4541,0.6100361347198486,0.049248558498394046,0.046429966274561134,493250,419.383681662751,100.0
178,3.8511226177215576,-45.29608077938209,34.33717253803644,34.033179780201856,-159.75286608570482,98.95833333333333,1.2286203197380812,0.1,0.00717473030090332,0.17694520950317383,0.044287667,0.07379637,-65.09609278596828,-0.0458638684572818,-0.5148090489442161,98.95833333333333,4617,0.6379470825195312,0.049606326267310076,0.048587540359140216,497867,482.20156041711857,100.0
179,4.049724102020264,-44.63020557661173,35.226912705963684,33.92835452308437,-165.43006708474536,94.79166666666667,1.3297494978332716,0.1,0.0070836544036865234,0.17351770401000977,0.04796078,0.07436788,-63.04950406503263,-0.045878777519813736,-0.5063128025203016,94.79166666666667,4619,0.6380887031555176,0.047171970375929136,0.044534198159853794,502486,489.9877585370831,100.0
180,3.9699692726135254,-36.455023234485346,46.96912673094572,53.04570386378198,-189.37403295103059,92.70833333333333,1.2419501404187963,0.1,0.007382631301879883,0.19838833808898926,0.04583339,0.068651885,-60.3900559819779,-0.04501994294668385,-0.39860648204892746,92.70833333333333,4736,0.6468172073364258,0.08281645726432972,0.07673276181277852,507222,230.94447081797944,100.0
181,3.7829818725585938,-42.1973703360579,37.831401438331845,36.39589821105757,-160.65554672267808,95.83333333333333,1.2335130288769531,0.1,0.007488727569580078,0.2412424087524414,0.04798529,0.077021204,-58.5707874173859,-0.04509009782969725,-0.4746001689735185,95.83333333333333,4750,0.7099299430847168,0.061550948306689786,0.062124713250814804,511972,237.80516839324648,100.0
182,3.665980577468872,-42.36075536432803,40.18702062157006,56.086712462755095,-127.52636890327477,96.875,1.3040666612385747,0.1,0.06753706932067871,0.6041433811187744,0.04740341,0.076231375,-56.94978421208011,-0.04547276944435084,-0.47462962854122753,96.875,4727,0.6467218399047852,0.06549648204231381,0.06364759781608,516699,425.92546201246734,100.0
183,4.170254945755005,-32.476607912297446,47.904550242680614,166.7750013340424,-166.7500632993208,97.91666666666667,1.2722560041910467,0.1,0.008884429931640625,0.17858457565307617,0.04937207,0.07813908,-54.502466582101846,-0.04455846367707528,-0.3441797803420854,97.91666666666667,4824,0.6352267265319824,0.09814109758872866,0.09601753539797615,521523,212.57140285766033,100.0
184,4.122103214263916,-29.3418125866462,39.375915486393865,80.97078683061848,-132.63770718604366,98.95833333333333,1.2836964192508205,0.1,0.00829005241394043,0.20874929428100586,0.04682699,0.07109101,-51.986401182556286,-0.04353923263589168,-0.3018725854522088,98.95833333333333,4958,0.7015736103057861,0.06761746052787679,0.06370234031275951,526481,220.22925714174934,100.0
185,3.9916470050811768,-25.585431377016718,47.33662040262175,55.639607876796305,-179.45339877414574,96.875,1.2581047366239204,0.1,0.008333921432495117,0.1823256015777588,0.045810807,0.072625786,-49.34630420200233,-0.043867802733676055,-0.2514715557214294,96.875,4934,0.6777729988098145,0.08504878934701242,0.08459506155572565,531415,200.23280313019976,0.0
186,3.7429306507110596,-38.03708617581268,50.789758889880794,91.47960650347349,-182.61423462202356,92.70833333333333,1.2627739294761844,0.1,0.007188320159912109,0.1725156307220459,0.046946816,0.07659674,-48.21538239938337,-0.045198803272152,-0.4180011202962313,92.70833333333333,4827,0.6603896617889404,0.09917966216961684,0.09544217180163556,536242,212.38821151620436,0.0
187,4.291094064712524,-31.06851435572227,43.87661561229454,88.91969192456263,-162.67109900456518,97.91666666666667,1.3231770400991403,0.1,0.007284641265869141,0.19363689422607422,0.046748236,0.071985185,-46.50069559501726,-0.044257837230071956,-0.3239507367211129,97.91666666666667,4907,0.6920709609985352,0.08221921022806152,0.07725335553609468,541149,218.29763792588093,100.0
188,4.193120241165161,-21.909603158960653,45.41540078644474,90.37827841965719,-141.13376231043208,98.95833333333333,1.3860364246216386,0.1,0.009389877319335938,0.17653751373291016,0.04511345,0.066722736,-44.0415863514116,-0.043158760988125024,-0.20281115937283575,98.95833333333333,5032,0.6899676322937012,0.08409703976709093,0.0790946571913911,546181,209.91395863234007,0.0
189,4.105187654495239,-13.941358574425218,50.879286467785214,130.1918091461546,-129.2917512947659,98.95833333333333,1.32776693601132,0.1,0.007391691207885742,0.17361950874328613,0.045612056,0.07251035,-41.031563573712965,-0.042496948632566166,-0.09555356447612044,98.95833333333333,5205,0.7080323696136475,0.10496682652016015,0.10208414165399218,551386,238.9468204080644,100.0
190,4.081752777099609,-3.647342100200344,64.08376061049569,262.55686725444554,-155.91758654500862,98.95833333333333,1.3767056681716754,0.1,0.0113677978515625,0.18195605278015137,0.045307275,0.07641456,-37.2931414263617,-0.041425697781646696,0.03979600783283438,98.95833333333333,5254,0.7321608066558838,0.19455545872904442,0.1880454492884596,556640,260.4171609772998,100.0
191,4.001181364059448,-13.689552485021396,50.5158283233795,110.72006000125009,-141.6024324598869,97.91666666666667,1.2982754843843047,0.1,0.0071849822998046875,0.17437458038330078,0.04297446,0.07630369,-34.93278253222767,-0.04259584899140262,-0.09215957174016583,97.91666666666667,5189,0.7318267822265625,0.10445985540960684,0.09950231863640506,561829,246.2543244330237,100.0
192,4.250923156738281,0.728215717214777,69.79503455473025,327.16305652493566,-149.67917923841574,96.875,1.3764822023620606,0.1,0.007586240768432617,0.1732935905456543,0.04753721,0.07475859,-31.366682707283427,-0.041216033278798185,0.09175001539700411,96.875,5215,0.7600879669189453,0.23978697866338572,0.22668734375665617,567044,242.36982470194633,100.0
193,4.770069360733032,7.272559821332883,45.58041788195346,127.59416055136023,-78.90168475888143,100.0,1.3801361347491596,0.1,0.0074193477630615234,0.1791694164276123,0.046565995,0.06824025,-27.502758454421794,-0.0402381257501703,0.18625486329885865,100.0,5429,0.7726309299468994,0.1069893604067228,0.10022574450434049,572473,256.18831188538826,100.0
194,4.42561936378479,9.155695265190033,58.88563974725605,170.39432122534873,-157.03034671036644,97.91666666666667,1.3667212125909394,0.1,0.008439064025878906,0.262284517288208,0.04795224,0.07245068,-23.83691308246061,-0.0402413870513644,0.21110451461235194,97.91666666666667,5495,0.7844009399414062,0.14404554946784368,0.1404542157868491,577968,265.6402018083481,100.0
195,4.369370698928833,16.653212707886475,73.67798663269421,303.68719680158154,-148.1982684143005,95.83333333333333,1.4009296388191064,0.1,0.007710456848144531,0.18508625030517578,0.0473997,0.068378046,-19.787900503425902,-0.03957245051392135,0.3105378592835946,95.83333333333333,5545,0.7656130790710449,0.24021464862775924,0.23282837973573747,583513,238.6104843767343,100.0
196,5.084637880325317,11.5526180550578,71.15150566380377,333.9689468969318,-155.74975211397287,94.79166666666667,1.3723615722073572,0.1,0.007551431655883789,0.18259239196777344,0.04453262,0.06946256,-16.653848647577533,-0.03979194888103682,0.24166209224947086,94.79166666666667,5557,0.7774503231048584,0.2293083598406914,0.21912740571056136,589070,228.36169663758264,100.0
197,4.223416090011597,30.03450838413171,85.02958113267245,341.80121857707655,-111.89146811993112,100.0,1.4352683230637915,0.1,0.008045434951782227,0.20201516151428223,0.045896184,0.07165875,-11.98501294440661,-0.03795224584361274,0.4877983151812301,100.0,5675,0.8019344806671143,0.35994692766067693,0.3332056101390281,594745,229.00292938026791,100.0
198,4.453721284866333,45.22807794517991,92.69189866389102,292.6098644934904,-140.99654261226596,98.95833333333333,1.4350140689778481,0.1,0.007691860198974609,0.1850590705871582,0.043081503,0.05946207,-6.263703855447957,-0.03685446549093408,0.6810464369192853,98.95833333333333,5804,0.8354125022888184,0.4109497467634594,0.38331856463106784,600549,228.39434490543826,100.0
199,4.582247495651245,57.422413493051074,101.14157133786821,335.78993838682175,-78.2267380732597,100.0,1.4539776008494176,0.1,0.00825643539428711,0.20593476295471191,0.04664131,0.072004244,0.10490787940194579,-0.034668509643244805,0.8455426844879294,100.0,5987,0.8587279319763184,0.48253402583993527,0.45324773797468537,606536,242.28820096782147,100.0
200,4.647284746170044,78.243408444461,124.6174283160129,356.5132109100413,-155.3118880715773,97.91666666666667,1.4981596907045396,0.1,0.007503032684326172,0.18637800216674805,0.04521153,0.063771196,7.918757935907851,-0.032918737718532716,1.1157114125569327,97.91666666666667,6061,0.8515529632568359,0.6046019924312245,0.553005836054025,612597,252.61703013806448,100.0
201,4.2285192012786865,59.941309281518706,107.06818873030097,390.1872105926579,-123.91716064976097,100.0,1.4732634666211069,0.1,0.0076274871826171875,0.18526625633239746,0.046009213,0.07045309,13.121013070468937,-0.034806738707321386,0.8671036327205588,100.0,6036,0.8775944709777832,0.49899599705387937,0.46659427044505747,618633,264.05882273062167,100.0
202,4.618819952011108,80.63586476081359,117.72457523528347,404.1400165451858,-117.81295994121848,98.95833333333333,1.497033939442415,0.1,0.008369207382202148,0.1889960765838623,0.042483687,0.06046954,19.872498239503404,-0.03308394232368927,1.1539079603547255,98.95833333333333,6209,0.8762528896331787,0.5362642254364052,0.4995955048067961,624842,261.2586862094105,100.0
203,4.480546236038208,88.19503847679168,115.36714522244328,365.5075421697318,-138.738649349394,97.91666666666667,1.4273902156831024,0.1,0.007866859436035156,0.1919715404510498,0.044837303,0.066570334,26.704752263232233,-0.03189121838739551,1.2438603947036595,97.91666666666667,6273,0.8639609813690186,0.5066809983418918,0.48739746362077796,631115,240.81923942502442,100.0
204,4.8001549243927,96.36007397563502,135.35811419173504,414.1503160575148,-153.92533912392204,98.95833333333333,1.4629888224423635,0.1,0.008023977279663086,0.2513289451599121,0.043160435,0.06960261,33.670284434472514,-0.03171102865223101,1.349892851323349,98.95833333333333,6190,0.8530111312866211,0.5813882360566808,0.551741416759053,637305,225.2801434288175,100.0
205,5.295186758041382,72.74897587453067,135.07258713478052,444.984904194822,-139.7111948054503,98.95833333333333,1.4426424342435655,0.1,0.008025169372558594,0.20363259315490723,0.039295282,0.0613929,37.57815357847833,-0.03390277759971825,1.052199617784823,98.95833333333333,5996,0.841494083404541,0.5517081265019702,0.5406290809913488,643301,219.04224581204286,100.0
206,4.845864295959473,136.1170895644782,143.737923435624,448.56467430048065,-92.70595585235374,98.95833333333333,1.4753823712655216,0.1,0.026249408721923828,0.24823498725891113,0.041928906,0.06116053,47.43204717707832,-0.027893042678259854,1.8577089200960113,98.95833333333333,6465,0.9944043159484863,0.6949310453702763,0.5552366731090539,649766,228.73910523411752,100.0
207,5.002242088317871,149.28021880248005,151.38476070009605,410.18873299481214,-164.71998686988934,95.83333333333333,1.5612859816862856,0.1,0.07813858985900879,0.3268561363220215,0.043701652,0.059739914,57.61686433961849,-0.025985214283030512,2.0221172738844824,95.83333333333333,6540,0.9309093952178955,0.5554542320299737,0.5270525214264642,656306,227.2192079296104,100.0
208,5.408583164215088,147.8393486726836,164.4555652893402,469.2887938443341,-123.01978583003299,100.0,1.4819931820000234,0.1,0.06584954261779785,0.19235634803771973,0.043402772,0.061282404,66.639112772925,-0.027126568777830404,1.9947631637076244,100.0,6481,0.8918712139129639,0.6136175647566666,0.5906095722642694,662787,235.1437716871017,100.0
209,5.093348264694214,172.46900187337846,155.4288963910875,411.85718873814824,-112.25511025777723,98.95833333333333,1.439052572650578,0.1,0.061806440353393555,0.5738658905029297,0.040991854,0.065258384,77.22210168297035,-0.024171498621326355,2.323699523181595,98.95833333333333,6637,0.9696276187896729,0.5241208116076402,0.5040867758381515,669424,228.6274474069429,100.0
210,5.15640664100647,187.34268488932855,159.78504215272585,415.60005220793965,-162.69548432007005,97.91666666666667,1.4615098519082632,0.1,0.010797977447509766,0.3437051773071289,0.046604287,0.06997029,88.23416000360616,-0.02259509644735777,2.5404312728346023,97.91666666666667,6674,0.9139888286590576,0.48973057588388375,0.4795285789201217,676098,232.93608590800528,100.0
211,5.233441352844238,213.5903453261744,151.64136142453728,471.48609291646903,-157.68991869150202,97.91666666666667,1.5349775044003804,0.1,0.008857965469360352,0.3049893379211426,0.0435163,0.06054837,100.769778535863,-0.020731800903624368,2.8483611799428155,97.91666666666667,6780,0.9245667457580566,0.4584968192121242,0.4327090416687348,682878,207.52742656464886,100.0
212,5.15459680557251,203.20268416599833,158.88774875444815,448.7138478158683,-219.1125517151639,98.95833333333333,1.5813549888280438,0.1,0.028125286102294922,0.3556046485900879,0.04499516,0.06157005,111.01306909887653,-0.021833788758741215,2.7334188694509067,98.95833333333333,6694,0.9762747287750244,0.4678679135305,0.44990802689711684,689572,208.39936754025084,100.0
213,5.583154916763306,222.27682693399402,148.075443073485,459.9901646582251,-146.13246585949287,97.91666666666667,1.5282224390695622,0.1,0.0300600528717041,0.296461820602417,0.03991793,0.05313025,122.13944488238828,-0.020233226129767957,2.9869223360826767,97.91666666666667,6807,0.9166293144226074,0.3906917110361057,0.3618978724822626,696379,196.2392503007859,100.0
214,5.104459762573242,211.6914605780281,142.74374191170372,433.2513737569539,-146.15318812622496,96.875,1.556879826552916,0.1,0.010175704956054688,0.27516603469848633,0.048689626,0.06763766,131.09464645195226,-0.019838320176549292,2.8432206690301176,96.875,6830,0.9468755722045898,0.407440458464636,0.39620179778418874,703209,208.84973123221417,100.0
215,5.102149963378906,190.7443756927611,158.4288149625127,447.4129770893506,-170.5169281315341,94.79166666666667,1.497650804999777,0.1,0.04836392402648926,0.209550142288208,0.04862505,0.081258625,137.05961937603314,-0.022259641510393908,2.5641047471601457,94.79166666666667,6641,0.9027528762817383,0.49434925938636093,0.47461875252714475,709850,207.85337932565864,100.0
216,5.892626047134399,239.42598666197998,127.9402707749049,415.18780314166713,-167.49754980109657,98.95833333333333,1.4699249466961646,0.1,0.009160041809082031,0.20274662971496582,0.046404228,0.07031672,147.29625610462784,-0.017168438470991323,3.215924841292869,98.95833333333333,6966,0.9667494297027588,0.34003752743714966,0.3007342695301511,716816,212.8014548556413,100.0
217,5.029973745346069,221.91065032828533,152.35954355505118,453.44552365512374,-143.28665527148854,96.875,1.5544337371481927,0.1,0.0584414005279541,0.28911709785461426,0.046503775,0.06182324,154.7576955269936,-0.019598943720723364,2.9751925142349793,96.875,6816,0.939551830291748,0.38942626287107507,0.3795292838094195,723632,216.67668422275037,100.0
218,4.965367555618286,232.2812139027266,135.08693708287333,429.9602559070009,-134.71873020540895,91.66666666666667,1.5544181364120608,0.1,0.008846044540405273,0.5090727806091309,0.044331715,0.059607048,162.5100473645669,-0.018029506725771773,3.1036294119515637,91.66666666666667,6975,1.108767032623291,0.3518198269172073,0.3447032562001987,730607,217.48484122583758,100.0
219,6.542080402374268,233.13669833579502,135.41357473051318,432.3467880935466,-147.04410506527435,98.95833333333333,1.589917206671482,0.1,0.01027822494506836,0.30260682106018066,0.04467804,0.057252385,169.57271246168972,-0.018207442825624382,3.1140843734597703,98.95833333333333,6915,1.0709068775177002,0.34123746918336834,0.3288605082995688,737522,209.7602281536104,100.0
220,5.897479772567749,233.84784109546402,137.13039416607805,410.28740072181836,-138.2668950648159,92.70833333333333,1.5719281679308073,0.1,0.007756233215332031,0.18631482124328613,0.0454775,0.058647826,176.00022532506716,-0.01773907091629801,3.1497074053821037,92.70833333333333,6911,0.8902609348297119,0.3294986423718989,0.31462734220303223,744433,206.57900606595567,100.0
221,5.487502098083496,216.25676871839505,158.41525856394804,460.3816786573619,-143.31618918710268,93.75,1.5239981410466483,0.1,0.008382320404052734,0.1955864429473877,0.047422275,0.105185546,180.02587966439998,-0.01966708428800226,2.930722432062393,93.75,6826,0.8952341079711914,0.4235798209465586,0.39587073817997126,751259,210.45604762089772,100.0
222,5.369474649429321,249.2813126846056,130.9143831306989,454.0182703562397,-109.12569289462257,97.91666666666667,1.5384740195059006,0.1,0.058782339096069336,0.22739195823669434,0.044278204,0.06626477,186.95142296642055,-0.017172120300245182,3.3383135419684016,97.91666666666667,6954,0.8942999839782715,0.2877056352122057,0.2754152634757626,758213,211.59858117564667,100.0
223,4.964582204818726,246.60149999042096,154.0122203459041,495.7372166995462,-146.83859357887602,98.95833333333333,1.5090934137073804,0.1,0.0660102367401123,0.2739572525024414,0.045688853,0.06512788,192.9164306688206,-0.018375175159104137,3.2993854046313142,98.95833333333333,6894,0.7153177261352539,0.342168878263895,0.32716990254567246,765107,219.35554371299415,100.0
224,5.647777080535889,240.59586477956563,157.2178083927889,471.4949794047057,-108.1906699368403,96.875,1.5281773012708837,0.1,0.011271238327026367,0.18732523918151855,0.045009032,0.068008624,197.68437407989512,-0.01935876576077532,3.210382287397588,96.875,6882,0.9047231674194336,0.3524452239690651,0.3461948708960111,771989,219.0008282402125,100.0
225,5.256019353866577,267.3596008794225,134.2567679747959,478.10205844550546,-79.88187327549684,100.0,1.5410478398955574,0.1,0.0064737796783447266,0.37560462951660156,0.044664524,0.06667158,204.6518967598479,-0.016749264163355825,3.5886763467896876,100.0,7005,0.9698987007141113,0.2926067682623718,0.2780735148838781,778994,226.73833492110379,100.0
226,5.515943288803101,258.37948290204207,144.6726699307395,449.507011538682,-134.0391880490787,100.0,1.5532338531178311,0.1,0.052290916442871094,0.23774170875549316,0.04658682,0.064098746,210.02465537406732,-0.01755876211291813,3.451172666715179,100.0,6928,1.0491466522216797,0.31864438847102416,0.30527271508621323,785922,234.66493453936616,100.0
227,4.95130467414856,263.92472299965993,157.63030366350839,457.03455957651255,-87.55994478549087,100.0,1.5128678682553889,0.1,0.008315563201904297,0.19878292083740234,0.04625537,0.064499974,215.4146621366266,-0.018119539197664722,3.518774847738225,100.0,6813,0.9646785259246826,0.32722292082717547,0.31465423034209333,792735,226.59149815657165,100.0
228,5.55934739112854,255.4507897661614,151.86671379786148,476.24503290414583,-105.94911308888018,100.0,1.5731654080998838,0.1,0.00862431526184082,0.262253999710083,0.046726264,0.064739235,219.41827489958007,-0.018081198912882932,3.4264118784303648,100.0,6866,1.0352985858917236,0.3427556928570582,0.32525377141901246,799601,230.19758060951585,100.0
229,5.600672960281372,279.62914508523136,139.78739877606378,485.41073185118205,-98.07395066683657,100.0,1.630173142406862,0.1,0.028679847717285156,0.31783580780029297,0.045017876,0.05914206,225.4393619181452,-0.01635004525167727,3.753886236103052,100.0,6982,0.957510232925415,0.2863556822900655,0.27256487591747924,806583,222.88673551187492,100.0
230,5.432168006896973,275.800517573552,146.176050606912,492.7574113835603,-103.1892302406284,100.0,1.6286151153123554,0.1,0.011173009872436523,0.23169636726379395,0.04455257,0.056727074,230.4754774836859,-0.017421529795081842,3.6839995676259094,100.0,6947,1.0339686870574951,0.2707392222587313,0.25654806784576845,813530,222.93852403385213,100.0
231,5.258107423782349,282.2742661392557,144.30454829089962,468.73201685078453,-65.20591213346724,98.95833333333333,1.4901675333523772,0.1,0.015974760055541992,0.21371912956237793,0.043685026,0.086877316,235.65535634924288,-0.017080071172968714,3.7850831891742174,98.95833333333333,6979,0.9386253356933594,0.29762667540672355,0.2869317356935906,820509,228.50301221726872,100.0
232,5.403143405914307,274.922377890958,139.09346368121723,480.14979346836566,-98.15847810059421,100.0,1.54117587474583,0.1,0.007913589477539062,0.1936798095703125,0.044525303,0.07335361,239.5820585034144,-0.016761215053105388,3.665980053026384,100.0,6959,0.9227457046508789,0.2638078361756246,0.24679799287603368,827468,229.00375768427116,100.0
233,5.2015464305877686,262.5704185733704,168.00776116584163,510.2642013853931,-132.86821562100317,100.0,1.76586011871932,0.1,0.07492494583129883,0.6664526462554932,0.04555949,0.051185995,241.88089451041,-0.01893453768603243,3.539624800551556,100.0,6833,0.9502871036529541,0.35593146930475383,0.34317500709559684,834301,233.39007821846826,100.0
234,5.174056768417358,294.9250328437839,143.2089539377893,481.0048334075549,-137.40574704454832,98.95833333333333,1.5773391982559857,0.1,0.018851280212402344,0.4001915454864502,0.04533626,0.058696676,247.18530834374738,-0.01615054111882217,3.9375146602365683,98.95833333333333,6944,0.9803977012634277,0.2422693608726672,0.22587410602812338,841245,236.22828280275115,100.0
235,4.944365978240967,298.51849510671804,144.33062597194322,486.19353792841144,-68.24633122632204,100.0,1.6480832480545693,0.1,0.058699846267700195,0.752918004989624,0.042529978,0.06536623,252.31862702004443,-0.016029534364935056,3.9911261864479264,100.0,6991,0.9471070766448975,0.2636119446220132,0.2554136039582584,848236,231.9466942594075,100.0
236,5.04351019859314,260.4217464349553,177.09817715920207,483.29586543583446,-167.09510516615148,97.91666666666667,1.7701320163681882,0.1,0.05579996109008789,0.3721432685852051,0.045496907,0.05161089,253.12893896153554,-0.01878423080711602,3.4988084250656004,97.91666666666667,6769,0.909095048904419,0.3521478866669633,0.3322966287425923,855005,228.77669779848878,100.0
237,5.528623104095459,323.43195004492594,125.4721502236828,499.3419844021675,-42.00656587460165,100.0,1.769413099200025,0.1,0.06067633628845215,0.2128305435180664,0.039668065,0.047964063,260.15924006987456,-0.014054463487933993,4.309242400507569,100.0,7075,0.9461126327514648,0.21253743038630157,0.17726436315448255,862080,236.155115377269,100.0
238,5.551776647567749,283.1577937522764,150.8552601416374,493.38833989708,-105.93007520355701,100.0,1.6299673356940734,0.1,0.008731603622436523,0.19897246360778809,0.04382884,0.0574049,262.45909543811473,-0.017874375463228263,3.784677246227434,100.0,6951,0.9408512115478516,0.3259289343200482,0.27868285141216526,869031,234.2918729665327,100.0
239,5.104144334793091,303.61963456071504,141.36649920034378,473.04784964814786,-145.94509948014093,98.95833333333333,1.6323166733085999,0.1,0.040171146392822266,0.35410308837890625,0.042083107,0.052885976,266.5751493503748,-0.01613691975941142,4.063037010139468,98.95833333333333,6999,1.101407766342163,0.2585821127073817,0.23139292874353465,876030,233.53837685603224,100.0
240,5.1185197830200195,319.043906326868,126.80881307278025,497.22868882234684,-135.5028940865893,98.95833333333333,1.7361080101691628,0.1,0.00776219367980957,0.18281030654907227,0.045274217,0.052068673,271.8220250480241,-0.014498923729011645,4.269471105445611,98.95833333333333,7077,0.9356217384338379,0.19599578816681584,0.1894774946772396,883107,225.91666005720992,100.0
241,5.166610479354858,308.1450503507373,139.10940304307826,491.8324963199314,-63.8163285768961,100.0,1.6324154345396815,0.1,0.05276823043823242,0.46799612045288086,0.038864233,0.051926102,275.4543275782954,-0.015687825599044834,4.122508895309591,100.0,7028,0.950721263885498,0.23344170951573698,0.22219890430326059,890135,234.92099550710867,100.0
242,5.384410619735718,279.6190434209684,172.81643347543596,497.27868943128186,-113.18756920435737,100.0,1.6040347571666074,0.1,0.008259296417236328,0.1875617504119873,0.04343433,0.05797579,275.8707991625627,-0.01856904015573328,3.728964800326697,100.0,6817,0.9316904544830322,0.3355658300896746,0.3150339814361304,896952,236.97269906668532,100.0
243,5.693152189254761,299.7333518717415,178.58796894202942,506.94764597124305,-149.02434689645892,96.875,1.6714501564784972,0.1,0.011473417282104492,0.20157241821289062,0.04574049,0.05319194,278.2570544334806,-0.017400476898902822,4.030053372334934,96.875,6848,0.9839596748352051,0.31955901435532247,0.3117095361646509,903800,230.49306914405574,100.0
244,6.051037549972534,317.76467950159,143.09643227369747,495.2213092088153,-53.47461550531389,100.0,1.8309303837327615,0.1,0.007930278778076172,0.1987905502319336,0.046674192,0.052862022,282.20781694029154,-0.01507509425852975,4.2539653093417,100.0,7017,0.9426827430725098,0.23261029065546784,0.21875438820260412,910817,230.15214991818027,100.0
245,5.412058591842651,299.2223093512774,173.58738573885375,504.3794490883758,-109.01757298812079,100.0,1.6622693527572914,0.1,0.00793766975402832,0.1919081211090088,0.0467982,0.055999447,283.90926618139014,-0.017580102818171336,3.9948153879672916,100.0,6907,0.930856466293335,0.303055000634308,0.28791917972893116,917724,226.30200292984267,100.0
246,5.219976425170898,346.05509194180394,146.85108641276193,505.43256204733206,-90.60490744910764,100.0,1.586321829133618,0.1,0.011797666549682617,0.19561290740966797,0.04685135,0.056619283,290.1238487574315,-0.0143280265162187,4.625135869489392,100.0,7027,0.9746019840240479,0.22357967387343888,0.19511099790243883,924751,231.6494138474967,100.0
247,5.455888509750366,343.93747678375865,155.97577268308564,506.83357704868627,-50.00393292809039,100.0,1.548762525419749,0.1,0.008138895034790039,0.18634533882141113,0.041843317,0.0734592,295.50521156006425,-0.014990993523118766,4.599122559728482,100.0,7016,0.9375457763671875,0.23876569505183304,0.2268891449794862,931767,254.8500852238346,100.0
248,5.279717206954956,327.79458981937705,161.1358240699092,503.77089899253326,-137.29478180589595,96.875,1.8466664470298428,0.1,0.008321523666381836,0.19240546226501465,0.04672623,0.050802335,298.7341493859955,-0.015157508659780267,4.39553910025012,96.875,6982,0.9265568256378174,0.23980516749859226,0.22886196113407126,938749,231.86991053829558,100.0
249,5.097603797912598,314.2247081371096,182.88564661847192,505.26001584061686,-133.18723606327217,97.91666666666667,1.7832879352113022,0.1,0.007539987564086914,0.18181252479553223,0.046522655,0.052628547,300.28320526110696,-0.017005111186608777,4.20373362216885,97.91666666666667,6882,0.9237761497497559,0.2743235886245081,0.262724214483568,945631,224.61157823520338,100.0
250,5.5414252281188965,358.0876287218579,133.75626745446561,503.81405945370517,-122.59776053159605,97.91666666666667,1.8442902170611195,0.1,0.008263349533081055,0.19107747077941895,0.04804872,0.05403242,306.0636476071821,-0.013076471463707877,4.768030061185734,97.91666666666667,7091,0.9372758865356445,0.18351254046967785,0.15908408387052467,952722,232.02046428555718,100.0
251,5.349367618560791,329.72435674017294,150.3546815484723,500.250724542589,-79.40343114997366,98.95833333333333,1.6767992256779582,0.1,0.007618427276611328,0.18767046928405762,0.04930202,0.05927888,308.4297185204812,-0.014363830639919273,4.394979037467858,98.95833333333333,7046,0.9237072467803955,0.23320889032360104,0.21732533488765454,959768,230.26506285270403,100.0
252,4.989560842514038,311.6233970276664,159.67610170873138,502.2141943793618,-100.65265034901455,98.95833333333333,1.5995927458747454,0.1,0.008541107177734375,0.19391798973083496,0.044795644,0.056088183,308.7490863711997,-0.015629294377232764,4.16645795599366,98.95833333333333,7018,0.9248194694519043,0.2579527239013395,0.24567713866138943,966786,237.579322523829,100.0
253,5.4908857345581055,362.1486555241324,141.39885461420212,508.0587357334763,-83.6705433089721,100.0,1.6790492877794565,0.1,0.008600234985351562,0.2544729709625244,0.046633415,0.053676777,314.089043286493,-0.013551396371519609,4.846661748283313,100.0,7091,0.9942820072174072,0.19191570036066197,0.1722079843176278,973877,267.0960827638869,100.0
254,5.394728422164917,336.29310333816306,174.3336988321942,509.3074024916252,-90.83111672918196,100.0,1.6366645826086763,0.1,0.008379220962524414,0.18551325798034668,0.041603778,0.051027168,316.30944929166003,-0.0164954610122009,4.483893438650292,100.0,6971,0.9659063816070557,0.27588197427013633,0.26261983532419303,980848,285.77694567922185,100.0
255,5.124146461486816,366.51283891627753,152.7226328127607,508.1477325165767,-76.0662208957766,100.0,1.7159211221999162,0.1,0.008196830749511719,0.18321442604064941,0.04639215,0.054048497,321.3297882541218,-0.013450146713284448,4.8846244478431755,100.0,7045,0.9320545196533203,0.18648227481604793,0.17881602717429076,987893,213.22088270224648,100.0
256,5.818959712982178,374.6569341643035,150.91542432706783,506.6933693103585,-46.41008864819852,100.0,1.7084652465824044,0.1,0.007528543472290039,0.17996478080749512,0.046728175,0.053084895,326.66250284513995,-0.01366310343581141,4.998683747725579,100.0,7032,0.9475524425506592,0.17129696734421734,0.16806565403484727,994925,307.5535798967755,100.0
257,5.176348686218262,379.53641576844933,150.4317898542441,510.9969804237375,-65.7170089112996,100.0,1.7163845988414825,0.1,0.008226871490478516,0.1884777545928955,0.04530344,0.052203942,331.9498941374709,-0.013221570854385474,5.066470717301154,100.0,7066,0.9453461170196533,0.18763295605789618,0.16480177131972257,1001991,240.30311754709834,100.0
258,5.404943227767944,362.13133047045534,147.96880834335502,509.14514414375265,-67.57165359524602,100.0,1.7666805944955626,0.1,0.008718490600585938,0.19373369216918945,0.04671277,0.054506678,334.96803777076934,-0.013611087043281928,4.8283521917314065,100.0,7056,0.9686686992645264,0.18659380530373731,0.1791830560966259,1009047,248.96293066299683,100.0
259,5.245952606201172,371.75659140390934,152.3409797625625,507.429746951832,-61.26752564442137,100.0,1.6631620450303104,0.1,0.007901668548583984,0.18219423294067383,0.04701779,0.05417619,338.64689313408337,-0.013748203044471339,4.962688257794108,100.0,7060,0.9482841491699219,0.18565718725753877,0.1761122056817642,1016107,244.49578377500802,100.0
260,5.37471079826355,376.3018540920128,162.4118665107806,509.8337876989164,-152.61166288770227,98.95833333333333,1.8145290889434622,0.1,0.008556365966796875,0.18310284614562988,0.04887586,0.04925395,342.4123892298763,-0.013693598334361033,5.012285699694991,98.95833333333333,6979,0.9230043888092041,0.17771314753654377,0.16401716439293706,1023086,242.48584420028965,100.0
261,5.706194639205933,371.0236007876369,149.93847518867835,507.25494303296296,-86.37909856528759,98.95833333333333,1.7893317688765709,0.1,0.008530855178833008,0.19251084327697754,0.04545878,0.05137885,345.27351038565234,-0.013433315888176112,4.964091472918736,98.95833333333333,7080,0.9407570362091064,0.1927765395530718,0.18196075060735833,1030166,238.8017787708786,100.0
262,5.618738174438477,386.33081924723245,150.97904403128766,511.4425729160327,-155.12278378337746,98.95833333333333,1.8339212087378294,0.1,0.009351730346679688,0.2030797004699707,0.04356628,0.047738448,349.3792412718104,-0.013099222778565867,5.146203488129802,98.95833333333333,7032,0.949251651763916,0.15549871573683072,0.1349811217701627,1037198,224.04344285259353,100.0
263,5.744347810745239,369.89618614784087,153.21149193100746,510.4199356499205,-129.6486777202022,100.0,1.7138553508354555,0.1,0.007577419281005859,0.1962285041809082,0.04754806,0.0514282,351.43093575941344,-0.01366822434197072,4.940923390564373,100.0,7038,0.9346506595611572,0.16739847477391478,0.15549591729188264,1044236,234.00013778836203,100.0
264,5.387437582015991,351.66784515674567,168.4134720702457,510.5483081762351,-142.80436146932655,97.91666666666667,1.7069995418070862,0.1,0.010579109191894531,0.20930075645446777,0.04803693,0.051434472,351.4546266991467,-0.0148558576400352,4.683422585418866,97.91666666666667,6942,0.9407224655151367,0.18152480873814578,0.17482844130087746,1051178,227.64093351998116,100.0
265,5.153055906295776,382.40062605612667,136.32184415872243,505.7191730336687,-107.25876401154348,98.95833333333333,1.7125761071790626,0.1,0.008248567581176758,0.19824457168579102,0.0499075,0.05400246,354.5492266348447,-0.012347782479518371,5.087123167409918,98.95833333333333,7065,0.9827532768249512,0.1326484586800682,0.12492881176831702,1058243,230.28202059915418,100.0
266,5.73780632019043,361.09643190337374,146.37300977310213,509.93791336538993,-114.27142483403314,100.0,1.6461085863366332,0.1,0.008237361907958984,0.21578431129455566,0.045781408,0.054594766,355.20394716169756,-0.01408678309610815,4.823847477376327,100.0,7085,0.954509973526001,0.19955566483596623,0.17544457286794332,1065328,229.47778023200772,100.0
267,5.312861919403076,367.6145741688778,154.45425986923507,509.0835688791067,-31.786868370705132,100.0,1.690061182335845,0.1,0.00821232795715332,0.22270941734313965,0.044007905,0.051833842,356.4450098624156,-0.014120897490278212,4.901717659213649,100.0,7054,0.9759185314178467,0.18908975123962718,0.18235577885079776,1072382,229.0103289807363,100.0
268,5.285362482070923,406.51265171635146,117.7826617935393,509.6747156485962,-46.56986668477016,100.0,1.7534334538098577,0.1,0.013267040252685547,0.2045297622680664,0.044111677,0.053996745,361.4517740478092,-0.011302216130990196,5.410517134852841,100.0,7147,1.0069546699523926,0.11106834926704287,0.1025199894818225,1079529,223.3138889068045,100.0
269,5.5833985805511475,410.6616381818491,109.93755409293118,504.75606133231946,-88.74302621954476,100.0,1.6955379533174775,0.1,0.00929570198059082,0.22342514991760254,0.04456577,0.051898167,366.3727604612132,-0.01143535490699644,5.458555831523941,100.0,7152,1.0120539665222168,0.09904320288436974,0.0941225965593865,1086681,224.55981327650898,100.0
270,5.385433197021484,387.0942497270401,141.0157287954563,508.5449447561967,-69.35500983913359,100.0,1.7184575555472548,0.1,0.011865615844726562,0.1958937644958496,0.04860501,0.05297669,368.4449093877959,-0.013052737840585823,5.159002094192514,100.0,7079,1.0010387897491455,0.16412707953475048,0.15053910115397842,1093760,230.61879090086668,100.0
271,5.724040508270264,388.8012312743687,147.60795420170598,507.4466173304287,-99.79813038650585,100.0,1.794379111995819,0.1,0.008488178253173828,0.2079317569732666,0.046671923,0.047816962,370.4805415764532,-0.01326571715692261,5.178341069546075,100.0,7038,0.9740595817565918,0.1538233692062395,0.14769434924486194,1100798,231.00538929844012,100.0
272,5.64874792098999,371.8786549751539,164.88581495943367,508.50723153469573,-113.66707349871304,100.0,1.743270345076558,0.1,0.008057832717895508,0.23302221298217773,0.043584887,0.046596453,370.6203529163233,-0.014072580509591598,4.9662632159116304,100.0,6974,0.9472239017486572,0.19178863808981692,0.1845779301348902,1107772,233.20806395399654,100.0
273,5.36562442779541,400.0842717912963,127.80563531492967,510.7632445577366,-74.74791396935487,100.0,1.7897300880270695,0.1,0.009567022323608398,0.27795863151550293,0.045826256,0.048094917,373.56674480382065,-0.011947164721920936,5.327483681024766,100.0,7129,0.988959550857544,0.12468675943987208,0.12058611240629107,1114901,238.3106042195682,100.0
274,6.086890697479248,372.7487219455652,148.14094559004874,509.8247775319046,-112.08204078278517,100.0,1.5406353865974927,0.1,0.010957002639770508,0.22616028785705566,0.04657088,0.06297982,373.4849425179951,-0.013586655585054773,4.9801586005768135,100.0,7040,0.9724726676940918,0.179549862914366,0.16185623904679897,1121941,230.06425222214082,100.0
275,5.3040666580200195,373.79371581146347,140.28332393183,507.48290446789514,-43.02738690414118,100.0,1.7532430982363054,0.1,0.010927438735961914,0.19509363174438477,0.04894512,0.053584978,373.51581984734196,-0.01311809307163314,4.974426157915327,100.0,7073,0.9353537559509277,0.16243970357246285,0.1485971703424725,1129014,228.24146770595758,100.0
276,5.770205020904541,405.17483917093176,131.2598810889166,509.8012834319295,-85.90067706471251,100.0,1.7687346335245366,0.1,0.01011800765991211,0.1951143741607666,0.047426563,0.049276166,376.6817217797009,-0.012103434217848924,5.408741501308479,100.0,7101,0.9762649536132812,0.13288783837223606,0.1226853405883993,1136115,228.9850932268426,100.0
277,5.658168792724609,385.899131763428,165.63237381404142,509.3963895723223,-69.06091952001076,100.0,1.7952078368568243,0.1,0.009457111358642578,0.19855594635009766,0.04340221,0.048574727,377.60346277807366,-0.013693195676102554,5.146201805293661,100.0,7025,0.9575388431549072,0.1789166328673094,0.16521341647160773,1143140,229.17743735175753,100.0
278,6.078308343887329,389.8023588871998,141.74961301573836,510.12185349186217,-61.26568150399848,98.95833333333333,1.7433869952580219,0.1,0.008144617080688477,0.1958293914794922,0.04536845,0.052892365,378.8233523889863,-0.01276278059900879,5.195566898657423,98.95833333333333,7050,0.9615635871887207,0.1472816964113183,0.14251585460445446,1150190,234.36283671871817,100.0
279,5.258411169052124,405.7317069482894,114.60059110328328,509.8170997017484,-71.48152857025725,100.0,1.6946826039939074,0.1,0.008001327514648438,0.22776460647583008,0.046647392,0.051590867,381.5141878449166,-0.011632269064020442,5.397381102464283,100.0,7103,0.9276142120361328,0.09385594706373564,0.0888287106987486,1157293,236.78922212323135,100.0
280,5.233206748962402,426.4150422423124,108.00135474742612,510.9273877735541,-54.56417423463719,100.0,1.775158771855548,0.1,0.03275012969970703,0.28324055671691895,0.045355216,0.046937957,386.0042732846562,-0.01067902792484489,5.666351111151795,100.0,7127,0.9598159790039062,0.07449703400316901,0.06804138127648594,1164420,236.84207262748322,100.0
281,5.115109443664551,385.1082715397479,155.98469407655827,510.9672350012826,-94.71108612539956,100.0,1.6525579586568246,0.1,0.008659601211547852,0.18455910682678223,0.043527324,0.0545282,385.9146731101654,-0.013833307731625631,5.135709623268907,100.0,7014,0.9126672744750977,0.1807729840389968,0.15991024629967263,1171434,247.7749840859606,100.0
282,5.435461759567261,399.4938743045266,149.7389667608081,513.5324849242288,-92.11352038709202,100.0,1.8055360385524684,0.1,0.007913589477539062,0.19811725616455078,0.04601445,0.04796896,387.2725932296015,-0.012871256437686511,5.319917093580594,100.0,7053,0.9310927391052246,0.14534218127844786,0.13244614620842848,1178487,241.97861342053525,100.0
283,5.581485271453857,422.5986157319585,118.40738535331343,510.19645092882547,-21.47372505797644,100.0,1.6909089192188558,0.1,0.008797883987426758,0.20744681358337402,0.04254371,0.050087973,390.8051954798372,-0.011171852470348185,5.640970014450176,100.0,7124,0.9539752006530762,0.1114292737018155,0.10222585796270037,1185611,246.36117985421376,100.0
284,5.914409160614014,402.3325289166773,160.39951146949915,509.4467991668209,-115.89499540499325,98.95833333333333,1.8117127881943456,0.1,0.007965326309204102,0.18984723091125488,0.047921587,0.04838359,391.95792882352123,-0.012877345903996923,5.357834285571111,98.95833333333333,6978,0.9149868488311768,0.15098776206860517,0.13818753217198126,1192589,241.54003877693495,100.0
285,5.598345041275024,371.9532232669426,173.2383827144221,510.73700943883983,-117.77793064951186,100.0,1.8171157778090465,0.1,0.009724140167236328,0.19445061683654785,0.046703175,0.048231572,389.9574582678634,-0.014391502187337651,4.939553254232901,100.0,6975,0.9072179794311523,0.2061314860872221,0.19592205297682522,1199564,239.28944572635106,100.0
286,5.4417665004730225,389.47899857487755,154.72200494769018,514.2184275129047,-56.014292528826246,100.0,1.7397163684660264,0.1,0.008261680603027344,0.194810152053833,0.04525957,0.050034884,389.9096122985648,-0.01314459515802516,5.204331941949032,100.0,7029,0.9177846908569336,0.17163187332805166,0.16749487428000043,1206593,231.40499316090055,100.0
287,5.396968364715576,417.47347508703933,112.8208523429564,510.4645209228698,-58.11620508126852,100.0,1.8365947851894524,0.1,0.008571624755859375,0.26633691787719727,0.047740713,0.047943726,392.6659985774123,-0.010808911935260256,5.563053741114735,100.0,7145,0.9557747840881348,0.1039893296173816,0.09309379525659481,1213738,243.3023008148251,100.0
288,6.207918882369995,398.8294985468824,142.232364885222,509.4089756148834,-71.73438542735062,100.0,1.5790136849603431,0.1,0.008378744125366211,0.28243494033813477,0.044172596,0.06495716,393.2823485743594,-0.012599041390083068,5.318657136933635,100.0,7060,0.9514601230621338,0.14243771484617665,0.13359700186951018,1220798,245.0519624748623,100.0
289,5.155702829360962,404.57927919927687,138.56480542375166,512.06336536673,-24.60402384801523,100.0,1.6870405661894023,0.1,0.007723093032836914,0.20716404914855957,0.046413857,0.05326306,394.41204163685114,-0.012206897377919218,5.39506158066407,100.0,7100,0.9404346942901611,0.13585736851464275,0.12436521263707585,1227898,249.74073861722292,100.0
290,5.925998687744141,417.715520926534,128.96512230056555,512.2155468031167,-101.32446366150141,100.0,1.5856870046403357,0.1,0.007769107818603516,0.19451665878295898,0.04558665,0.05289613,396.74238956581945,-0.011085824299675154,5.577745895377189,100.0,7108,0.9538023471832275,0.09421616964694124,0.08971640144621736,1235006,277.1583967442385,100.0
291,5.276772975921631,395.5314295440716,143.72147144983904,511.0804643095266,-88.89325657385328,100.0,1.7738034102864626,0.1,0.057064056396484375,0.4119887351989746,0.0491505,0.053110454,396.6212935636447,-0.012947969212046639,5.2684107735950825,100.0,7097,0.9515039920806885,0.16844812493876085,0.15335296024542142,1242103,244.88350598145263,100.0
292,5.3090126514434814,394.55655377980526,125.3066014292462,512.5223447067659,-9.028407665684956,100.0,1.8522085285573173,0.1,0.009259462356567383,0.1994490623474121,0.04728386,0.049817193,396.4148195852608,-0.012116946141320825,5.24863757048795,100.0,7135,1.0184121131896973,0.1385883714122503,0.13315149534310444,1249238,257.9334198537612,100.0
293,5.335459470748901,387.3582515282258,145.3562556606049,512.781306746244,-90.29416548310304,100.0,1.7339787574561591,0.1,0.008509397506713867,0.20479369163513184,0.045803957,0.051042907,395.5091627795573,-0.013040621393056312,5.145580649544547,100.0,7055,0.9634115695953369,0.14506404008584145,0.135379611389961,1256293,262.20058312671324,100.0
294,5.365957736968994,404.3891921532301,148.81707278652578,513.162564904111,-158.95039309433787,98.95833333333333,1.634906503978196,0.1,0.01686549186706543,0.19182515144348145,0.04772529,0.055448167,396.39716571692463,-0.011988624711879716,5.39365751969959,98.95833333333333,7030,1.0021743774414062,0.12530884346308255,0.11724172618950295,1263323,238.14987771412422,100.0
295,5.374597549438477,401.1302146946534,142.38965059812483,513.1811755586792,-86.47106365295048,100.0,1.9698399787614815,0.1,0.007993698120117188,0.22573518753051758,0.04578015,0.04290924,396.8704706146975,-0.012553658908726048,5.357805331707323,100.0,7097,0.9824268817901611,0.15303464478497517,0.14617566282800762,1270420,241.10908426684554,100.0
296,5.481275320053101,418.42111877366915,122.40353519323033,509.26588696597406,-128.6722358337106,100.0,1.6933949486402917,0.1,0.008430242538452148,0.19321107864379883,0.045749497,0.047842372,399.0255354305947,-0.011037015069131429,5.566394142541345,100.0,7123,0.9879958629608154,0.0937846051480821,0.08824423566781278,1277543,240.49622346265346,100.0
297,5.0336689949035645,410.87761595549586,141.92508486210912,516.4197667991543,-84.12987760305307,100.0,1.7757624657683453,0.1,0.0077478885650634766,0.20694971084594727,0.04726339,0.048381496,400.2107434830848,-0.012133521374950875,5.458446605000006,100.0,7100,0.947364330291748,0.12880753984024546,0.1210080463752727,1284643,235.09643890126733,100.0
298,5.534647703170776,410.2426703027115,144.5354567357628,515.8739185288333,-80.12561766930605,100.0,1.649135690836744,0.1,0.008343219757080078,0.2747230529785156,0.04938407,0.053890444,401.21393616504747,-0.01175909328351093,5.463653381788084,100.0,7072,0.9660391807556152,0.12525862806336993,0.12320881042264353,1291715,239.6405884008964,100.0
299,5.57268214225769,401.253265350841,153.67470430096827,511.4966160067449,-172.87667738359588,98.95833333333333,1.814373204025845,0.1,0.008336305618286133,0.18566560745239258,0.044977564,0.04742606,401.21786908362685,-0.012908986005564005,5.333211628225259,98.95833333333333,7060,0.9876279830932617,0.15518061596520405,0.1569189939698182,1298775,239.5022238844911,100.0
300,5.283016681671143,417.84329213073124,134.98324100382501,513.1977041418124,-100.15447763784321,100.0,1.6812361993901468,0.1,0.008112430572509766,0.1871628761291504,0.048068468,0.05314675,402.88041138833734,-0.011694894898569822,5.562343009947543,100.0,7084,1.0056195259094238,0.12890474209868988,0.10208593050236298,1305859,237.14289824697263,100.0
301,5.061668157577515,415.0668887554464,131.9951682945389,513.367534325989,-84.5412351793419,100.0,1.8230056535264212,0.1,0.008490562438964844,0.26868605613708496,0.04769281,0.048466634,404.09905912504826,-0.01176774834939937,5.528305720281744,100.0,7134,1.0073299407958984,0.14044685530806295,0.12754792068674994,1312993,238.2938045799212,100.0
302,6.08461332321167,447.1112335838796,87.7262469043114,515.3958397947765,-62.86339215417553,100.0,1.7898962085240822,0.1,0.026394128799438477,0.18373537063598633,0.04690946,0.051459208,408.4002765709314,-0.00955031860087281,5.942179043433598,100.0,7165,1.0250329971313477,0.06062537023819115,0.045203465518202146,1320158,244.84230767750532,100.0
303,5.772839784622192,417.33895901390315,145.0840177120447,512.5341031863176,-71.60780615363963,100.0,1.7937663434658642,0.1,0.00841212272644043,0.28771066665649414,0.047793422,0.049715027,409.2941448152286,-0.012216404371927296,5.548533994269029,100.0,7047,1.0411312580108643,0.14232634671170238,0.13183606635275757,1327205,237.63669508674957,100.0
304,5.647148609161377,423.9289656110487,136.6528023968501,515.9197875142019,-116.99849794012407,100.0,1.8224872249841872,0.1,0.010726451873779297,0.18265724182128906,0.04822506,0.050358314,410.75762689481064,-0.011297284645680217,5.662795500495354,100.0,7078,0.9949512481689453,0.1106062195764056,0.10438711301898246,1334283,226.1759689260549,100.0
305,5.599908828735352,423.568172084579,141.8324896437534,513.127429481789,-95.54912825605595,100.0,1.8263483572509471,0.1,0.008784770965576172,0.25629210472106934,0.048477143,0.049367268,412.03868141378746,-0.011692279600390218,5.628496898322077,100.0,7056,0.9914531707763672,0.12158276361242373,0.11491123951033361,1341339,231.48867496358693,100.0
306,5.325629711151123,430.2016948451114,130.97477566771943,515.8963885560115,-45.18601957417677,100.0,1.7894634094671684,0.1,0.008424043655395508,0.25694775581359863,0.049395908,0.052638568,413.85498275691987,-0.011262907522270896,5.7274963964616825,100.0,7095,1.0276219844818115,0.10785379924984692,0.10720631940330227,1348434,243.71590824435052,100.0
307,5.501977205276489,427.23512679590016,135.9409263960507,514.2370449813607,-86.00432668604097,100.0,1.8248978981703705,0.1,0.008927345275878906,0.19517874717712402,0.043521106,0.04474247,415.19299716081787,-0.011476637154814617,5.684881923466347,100.0,7068,0.9950594902038574,0.11436140806336881,0.10701677445782995,1355502,248.77677495926437,100.0
308,6.114825248718262,430.7174155192535,150.8120556983264,522.034822725279,-93.71232482545742,100.0,1.6017691347369527,0.1,0.008301019668579102,0.20404934883117676,0.043221094,0.048796725,416.74543899666145,-0.011573162641572316,5.739866143689664,100.0,7027,0.9785034656524658,0.12246293851342416,0.1074192749493946,1362529,259.12000445259326,100.0
309,6.018121719360352,436.052765131463,123.21438844928515,517.0186867469647,-64.52952199803704,100.0,1.950577923950604,0.1,0.01085519790649414,0.27776503562927246,0.04852947,0.046608847,418.6761716101416,-0.010734460994880032,5.794692854801839,100.0,7120,0.980851411819458,0.0898537144606726,0.08396331838570165,1369649,309.91461553985687,100.0
310,5.425266742706299,448.55450396736296,99.31275090562009,511.56025999024536,-84.68464208378639,100.0,1.622728712269524,0.1,0.0619959831237793,0.20117568969726562,0.04759805,0.05320028,421.6640048458637,-0.010135836625511594,5.964130544709424,100.0,7135,0.9980168342590332,0.055301927894788,0.05197342431798248,1376784,283.4097450336025,100.0
311,6.101001739501953,414.75545586268595,147.69104625959227,516.0462543086508,-75.72083463430002,100.0,1.8049309392556772,0.1,0.009284257888793945,0.2823171615600586,0.046950012,0.047256272,420.97314994754595,-0.011887692182494797,5.5198723379026715,100.0,7056,0.9761567115783691,0.14709524760599454,0.12646224342539114,1383840,279.13997233200496,100.0
312,5.959847688674927,455.82229787852606,92.45432002217932,513.7563665047951,-55.7690281321908,100.0,1.8787251492294215,0.1,0.012568235397338867,0.19321942329406738,0.04664213,0.04692323,424.458064740644,-0.00962337202576347,6.058467487950357,100.0,7171,0.986220121383667,0.06322085514391293,0.05227126718576662,1391011,324.31108060304985,100.0
313,5.716656446456909,433.3145312237002,132.14118488219938,511.7675898294867,-76.72419137865515,100.0,1.9104093963854687,0.1,0.00778961181640625,0.18852877616882324,0.047414076,0.043627173,425.3437113889496,-0.010897227349935158,5.771372989150542,100.0,7092,0.9591758251190186,0.10245935485133346,0.09588046048915463,1398103,320.7553450708396,100.0
314,5.36729097366333,446.7008772283405,119.4984646278467,514.4128031420668,-107.8509716855321,100.0,1.6002063387359573,0.1,0.008622169494628906,0.20911145210266113,0.048671838,0.053651314,427.47942797288874,-0.010247922660982664,5.943251410239412,100.0,7109,0.9822382926940918,0.07376034066885954,0.0667322704868396,1405212,286.7162037806718,100.0
315,6.277550458908081,455.49233042770965,96.43671547222128,514.4764986248795,-67.2617705381436,100.0,1.8895130229756254,0.1,0.007842063903808594,0.21035265922546387,0.04660448,0.045999665,430.2807182183708,-0.009830995777591672,6.054209492678435,100.0,7165,0.9830701351165771,0.06423829601196938,0.060643757802396586,1412377,296.4464159662626,100.0
316,5.265437126159668,458.5875497842463,94.98084389445705,518.98337629177,-11.770817004020085,100.0,1.7168566518981272,0.1,0.007857561111450195,0.1914365291595459,0.046323147,0.049436845,433.1114013749584,-0.00966581160689453,6.098620227724614,100.0,7147,0.9987888336181641,0.05854208810767922,0.055550231343672235,1419524,292.2471165332595,100.0
317,5.893744230270386,461.0177626809396,86.48329733599299,518.9017911368697,18.409410106922053,100.0,1.8461988350075775,0.1,0.009732961654663086,0.2681734561920166,0.046802986,0.046345167,435.9020375055565,-0.009404145233130198,6.130676263114711,100.0,7168,1.0179743766784668,0.055337044489933124,0.05338321439252294,1426692,302.86229375708336,100.0
318,5.356109380722046,457.19493989362326,118.8092160970221,520.920852157963,-53.40737197796225,100.0,1.797642268834049,0.1,0.00829935073852539,0.2586550712585449,0.04783093,0.048590012,438.0313277443632,-0.010072647322675295,6.07832145481228,100.0,7120,1.0069608688354492,0.0859182729215525,0.07628691615632521,1433812,311.1968153240584,100.0
319,5.998736143112183,443.48881245059874,130.2971083541829,515.281678709872,-34.74906378357316,100.0,1.767604560983316,0.1,0.009115219116210938,0.3661985397338867,0.047031716,0.04860444,438.57707621498673,-0.0107880885232104,5.9139902544440694,100.0,7098,1.0564112663269043,0.11142871476345771,0.10285259472904311,1440910,276.92435976975463,100.0
320,5.726328134536743,475.0616846211069,72.28834147984512,517.419516826032,45.742156967932445,100.0,2.033468771903764,0.1,0.008484363555908203,0.20992612838745117,0.04722615,0.045164213,442.22553705559875,-0.008863872661270927,6.314820133343521,100.0,7187,1.0897021293640137,0.04545801600308493,0.03849155660528937,1448097,285.92479893173726,100.0
321,5.8141584396362305,423.01719762166954,164.2356840152076,518.195953795253,-152.9078021030362,100.0,1.7110762907153694,0.1,0.04931783676147461,0.47269725799560547,0.049036253,0.051971458,440.30470311220586,-0.012471995469818009,5.61905341175063,100.0,7002,0.9536464214324951,0.16897654411064758,0.14658493770226744,1455099,269.4066441385005,100.0
322,5.720382452011108,439.2085808950822,146.4931853172497,516.3085827809689,-56.81054055832583,100.0,1.6925625253663075,0.1,0.06470561027526855,0.4941542148590088,0.04610834,0.050570056,440.1950908904935,-0.01128613327952291,5.849709291976526,100.0,7060,0.9396915435791016,0.12577371091162973,0.11793925532819019,1462159,248.10268183580874,100.0
323,5.797912836074829,452.215833386612,122.0632396401456,518.0564204675645,-101.27946013825101,100.0,1.8435174090105018,0.1,0.03935551643371582,0.19778084754943848,0.04810561,0.04624028,441.39716514010536,-0.010213560373935704,6.02092142349786,100.0,7092,1.0103981494903564,0.0804187487059055,0.07670086252242872,1469251,241.53533406743855,100.0
324,5.194989204406738,465.98791580774474,105.66689461447073,515.327133218301,-110.69222769370145,100.0,1.837861756033171,0.1,0.04516863822937012,0.32092785835266113,0.04748449,0.0464803,443.8562402068693,-0.00970682939287001,6.206184537352825,100.0,7128,1.0692503452301025,0.06239093284320414,0.059337862337503135,1476379,247.57724676600773,100.0
325,5.631173372268677,438.292037507909,148.152579387358,519.9849281738022,-122.2884490730815,100.0,1.8767598397940712,0.1,0.008811235427856445,0.29942750930786133,0.046830364,0.044853568,443.2998199369733,-0.011507238311540399,5.827263143407116,100.0,7042,1.062804937362671,0.1185145718469495,0.10974484164476536,1483421,262.7705901639603,100.0
326,5.1765265464782715,452.7350564026799,129.1075791039598,517.470519121513,-89.24007450620476,100.0,1.6699756549680003,0.1,0.0076940059661865234,0.18169665336608887,0.049625218,0.052948993,444.24334358354395,-0.010354425713305615,6.028988547488993,100.0,7090,0.9590816497802734,0.08197041115404491,0.07574148154746875,1490511,264.1397387100644,100.0
327,6.432312250137329,460.42009696351016,101.87363733364734,517.1538583315277,9.304300399910566,100.0,1.731258919797851,0.1,0.008065938949584961,0.19769525527954102,0.04836563,0.050351266,445.86101892154056,-0.009604048830030859,6.126104301672626,100.0,7154,0.9578497409820557,0.06513128779231274,0.06504245036319742,1497665,285.6471649588334,100.0
328,5.47135066986084,450.735169505784,126.54407324358428,514.6948662945344,11.66356810831035,98.95833333333333,1.7582087393071506,0.1,0.009029150009155273,0.2868211269378662,0.047249548,0.049653668,446.3484339799649,-0.010487104408370371,5.988563744306627,98.95833333333333,7106,0.9626185894012451,0.08911128905277828,0.08125663495616942,1504771,333.2181199832932,100.0
329,5.736863374710083,456.55305883001773,123.31744025673713,520.7429911668507,-83.49385089421887,100.0,1.776577088294635,0.1,0.00975799560546875,0.37216615676879883,0.047224414,0.048408113,447.36889646497025,-0.01033910130173056,6.070970001217625,100.0,7111,0.9953014850616455,0.08735105643378795,0.08277007933393057,1511882,300.17663500985316,100.0
330,5.530502796173096,461.00457453722134,115.05797915893737,517.0828075111326,-48.261858233374795,100.0,1.791793986156426,0.1,0.07613492012023926,0.36036252975463867,0.047923304,0.048561797,448.7324642721954,-0.010024307374018387,6.134556423889073,100.0,7101,0.975135087966919,0.07676261080853594,0.07332210154994602,1518983,347.2809112517034,100.0
331,6.078305959701538,443.7904950744296,139.79262790889277,519.5131083521409,-96.30956674386903,100.0,1.6406634620198828,0.1,0.01054835319519043,0.3185923099517822,0.046689596,0.05010123,448.2382673524188,-0.010919123828565665,5.917704077312067,100.0,7081,0.8880202770233154,0.10920868534977843,0.09399686449220031,1526064,414.78027040655354,100.0
332,5.702416896820068,447.1737935432052,144.9336644190033,515.0992804276166,-78.15387533633667,100.0,1.7377716364386915,0.1,0.014573097229003906,0.24212002754211426,0.046756137,0.04731634,448.13181997149746,-0.01097741242392373,5.941682546925769,100.0,7037,0.8775582313537598,0.10435211429190688,0.10093342315138266,1533101,391.72572645231764,100.0
