iteration,time_sampling,stoc_pol_mean,stoc_pol_std,stoc_pol_max,stoc_pol_min,rollout_success,alpha,delta,time_vpg,time_npg,kl_dist,surr_improvement,running_score,rwd_sparse,rwd_dense,success_percentage,num_samples,time_VF,VF_error_before,VF_error_after,eval_score,eval_success
0,12.739379405975342,-2663.209164802106,2677.3816092659417,894.1626981456823,-9461.569232962936,0.0,1.4587319755581907,0.1,0.012978553771972656,0.3658456802368164,0.052345462,0.06631279,-2663.209164802106,0.6516381554957967,-13.313958013627365,0.0,17577,1.5644934177398682,0.9999789216998037,0.5902597977081251,-2405.6307148342976,0.0
1,12.54045820236206,-1906.9822475215349,2493.79977892884,960.33086180966,-9410.574623862838,0.0,1.815896275882139,0.1,0.011480093002319336,0.35317134857177734,0.05042303,0.0527883,-2587.586473074049,0.44051559476654073,-9.538803499871824,0.0,17136,1.503697395324707,0.7518389938302714,0.6078932942498063,-2555.3515981670616,0.0
2,13.137046813964844,-2035.1484864712056,2478.987750514415,1927.128027933253,-9440.248160504458,0.0,1.9365332441789105,0.1,0.01149129867553711,0.28968167304992676,0.055173818,0.049977247,-2532.342674413765,0.6052471305994591,-10.175542227478148,0.0,17418,1.7965240478515625,0.5898339158607018,0.4562838013990952,-1851.1499645765696,0.0
3,12.866295337677002,-1590.285289723155,2183.3999979605705,1008.608200906885,-8537.788537740735,0.0,1.7116037482154831,0.1,0.010306596755981445,0.27704477310180664,0.052116625,0.058133814,-2438.1369359447044,0.585925877401238,-7.958472329726555,0.0,16850,2.2563843727111816,0.5328303163576419,0.46019645552398497,-1895.3190718413296,0.0
4,13.55236291885376,-2322.4638263877328,2702.8746753128335,1154.1651112002305,-8976.081058594109,0.0,1.8830779550972188,0.1,0.011852741241455078,0.4259309768676758,0.05733651,0.055659976,-2426.5696249890075,0.6796151223720859,-11.616733995119654,0.0,17927,2.431210517883301,0.432639905275134,0.33417201717261324,-811.3467640042225,0.0
5,13.499176025390625,-1785.1396838251992,2308.4707635369514,1130.4444638911334,-9522.321857794592,0.0,1.9166699093396076,0.1,0.012092113494873047,0.27849650382995605,0.048804313,0.050673176,-2362.426630872627,0.7823922992549811,-8.928407792747853,0.0,17985,2.3916571140289307,0.41102571361840934,0.3597119554949936,-55.348644829045725,0.0
6,14.384134292602539,-1492.3205366748061,2409.3306020881596,1205.6768826337714,-9679.34196872425,0.0,1.846660347495334,0.1,0.0118255615234375,0.28378725051879883,0.0518585,0.055057704,-2275.4160214528447,0.5440377084452892,-7.467241923812492,0.0,18159,2.382439613342285,0.39896237339413604,0.3296942443030744,-328.90798771188815,0.0
7,12.917133331298828,-1550.1208054531355,2245.218690526433,1005.7199727348079,-8801.157798506081,0.0,1.9480947088398557,0.1,0.011753320693969727,0.26524853706359863,0.04857991,0.04975312,-2202.886499852874,0.4183258519256567,-7.756309059027463,0.0,17541,2.3060221672058105,0.4519529804533364,0.3773287627696973,-742.2566523350503,0.0
8,13.740132570266724,-1785.7803460223474,2577.1187721661336,1147.2753583095819,-8272.10262318795,0.0,1.853538001088939,0.1,0.013033390045166016,0.38233399391174316,0.052380405,0.051659554,-2161.1758844698215,0.4908740800962809,-8.932731979459621,0.0,18566,2.5360140800476074,0.32982388045974054,0.2774354306727389,-587.9805849072734,0.0
9,13.105247259140015,-897.9844517146195,2041.9356358584173,1083.405678036575,-9549.687042367304,0.0,1.8750130045816673,0.1,0.01076197624206543,0.3150298595428467,0.050114736,0.053437736,-2034.8567411943013,0.6846493715415076,-4.498692933535129,0.0,17547,2.331488847732544,0.41076025201034566,0.36591963385418375,60.26126374837114,0.0
10,14.16437292098999,-1124.995873445802,1829.826447741408,1128.7882064955452,-8205.596608076126,0.0,1.8633875869572383,0.1,0.011457443237304688,0.3256053924560547,0.051569767,0.052756093,-1943.8706544194515,0.4006771958906002,-5.632309457303894,0.0,18856,2.532017707824707,0.494002834286524,0.42489461147646007,25.217995123292706,0.0
11,13.641884565353394,-1057.26660114493,1871.696387515465,1033.7207164403458,-7764.516361412314,0.0,1.899258437622757,0.1,0.011603355407714844,0.30899477005004883,0.050206404,0.04889847,-1855.2102490919992,0.673366947527778,-5.294923618927839,0.0,18472,2.4663028717041016,0.4434820540700902,0.3986266057876101,49.40442131808216,0.0
12,13.672749996185303,-887.3022147198079,1699.4837883386708,1088.2923897284297,-6256.982773128035,0.0,1.9251773359437572,0.1,0.012038230895996094,0.3238654136657715,0.050475735,0.05185727,-1758.41944565478,0.5542452243360053,-4.443403517066028,0.0,18453,2.457914113998413,0.47121761642155074,0.44817489364756885,129.1215411704088,0.0
13,14.851171016693115,-681.3789480690301,1469.7813602845358,1096.0823206560021,-5513.285872176483,0.0,2.041428564594237,0.1,0.013077020645141602,0.424210786819458,0.049064387,0.045721453,-1650.715395896205,0.27528219727483416,-3.41602045040662,0.0,19175,2.4968128204345703,0.47370048795583564,0.4234546682246617,-482.7861598933434,0.0
14,15.045122623443604,-866.7704462466849,1667.8544900142379,1034.466318775042,-8104.761721973596,0.0,2.165116830873528,0.1,0.011430501937866211,0.3206362724304199,0.050876614,0.04387917,-1572.3209009312532,0.4425247320310069,-4.341029303819677,0.0,19119,2.4529433250427246,0.45330292243000675,0.37817390346722923,-292.7636287343663,0.0
15,15.050286769866943,-763.1730966341388,1485.1641313259538,1112.2124564887386,-8218.725481249317,0.0,2.0009593411145827,0.1,0.012274503707885742,0.3297722339630127,0.05014305,0.048337508,-1491.4061205015419,0.49438217660981093,-3.8250226086973846,0.0,19028,2.4087371826171875,0.5104499037645859,0.4620187668668261,-387.7866085289294,0.0
16,14.814550161361694,-400.53839282147516,1004.6168154640709,1186.1156020023495,-3624.317660681878,0.0,2.091626981932388,0.1,0.011943340301513672,0.4157717227935791,0.0492278,0.04616719,-1382.319347733535,0.47923347367427144,-2.0136767912400306,0.0,18951,2.376255512237549,0.5687077402388795,0.49621981407759796,-372.8754305271292,0.0
17,14.434768199920654,-488.57131948498954,941.0705612751756,1472.6132837080886,-3471.63384308208,0.0,2.027513467805648,0.1,0.012752294540405273,0.417095422744751,0.049234845,0.04797119,-1292.9445449086807,0.33302445737467046,-2.4491017400346524,0.0,18846,2.3610785007476807,0.5250310273113552,0.4891860086008382,-364.98309520371185,0.0
18,14.438449144363403,-428.08703764662005,871.7232034665409,1421.515589954877,-3027.483160029818,0.0,2.127282782947639,0.1,0.012554407119750977,0.439464807510376,0.049924936,0.04659568,-1206.4587941824745,0.3218569430638263,-2.1486226379327555,0.0,18951,2.3803553581237793,0.5978916441227012,0.5413913738654291,-376.65856499266647,0.0
19,14.698706865310669,-367.0730973746756,836.5775324355441,1136.8195074771047,-3197.4989556644073,0.0,2.1758044951402087,0.1,0.012954235076904297,0.4007682800292969,0.04699481,0.04233747,-1122.5202245016947,0.36661883841206394,-1.8453152344261723,0.0,19070,2.4152767658233643,0.6376753440875076,0.5569193746089415,-341.26934168919706,0.0
20,15.014342546463013,-208.87469770245843,867.1041465300391,1577.688555409814,-2868.5689931999323,0.0,2.1399363095329673,0.1,0.013483524322509766,0.39806509017944336,0.0466751,0.043155894,-1031.1556718217712,0.5040133675788533,-1.0534587477832316,0.0,19200,2.493405818939209,0.47438742315013344,0.41618175130179846,-166.31393461830004,0.0
21,14.731200456619263,-285.3392501279173,701.5809967484385,1138.2721369642516,-4051.6752723668324,0.0,2.1807898524185285,0.1,0.012417316436767578,0.31465649604797363,0.050477706,0.043577135,-956.5740296523859,0.2661834584698877,-1.435633513133937,0.0,19187,2.4955270290374756,0.6240202989379443,0.4829767861689452,-29.29194415547972,0.0
22,14.609081983566284,-102.54810405591923,629.7002235980963,1499.8446737154454,-1852.5327177213483,0.0,2.0356000130282457,0.1,0.012056350708007812,0.36568689346313477,0.049818747,0.046879794,-871.1714370927392,0.46778662675073274,-0.5214262154444617,0.0,19123,2.398590087890625,0.6309850940656634,0.493757031347395,4.60066790214335,0.0
23,14.98437762260437,-141.3597366469051,700.544690743443,1628.5032287771112,-3473.797775913186,0.0,1.9408701545534164,0.1,0.013070821762084961,0.4081614017486572,0.0484374,0.044967797,-798.1902670481558,0.35026724740528753,-0.7164155719667256,0.0,19200,2.464049816131592,0.5240718605739058,0.45617276603112084,-17.227896859821016,0.0
24,15.13776683807373,-41.1792488928492,537.3810833922338,1823.422957573173,-1904.989615561639,0.0,1.9732854890506843,0.1,0.014208793640136719,0.42516469955444336,0.05085551,0.05187173,-722.4891652326252,0.4265833684803921,-0.21652047424234425,0.0,19200,2.5428030490875244,0.42614404690818686,0.3642171405282813,-23.074339906495716,0.0
25,15.08697247505188,16.104437479894443,668.3574723144752,1631.2648474993846,-2181.3425165677604,0.0,2.119419629195424,0.1,0.012677907943725586,0.33714890480041504,0.04665063,0.043078102,-648.6298049613732,0.5609356509855333,0.06916100084457222,0.0,19141,2.5753276348114014,0.32434033478555024,0.26396004760642766,112.23083195198251,0.0
26,15.201967000961304,139.51638832987328,668.5519182294577,1847.412894240228,-1266.2102458909314,0.0,2.0335353379714713,0.1,0.013316154479980469,0.4032278060913086,0.05029574,0.051494833,-569.8151856322486,0.5813443402102317,0.686938541900803,0.0,19200,2.5537819862365723,0.19259436086057508,0.14005855394626976,200.24622908923655,0.0
27,14.84702181816101,143.0264830164864,651.8700727159186,1813.5248910308399,-2460.0477534282295,0.0,2.037454651322713,0.1,0.011673450469970703,0.40888237953186035,0.05086423,0.04460546,-498.5310187673751,0.7504388294642245,0.7036241105481112,0.0,19200,2.546900987625122,0.281380004747584,0.24777891574141847,177.72865104125634,0.0
28,14.437730073928833,115.72867344746562,648.0967113806545,1820.5545186480965,-2476.384833375231,0.0,1.9760372033268296,0.1,0.012681245803833008,0.29560303688049316,0.050778065,0.049500715,-437.105049545891,0.6940665591964326,0.5673961048753525,0.0,18989,2.508878707885742,0.3326845279325187,0.234747085754046,17.42535254500593,0.0
29,14.755844354629517,7.578957255334697,828.2271707463076,1784.6241274864205,-4140.4855264610505,0.0,2.0389156824560133,0.1,0.01216888427734375,0.27985692024230957,0.04797024,0.042259406,-392.63664886576845,0.6403689519767696,0.02640890121860588,0.0,19099,2.5628697872161865,0.5537978933853575,0.3967864489786007,29.195883009758674,0.0
30,14.168278217315674,46.73339336114225,955.1884732758349,1802.167705431031,-4189.268474852543,0.0,1.8984748912460139,0.1,0.012496709823608398,0.38732266426086426,0.048809025,0.05330515,-348.69964464307736,0.7414997126815747,0.2212044797806878,0.0,18968,2.6490535736083984,0.4334256904044386,0.35989037431959797,51.05706142765752,0.0
31,14.687466382980347,218.53398773850157,643.5457408439679,1880.280329188831,-1064.1986227100867,0.0,1.9805363532153326,0.1,0.01293039321899414,0.4291572570800781,0.05149055,0.052960142,-291.9762814049195,0.7459039361426032,1.0807953361607432,0.0,19200,2.711897611618042,0.13738858583503244,0.11319086072791024,118.37419867015018,0.0
32,14.12695574760437,-16.18250773557106,1027.746890616208,1795.2430988974243,-6908.962880877087,0.0,1.7867108330593817,0.1,0.011816263198852539,0.30018019676208496,0.050369754,0.05355331,-264.3969040379847,0.5714160590278924,-0.08988112897204369,0.0,19035,2.636981725692749,0.4223636808467872,0.2133053265872182,219.00816093469967,0.0
33,14.589320659637451,181.06934438711355,593.59810475892,1816.6901243346979,-702.0381957089752,0.0,1.9354800040702287,0.1,0.01286005973815918,0.3850545883178711,0.04995018,0.06226413,-219.85027919547488,0.7051074901871514,0.8940221424596159,0.0,19200,2.592019557952881,0.1744127530910797,0.11157167361087099,105.89785746674261,0.0
34,14.633624792098999,262.401715581291,748.7349712186631,1926.8910910036018,-794.836561868715,0.0,1.8973749225441747,0.1,0.013724803924560547,0.45168614387512207,0.051446714,0.09881208,-171.6250797177983,0.8074144237016125,1.300699437336134,0.0,19017,2.550264835357666,0.14181381802613918,0.0910581930300777,67.74663918702734,0.0
35,15.062068939208984,115.76117887151618,997.7640839140008,1928.6006695990995,-6445.88243360482,0.0,2.1086585347047246,0.1,0.012974977493286133,0.39592742919921875,0.04834137,0.040941842,-142.88645385886684,0.7599045222198257,0.5668861939183228,0.0,19200,2.6007652282714844,0.5356071869069808,0.2331233452382047,84.07065582911814,0.0
36,15.031580924987793,259.34269837560385,692.14039576882,1848.9276716075403,-1703.9871177907796,0.0,2.0674829311173086,0.1,0.012578964233398438,0.4044327735900879,0.050151046,0.04983191,-102.6635386354198,0.8561225260314483,1.2853584689878215,0.0,19200,2.58807373046875,0.30231649955547063,0.14232848437875462,96.8635555801092,0.0
37,14.266936302185059,150.49744428276617,565.4056216935433,1745.69886281524,-911.7511318195556,0.0,1.7748977198748503,0.1,0.012957096099853516,0.3648841381072998,0.04947293,0.06977272,-77.34744034360119,0.6748440113989381,0.74319538891162,0.0,19023,2.4615025520324707,0.17665676588747503,0.1371553420490059,5.485901816019034,0.0
38,15.19810438156128,229.42245255196016,958.6352124857654,1829.502347610794,-6132.090097705192,0.0,2.069786375069161,0.1,0.013478755950927734,0.403886079788208,0.04967665,0.04407262,-46.67045105404506,0.9386231723680908,1.134268525492543,0.0,19200,2.468569755554199,0.3614320758078302,0.17992383962296254,85.83925506540655,0.0
39,14.900282859802246,272.3592621043345,723.869650010998,1946.6632340920316,-978.3394722157884,0.0,1.8601799559024654,0.1,0.013578653335571289,0.40408992767333984,0.048614565,0.057752665,-14.767479738207104,0.853682637497294,1.350734071250477,0.0,19200,2.4635870456695557,0.08547086207239496,0.0664162869365419,130.79210322888713,0.0
40,15.21706509590149,355.66473594789676,686.0501625268275,1913.8924853468266,-454.4569134079627,0.0,1.9733997086125339,0.1,0.01228189468383789,0.37779784202575684,0.050746772,0.050223548,22.275741830403284,0.9735870832597037,1.7666367168368018,0.0,19200,2.4708621501922607,0.09160690041446211,0.06793344277312831,178.5919823295762,0.0
41,14.856234788894653,265.5007618672157,713.2088917537554,1903.0859826593846,-1223.9370299840352,0.0,1.5678644778714594,0.1,0.012138843536376953,0.3489258289337158,0.049878035,0.102178074,46.59824383408453,0.8887808451729425,1.3137770785267564,0.0,18677,2.40022349357605,0.173908650423451,0.08160013943057003,187.4427247307977,0.0
42,14.978325605392456,286.429720471424,760.5364037229506,1883.9608351421114,-950.8619569810318,0.0,1.6971438189397863,0.1,0.012970447540283203,0.4478018283843994,0.050010104,0.05739528,70.58139149781849,0.9962311578114162,1.4184970652972793,0.0,19200,2.4448838233947754,0.09607362542285257,0.08585207640393212,163.20754502680904,0.0
43,14.675446510314941,481.2456588819643,923.110509078688,1935.4042046998609,-3820.518725283923,0.0,1.6956133165849103,0.1,0.014898300170898438,0.44124674797058105,0.04998566,0.042560425,111.64781823623306,1.3043080567029992,2.3943845934796384,0.0,19200,2.4987881183624268,0.14120516562109334,0.08060483346928773,117.21233378305918,0.0
44,14.814739227294922,522.6129458924012,795.8622453961345,1939.5840846545261,-355.81020582538525,0.0,1.718601818818042,0.1,0.012331485748291016,0.36544036865234375,0.047728322,0.06757095,152.7443310018499,1.2210171414572188,2.6017674568126767,0.0,19200,2.4211530685424805,0.053715869224686304,0.04516490132329267,224.48105147791742,0.0
45,15.026800394058228,387.5384229225669,805.609999253487,1916.9736186381724,-1742.4817245034196,0.0,1.7421588043547709,0.1,0.012543678283691406,0.4119455814361572,0.049250152,0.050241385,176.22374019392163,1.0276931243960599,1.9260633719801257,0.0,19200,2.385035753250122,0.0701849506071095,0.05795677000626497,188.1295107893012,0.0
46,15.110664367675781,396.1567586430888,960.8243287175726,1984.8073365483572,-5010.11115950597,0.0,2.0315429129016276,0.1,0.013683557510375977,0.41078853607177734,0.048289794,0.043793913,198.21704203883834,1.1215936112357454,1.9687191272275342,0.0,19200,2.39408278465271,0.20258264745944976,0.07270026646526259,240.78274382418792,0.0
47,15.5440194606781,340.1246722732979,726.7877624333674,1917.5873810068797,-969.1320841722026,0.0,1.9202423310269108,0.1,0.01260828971862793,0.43773531913757324,0.04610225,0.057653606,212.4078050622843,0.9775099059383998,1.6893910301406194,0.0,19200,2.4377288818359375,0.09652839362745479,0.06888697605029315,195.12574982664268,0.0
48,15.297701120376587,320.64628536101856,736.7439507604113,1859.8383843516008,-472.9935264213916,0.0,1.8885573881949012,0.1,0.012262344360351562,0.341702938079834,0.049833678,0.055759773,223.23165309215773,0.8942055820860001,1.5913398776453331,0.0,19200,2.3837738037109375,0.07849790754217932,0.0563635260050624,271.0802456172638,0.0
49,15.22854733467102,465.75519618814906,895.6403430812353,2002.7952187430483,-3210.5104155226545,0.0,1.8669091599979317,0.1,0.012173891067504883,0.3981623649597168,0.049973376,0.047176257,247.48400740175686,1.187761329194957,2.315357535599017,0.0,19200,2.432981014251709,0.10881786731051304,0.07324040755521367,215.86466974050109,0.0
50,15.146236181259155,416.2281917856312,835.444720534625,1864.8573536652152,-2085.1361243179445,0.0,1.9472310258402834,0.1,0.012251138687133789,0.4181098937988281,0.04664284,0.038860783,264.3584258401443,1.1472916458326345,2.0692090916600883,0.0,19200,2.4431774616241455,0.07616146416912123,0.05599917980365249,292.57808091156943,0.0
51,15.306156158447266,578.1885459871033,840.1384113168793,1991.4075417014271,-617.3527282649876,0.0,1.949861428874042,0.1,0.012615203857421875,0.43222546577453613,0.04935602,0.060109932,295.7414378548402,1.3576661814985531,2.879007799596341,0.0,19200,2.429495096206665,0.04164258860514357,0.032043658825714576,317.5331714669085,0.0
52,15.206161499023438,519.4684883689794,804.2348431748285,1962.70527805282,-462.41448121551883,0.0,1.9183006888241456,0.1,0.01430058479309082,0.409332275390625,0.04873424,0.05315715,318.1141429062542,1.2162715560506927,2.586381640443386,0.0,19200,2.439925193786621,0.06783628538384001,0.043207524124379615,271.5332896203827,0.0
53,15.024030685424805,444.68896696484126,832.444656454585,1979.6027802466524,-953.9021358710456,0.0,1.8184648545106985,0.1,0.012665033340454102,0.3898134231567383,0.050500013,0.05067894,330.7716253121129,1.1037147477061997,2.2110696238105896,0.0,19200,2.502237319946289,0.04877384603300086,0.042031310147610655,222.15874492995954,0.0
54,15.25341510772705,644.8618594581268,842.8304106589135,1958.1329528713568,-452.14927946327253,0.0,1.8087000655380232,0.1,0.012833595275878906,0.43703198432922363,0.050711043,0.05149502,362.1806487267143,1.4336087531600565,3.211330861557585,0.0,19200,2.5009095668792725,0.0436583968668547,0.032657144517139754,251.30001315757644,0.0
55,15.63540530204773,578.1289662320664,810.0062666833605,1986.600175721835,-650.8658318083259,0.0,1.9720995944162034,0.1,0.013426065444946289,0.4186272621154785,0.048376884,0.051103592,383.7754804772495,1.3443039527900182,2.8775889615139434,0.0,19200,2.514779806137085,0.047438873205234,0.038303332255508624,205.1237414097783,0.0
56,15.0305917263031,645.9448716615028,886.7440860842098,1943.1299399397485,-1743.7560430201816,0.0,1.7940812540964854,0.1,0.014134407043457031,0.36721229553222656,0.04903461,0.052927483,409.99241959567485,1.41877065918652,3.216284550056244,0.0,19200,2.484400749206543,0.04444189712581648,0.03609709042338873,260.9859736069276,0.0
57,14.964071989059448,611.5436696440725,870.1659337184661,2027.1791278496937,-649.7488693658806,0.0,1.9710773551633411,0.1,0.013369560241699219,0.4000723361968994,0.0502596,0.051474232,430.1475446005146,1.2937348056798739,3.0454681117471503,0.0,19200,2.429964780807495,0.035332405818564554,0.028267762392734458,456.37021569423786,0.0
58,15.08295726776123,699.0083323808936,828.9139288477335,2039.5142668697333,-534.7472197045553,0.0,1.9013567440644858,0.1,0.01273965835571289,0.4209165573120117,0.050658494,0.051554244,457.03362337855253,1.4923162731196185,3.4828491387795055,0.0,19200,2.444518804550171,0.0388709569820526,0.03305214480200186,264.8136608733637,0.0
59,14.917272090911865,481.6301435621819,828.0261506218045,1943.3649597347692,-456.63006155853896,0.0,1.8049436990132983,0.1,0.012441158294677734,0.41738033294677734,0.050597485,0.05091857,459.49327539691546,1.1569293218984804,2.395813132724541,0.0,19200,2.5193166732788086,0.03958251321408217,0.031345909458307335,733.752786563468,0.0
60,15.643134593963623,583.9992855632516,1042.6899060386547,1943.1394724456932,-4706.037589880978,0.0,1.9928655938485735,0.1,0.013504505157470703,0.3867497444152832,0.047631647,0.045805316,471.9438764135491,1.3309612028217854,2.9069466199374308,0.0,19200,2.574444055557251,0.16762221558830714,0.059536985173143056,818.1371805767955,0.0
61,15.111547708511353,631.7597891240212,835.5876852930627,1900.695380593173,-386.6555256120571,0.0,1.8696952085943617,0.1,0.01277303695678711,0.4231588840484619,0.049138196,0.050444715,487.9254676845963,1.4344794738627324,3.1455922653446344,0.0,19200,2.5746891498565674,0.045557168998466846,0.03315590415121077,824.9011183726369,0.0
62,15.16745924949646,646.793485358435,859.4233864354021,1937.8309769081886,-501.22318620272455,0.0,1.7292023307676412,0.1,0.013251304626464844,0.38875913619995117,0.049314912,0.062634744,503.8122694519802,1.3989601600257944,3.221512269183412,0.0,19200,2.5961403846740723,0.041646756062168264,0.03402929146120824,730.9388369618669,0.0
63,15.294172286987305,727.4709158180589,877.9815816503713,1959.3338453558158,-775.4579999630309,0.0,1.7053073664196048,0.1,0.013264179229736328,0.40011167526245117,0.051671494,0.05499663,526.1781340885881,1.5380646299270933,3.62361399023353,0.0,19200,2.594447135925293,0.03401118105518869,0.026506514784275258,560.6847115242095,0.0
64,14.741071701049805,424.6311301715362,1020.0964434176532,1935.9615531099055,-5953.705250385055,0.0,1.7422389809722778,0.1,0.01252436637878418,0.4476146697998047,0.05027091,0.06204808,516.0234336968829,1.1314195193712608,2.109738186613354,0.0,19015,2.532635450363159,0.23124000577853962,0.10802770329214885,610.4932378307424,0.0
65,15.360553741455078,615.7503955408861,890.9087826219799,2003.7934454258477,-1353.9774945624222,0.0,1.7233696369144673,0.1,0.01332402229309082,0.38754844665527344,0.05178225,0.056700714,525.9961298812832,1.379654731913097,3.0663971888700554,0.0,19200,2.5802433490753174,0.047059943858670725,0.041129647836259504,543.8525945557172,0.0
66,15.69146990776062,606.3990738646354,855.1566333724952,2033.968638318017,-921.3594426960074,0.0,1.730731241415886,0.1,0.0133514404296875,0.39531373977661133,0.051253937,0.06329745,534.0364242796185,1.3004873544172997,3.020036447952929,0.0,19200,2.645617723464966,0.05254329470346932,0.04056813198178189,784.586768526533,0.0
67,15.385412454605103,619.5878500704451,879.5587082722136,2010.831329997244,-775.0725643278662,0.0,1.82619825497331,0.1,0.01292872428894043,0.39863061904907227,0.05012443,0.057763584,542.5915668587012,1.3644617592540877,3.0841877458166507,0.0,19200,2.6937663555145264,0.04977875316052582,0.04207626896690025,780.1244309446183,0.0
68,15.593535661697388,598.6205220347833,874.7501020763636,2010.5569844381191,-667.7875567405397,0.0,1.8258377296271153,0.1,0.01383519172668457,0.4303147792816162,0.050680567,0.049346346,548.1944623763094,1.3217842325238116,2.9800264304227118,0.0,19200,2.7364070415496826,0.0478634739609202,0.038722709926897844,749.3021347696038,0.0
69,15.29201865196228,644.1761386003069,856.8933167073384,1933.4151640375187,-499.0462667023149,0.0,1.8973574922716616,0.1,0.012914419174194336,0.3952937126159668,0.04911283,0.057005003,557.7926299987091,1.444204906519322,3.207158559279946,0.0,19200,2.6317601203918457,0.04579902359556039,0.03863526718403696,804.0087848423707,0.0
70,15.58141303062439,659.9530820934684,865.7551346371278,1967.2409416716682,-474.5313104660678,0.0,1.880226605193223,0.1,0.013462543487548828,0.3869204521179199,0.04970667,0.052965056,568.0086752081851,1.3687817596124712,3.2855402490136414,0.0,19200,2.5913712978363037,0.024989058707780537,0.020079736848538185,702.2208356518399,0.0
71,15.874761581420898,715.6769588329271,885.3045702857199,1979.8302002196417,-518.9425542013219,0.0,1.790474012192155,0.1,0.01275634765625,0.4139080047607422,0.049061093,0.059872124,582.7755035706593,1.4983977624272231,3.5650619373855768,0.0,19200,2.55720853805542,0.036765369518176216,0.03285848914889964,816.2032020495371,0.0
72,15.624609470367432,833.2350247289587,881.4205585309702,1959.6517507907947,-473.19863293209653,0.0,1.9297007119941276,0.1,0.012804985046386719,0.4245610237121582,0.051505312,0.054424986,607.8214556864893,1.6748479966207066,4.153079420466262,0.0,19200,2.523052453994751,0.028569688333565824,0.02482370737742387,806.1231505550095,0.0
73,15.530120849609375,731.7619986460728,938.7531556666751,2016.0157588792824,-1341.4228836036464,0.0,1.8095174020601383,0.1,0.012654304504394531,0.41048741340637207,0.047871415,0.05495154,620.2155099824477,1.5321916219201654,3.645640574077207,0.0,19200,2.5719833374023438,0.04025814046157337,0.03259183778165047,722.9570504104181,0.0
74,15.531417846679688,746.7920600975249,888.8210926839388,1980.9019476295853,-451.47891178918155,0.0,1.8900989105193637,0.1,0.013115167617797852,0.4181056022644043,0.048933722,0.05614581,632.8731649939555,1.4995150503130013,3.7205840661199816,0.0,19200,2.5904653072357178,0.03225203753375926,0.02616358109202661,783.919660955873,0.0
75,15.476200103759766,766.989904515689,918.6301150960006,1973.1277885420886,-524.2062097833965,0.0,1.9063890046325604,0.1,0.01314401626586914,0.4094398021697998,0.04919445,0.045219086,646.2848389461288,1.581238393879343,3.8230940785342504,0.0,19200,2.581737995147705,0.03981344620116664,0.03083604940591107,812.0165376305498,0.0
76,15.596201658248901,823.605358519194,924.6383340893777,1974.8155170005307,-491.342280917517,0.0,1.8482285077527305,0.1,0.011968374252319336,0.3893771171569824,0.049116164,0.058028843,664.0168909034354,1.5910449249876282,4.1060657650996175,0.0,19200,2.5889108180999756,0.025579342064867505,0.019493342513862207,744.5293452380004,0.0
77,15.691592931747437,822.6223654883302,933.9982498171848,1992.938002938401,-1342.4246251618647,0.0,1.602576400068286,0.1,0.012119054794311523,0.38075780868530273,0.05033672,0.06300834,679.8774383619249,1.634401319337277,4.098819894628277,0.0,19200,2.560307025909424,0.045372907486361164,0.034164422500009936,807.565551470316,0.0
78,15.681363105773926,840.1613933509921,889.7825575851631,1984.531459394591,-505.26923840401463,0.0,1.8251884949741468,0.1,0.012674570083618164,0.3816843032836914,0.05115668,0.05788142,695.9058338608315,1.6508999203549752,4.1892505560413005,0.0,19200,2.5630266666412354,0.024760469017498742,0.02119528366980278,787.7074992394266,0.0
79,15.166259050369263,898.2129114975214,913.183312656649,2033.7476316576458,-1297.1782526337954,0.0,1.6861807713908694,0.1,0.012051582336425781,0.3510260581970215,0.049371507,0.049419057,716.1365416245005,1.8151633417358923,4.479115461712788,0.0,19020,2.571005344390869,0.037893530306248424,0.03310840794785545,710.4052173160634,0.0
80,15.64948844909668,755.6235811184059,950.2692769144958,1997.9244507559279,-2574.2370122377265,0.0,1.8560744128391835,0.1,0.012672901153564453,0.38845372200012207,0.050541583,0.048582703,720.085245573891,1.5486989545641403,3.765109319010555,0.0,19200,2.6438851356506348,0.04680644779882463,0.032564548410341114,856.3905468490905,0.0
81,15.57370376586914,914.0447555964425,937.1967279331362,2035.8537595772418,-646.6289545646595,0.0,1.6505604040549748,0.1,0.012708902359008789,0.4071652889251709,0.049660705,0.0475355,739.4811965761462,1.7754735911503303,4.557345532049274,0.0,19200,2.680830240249634,0.0276322485027262,0.023787346050407845,750.42696445967,0.0
82,15.389244556427002,784.0421865536997,882.3899752709905,2047.224841795578,-582.8261004827216,0.0,1.9216271784930798,0.1,0.013333559036254883,0.41631174087524414,0.050206304,0.049600504,743.9372955739016,1.570974381068089,3.907705852892049,0.0,19200,2.7384586334228516,0.03530914087507098,0.028798038509380973,887.3671449509297,0.0
83,15.242977380752563,866.777679455231,916.2304384854538,2001.3752294271892,-273.2803635435557,0.0,1.7815541975042914,0.1,0.013437509536743164,0.4189891815185547,0.04976279,0.055387408,756.2213339620346,1.6917838851877043,4.3211585497574845,0.0,19200,2.8261632919311523,0.02816399008216492,0.0237191095722953,836.3975604454847,0.0
84,15.414591789245605,760.021041070359,947.7779939286568,2006.941393921797,-1503.394323444202,0.0,1.6722815051032265,0.1,0.013242959976196289,0.3986942768096924,0.05031746,0.052989222,756.601304672867,1.5079797236667911,3.785868064394128,0.0,19200,2.80078125,0.03346049467250075,0.02564170062460336,931.6970340635309,0.0
85,15.013627529144287,1014.2336770181109,926.7778542884653,2022.3984582497449,-542.4049842500941,0.0,1.737001893298884,0.1,0.018597126007080078,0.4306161403656006,0.049307205,0.053102657,782.3645419073914,1.8883295895340766,5.0563060510792734,0.0,19200,2.738088846206665,0.017922211769302244,0.012920787007594754,806.6751800511763,0.0
86,15.156067609786987,875.9684790512183,894.3616187326351,1989.8205528157027,-362.74214289543875,0.0,2.0238010371190707,0.1,0.012832880020141602,0.4265260696411133,0.05046454,0.052522402,791.7249356217742,1.7098463400011141,4.366789392130598,0.0,19200,2.71244478225708,0.024901639390810935,0.016733882890976996,732.0648444377817,0.0
87,15.09809136390686,922.633600224675,887.1442532228722,2033.5762777538548,-534.1737903637467,0.0,1.6451263599813042,0.1,0.01207113265991211,0.33408045768737793,0.05195344,0.07042546,804.8158020820644,1.8145356966231834,4.59902361002885,0.0,19016,2.6712052822113037,0.0358901324910917,0.028057808367003622,885.0428338998918,0.0
88,15.368271827697754,1081.6432200783913,899.9753401420221,2013.9227078157692,-553.6855881256201,0.0,2.0558726023977036,0.1,0.012738227844238281,0.3730919361114502,0.04952588,0.046207096,832.4985438816971,1.9987966755379596,5.3948275318943475,0.0,19200,2.6830670833587646,0.016060109352488316,0.012614245724846576,714.7687777932709,0.0
89,15.542432308197021,952.828797964447,915.8408442172521,2041.6696021424332,-423.3197137983543,0.0,1.9097208723858479,0.1,0.018937110900878906,0.40204381942749023,0.049013533,0.04611851,844.5315692899721,1.783661154532412,4.751513615462367,0.0,19200,2.5822930335998535,0.02143033616951441,0.015158960028155548,671.8634513730501,0.0
90,15.30926775932312,861.4824357602027,881.991313756991,2058.774445411865,-409.85978581794984,0.0,1.8957545633801198,0.1,0.011432409286499023,0.36141276359558105,0.049801063,0.051295627,846.2266559369953,1.669605463663106,4.295026633718442,0.0,19200,2.5929746627807617,0.03081235269134935,0.024080039053711488,782.8874633008548,0.0
91,15.438201189041138,783.4186685877763,906.4019592717954,2001.1387333439386,-918.9981086151228,0.0,1.8264888492963516,0.1,0.013100385665893555,0.40633511543273926,0.049779978,0.051199004,839.9458572020734,1.5261544359212358,3.90499682448644,0.0,19200,2.680070638656616,0.02745326109813421,0.02310102855560044,663.0318561445729,0.0
92,15.557644605636597,1136.3680689241523,845.6169378445505,1975.2507138359613,-139.91034490140024,0.0,2.087733170552195,0.1,0.013114213943481445,0.38956379890441895,0.04927076,0.0459134,869.5880783742814,2.1295726322318114,5.66816649552609,0.0,19200,2.6803054809570312,0.0264222143875343,0.019178603917493695,810.5719742931112,0.0
93,15.61588430404663,897.5633546068962,909.7093172046123,2022.750939084407,-1258.6699306084072,0.0,1.7492830282897849,0.1,0.012581348419189453,0.39186930656433105,0.049761977,0.051968638,872.3856059975428,1.7394149487405723,4.473507821847026,0.0,19200,2.633511543273926,0.029213132802684186,0.022060968777304762,823.0700678775763,0.0
94,15.435030698776245,1013.8018666143157,884.1657834907442,2010.9216271909017,-300.6621857849036,0.0,1.8774896129381276,0.1,0.01333308219909668,0.3776063919067383,0.049685854,0.047427766,886.5272320592202,1.9196910880841134,5.055899842016942,0.0,19200,2.6398708820343018,0.019120791153207747,0.014800526241826992,731.1095315457305,0.0
95,15.428322315216064,909.8819809150567,923.4648400608688,2022.2285175566171,-709.3439753570076,0.0,1.9122206711393037,0.1,0.013164043426513672,0.42452239990234375,0.050817557,0.052636657,888.8627069448038,1.7645624515908527,4.535854628587121,0.0,19200,2.7262654304504395,0.0269874605102644,0.019710109263152517,862.2404534469131,0.0
96,15.126188039779663,991.5191729324328,911.1754373442931,2009.5347092127424,-435.86014593420214,0.0,1.9805605914711444,0.1,0.013513326644897461,0.4021949768066406,0.04839284,0.046325594,899.1283535435667,1.883021724938163,4.942990235462092,0.0,19200,2.6994686126708984,0.019924848824874705,0.016237586443048915,1090.0042289811859,0.0
97,15.534355163574219,1007.5527427439952,960.7533047378654,2026.7341731142553,-1693.4966291311996,0.0,1.7952751393568571,0.1,0.01233816146850586,0.3971219062805176,0.049599275,0.052113563,909.9707924636097,1.9505872093220276,5.025255932964249,0.0,19200,2.6686887741088867,0.04088792916567754,0.024241201482923923,935.7935233151721,0.0
98,15.697399377822876,876.1679709093329,903.7811261901979,2017.2469829553743,-299.78904364779544,0.0,1.8769674677678279,0.1,0.012380599975585938,0.4145209789276123,0.048541024,0.04893046,906.590510308182,1.7272298034110616,4.368019931530083,0.0,19200,2.66776180267334,0.019853057817236012,0.014261055467031762,760.9737619788796,0.0
99,15.645352125167847,911.3137599707907,919.8326000005637,2033.8284218571482,-280.9915277366877,0.0,1.9593664076259791,0.1,0.013023614883422852,0.42857956886291504,0.050206948,0.052537516,907.0628352744429,1.7735378013652792,4.541601334910516,0.0,19200,2.7560625076293945,0.02201526528410163,0.018535919990094633,853.8455354705635,0.0
100,15.48874568939209,1086.1723804216308,908.8449162599104,2038.857664518146,-175.44739628195165,0.0,1.9229094661503245,0.1,0.013305187225341797,0.42394208908081055,0.048723992,0.055238497,924.9737897891617,2.028866039524812,5.416936340285644,0.0,19200,2.669990301132202,0.012914963871953525,0.007955153835230131,962.3278597902147,0.0
101,15.712126016616821,1027.587328394592,951.0263496311643,2037.9572648741575,-580.7396396009019,0.0,1.8315488012982348,0.1,0.013210535049438477,0.3906409740447998,0.04827602,0.050316177,935.2351436497048,1.9196115205187756,5.124548659516155,0.0,19200,2.633258581161499,0.016214478394957998,0.013265122889229248,1173.6466717963763,0.0
102,15.615392684936523,1112.6382902144685,924.7716723914228,2033.9816295154083,-888.0159740831639,0.0,1.8798212539107546,0.1,0.012870311737060547,0.3793046474456787,0.04962618,0.051155385,952.9754583061813,2.0713408557504396,5.550308279432275,0.0,19200,2.5432279109954834,0.01571059168517069,0.013386088707374674,1104.133600096218,0.0
103,15.475805759429932,1201.0379509510053,845.1135021966006,2032.2662213347305,-171.76240569779796,0.0,1.9306829419421554,0.1,0.012883901596069336,0.3697333335876465,0.049907,0.048420448,977.7817075706637,2.2309104300486684,5.991799354530362,0.0,19200,2.520347833633423,0.019142355451015964,0.014105075234914662,866.8905006631377,0.0
104,15.788609981536865,1102.0973580192474,898.8505727602626,2066.471032456727,-325.241195124292,0.0,1.7317241057254038,0.1,0.01408839225769043,0.391054630279541,0.049291063,0.050749205,990.2132726155221,2.056666039411055,5.498515823219122,0.0,19200,2.5756542682647705,0.014953264892733274,0.011921891382606116,1080.112109534983,0.0
105,15.775658369064331,1067.0540970173718,901.714912854664,2026.5823937093037,-331.82738001248055,0.0,1.844394687238494,0.1,0.011818170547485352,0.3727905750274658,0.051008817,0.051052973,997.8973550557071,2.012496701430156,5.3221565106973765,0.0,19200,2.5794999599456787,0.017925319011695293,0.014594888734489758,997.8163075041123,0.0
106,15.477634191513062,1000.6106781238199,937.3958733338019,2037.180115587866,-166.65555050971872,0.0,1.865262003415532,0.1,0.012446165084838867,0.4057145118713379,0.049322955,0.047244754,998.1686873625184,1.9288546582141273,4.989923642565169,0.0,19200,2.57126522064209,0.017742099112504867,0.013691761952797608,1126.6603321551022,0.0
107,15.866155624389648,949.5224047014602,917.8770694559234,2000.6376416158141,-477.21776548932314,0.0,2.059622270155502,0.1,0.012388944625854492,0.404935359954834,0.049134247,0.048005946,993.3040590964126,1.8097596455754001,4.735770458614748,0.0,19200,2.634157180786133,0.017551170870866304,0.013386111143885653,984.6458857893058,0.0
108,15.612436294555664,1233.6437972200822,869.3040828901419,2040.466629136356,-290.000342530994,0.0,1.7449897011031998,0.1,0.01315927505493164,0.3982810974121094,0.05073024,0.053041294,1017.3380329087796,2.262364218506767,6.153956112828617,0.0,19200,2.7022488117218018,0.013481834877835485,0.010906104831557397,1214.6773741582465,0.0
109,15.528990745544434,1128.4656681727047,874.7323748961119,2048.4841690639364,-193.92743020373536,0.0,1.8629782132377846,0.1,0.012784957885742188,0.4050157070159912,0.050564565,0.051746015,1028.4507964351722,2.0917161883999946,5.6281145538442034,0.0,19200,2.646634101867676,0.015289004497652933,0.010969998158296397,1184.1096306927225,0.0
110,15.61467957496643,1086.4762547397806,847.5925735026447,2042.2771173174517,-165.07676668443568,0.0,1.8576764907501089,0.1,0.013848543167114258,0.4116699695587158,0.050844572,0.051653925,1034.253342265633,2.042440801587388,5.417834684915925,0.0,19200,2.720040798187256,0.011712627317114034,0.00887309106616837,1086.6619242644426,0.0
111,15.273298740386963,1267.7041447811519,823.6903514811551,2032.7259481517992,-152.7584200721399,0.0,1.9286745435235766,0.1,0.012122631072998047,0.38133883476257324,0.050612565,0.052244607,1057.5984225171849,2.3280680374513416,6.323648223067731,0.0,19200,2.7147786617279053,0.010580847488135911,0.00867780712829948,1190.8429193522702,0.0
112,15.729811668395996,1058.195118409605,867.6042594506905,2034.448049415647,-212.47664124748584,0.0,1.8266091671228404,0.1,0.012982845306396484,0.41886425018310547,0.050179016,0.044206854,1057.658092106427,2.0020163907407453,5.277878865367281,0.0,19200,2.6982338428497314,0.01899240270586751,0.015527701057683186,1190.2792262718708,0.0
113,15.56510877609253,956.3326040188516,913.9573127821274,2041.7745768441398,-2026.3347725096864,0.0,1.9198695323424626,0.1,0.012440681457519531,0.42032623291015625,0.050943147,0.044869844,1047.5255432976694,1.8629497233656018,4.7680470328104,0.0,19200,2.6824615001678467,0.04962289702705654,0.03208494400594838,1230.5997733124964,0.0
114,15.450355768203735,1048.961164012067,1045.6219726980241,1999.003531294326,-4246.105984603325,0.0,1.5649017805377974,0.1,0.013183116912841797,0.3924868106842041,0.049562823,0.053796507,1047.6691053691093,2.0293830754813187,5.231628021956845,0.0,19200,2.638824224472046,0.04582488092133805,0.02305678561912364,1251.1830199065107,0.0
115,15.622743606567383,1133.5669967901597,859.9165662883078,2023.2210203165594,-403.1420886654242,0.0,1.9302611615271694,0.1,0.012467384338378906,0.39141130447387695,0.05052127,0.05621714,1056.2588945112143,2.091521130129854,5.654270498773486,0.0,19200,2.642803192138672,0.02243617494860503,0.014559091612019296,1247.59506881792,0.0
116,15.911545038223267,1163.6390903413676,876.4219750934624,2005.4424207227328,-601.8724763218675,0.0,2.0170441127666052,0.1,0.013445854187011719,0.4081759452819824,0.049426176,0.041486107,1066.9969140942296,2.1384590332075226,5.803910433233402,0.0,19200,2.670715093612671,0.01413885996103219,0.010113709749239667,1242.67635181288,0.0
117,16.298419952392578,1100.4488040015115,877.063197966521,2030.880785566577,-265.682082751922,0.0,1.5919852929112923,0.1,0.012819051742553711,0.41542744636535645,0.050655514,0.057109624,1070.342103084958,2.0086490779301633,5.489159584083869,0.0,19200,2.719364643096924,0.012062567475401288,0.01044521485824846,1102.4631829333418,0.0
118,15.366228580474854,1098.640801010859,892.5813170749809,2023.6043486865124,-711.9722066298636,0.0,1.826903819169049,0.1,0.014585256576538086,0.418734073638916,0.05089329,0.052303713,1073.1719728775481,2.041155824597139,5.479715467002303,0.0,19200,2.8282968997955322,0.029320727383292496,0.02164942141125049,1180.438189146546,0.0
119,15.442245721817017,1126.5955462704005,879.9259919863587,2034.989352273645,-529.1862308606917,0.0,1.9114224097859798,0.1,0.012603044509887695,0.3910527229309082,0.05127565,0.047320817,1078.5143302168335,2.1022335207366596,5.618677897254114,0.0,19200,2.800950288772583,0.025783629001381873,0.019648512860721393,1076.4686353636134,0.0
120,15.26015305519104,1277.3163187199978,806.0923528510864,2100.4569477913165,-270.330635624279,0.0,1.9563326052120622,0.1,0.013446331024169922,0.40365099906921387,0.050440043,0.049599476,1098.39452906715,2.3208578694479676,6.372032926577522,0.0,19200,2.8140697479248047,0.016985811387116374,0.01159631326606563,1216.2603291938456,0.0
121,15.549394130706787,1153.8816595216044,898.9706274194373,2068.5234959981667,-1134.3184501808498,0.0,1.9827618014328274,0.1,0.012245416641235352,0.44524192810058594,0.049834672,0.04594993,1103.9432421125955,2.1210129428540827,5.755044304722591,0.0,19200,2.81960129737854,0.02509986939750455,0.013622007237841226,1108.0578335715481,0.0
122,15.746312856674194,1243.91970885047,806.4448171433529,2012.7238213911332,-143.40660509575287,0.0,2.0378294663228025,0.1,0.012976646423339844,0.39127492904663086,0.05067245,0.051501594,1117.9408887863829,2.2766000919387888,6.205930192947334,0.0,19200,2.8225319385528564,0.020124330825225686,0.013116136762971435,1280.500304068113,0.0
123,15.613699436187744,1237.8525111038896,860.214608598777,2055.7752668164153,-579.3318151987107,0.0,2.039343909742524,0.1,0.012576580047607422,0.3931872844696045,0.048863016,0.04420976,1129.9320510181335,2.2726994444317605,6.17469231906303,0.0,19200,2.8392224311828613,0.020543174159556463,0.016853641900427766,877.8632187593216,0.0
124,15.706989526748657,1296.8100457513458,844.5805345951449,2121.4519006139813,-212.51065557882325,0.0,1.9569831746268789,0.1,0.012905359268188477,0.4008655548095703,0.050001565,0.05206573,1146.6198504914546,2.3374974194205733,6.471177907056521,0.0,19200,2.8640146255493164,0.011211117537534903,0.008251528686007443,1177.690963422394,0.0
125,15.592524290084839,1238.7006049699983,882.9108630163153,2038.894617401108,-195.62152030146032,0.0,1.8358715409244026,0.1,0.012780427932739258,0.35326266288757324,0.051027685,0.052745923,1155.827925939309,2.244108641833288,6.180646481816846,0.0,19200,2.8842294216156006,0.011850065124320675,0.010542389053524748,1212.9421308167152,0.0
126,15.755231857299805,1144.441861604314,902.9521542559353,2085.332746392645,-1139.318129019094,0.0,1.9676527437357836,0.1,0.013205289840698242,0.40378689765930176,0.049281992,0.039259918,1154.6893195058094,2.1297810208553165,5.7073535084512885,0.0,19200,2.8869478702545166,0.025931041482685727,0.01852565391791599,1286.2534526713882,0.0
127,15.905946493148804,1109.3471707413933,857.9000371584149,2053.0591359804416,-294.5601549094364,0.0,2.000398635806182,0.1,0.012680530548095703,0.3951582908630371,0.05047574,0.048744667,1150.1551046293678,2.048622921332134,5.532481404709806,0.0,19200,2.870529890060425,0.018590889354288456,0.015450587453888302,1264.3654956875368,0.0
128,15.88301944732666,1274.672663441386,777.5469943034324,2087.458307682051,-219.1920113784593,0.0,2.17831455411061,0.1,0.013158321380615234,0.3981666564941406,0.0501368,0.042964816,1162.6068605105695,2.35762234449794,6.359344373669702,0.0,19200,2.859774351119995,0.021663597813801873,0.017695827867583433,1406.2475288797477,0.0
129,15.621672868728638,1167.4023377776648,920.7545975902694,2103.8391500266953,-809.4146745343712,0.0,1.7089946620462857,0.1,0.012972593307495117,0.39568138122558594,0.050361753,0.056204922,1163.086408237279,2.166784116455768,5.82212649696887,0.0,19200,2.867504596710205,0.011176794591446926,0.007688605455700672,1361.4606584902658,0.0
130,15.634915113449097,1133.6756158548658,863.9407334062777,2016.4072821614748,-217.0300786849848,0.0,1.9125882490593662,0.1,0.014119625091552734,0.4066348075866699,0.049491957,0.045083128,1160.1453289990377,2.115196177364729,5.654404856500534,0.0,19200,2.937908887863159,0.028326803947190417,0.019315033990268217,1381.240779463269,0.0
131,15.62954068183899,1209.2852339912538,834.0073913226074,2034.8533883201576,-409.271388168787,0.0,1.8397301677331523,0.1,0.01263284683227539,0.4073762893676758,0.050679702,0.0527962,1165.0593194982594,2.254085551099818,6.032482418883769,0.0,19200,2.912317991256714,0.022103886044931895,0.016682505120851197,1295.4269440051173,0.0
132,15.684797048568726,1260.4601611847168,826.7510348065331,2066.3226576405964,-161.88132273870292,0.0,1.8709532869842673,0.1,0.013307332992553711,0.39029383659362793,0.049185053,0.052949093,1174.5994036669051,2.292996058437772,6.290330540039656,0.0,19200,2.7549610137939453,0.01554035804933795,0.012982640610936855,1399.8353719649506,0.0
133,15.788318872451782,1296.488927140361,837.0184543727129,2096.727237737237,-247.0815663998243,0.0,2.1018795383788738,0.1,0.0129241943359375,0.401486873626709,0.05058792,0.039657593,1186.7883560142507,2.357164102929133,6.469045984895771,0.0,19200,2.748525619506836,0.018052678073080104,0.01364454230020244,1346.8588619825728,0.0
134,15.842251062393188,1191.1341615443746,860.7392468284561,2010.011791103083,-248.4362455389427,0.0,2.0196209608782336,0.1,0.012421369552612305,0.36989736557006836,0.050830998,0.04173583,1187.2229365672629,2.1868349166358363,5.942248727730711,0.0,19200,2.764310836791992,0.020726203939106336,0.014941875666486831,1320.7568274089695,0.0
135,15.918072938919067,1131.5072960279665,1027.6828878532524,2108.3928221018305,-4614.619134723141,0.0,1.7148882896894289,0.1,0.012459039688110352,0.413954496383667,0.050026238,0.05211377,1181.6513725133334,2.129459877109325,5.643837844262468,0.0,19200,2.812119722366333,0.0838003063466023,0.023674392748115895,1356.6632864619878,0.0
136,15.878776788711548,1061.9523362458021,878.722600508437,2036.654672526084,-369.2325894342928,0.0,1.825816812330026,0.1,0.012237548828125,0.3993799686431885,0.05051023,0.06903014,1169.6814688865802,1.9859609860127925,5.29606530261831,0.0,19200,2.800673007965088,0.0325569194626663,0.017026095179171245,1345.6218134982337,0.0
137,15.710304975509644,1191.0602371262812,922.1371926310208,2038.3736272745846,-1889.5665010977107,0.0,1.983909302989613,0.1,0.013092041015625,0.3793807029724121,0.050522283,0.044939563,1171.8193457105504,2.1715803092842343,5.941605326404532,0.0,19200,2.8208556175231934,0.04027308821478132,0.018239472610113914,1422.3854523721793,0.0
138,15.728738784790039,1356.509043052746,773.6574192497868,2056.102189611124,-447.28018937334366,0.0,2.0187861492078385,0.1,0.013161897659301758,0.3666081428527832,0.049174245,0.050653968,1190.28831544477,2.398401334956016,6.768060471561792,0.0,19200,2.8112316131591797,0.016004321980722276,0.010928409419674349,1464.3651660958174,0.0
139,15.249260425567627,1303.2526784787622,803.2546348722716,2057.5001290409127,-135.60618059622976,0.0,1.8105475143181007,0.1,0.013593196868896484,0.3933587074279785,0.049681,0.04695551,1201.584751748169,2.372070062115134,6.500857123740588,0.0,19200,2.9599204063415527,0.01980896172305933,0.014475302232298861,1485.0392558508906,0.0
140,15.495063066482544,1463.8574613460041,715.1454240593778,2115.2319911626373,-227.9666853763214,0.0,1.8204399495365382,0.1,0.012790679931640625,0.4207167625427246,0.049329408,0.054725286,1227.8120227079526,2.5930442116685177,7.3058607984571395,0.0,19200,2.8762128353118896,0.014631532350798749,0.009753517860169782,1448.1745403707375,0.0
141,15.55573034286499,1260.748535052743,904.756652046932,2090.283425651005,-1010.8605424675786,0.0,1.8690400301093721,0.1,0.012727499008178711,0.3836078643798828,0.050445765,0.047270633,1231.1056739424316,2.261703493138972,6.290010226156802,0.0,19200,2.888371467590332,0.014472075052786046,0.0103052423366616,1322.581260772906,0.0
142,15.744313716888428,1203.2818187793982,883.6154472715375,2029.3804375790685,-168.8068449591707,0.0,1.9229528404660474,0.1,0.012691259384155273,0.39589929580688477,0.05085384,0.04466849,1228.3232884261283,2.181624275507143,6.001552200199872,0.0,19200,2.859137535095215,0.011395116415419175,0.009101172694654899,1428.0419205734518,0.0
143,15.961605548858643,1432.772468905717,735.5976942025269,2047.748209046656,-180.28269421790708,0.0,1.9704397076092686,0.1,0.012716293334960938,0.4004974365234375,0.04961002,0.049522676,1248.7682064740873,2.541017526831063,7.149009028990388,0.0,19200,2.8842246532440186,0.012373536037134649,0.008993547925940823,1348.1198584081517,0.0
144,15.908458232879639,1436.6923319400964,725.6503216469639,2101.438445028285,-220.21870088474355,0.0,1.913240940154652,0.1,0.012342691421508789,0.39064478874206543,0.0496384,0.047615666,1267.5606190206881,2.5540422527498294,7.168900241070101,0.0,19200,2.8614590167999268,0.020192043901848873,0.015127154528245491,1344.0915556742964,0.0
145,16.04802894592285,1112.8857982372417,842.5474181168089,2052.8607913046685,-175.26730834548258,0.0,1.9485785897011625,0.1,0.01222538948059082,0.42419958114624023,0.04941546,0.047074594,1252.0931369423436,2.064649378995411,5.550798823086194,0.0,19200,2.8426053524017334,0.028168125020723443,0.02044783613917682,1386.490442304365,0.0
146,15.828346014022827,1242.092448480497,866.4615734299194,2092.014612808947,-505.0978514141662,0.0,1.9141098622493755,0.1,0.01303863525390625,0.3809390068054199,0.049909968,0.050874915,1251.0930680961587,2.2410107887151214,6.1961620964749935,0.0,19200,2.8565406799316406,0.020891939334522866,0.016233649081373102,1369.6732946784,0.0
147,15.998825311660767,1421.2767906904646,773.8417754029799,2067.0375071756957,-254.50855891696546,0.0,1.733163419385728,0.1,0.013404607772827148,0.3967435359954834,0.049844816,0.06076119,1268.1114403555894,2.5444368652435476,7.0921435798077725,0.0,19200,2.887442111968994,0.013312296976757735,0.00970235110806544,1440.7743685114576,0.0
148,15.767395257949829,1475.343522132135,727.3761444338122,2170.0796580821648,-251.83012572349995,0.0,2.0242592830316237,0.1,0.013164281845092773,0.4134490489959717,0.049859796,0.056756094,1288.8346485332438,2.6120677188156365,7.362618876245928,0.0,19200,2.886497735977173,0.010528108548227057,0.008111604500358305,1419.1847742974687,0.0
149,15.728563785552979,1226.0541004013805,854.9917121747314,2065.015787081552,-553.1253187497701,0.0,1.9548300927827342,0.1,0.014174938201904297,0.4344172477722168,0.049200505,0.04548763,1282.5565937200577,2.2327859136433674,6.116229006775504,0.0,19200,3.0251567363739014,0.022085601696691277,0.015854721834549106,1240.3187968237896,0.0
150,15.47980523109436,1147.8258661890789,912.6254551760469,2098.0424510220023,-304.6603957056084,0.0,2.0286348102114844,0.1,0.012819528579711914,0.4235827922821045,0.049861744,0.044155277,1269.08352096696,2.0823096321291445,5.724860933520236,0.0,19200,2.928676128387451,0.01850954016632171,0.013748282145519285,1437.774322953407,0.0
151,15.56101107597351,1348.5634647000786,818.0654402462478,2088.225558953077,-466.82000078074407,0.0,1.9006793650464793,0.1,0.01259303092956543,0.41219425201416016,0.049657073,0.05678284,1277.0315153402717,2.4034470570615407,6.728211357365808,0.0,19200,2.882967710494995,0.013665026580003872,0.011068990591791079,1357.3841733044067,0.0
152,15.742268085479736,1350.6805638668427,794.7106342908756,2070.374390157457,-770.3316226401643,0.0,1.730958599842037,0.1,0.011713504791259766,0.35153985023498535,0.049231224,0.058648072,1284.3964201929289,2.423381975153806,6.738843279649246,0.0,19200,2.8938381671905518,0.014328095338570214,0.01146713917052229,1212.0008093352467,0.0
153,15.947059631347656,1335.5715457199499,822.1968058664273,2031.6833654495686,-385.2107236067288,0.0,1.8823878016295716,0.1,0.011993646621704102,0.3610820770263672,0.049454816,0.050309822,1289.5139327456309,2.408458860329612,6.663741827121659,0.0,19200,2.9751315116882324,0.012476935445123941,0.010601708705451138,1264.6588655490355,0.0
154,15.91476321220398,1188.7130722047805,1205.7055617526896,2204.148159630789,-5112.526073675463,0.0,1.7847902250371948,0.1,0.013108491897583008,0.40431904792785645,0.049256463,0.045609653,1279.4338466915458,2.2649716338857426,5.9281922938816685,0.0,19200,2.916583776473999,0.10295619348626497,0.027289042114977447,1158.1835576333344,0.0
155,15.660293102264404,1349.9169414051596,735.1825499291958,2032.4108739127173,-153.59173269760066,0.0,1.81842654935386,0.1,0.012670278549194336,0.4055967330932617,0.050314363,0.051820196,1286.4821561629074,2.416078143785031,6.734523957232227,0.0,19200,2.948411703109741,0.017337628591795693,0.013046870304096478,1374.00624627584,0.0
156,15.799385786056519,1391.6833009900984,804.4861026653421,2203.3975758671622,-169.30741314075058,0.0,1.6564865270466544,0.1,0.013021469116210938,0.41469454765319824,0.048884198,0.04812114,1297.0022706456266,2.4921598529293605,6.944178498843925,0.0,19200,2.9809134006500244,0.013221953229487701,0.010267838441642209,1417.2897117326465,0.0
157,16.177364587783813,1292.8773963781885,907.299630243702,2082.1763251065413,-2053.2390055036894,0.0,1.5729943630941865,0.1,0.013560771942138672,0.42459583282470703,0.04958935,0.05373256,1296.589783218883,2.331881713408617,6.45364984572592,0.0,19200,2.985731840133667,0.015742863336352404,0.01058280790394674,1403.1373323772546,0.0
158,15.872171401977539,1343.4749022107853,838.9726415634653,2084.7033335174706,-1447.5819297959722,0.0,1.5874415199284684,0.1,0.01259613037109375,0.4244818687438965,0.050142694,0.06595592,1301.2782951180732,2.419980342980612,6.703133605211896,0.0,19200,2.989943742752075,0.021731198942385246,0.012276247155579482,1362.3979014673216,0.0
159,15.489630460739136,1211.9757883094344,886.5736441719739,2078.504782660539,-291.2855351919585,0.0,1.8772946277711138,0.1,0.023132801055908203,0.3908047676086426,0.04968988,0.047925625,1292.3480444372094,2.2207392690019807,6.045548768983688,0.0,19200,2.928868532180786,0.01847400790511412,0.011941893967147447,1375.1170111276292,0.0
160,15.713611602783203,1158.3718770015573,1099.487948307231,2061.317665407549,-5344.33187950354,0.0,1.514463894266903,0.1,0.01288914680480957,0.3910696506500244,0.0489178,0.056943137,1278.9504276936443,2.15724446206684,5.77759059416235,0.0,19200,2.9234795570373535,0.06304378646315593,0.017296653697545555,1231.8512073528798,0.0
161,15.800681352615356,1406.5156086851337,774.6941736461035,2140.1357895633796,-282.5778624107794,0.0,1.6982238066449478,0.1,0.013057470321655273,0.374556303024292,0.05016812,0.06597797,1291.7069457927932,2.4970927289612974,7.018310245914189,0.0,19200,2.8988771438598633,0.015053206449420242,0.011634898263546514,970.549521125339,0.0
162,16.143367052078247,1329.4930246600604,825.7327651094653,2098.5820667088806,-536.2630830185697,0.0,1.7849215542314398,0.1,0.012446165084838867,0.4054098129272461,0.050752033,0.057759944,1295.4855536795199,2.3666591681167666,6.632600765050314,0.0,19200,2.8857054710388184,0.022119007653859955,0.01371241567445692,1040.0011664391402,0.0
163,15.964177131652832,1347.759599932003,815.4961342436942,2136.969379774536,-164.12859476317755,0.0,2.0325104755779684,0.1,0.013180255889892578,0.3948526382446289,0.050618183,0.05072275,1300.7129583047683,2.4213186419684223,6.7250698720205415,0.0,19200,2.877516031265259,0.014225414041824662,0.012672322915068873,1023.1491368769955,0.0
164,15.859600305557251,1435.7764146844565,753.441486494933,2058.2905474689223,-125.13948502750154,0.0,1.7805446833180265,0.1,0.012516260147094727,0.40776681900024414,0.049359307,0.06348069,1314.219303942737,2.549429289718031,7.16398715048022,0.0,19200,2.8926174640655518,0.013615939467911996,0.011890894426799224,944.0475981719096,0.0
165,16.04774761199951,1455.0404652702007,750.2248919583581,2080.229757437792,-553.8688452340464,0.0,1.7085243249129256,0.1,0.012534379959106445,0.4089365005493164,0.0507827,0.059736505,1328.3014200754835,2.5853989423193777,7.260313755440028,0.0,19200,2.899235486984253,0.010092491387914659,0.007600151242727889,642.7922954085876,0.0
166,15.980763673782349,1301.7990167579194,943.9229120933903,2125.2832370335645,-3071.9755952002647,0.0,1.4169703566389855,0.1,0.013188600540161133,0.37050604820251465,0.049800105,0.05635128,1325.651179743727,2.367390337678025,6.494151407895925,0.0,19200,2.8957979679107666,0.03274032643884909,0.02278429214109177,830.1103873840788,0.0
167,16.25926113128662,1307.4724620192846,830.4800142993674,2165.2616678315935,-325.91331411105506,0.0,1.6477000788584748,0.1,0.012821435928344727,0.40478038787841797,0.049507435,0.05560389,1323.8333079712827,2.374064449009863,6.523589202333258,0.0,19200,2.9224257469177246,0.009100979560152333,0.006753225049607073,823.5928916640955,0.0
168,15.868124008178711,1299.5403528560846,775.5992619914141,2096.4074344175647,-166.32213974498754,0.0,1.7919456234126114,0.1,0.013052940368652344,0.39450645446777344,0.04999918,0.050273005,1321.4040124597627,2.3605355555785854,6.483122777812963,0.0,19200,2.9177629947662354,0.018914831598366464,0.014709067900010284,1147.293938680432,0.0
169,16.213998794555664,1444.208763800778,702.2318612564965,2108.6987105887288,-112.75734333401454,0.0,1.8245888279243923,0.1,0.013000726699829102,0.3822309970855713,0.04967551,0.06989004,1333.6844875938643,2.562131307996039,7.20676217394243,0.0,19200,2.887821674346924,0.014037552951131186,0.006287133491853201,881.6328873232558,0.0
170,16.151668548583984,1525.5709235315808,642.7544136840263,2111.9785950690966,-466.5562001685866,0.0,1.7780499029903196,0.1,0.01259303092956543,0.43303751945495605,0.04977242,0.037808765,1352.873131187636,2.68835399300469,7.613125093555335,0.0,19200,2.8350231647491455,0.007483998612652755,0.005983761136310868,861.7783862015965,0.0
171,15.680771112442017,1307.923893522929,1060.3962611989557,2094.009926518052,-5523.557075427058,0.0,1.667371332533315,0.1,0.013647794723510742,0.3920254707336426,0.050566923,0.04690541,1348.3782074211654,2.4143764704447364,6.52530555914525,0.0,19200,2.9817752838134766,0.06334258142345442,0.01643086643354424,1276.5469561089508,0.0
172,15.700604677200317,1298.6098974748247,1119.3133341705518,2100.7862532538034,-6400.368313257024,0.0,1.6957567161393878,0.1,0.01318669319152832,0.4016549587249756,0.049642142,0.05052,1343.4013764265314,2.4225420682344407,6.478145706463777,0.0,19200,2.9384007453918457,0.03339494061974335,0.023792180286429737,1128.3085582705685,0.0
173,15.592650413513184,1481.0094699927151,703.6075158155359,2110.697526491346,-207.23234218347963,0.0,1.6616297869817014,0.1,0.012671947479248047,0.3887636661529541,0.050460745,0.063085794,1357.1621857831497,2.6139114365342686,7.390736159628079,0.0,19200,2.895138740539551,0.015816644976161476,0.012145092755574806,1029.0194086261395,0.0
174,15.848276853561401,1272.532948644225,877.4817084211479,2119.182613068968,-2077.253969060467,0.0,1.4654647985514937,0.1,0.01336216926574707,0.41193270683288574,0.049502645,0.053085756,1348.6992620692572,2.3428155073708115,6.3474910173580605,0.0,19200,2.8684892654418945,0.03992436716460704,0.021061052085994864,1137.6438887628904,0.0
175,16.485233306884766,1444.721435694215,682.0357199461225,2097.0179123103226,-121.67487210132639,0.0,1.8220508067028989,0.1,0.011777877807617188,0.39957547187805176,0.050609168,0.05322608,1358.301479431753,2.591934651351242,7.208774481150781,0.0,19200,2.8799397945404053,0.017907705261968637,0.011757268990361905,1330.7700348060241,0.0
176,15.77586030960083,1499.861506090462,738.1691665875911,2111.2025621376283,-219.86378762920594,0.0,1.6770431437365114,0.1,0.012463569641113281,0.4107685089111328,0.04932239,0.05287398,1372.457482097624,2.6501975030592937,7.483770163530939,0.0,19200,2.875300407409668,0.010386925754475869,0.008861202340398213,1318.6258442110666,0.0
177,15.952066898345947,1434.6316953059452,738.6477818541255,2143.465484896876,-133.65241915307283,0.0,1.6400191702103113,0.1,0.012326240539550781,0.382854700088501,0.050262444,0.12082236,1378.6749034184563,2.5817017744561817,7.158476829264572,0.0,19200,2.884366750717163,0.011050701949119482,0.00809612088608267,1202.0794154338314,0.0
178,15.819587707519531,1299.7362902137227,948.2683357815941,2097.636148744689,-3685.5793059484276,0.0,1.5734733426966536,0.1,0.013232231140136719,0.3995964527130127,0.04941423,0.063991934,1370.7810420979831,2.364104437524688,6.4832194248995085,0.0,19200,2.879178047180176,0.038301424296667615,0.01132200980190258,1188.093269771709,0.0
179,15.903913021087646,1229.2519288267738,1090.8979782033905,2068.34785249847,-5510.3642768232,0.0,1.696580764983703,0.1,0.011436700820922852,0.37963175773620605,0.049906157,0.05811091,1356.6281307708623,2.2943709642718515,6.133913364109922,0.0,19200,2.899146556854248,0.05469331529991161,0.022781705322130343,1142.7516553038663,0.0
180,16.524123668670654,1472.3162706157384,770.7122997709399,2095.6948030456347,-679.9802976079503,0.0,1.684553082605977,0.1,0.013094902038574219,0.3913309574127197,0.050218113,0.06580116,1368.19694475535,2.560396051878557,7.3472008362364924,0.0,19200,2.9162003993988037,0.009200222973901053,0.005269124420432282,1149.7426456850267,0.0
181,16.353923082351685,1397.7091182058175,772.0152941469813,2108.382849067675,-134.0412081031536,0.0,1.6572930231152359,0.1,0.012456655502319336,0.38614964485168457,0.049544867,0.06930187,1371.1481621003966,2.5075471881224125,6.973737365613101,0.0,19200,2.9659674167633057,0.0124864316123968,0.01047638944467455,1107.0848976375198,0.0
182,16.472843170166016,1483.1405857983664,686.4157156350518,2107.094929215929,-394.69203386248427,0.0,1.8540103824836658,0.1,0.013084888458251953,0.42603230476379395,0.04994903,0.048888594,1382.3474044701936,2.6304561506832207,7.400399241455577,0.0,19200,2.975109577178955,0.017038154697789003,0.013681664109465398,1300.1208341466513,0.0
183,15.683165073394775,1403.2761447182002,750.0687780227981,2086.9464838135987,-535.9954724257401,0.0,1.8248390370980085,0.1,0.0132598876953125,0.3921637535095215,0.04946418,0.048289057,1384.4402784949943,2.4775760135870866,7.00151159705494,0.0,19200,2.9230782985687256,0.010868924731277358,0.009518753683500778,1271.8281872977363,0.0
184,15.506268978118896,1398.3716675729713,780.7493260591411,2094.911338090779,-298.7743791166568,0.0,1.9177620852983948,0.1,0.012528657913208008,0.3789339065551758,0.049715172,0.060387164,1385.833417402792,2.5020360138399687,6.977335341806964,0.0,19200,2.8810877799987793,0.018061125058065095,0.013575431051736406,1422.46367651851,0.0
185,15.895709991455078,1447.7002340162792,749.3691035481435,2138.1592550492296,-510.20849423595234,0.0,1.5199390808681634,0.1,0.012942314147949219,0.4022848606109619,0.051226757,0.08011304,1392.0200990641408,2.5136993091295454,7.224178018219388,0.0,19200,2.884856700897217,0.011817443974122738,0.008567010303061362,776.1155220478583,0.0
186,16.159669399261475,1465.5660909008539,714.9221123583505,2089.925323652548,-1586.7916274251368,0.0,1.631930307597982,0.1,0.013274669647216797,0.38956165313720703,0.049491383,0.08901048,1399.3746982478121,2.60306630513868,7.314374868829771,0.0,19200,2.849952220916748,0.021126974450312322,0.015999456055711438,730.5943052977427,0.0
187,16.415873050689697,1380.7471553270743,863.1923242883811,2125.3443878454214,-1717.2862671250045,0.0,1.762565743243661,0.1,0.012241125106811523,0.39583921432495117,0.050425995,0.046546098,1397.5119439557384,2.416361786796499,6.888890827338771,0.0,19200,2.886343002319336,0.02702749300956191,0.016724704366866034,1407.331119203089,0.0
188,16.146690607070923,1399.817068389677,765.8155107069059,2200.876333853878,-652.1674780999932,0.0,1.6712841398320997,0.1,0.013607025146484375,0.4004960060119629,0.049668893,0.06302667,1397.7424563991324,2.508758581102707,6.983809456821144,0.0,19200,2.9595515727996826,0.01987101243798057,0.015119746767708404,1304.342172523854,0.0
189,15.881690502166748,1460.6718155986919,779.7765210814422,2134.569216599493,-1194.2447633367813,0.0,1.6728434609355285,0.1,0.012681007385253906,0.41094422340393066,0.049330458,0.05008319,1404.0353923190883,2.5935478776169183,7.288446315608823,0.0,19200,3.0011038780212402,0.016641267732789983,0.01114529184501305,1364.0014506179339,0.0
190,15.873939275741577,1367.1323858763644,844.5070414324817,2114.2938348955577,-2231.8491735858393,0.0,1.7406967858602629,0.1,0.01279139518737793,0.3996884822845459,0.04997712,0.04625539,1400.3450916748159,2.41261675959538,6.82027914846141,0.0,19200,2.9306647777557373,0.018433712100911066,0.012731976596786829,1322.3075386977566,0.0
191,16.168681621551514,1223.723930459508,900.4720664982697,2118.5672904877074,-1017.2492087587153,0.0,1.7316746782374324,0.1,0.01322174072265625,0.4258761405944824,0.049815807,0.05261181,1382.6829755532851,2.282461253723456,6.1036364892631,0.0,19200,2.875854253768921,0.03615364824735817,0.022883697296225598,1295.3794596505923,0.0
192,16.331454753875732,1514.6707640250586,682.7510731748368,2095.1220376363717,-170.83688960657955,0.0,1.6879835522066886,0.1,0.01239633560180664,0.399829626083374,0.049593735,0.052975796,1395.8817544004626,2.6533539339504246,7.558495245176208,0.0,19200,2.9083850383758545,0.011474979579677993,0.006808488885803524,1475.5708468845123,0.0
193,15.740676164627075,1278.0754211225726,994.8006209112881,2122.628794007164,-3181.070586971795,0.0,1.4672912160673253,0.1,0.013491392135620117,0.3991858959197998,0.04995522,0.064127505,1384.1011210726738,2.356908381291563,6.37610693356946,0.0,19200,3.031531572341919,0.045284608030406175,0.014303878163616255,1370.7836398941824,0.0
194,15.911940097808838,1387.4395835902262,791.2068834255729,2111.6326005386454,-580.5411214577788,0.0,1.6746424196781282,0.1,0.012553930282592773,0.3908238410949707,0.05040117,0.06095835,1384.434967324429,2.472530133597984,6.922288104447163,0.0,19200,3.025674343109131,0.013229753140758705,0.01077033861145026,1272.2853038220585,0.0
195,16.2514591217041,1609.000264396268,591.9312027995416,2052.2706477486636,-564.0685184737059,0.0,1.5240100745267529,0.1,0.012644767761230469,0.41980910301208496,0.049764946,0.056982245,1406.891497031613,2.83589221745132,8.030175863668118,0.0,19200,3.0047531127929688,0.016193386422850536,0.008008958131751544,1447.3003050405055,0.0
196,16.12345814704895,1414.8989488518193,782.1321657501345,2118.12596608438,-707.3845340862509,0.0,1.5894045843137243,0.1,0.012934684753417969,0.3902127742767334,0.050015353,0.0483473,1407.6922422136336,2.5476534368084187,7.060473491870892,0.0,19200,2.9704322814941406,0.02098702236277414,0.011600556643884881,1450.7111962026934,0.0
197,15.942230463027954,1478.3972956672378,718.6516966036857,2107.2972235025563,-404.7165557162049,0.0,1.599559965530574,0.1,0.017458200454711914,0.40232372283935547,0.049703408,0.06735791,1414.7627475589939,2.630959836146578,7.376471531180354,0.0,19200,2.9903488159179688,0.016362723809737384,0.012192915683194404,1381.212403614845,0.0
198,16.28982377052307,1265.629329273422,864.762631275749,2087.190531431837,-863.7057666143169,0.0,1.8227365704453216,0.1,0.012954235076904297,0.38269901275634766,0.050347716,0.046413098,1399.8494057304367,2.317453922000223,6.314413031893605,0.0,19200,2.9635636806488037,0.02232042622750979,0.015509041395741342,1346.8132883423775,0.0
199,16.03430986404419,1537.4204443054834,701.9059635336774,2101.7972398582224,-570.9476759799056,0.0,1.7581469876831337,0.1,0.012761592864990234,0.38146185874938965,0.050788853,0.05104727,1413.6065095879414,2.72527585985903,7.6715552544428744,0.0,19200,2.9207537174224854,0.01885619116334962,0.012633325698209054,1563.6735667081384,0.0
200,16.06230401992798,1594.9536667132968,586.1304706492587,2099.194321345154,-544.7943500869666,0.0,1.6796436922099538,0.1,0.013169288635253906,0.384352445602417,0.050133932,0.06135175,1431.741225300477,2.805252731795193,7.959318083979304,0.0,19200,2.9562835693359375,0.015830513843672053,0.010897788406298996,1692.3567482029398,0.0
201,16.04506278038025,1415.8305526089864,782.3763331290904,2139.7071447086673,-1127.4034154043284,0.0,1.8441896199449832,0.1,0.01347661018371582,0.43174266815185547,0.049976833,0.04441784,1430.150158031328,2.4976628940148213,7.0649290403840945,0.0,19200,3.046665906906128,0.0186030401545651,0.012855156768666927,1738.4290342624536,0.0
202,16.151891946792603,1466.064224519551,699.9330553938662,2106.2664979509673,-525.2175500637953,0.0,1.5827010324656499,0.1,0.013146638870239258,0.4328000545501709,0.049724787,0.051736053,1433.7415646801503,2.582852115035714,7.316048067292339,0.0,19200,3.0209174156188965,0.0209620919797919,0.016496581297141592,1742.28490794026,0.0
203,16.162394285202026,1595.679393798492,630.0255259635364,2115.4152511445855,-153.46943302741062,0.0,1.6804097261035231,0.1,0.01390838623046875,0.38480234146118164,0.049177635,0.04864122,1449.9353475919845,2.795341733540244,7.962903308973867,0.0,19200,3.0529448986053467,0.00811310568904316,0.006593988004396447,1718.2782746961534,0.0
204,15.661964893341064,1315.9571050785592,865.3594229223437,2160.185943661313,-1545.465315207248,0.0,1.5903717308537848,0.1,0.013449668884277344,0.40459656715393066,0.049945176,0.053773176,1436.537523340642,2.3659481884869153,6.565987579720814,0.0,19200,3.143385410308838,0.02421990610620244,0.0174326732666418,1568.319073925379,0.0
205,15.839107036590576,1326.0406561353639,910.4766653686703,2105.8081344019606,-3622.014059625237,0.0,1.4712306513990494,0.1,0.012609481811523438,0.410139799118042,0.049689066,0.063411824,1425.4878366201144,2.4012508117208795,6.618281707511588,0.0,19200,2.9629149436950684,0.037162939577783306,0.0193491772932646,1633.6535035651798,0.0
206,15.842674493789673,1392.0963989738757,987.5199500146175,2107.0515087999293,-5437.249589969386,0.0,1.4038543206235552,0.1,0.013078689575195312,0.36804747581481934,0.049449086,0.056089923,1422.1486928554907,2.5540959916359793,6.946203014494647,0.0,19200,2.969757318496704,0.024474197395530767,0.017678764657903523,1706.8823364571824,0.0
207,16.292519330978394,1649.0505128007305,593.9471476399751,2127.181875569886,-128.84472253363097,0.0,1.6602434075111285,0.1,0.013770103454589844,0.40806150436401367,0.04971735,0.07123854,1444.8388748500147,2.911482204990508,8.230960214394235,0.0,19200,2.987201690673828,0.012117808757628858,0.008859205467014655,1647.9739122564451,0.0
208,16.062906503677368,1562.6754283918935,639.9087366763663,2128.799695810681,-114.18377086447948,0.0,1.654234772155884,0.1,0.013199329376220703,0.3792724609375,0.04915479,0.05780893,1456.6225302042028,2.7629412784822254,7.798445376064637,0.0,19200,2.975170373916626,0.013834108087147187,0.009601575208262107,1630.914346755584,0.0
209,15.943196058273315,1419.7725765110506,968.1878779178139,2138.7204247142513,-4592.977829552713,0.0,1.549785571663039,0.1,0.012780189514160156,0.3780639171600342,0.049480963,0.04671785,1452.9375348348876,2.567709798973636,7.084687057152983,0.0,19200,3.0090816020965576,0.022013931745823872,0.014571886096388494,1749.311749334518,0.0
210,15.985029935836792,1602.6362051784065,603.85517071117,2087.142577101468,-124.82202104956308,0.0,1.6845006406064427,0.1,0.013215780258178711,0.3836944103240967,0.049986042,0.06459194,1467.9074018692395,2.783575824508428,7.9977513614051245,0.0,19200,3.042879581451416,0.009247786219157209,0.006413595172455109,1682.3924397850105,0.0
211,16.272619485855103,1454.3748285712356,710.8628681961656,2125.1607505188313,-388.3892672484455,0.0,1.7613167521839157,0.1,0.012790441513061523,0.3803713321685791,0.04993843,0.04443595,1466.5541445394392,2.5874649700493366,7.256709955163358,0.0,19200,3.054234266281128,0.01643277370588983,0.011958995854324098,1615.4290704980472,0.0
212,16.220117807388306,1522.255415324266,648.6141050831479,2133.7746570779814,-277.6903816132169,0.0,1.7435249924551763,0.1,0.013169527053833008,0.38489460945129395,0.04979397,0.074437164,1472.124271617922,2.7009552888615764,7.596444030506805,0.0,19200,3.09126615524292,0.01476629210112622,0.009779360851982982,1749.6533906095733,0.0
213,16.298579216003418,1547.0984844462564,694.2322102823617,2114.504103278018,-593.7125741073729,0.0,1.6691928693185218,0.1,0.013562679290771484,0.433077335357666,0.04974433,0.05519558,1479.6216929007555,2.7181122437571132,7.720044302956168,0.0,19200,3.0913450717926025,0.014058495560075069,0.010576933982589938,1764.3311482257545,0.0
214,16.023887395858765,1416.84132623847,752.936554085032,2149.5014969835074,-566.3053412105456,0.0,1.61866274107016,0.1,0.012125968933105469,0.4127073287963867,0.050620276,0.06049771,1473.343656234527,2.4882554372797787,7.069425319428153,0.0,19200,3.0797526836395264,0.014038547593265905,0.009853884776409198,1714.4410606638219,0.0
215,15.950592994689941,1479.6065842741045,750.904789953102,2057.7926206572265,-137.66323105147012,0.0,1.467920629719109,0.1,0.013038396835327148,0.4113743305206299,0.04994297,0.06306968,1473.9699490384849,2.627155182984018,7.383707880328935,0.0,19200,3.038611650466919,0.00685530108215431,0.005209418767244648,1672.8231602038688,0.0
216,15.80814266204834,1548.3845593328904,678.7440471029182,2126.420395991567,-1157.8216035574962,0.0,1.69774307151417,0.1,0.013144969940185547,0.38472604751586914,0.050230168,0.053256374,1481.4114100679253,2.6916956580911293,7.726533520361241,0.0,19200,2.9849131107330322,0.013423879058730707,0.007848881758103858,1426.0445615126887,0.0
217,15.869020700454712,1485.3357504037103,779.0726694663017,2100.573264280531,-1550.9655046102662,0.0,1.7950149162379598,0.1,0.012873649597167969,0.3696615695953369,0.049755577,0.053889655,1481.803844101504,2.6169500884278842,7.412408399746478,0.0,19200,3.0858757495880127,0.014324507817277232,0.008516392169021754,1549.586848395678,0.0
218,16.04261088371277,1437.0554454410023,786.4734934560216,2103.0845962611747,-691.8311431627131,0.0,1.6016592241251295,0.1,0.012682437896728516,0.4262969493865967,0.04953035,0.06063425,1477.3290042354538,2.6011337483148393,7.170949504310581,0.0,19200,3.022589921951294,0.01696831898925265,0.011966067094539143,1518.5376438621433,0.0
219,15.701131820678711,1405.4414831453478,798.4552567896294,2103.64455382279,-302.0739152884367,0.0,1.6136448723993018,0.1,0.01303720474243164,0.4091322422027588,0.049573272,0.073606156,1470.1402521264433,2.51055195120109,7.013695493377495,0.0,19200,2.92075777053833,0.014642134306779813,0.011402102399079248,1391.7783878949133,0.0
220,16.07003688812256,1660.434823824043,518.7784286047558,2178.5141896481373,-664.8294039213955,0.0,1.465467553765776,0.1,0.01321101188659668,0.3987257480621338,0.04949409,0.08603078,1489.1697092962033,2.874160909729497,8.286964031209383,0.0,19200,2.8752501010894775,0.008145751426578453,0.005869869396646685,1546.5993532110795,0.0
221,15.97930097579956,1550.473857188795,639.5200987121428,2105.2801785959227,-566.2491053300014,0.0,1.820821966950395,0.1,0.01244664192199707,0.4407997131347656,0.050159268,0.05131066,1495.3001240854626,2.714356419801567,7.73781176872478,0.0,19200,2.8905601501464844,0.01499274632210994,0.010491634246688081,1411.156469120046,0.0
222,16.02579379081726,1550.9629169744665,805.1159025696163,2109.615618809505,-3855.131474712717,0.0,1.682949453379456,0.1,0.01281285285949707,0.40693092346191406,0.050083425,0.053691998,1500.866403374363,2.77321432242197,7.739343434862726,0.0,19200,2.9070093631744385,0.06726981650488588,0.016238763370431095,1664.82586085792,0.0
223,16.50188159942627,1526.4936678190998,747.4293937006377,2143.3487629797974,-1251.0759052176938,0.0,1.6309105231988348,0.1,0.013239383697509766,0.40264010429382324,0.049609955,0.06948727,1503.4291298188368,2.6591103687435558,7.616977335089406,0.0,19200,2.957740068435669,0.03630727128558026,0.008458646339775154,1643.0819573880185,0.0
224,15.955688238143921,1494.5102316394157,720.1403279684574,2117.6869400588303,-155.4139404118979,0.0,1.7164877388627091,0.1,0.013035774230957031,0.39604735374450684,0.049615145,0.06105344,1502.5372400008946,2.6351966539049454,7.458303563628398,0.0,19200,2.9392688274383545,0.012316344008979685,0.009214770941904414,1771.9935362335282,0.0
225,15.925353050231934,1552.481975485163,683.7660988491871,2084.6592823260276,-136.80449846012849,0.0,1.6500767488795556,0.1,0.013111114501953125,0.3895876407623291,0.05041666,0.06133328,1507.5317135493215,2.7174491533368084,7.7474713765474625,0.0,19200,2.9451792240142822,0.011152418750113977,0.009298869042353913,1684.791308900063,0.0
226,16.022778749465942,1554.3361968243346,688.2348439163405,2071.5362183836814,-228.07166530676065,0.0,1.6202021758151839,0.1,0.013106822967529297,0.3983635902404785,0.049947213,0.04925572,1512.2121618768228,2.709554870848894,7.756802292712209,0.0,19200,2.9569807052612305,0.010947804080154019,0.007018137354961452,1551.9101918781462,0.0
227,15.848258256912231,1369.7733696638495,758.1187457990538,2076.0379208695235,-171.55996851759022,0.0,1.807988459604436,0.1,0.013600587844848633,0.44516468048095703,0.04995659,0.04728253,1497.9682826555254,2.4696872482527166,6.8351038494842875,0.0,19200,3.0248091220855713,0.01713262233603198,0.013011760970633427,1731.4975277903573,0.0
228,16.308632135391235,1545.8521827792022,669.6258318957302,2091.818672920653,-387.1637475173645,0.0,1.5381786515251739,0.1,0.013442039489746094,0.40370702743530273,0.049754646,0.061162397,1502.756672667893,2.7165379892172474,7.71440214910356,0.0,19200,3.0094659328460693,0.011955684848188286,0.00857027086423823,1643.4536935288515,0.0
229,15.737360000610352,1523.3516748657669,728.2457481140549,2112.8430916609973,-348.775765374067,0.0,1.6368971997663564,0.1,0.013108015060424805,0.3959312438964844,0.050179493,0.06416866,1504.8161728876805,2.6847436316325504,7.601284657409131,0.0,19200,2.9357049465179443,0.01378243098694202,0.008482013114028273,1723.694522679497,0.0
230,15.957883834838867,1524.2274304486698,671.8467410751673,2162.9236481655516,-258.7916160632741,0.0,1.811795312926015,0.1,0.012970447540283203,0.4145686626434326,0.049882405,0.048812103,1506.7572986437794,2.7056769548720716,7.606546027583857,0.0,19200,2.842571496963501,0.014246074283788221,0.01093755054828219,1614.2328311047713,0.0
231,15.88097596168518,1616.9897340443752,560.709637191294,2111.1341565665057,-180.97783452637532,0.0,1.5062908745026953,0.1,0.013808727264404297,0.3841288089752197,0.05013998,0.07088839,1517.780542183839,2.810582948602022,8.07063715840397,0.0,19200,2.9421448707580566,0.007595100671124322,0.006402607669499415,1594.713552872985,0.0
232,15.87861943244934,1525.92065727484,741.1641574830845,2134.701943178532,-862.1810580067372,0.0,1.5680727782014163,0.1,0.013199567794799805,0.35660886764526367,0.050644405,0.057278417,1518.5945536929391,2.678280489168092,7.615847863806795,0.0,19200,2.9395930767059326,0.009479698500124912,0.007308369466587963,1519.4019588421183,0.0
233,16.11315107345581,1404.7069237757057,791.7093897741347,2101.3283634968057,-737.1645196886054,0.0,1.4670941388682255,0.1,0.012731552124023438,0.3952922821044922,0.05008777,0.054408018,1507.2057907012158,2.470155110677798,7.008341127153716,0.0,19200,2.9896578788757324,0.01070149477413249,0.0077799661280433625,1344.5722340011666,0.0
234,16.229045629501343,1554.41639307423,690.2953663868242,2145.698633835715,-416.54498984220834,0.0,1.716830636442113,0.1,0.012877464294433594,0.3574035167694092,0.049899414,0.04978337,1511.9268509385172,2.7293851621498413,7.758088436872846,0.0,19200,2.982973575592041,0.010447523952310397,0.007342008757964018,1271.6416559997447,0.0
235,15.9401535987854,1534.6463850587406,726.4427663289455,2165.2612425109924,-657.0854998559155,0.0,1.709772345630414,0.1,0.012669801712036133,0.35878753662109375,0.049709436,0.06382473,1514.1988043505396,2.713115957188157,7.658384428113028,0.0,19200,2.9934751987457275,0.011145667331144485,0.008194622629247816,1247.1768376046912,0.0
236,16.03464150428772,1626.3944535362746,612.521441526178,2163.609148187898,-574.3371191627341,0.0,1.5963415503355027,0.1,0.013229846954345703,0.4075145721435547,0.04905805,0.064068034,1525.418369269113,2.846613034226261,8.11704081627724,0.0,19200,3.020582675933838,0.01231183456208548,0.008124192329326816,1642.1468176652952,0.0
237,16.02295422554016,1595.5198793522693,632.0893524113985,2152.66285068965,-326.8505218278157,0.0,1.5169257166692303,0.1,0.013267755508422852,0.3856487274169922,0.04956115,0.05383798,1532.4285202774288,2.774656519389533,7.9629790624142265,0.0,19200,3.026888847351074,0.01160645922065864,0.007949241170087686,1623.0656703476507,0.0
238,16.183011770248413,1445.4144663747686,771.6778662983819,2122.526610317481,-702.7036054712217,0.0,1.488112405966,0.1,0.012725830078125,0.3984708786010742,0.050205056,0.051760793,1523.7271148871628,2.571273299354184,7.212158578292692,0.0,19200,3.0218167304992676,0.011831098095862873,0.009051984495575675,1140.669320869205,0.0
239,16.24794912338257,1561.1338613301712,688.5057013195599,2135.6523132202956,-145.6492694821055,0.0,1.5981240320068708,0.1,0.013590574264526367,0.401991605758667,0.049844157,0.05359367,1527.4677895314635,2.7309572402448397,7.790763211779943,0.0,19200,3.0390102863311768,0.007387366363337203,0.00581081613793292,1279.7646078681723,0.0
240,15.801803350448608,1578.582233897352,676.4181875475184,2112.661742166695,-839.1983843383349,0.0,1.6680925915937341,0.1,0.01216268539428711,0.4053995609283447,0.049284782,0.04947872,1532.5792339680524,2.774036793349275,7.878023549556019,0.0,19200,3.135255813598633,0.009554004577571693,0.007100692903824962,1601.909272450307,0.0
241,15.780124425888062,1536.4311386018217,673.7345959240115,2116.9409383036314,-315.0396702760744,0.0,1.6823254590906564,0.1,0.013290882110595703,0.3735466003417969,0.049976714,0.06308276,1532.9644244314295,2.680492902314885,7.667492827798784,0.0,19200,3.1608176231384277,0.009220047618707013,0.007063328791201064,1355.6201196131933,0.0
242,15.880306959152222,1538.9983163383943,741.5380417642103,2129.889100575638,-652.8354863193148,0.0,1.7094090030089026,0.1,0.012936830520629883,0.37993407249450684,0.05002109,0.042633068,1533.5678136221259,2.7151020878755205,7.681184458991095,0.0,19200,3.1549744606018066,0.019157514373722172,0.012175832976368026,1648.4444120467224,0.0
243,15.832194805145264,1604.1503899072468,625.4228033595991,2137.7775495883357,-620.4235659084161,0.0,1.651695484693477,0.1,0.012965917587280273,0.39469289779663086,0.050336994,0.05400027,1540.626071250638,2.7847136110835398,8.005599517612538,0.0,19200,3.098792314529419,0.009515677937072687,0.005065387252964937,1034.9772160821044,0.0
244,16.0856990814209,1552.373999942105,708.1637898227647,2103.7326927484346,-226.57382453047174,0.0,1.6086305814071726,0.1,0.013799905776977539,0.4105641841888428,0.04963952,0.054748364,1541.8008641197848,2.718475739223326,7.7463575452458775,0.0,19200,3.0390539169311523,0.009876617761275523,0.007474465137515661,1250.466083166005,0.0
245,15.945048809051514,1580.2373714569167,626.9593386180886,2123.3506912943453,-273.82245478040096,0.0,1.7041393287670987,0.1,0.012747526168823242,0.4011664390563965,0.05000098,0.064942434,1545.644514853498,2.751878449404567,7.886904439704746,0.0,19200,3.088068962097168,0.007875927614261605,0.005335108852550437,1409.7851052993628,0.0
246,16.149595737457275,1603.8854793017708,612.7017774255178,2082.900766472693,-333.5063379179299,0.0,1.5629369735954644,0.1,0.012038707733154297,0.41556358337402344,0.050090104,0.049981948,1551.4686112983254,2.7998164684566835,8.00486588014605,0.0,19200,3.073660135269165,0.012876882215588865,0.008968988530441918,1524.5794888589003,0.0
247,16.223341941833496,1545.5194275128954,679.3388452274031,2103.6999399076876,-241.1735179669102,0.0,1.8080162009565097,0.1,0.0129547119140625,0.3923604488372803,0.04966655,0.0693197,1550.8736929197823,2.703302206250214,7.713290884468667,0.0,19200,3.087296724319458,0.007835490569975062,0.005555961937577718,1502.8437941794614,0.0
248,16.205594062805176,1611.1405942846259,584.544589149029,2130.8599367148113,-233.68638536436862,0.0,1.5779650700378929,0.1,0.01331782341003418,0.3940238952636719,0.049981277,0.06929875,1556.900383056267,2.7990280239848215,8.040540367411797,0.0,19200,3.067786693572998,0.005749546208749948,0.004635366205368011,1507.8096071182229,0.0
249,16.217144012451172,1538.3782701753164,687.2081792705868,2069.547695791549,-354.4226566227179,0.0,1.4545895706172687,0.1,0.01205897331237793,0.3924698829650879,0.049750913,0.07410156,1555.048171768172,2.685825448525696,7.676900528531277,0.0,19200,3.0447473526000977,0.013273814252830314,0.011409744507743328,1416.044449876813,0.0
250,16.20061469078064,1551.2580963641894,699.4309318856116,2160.908363728334,-306.38009645431333,0.0,1.4883313406203649,0.1,0.013222217559814453,0.4198291301727295,0.05081729,0.05486302,1554.669164227774,2.701778414168332,7.7417183764542195,0.0,19200,2.9911789894104004,0.01007259412955319,0.006482985066756939,1522.7831267942067,0.0
251,16.10423469543457,1704.0455193299097,451.9503480087955,2124.521377250193,-435.7444711675744,0.0,1.820042731196128,0.1,0.012556791305541992,0.4400520324707031,0.050587364,0.044404022,1569.6067997379876,2.967462095081803,8.50492526972466,0.0,19200,2.951815605163574,0.007031293230835418,0.005835668975623556,1501.7856409922729,0.0
252,16.372108697891235,1550.253880762578,674.8904018388384,2146.6149452274303,-517.4763459951183,0.0,1.620710931945026,0.1,0.012943744659423828,0.4163024425506592,0.05004412,0.058479328,1567.6715078404466,2.682556627293993,7.735789309774527,0.0,19200,2.9837093353271484,0.010142767165268931,0.007138144574638119,1490.7717586210156,0.0
253,16.45533061027527,1626.478779745193,566.7687413825362,2142.022518403164,-216.26049716423591,0.0,1.7904171367049768,0.1,0.012728452682495117,0.42328405380249023,0.049694534,0.057631295,1573.5522350309213,2.8415421001971666,8.117516637719179,0.0,19200,2.996251106262207,0.009277144446403474,0.006429955513811463,1492.3793337428258,0.0
254,16.231258869171143,1645.819415463482,600.2830180856063,2153.898575449261,-1067.4253142588643,0.0,1.586101564273757,0.1,0.0131683349609375,0.38033032417297363,0.04976302,0.04966207,1580.7789530741775,2.873280224848114,8.214176780678088,0.0,19200,3.0315728187561035,0.009142348800825817,0.006655779506642297,1495.5378935555243,0.0
255,15.796712398529053,1660.0633803294302,604.471628387342,2093.7156761523593,-231.5302834706032,0.0,1.487911974561612,0.1,0.01286458969116211,0.3647165298461914,0.04979132,0.08516899,1588.7073957997027,2.892017543887827,8.285471713331864,0.0,19200,3.130331039428711,0.0056199774599463344,0.004242843170592196,1481.2569719899288,0.0
256,15.836659669876099,1604.21129511816,608.8286767574385,2163.8531518910486,-108.31713061843169,0.0,1.6888120156777489,0.1,0.013014078140258789,0.41021180152893066,0.04951332,0.07730873,1590.2577857315484,2.8079520171714876,8.006177958374765,0.0,19200,3.0052969455718994,0.011460460297215645,0.006446953827060688,1532.1135703116806,0.0
257,15.3657386302948,1552.675698478123,703.9992680002973,2117.971277767229,-526.6795121728661,0.0,1.3443739863939153,0.1,0.012670516967773438,0.37367963790893555,0.050396793,0.076353,1586.499577006206,2.7184906240320714,7.7481748884309,0.0,19200,3.025859832763672,0.00974519097171416,0.006713516049241255,1535.1150139427739,0.0
258,15.985629081726074,1783.4733279485624,472.20088938504153,2211.9402826578894,-262.9066859065823,0.0,1.665782649928721,0.1,0.01226496696472168,0.3792603015899658,0.050026778,0.050969917,1606.1969521004416,3.0981096444597456,8.902977190978955,0.0,19200,2.990903854370117,0.0061724367892085335,0.0044619361108551815,1746.4349032152209,0.0
259,16.29792857170105,1600.4058399797293,620.1890291790511,2087.9819479311022,-319.4161648274688,0.0,1.8235537780605942,0.1,0.012481689453125,0.3725154399871826,0.049519274,0.04581112,1605.6178408883707,2.803135702175847,7.9870949211920035,0.0,19200,3.0019586086273193,0.012159269155802592,0.008476919594253654,1563.0861528145047,0.0
260,16.12514638900757,1622.0862633659342,624.3460858133974,2151.3185537398144,-611.5393765915165,0.0,1.5307718570089057,0.1,0.013085603713989258,0.3928055763244629,0.04915701,0.053352743,1607.2646831361271,2.8579823786158793,8.095137594846067,0.0,19200,2.9830687046051025,0.009281288988729436,0.007338921425261765,1451.2357745102577,0.0
261,16.333817720413208,1651.0082087859398,519.6640498060403,2089.58352324615,-116.27246275830628,0.0,1.5944071327183647,0.1,0.012874126434326172,0.39740943908691406,0.050103407,0.0730339,1611.6390357011085,2.8947717251316374,8.239624664854494,0.0,19200,2.9359524250030518,0.010120727619512626,0.007548143239338702,1485.7427658266242,0.0
262,16.28930926322937,1628.394953355354,606.0138388835634,2109.1241898560534,-404.42398387547047,0.0,1.678476564618323,0.1,0.013417482376098633,0.3999440670013428,0.050268922,0.040265612,1613.3146274665332,2.8333679897101796,8.127034137811062,0.0,19200,2.9321093559265137,0.00979852040513546,0.007080612991266464,1228.44377099625,0.0
263,16.225669145584106,1690.1559266402776,548.312718738861,2095.4417366453317,-118.4098131148995,0.0,1.5060384045711595,0.1,0.012748956680297852,0.4142794609069824,0.05000566,0.06123029,1620.9987573839078,2.916156085315676,8.435304429976465,0.0,19200,2.9886956214904785,0.00554254059767785,0.0036487601399992097,1166.723985804613,0.0
264,16.452890872955322,1605.0496157713872,623.7976649053268,2123.519789250138,-174.23892890988003,0.0,1.426284971559436,0.1,0.01265406608581543,0.37900876998901367,0.04972181,0.09777009,1619.4038432226557,2.8345982205378384,8.010079440942194,0.0,19200,3.0142595767974854,0.009173921537605354,0.007463326709644975,1494.9892613553634,0.0
265,16.36919379234314,1628.6438841309155,624.369280831904,2142.8869390125283,-168.2231331911756,0.0,1.6273523016579419,0.1,0.013400793075561523,0.4147765636444092,0.050366648,0.05527766,1620.3278473134817,2.836196002245934,8.128303430411883,0.0,19200,3.0164923667907715,0.006506688107320525,0.005310381102179562,1548.720541329776,0.0
266,16.132998943328857,1671.5020626309858,585.682159837501,2230.4642216065536,-242.56988048459738,0.0,1.636434513353929,0.1,0.012688159942626953,0.3944690227508545,0.04998811,0.045697227,1625.4452688452322,2.9031201090537273,8.342576925792741,0.0,19200,2.999509572982788,0.006455960743006192,0.00448649455073691,1637.8504770312186,0.0
267,16.053943157196045,1670.8826553005522,533.0332320385933,2119.147118767186,-125.53178329117803,0.0,1.7826055233853557,0.1,0.013231039047241211,0.38266801834106445,0.0492903,0.07171488,1629.9890074907642,2.897371060791626,8.33895997722205,0.0,19200,2.918450117111206,0.00611712151736337,0.004831630327182992,1617.3119591377754,0.0
268,16.03507947921753,1721.4342535280775,472.754892282988,2093.921790919949,-200.9705931210525,0.0,1.608289224933725,0.1,0.013286352157592773,0.4212813377380371,0.050106935,0.08003947,1639.1335320944954,2.963754668088152,8.591708614466603,0.0,19200,2.9126455783843994,0.0034885901885092006,0.002577654988020527,1573.5278853842515,0.0
269,16.957087993621826,1645.7816715661863,600.1458937188428,2205.1514717512127,-132.4772454287171,0.0,1.4021754641023823,0.1,0.013721227645874023,0.4283769130706787,0.04916018,0.049040306,1639.7983460416644,2.8713287943896937,8.214032466401564,0.0,19200,2.939857244491577,0.0063720005022408314,0.004784266817619969,1542.651686774554,0.0
270,16.293128728866577,1705.9413364332459,477.2713819292818,2156.9578080415686,-537.5315024875895,0.0,1.5098610209654728,0.1,0.013416528701782227,0.4045381546020508,0.050499797,0.06545307,1646.4126450808226,2.975727118859858,8.516079776301414,0.0,19200,3.031757354736328,0.009533614118370745,0.007223636043381789,1547.4987798260718,0.0
271,16.292054176330566,1770.169674759684,363.91621525385676,2215.3085216431327,-157.6263554980548,0.0,1.6780822825619712,0.1,0.01261758804321289,0.41193437576293945,0.04913863,0.046749584,1658.7883480487087,3.0673642213223324,8.835383870720994,0.0,19200,3.0191667079925537,0.005280141147394554,0.0033445973200418692,1566.669022648024,0.0
272,16.239750862121582,1670.6695031023344,528.1141530805822,2162.1527002380853,-88.1278923945082,0.0,1.5611725719951834,0.1,0.012964248657226562,0.37982177734375,0.049544908,0.043367673,1659.9764635540714,2.9282292211854326,8.337936705702088,0.0,19200,3.032050132751465,0.005886370077985634,0.00403088003478058,1548.219749512045,0.0
273,16.102985382080078,1646.2974648580894,602.2478878792904,2174.805589722313,-299.0169426311737,0.0,1.6805958946119428,0.1,0.012195110321044922,0.4013385772705078,0.04971807,0.06316595,1658.6085636844732,2.8764579148933582,8.215995447985716,0.0,19200,2.9652135372161865,0.008981921941503223,0.007517905932212617,1576.794433734331,0.0
274,16.196337938308716,1658.9277104216462,582.5110741358017,2169.4524047441732,-891.946076465111,0.0,1.7497159020733495,0.1,0.01268315315246582,0.39246606826782227,0.049791735,0.04934879,1658.6404783581906,2.874214661182945,8.279791054108568,0.0,19200,2.9706544876098633,0.008508254240013575,0.005419078063404875,1564.7879541520629,0.0
275,15.916613101959229,1619.824530187838,665.1357732826916,2178.330945378383,-2062.7120504532327,0.0,1.4866837251792528,0.1,0.013185977935791016,0.41523289680480957,0.049649995,0.05886511,1654.7588835411555,2.8395291923596386,8.084221166489623,0.0,19200,3.081953525543213,0.021822143748435108,0.011583650520028391,1614.9408741702127,0.0
276,15.948922395706177,1746.0309167303024,420.28065309449056,2147.281718672327,-123.93596324009813,0.0,1.6013954085518753,0.1,0.01314854621887207,0.3851308822631836,0.049881276,0.054069355,1663.88608686007,3.001824051976992,8.714681006848947,0.0,19200,3.0817854404449463,0.004904904179270923,0.0037293103510615366,1610.1857304017958,0.0
277,16.205819845199585,1705.904447704185,555.4701841509068,2169.7180884060313,-89.29612854216775,0.0,1.4234754843500583,0.1,0.012475252151489258,0.4054718017578125,0.050329667,0.0424141,1668.0879229444815,2.979424013938308,8.51397451724033,0.0,19200,3.1182100772857666,0.004829905235357637,0.0034190773819371,1626.6454672735313,0.0
278,16.213175296783447,1619.6657155893838,603.2702885437333,2090.0047123658433,-177.71007835575767,0.0,1.5622015352182315,0.1,0.013327836990356445,0.38614726066589355,0.04918354,0.06095179,1663.2457022089718,2.8337448157846654,8.083425125807095,0.0,19200,3.123708486557007,0.00983530287710318,0.006649514801696182,1648.9746750732063,0.0
279,16.298101663589478,1700.1196530331028,518.5083213526668,2105.1461241272223,-117.36606038055176,0.0,1.4929090746392035,0.1,0.012900590896606445,0.42125773429870605,0.050139334,0.085586,1666.933097291385,2.9502379985341456,8.485689368881433,0.0,19200,3.0920159816741943,0.008407217803453604,0.005199100887208839,1790.9672621637,0.0
280,16.198613166809082,1725.4737525737412,475.16838443579803,2132.2090491600297,-120.86333791071522,0.0,1.6518549758371712,0.1,0.013213634490966797,0.4113190174102783,0.049637675,0.045961108,1672.7871628196206,2.976526107239707,8.613036234013116,0.0,19200,3.0698466300964355,0.004700563635214751,0.0036705899431332175,1779.6631803556113,0.0
281,16.127821683883667,1670.1252434919804,545.6132875450243,2118.0151298615688,-166.66258126992034,0.0,1.5792823650982957,0.1,0.013295412063598633,0.3811771869659424,0.0502787,0.05144482,1672.5209708868565,2.8894925732791883,8.335993023974202,0.0,19200,3.087226390838623,0.004503144132956014,0.0034609374410144197,1826.0764913956623,0.0
282,16.47349739074707,1733.0879891381312,487.5651406947699,2096.968468164581,-242.671098976043,0.0,1.6784386916165939,0.1,0.012748956680297852,0.3688533306121826,0.049757868,0.048115786,1678.5776727119842,3.0094154490896243,8.649972642459254,0.0,19200,3.08677339553833,0.005694005565072772,0.0047126568334216155,1673.9202252112732,0.0
283,15.981090307235718,1670.3620191444113,529.5127772603497,2211.7670304267167,-149.0320992068476,0.0,1.5699483417650908,0.1,0.013762712478637695,0.3771822452545166,0.049680836,0.051779214,1677.756107355227,2.8866598630064586,8.336995821991705,0.0,19200,3.116138458251953,0.009880630868627715,0.007822960777042776,1752.1299052935522,0.0
284,15.832428693771362,1734.6251895522453,379.63002760736504,2114.5753849906923,-98.75985726473357,0.0,1.6371488777417813,0.1,0.012718439102172852,0.4072580337524414,0.049714036,0.062476195,1683.443015574929,2.993801276343063,8.658275312320978,0.0,19200,3.194748878479004,0.0066654993729272655,0.0038176940087133,1813.0536899529304,0.0
285,16.007003784179688,1587.2678698045365,646.7042468119257,2109.0405547278597,-836.3009509176367,0.0,1.6787900400913356,0.1,0.013039350509643555,0.38892459869384766,0.050974324,0.055347778,1673.8255009978898,2.772336901898811,7.920882892789662,0.0,19200,3.1830713748931885,0.01331574256343723,0.010085112752604382,1625.980658361289,0.0
286,16.31277322769165,1702.1334987859664,535.1926298966127,2174.7246116556903,-267.46892348721235,0.0,1.481294884765513,0.1,0.01271820068359375,0.41761112213134766,0.050650887,0.054431528,1676.6563007766977,2.9831565142941248,8.495162247829676,0.0,19200,3.098780632019043,0.009007145955535275,0.006652503443643043,1599.9049701989575,0.0
287,16.03664231300354,1713.2967144106224,441.5150768376448,2150.1735260771247,-110.87577796524825,0.0,1.5725857921628972,0.1,0.012419462203979492,0.4225480556488037,0.050119173,0.050468106,1680.3203421400904,2.9565885039373954,8.551015103406383,0.0,19200,3.050264596939087,0.005509283077857429,0.0028816926603827345,1361.6030965804896,0.0
288,16.14338779449463,1696.8919138935482,451.2848714674982,2126.9573981589215,-138.88284475915134,0.0,1.5998218071163308,0.1,0.012390613555908203,0.40335655212402344,0.0504594,0.04876956,1681.9774993154363,2.9471617986153436,8.469023654542628,0.0,19200,3.05753231048584,0.008813916482661176,0.005898553866224168,1475.6184588058375,0.0
289,16.385186672210693,1606.0889655756664,571.9472804172323,2170.8614414435824,-376.93743129084396,0.0,1.5615563508211008,0.1,0.012669563293457031,0.400984525680542,0.050149083,0.07572016,1674.3886459414593,2.804507998648985,8.016199571351244,0.0,19200,3.108978748321533,0.01521978476896472,0.01117726364772566,1633.9067826453497,0.0
290,17.19220519065857,1713.9145078462086,509.3886054147681,2163.9948453296165,-313.7828993099604,0.0,1.520145670886241,0.1,0.013576745986938477,0.39718127250671387,0.04985186,0.052722726,1678.3412321319345,2.9546221459955273,8.554083913293546,0.0,19200,3.1120572090148926,0.005929211760020313,0.004447752348627439,1304.8814290637447,0.0
291,16.38442873954773,1697.5652515079653,462.6301406735801,2179.3154566014705,-147.76238895691333,0.0,1.4626806733367475,0.1,0.012464761734008789,0.4006314277648926,0.051014736,0.05416342,1680.2636340695376,2.9342051261068938,8.472968593372027,0.0,19200,3.0514378547668457,0.006065070312773986,0.0051408049727150245,1615.649728545562,0.0
292,16.17790937423706,1531.6463545296517,664.9960826791514,2172.27315331394,-197.39344741486266,0.0,1.7317229449530864,0.1,0.012929677963256836,0.4078965187072754,0.04988871,0.046626,1665.401906115549,2.7026110468296314,7.643599927844991,0.0,19200,3.0646698474884033,0.022893874695619935,0.012813412233150207,1615.9487161795314,0.0
293,16.34556531906128,1681.0109683107312,552.0778480333225,2134.78699696445,-864.8219583510935,0.0,1.7386120972803514,0.1,0.01279306411743164,0.37946486473083496,0.05000664,0.049545392,1666.9628123350674,2.895623594085995,8.389575119930418,0.0,19200,3.081292152404785,0.009069470317766582,0.0064281571962714066,1791.5334953133652,0.0
294,16.07100510597229,1711.8361812632968,474.8566466773499,2104.836705498744,-92.50105351752893,0.0,1.4582856586735615,0.1,0.012691974639892578,0.409226655960083,0.050802458,0.057186764,1671.4501492278905,2.946913848622799,8.543670803967162,0.0,19200,3.0589609146118164,0.004092680029107562,0.0024103332335045163,1635.4379356587488,0.0
295,16.18094491958618,1670.9054214185555,459.2304787533873,2125.6147793790064,-255.8880285898865,0.0,1.4298403319249255,0.1,0.013343095779418945,0.3997640609741211,0.049774535,0.08674405,1671.3956764469572,2.897714427177251,8.33910078102472,0.0,19200,3.0436227321624756,0.006006522163610881,0.004292007568098515,1627.991775870463,0.0
296,15.817121028900146,1697.4275951834536,545.0749902699508,2157.2919750715605,-905.5190055655438,0.0,1.6716787820879702,0.1,0.01289677619934082,0.42539477348327637,0.048920415,0.042698037,1673.9988683206068,2.9627317076025768,8.471648027208774,0.0,19200,3.121969223022461,0.012103369516241379,0.008831908289600445,1616.470613242935,0.0
297,15.814144134521484,1696.2640530997676,463.5769538490205,2204.250115583551,-180.99597350955776,0.0,1.5943296032908372,0.1,0.013260126113891602,0.4078078269958496,0.04993983,0.05961823,1676.2253867985228,2.9434826651467243,8.466448698815187,0.0,19200,3.1442973613739014,0.00799575538254352,0.006480416079776474,1620.6937175668763,0.0
298,15.555878400802612,1713.136240905781,460.8003806869428,2143.856281582246,-151.09757210660374,0.0,1.7465319326844648,0.1,0.013204813003540039,0.3960075378417969,0.05004258,0.050903656,1679.9164722092487,2.9899041685964782,8.550741367432373,0.0,19200,3.114570379257202,0.006106845525312524,0.004346199106037576,1603.1433482785396,0.0
299,15.82243537902832,1703.6550945410754,491.5535384192266,2159.5675108997357,-447.5379308982525,0.0,1.5425577888769726,0.1,0.012377262115478516,0.3965415954589844,0.04937799,0.067871734,1682.2903344424315,2.952826104366224,8.502766584628239,0.0,19200,3.0586917400360107,0.0067313349946862,0.005499495365650719,1610.600215359344,0.0
300,16.025327682495117,1744.5614331124368,391.775091669536,2165.8586836228596,-258.21412482221075,0.0,1.3952451769376042,0.1,0.013060331344604492,0.41750144958496094,0.049794357,0.06678474,1688.517444309432,3.026774789933102,8.707949371663254,0.0,19200,3.115917444229126,0.005151156482865561,0.003695185303827067,1690.403897825185,0.0
301,16.55079960823059,1639.1326144772577,504.46501838480316,2123.731844095614,-143.45275244166464,0.0,1.5559063059970046,0.1,0.013623237609863281,0.42661070823669434,0.050221402,0.05090182,1683.5789613262145,2.8710128557014123,8.180751319512746,0.0,19200,3.1195614337921143,0.00998519528443708,0.0067785364745138466,1600.929506605883,0.0
302,16.362236976623535,1713.17042139592,466.5493073967878,2155.1163083576757,-131.68578461640797,0.0,1.4911082512205922,0.1,0.012908935546875,0.4037036895751953,0.050396655,0.05489928,1686.538107333185,2.967495216221721,8.55026298685263,0.0,19200,3.1550397872924805,0.005482498460002346,0.004295877614478639,1661.4669795098698,0.0
303,16.68233060836792,1782.8208400089104,319.69828134881755,2157.352420991579,-16.081228578472107,0.0,1.5291691930283944,0.1,0.013269424438476562,0.39960217475891113,0.050801158,0.05023838,1696.1663806007575,3.079274899322202,8.898545283753705,0.0,19200,3.1336910724639893,0.0024480678795951497,0.001728402575929739,1469.6361264485524,0.0
304,16.568190336227417,1699.9402391214398,484.1878216634017,2094.5319023635825,-369.58862671424384,0.0,1.5895113179308236,0.1,0.012168407440185547,0.4022660255432129,0.049731866,0.057974696,1696.5437664528258,2.9371298671829074,8.484183736420322,0.0,19200,3.1137259006500244,0.0065666447265899305,0.005130475319698261,1633.5356668569937,0.0
305,16.515006065368652,1618.4866457394394,625.6892325231465,2160.112644705086,-1311.4083474738584,0.0,1.3928774417696341,0.1,0.013643026351928711,0.38173556327819824,0.049875665,0.05496158,1688.7380543814872,2.850653981190001,8.07818634124429,0.0,19200,3.023594617843628,0.021341616125994816,0.011070878252245595,1461.9155804951235,0.0
306,16.444146871566772,1630.2998758176993,605.7687584189741,2158.9747018771627,-302.12325630055756,0.0,1.6416177695251537,0.1,0.01279139518737793,0.32924556732177734,0.04967057,0.068447836,1682.8942365251085,2.848081392492943,8.135938723699091,0.0,19200,3.0185844898223877,0.006540460823071723,0.0032288802542189995,1436.42748329462,0.0
307,16.164077281951904,1713.6823292033223,480.7302471512521,2186.098712956839,-321.32921518002786,0.0,1.4108086741487842,0.1,0.01371455192565918,0.4175543785095215,0.050662402,0.09230044,1685.97304579293,2.970988222945254,8.553221582305362,0.0,19200,3.010930061340332,0.0035482720376868236,0.0026619735741367874,1567.5509181230213,0.0
308,15.980299949645996,1674.7977904474694,486.45215937565547,2117.398848996264,-131.87506556311212,0.0,1.397310364651395,0.1,0.013307809829711914,0.43150877952575684,0.04996989,0.10942866,1684.8555202583839,2.9135802649402804,8.358975602039148,0.0,19200,3.0657765865325928,0.00719818897879769,0.0055659819139390965,1595.714272298286,0.0
309,16.27703356742859,1695.4080090701461,616.954324722743,2174.2597025858536,-2501.3510480463106,0.0,1.405634551791779,0.1,0.012234926223754883,0.4174070358276367,0.04967162,0.053884055,1685.9107691395602,2.9649671815572063,8.461535784582468,0.0,19200,3.0954549312591553,0.027208539848181605,0.009677226085546947,1560.8008938794815,0.0
310,15.895809888839722,1726.6397421725796,450.18661132789583,2124.2579783767283,-402.9572315891651,0.0,1.5969680212698125,0.1,0.01336669921875,0.3935065269470215,0.049315397,0.044711396,1689.9836664428622,2.9836200639405113,8.618027967731443,0.0,19200,2.9544832706451416,0.007901556272923759,0.004974771803031,1635.0812396357214,0.0
311,16.238556146621704,1686.4613668719132,474.1007926364829,2147.6421100931075,-33.33232279520732,0.0,1.5825160069226278,0.1,0.012661218643188477,0.3803446292877197,0.050314754,0.06394913,1689.6314364857674,2.9479432336835067,8.417997321004364,0.0,19200,2.9525296688079834,0.010243654349726102,0.007076295302698836,1689.908331530734,0.0
312,16.169434547424316,1670.9697403592163,503.99180384443173,2153.8642244114776,-142.23172162073286,0.0,1.8955443813094726,0.1,0.013535737991333008,0.38606786727905273,0.050475154,0.05808509,1687.7652668731123,2.910314001145288,8.33991169510702,0.0,19200,2.987851619720459,0.011689682037837134,0.00795746903650066,1620.4250789266625,0.0
313,16.441194772720337,1776.45438008571,288.32266015754294,2156.4312396359906,22.071781797422194,0.0,1.6814826790302249,0.1,0.012849807739257812,0.394350528717041,0.050676115,0.05901388,1696.6341781943722,3.055037406232889,8.866774379288536,0.0,19200,3.054429054260254,0.007582985980493203,0.00368211735401935,1423.4649545366628,0.0
314,16.142117738723755,1720.433817901024,461.89594593436044,2156.6917043356643,-464.1229612971692,0.0,1.823465683522358,0.1,0.012752056121826172,0.36046338081359863,0.04992453,0.039987847,1699.0141421650374,2.978475793478039,8.587286833593948,0.0,19200,3.0309860706329346,0.011887256427886376,0.007602852792162021,1444.1826759062385,0.0
315,16.48239040374756,1670.5934599595955,520.9415156015765,2099.3498603972234,-571.2647279191121,0.0,1.6854146690894893,0.1,0.01320028305053711,0.3729374408721924,0.049405217,0.052327227,1696.1720739444931,2.890625261399306,8.337487096194879,0.0,19200,3.019279718399048,0.016714853833289443,0.010847679609012284,1751.697120071372,0.0
316,16.449294328689575,1720.4643728661192,432.1591742520008,2181.1556127147715,-601.1532166129845,0.0,1.6607902389251314,0.1,0.012051582336425781,0.3870706558227539,0.05021367,0.05501577,1698.601303836656,2.9861914304988524,8.586874790946686,0.0,19200,3.02785325050354,0.008303386168708507,0.004820124526108705,1767.4107663101302,0.0
317,16.453165769577026,1768.7697760975836,286.91023489851096,2150.8478016795607,-5.005310622307856,0.0,1.5694913679941944,0.1,0.013190269470214844,0.4048798084259033,0.05009574,0.062275104,1705.6181510627487,3.057250009394181,8.828336392980136,0.0,19200,3.0364949703216553,0.004466688485361469,0.003295030480549769,1679.4960219367897,0.0
318,16.211063861846924,1757.5139819159647,523.7095119804486,2136.3423833262723,-1635.6058939159302,0.0,1.3009152024905182,0.1,0.012654542922973633,0.40003037452697754,0.050390363,0.045139704,1710.8077341480703,3.007772036355655,8.772868679116213,0.0,19200,3.03351092338562,0.006591289253524167,0.003692883258023453,1679.6691898965696,0.0
319,16.121748685836792,1765.0438813641733,322.35189904727724,2143.50430021217,-300.4000284935318,0.0,1.8358922294141524,0.1,0.013221263885498047,0.37216806411743164,0.050012935,0.061600953,1716.2313488696805,3.0423220602752186,8.809724680400832,0.0,19200,3.052460193634033,0.0049031538115600305,0.0034397911995755993,1787.2916333814555,0.0
320,16.232062816619873,1753.4754828457378,449.8476890645855,2177.3191867139085,-920.0076681572467,0.0,1.5017930003121933,0.1,0.012284994125366211,0.42255139350891113,0.050488286,0.04785787,1719.9557622672862,3.0435054905096934,8.751932568323795,0.0,19200,3.060654878616333,0.008723305725791122,0.005638575535253415,1703.861854464054,0.0
321,16.551979064941406,1727.7997009625012,390.16097737271866,2146.462619872669,-179.70202613564197,0.0,1.612248760620623,0.1,0.013081789016723633,0.39751124382019043,0.049398206,0.05484608,1720.7401561368076,2.9788403624074156,8.624148304025312,0.0,19200,3.0453693866729736,0.006448285036621085,0.0038033326531978755,1718.4484018722042,0.0
322,16.424021005630493,1807.1725394829791,266.27886978211245,2130.7435278248345,-131.98119778305457,0.0,1.4446776504457401,0.1,0.01262664794921875,0.38205575942993164,0.048992727,0.06861132,1729.3833944714247,3.103382171626881,9.020395241342667,0.0,19200,3.049682140350342,0.0017566929178451183,0.0010279357695774606,1726.5311136197183,0.0
323,16.098556756973267,1733.8185648764759,435.7541761144859,2137.952147910281,-227.46016341643858,0.0,1.5374754983498726,0.1,0.013433456420898438,0.408815860748291,0.050372027,0.053799406,1729.82691151193,2.993760193481734,8.653626642330753,0.0,19200,3.1327157020568848,0.007702695350449895,0.005251664191529641,1649.8943550843007,0.0
324,16.230085134506226,1707.3742962061472,467.1928816208141,2126.8368968602454,-1224.9639167230714,0.0,1.6737253595367312,0.1,0.01276254653930664,0.39023613929748535,0.049466576,0.046551414,1727.5816499813516,2.9400801501606053,8.521354890502904,0.0,19200,3.1370394229888916,0.01527429462682648,0.010443150910242503,1695.3706091338033,0.0
325,16.54399037361145,1752.9191747506418,395.84261129257726,2170.934868688316,-39.49587874108858,0.0,1.6734309474204225,0.1,0.012474775314331055,0.42594480514526367,0.04976707,0.04765166,1730.1154024582806,3.0317908450236906,8.749142826857112,0.0,19200,3.161186933517456,0.006662577707987756,0.0037591809842539305,1646.6789975140232,0.0
326,16.13571071624756,1749.2484088314602,390.7485210305149,2130.2371941586416,-434.66644551558846,0.0,1.6578535782865527,0.1,0.012102127075195312,0.3739938735961914,0.04938564,0.062282022,1732.0287030955988,3.005069718103691,8.73068267054172,0.0,19200,3.078927755355835,0.006382886180601884,0.0038150548590422727,1643.2518525847536,0.0
327,16.05191683769226,1688.6229013343873,524.3164474648936,2132.3100328597766,-650.184793473701,0.0,1.4419972128819525,0.1,0.011905193328857422,0.38613414764404297,0.049640622,0.05152659,1727.6881229194778,2.910108543686153,8.428586383848609,0.0,19200,3.0523264408111572,0.006618141000504957,0.004781757987692663,1781.1492982891461,0.0
328,16.343501567840576,1757.1512339280973,347.42929713930084,2103.5337342723797,-218.89376269768317,0.0,1.7539946405190185,0.1,0.012077569961547852,0.40641117095947266,0.049808495,0.075511366,1730.6344340203398,3.027800864842829,8.770169116930079,0.0,19200,3.116051435470581,0.007114968688140151,0.004689328279780984,1791.9946474158078,0.0
329,16.205360889434814,1759.8235706196567,294.9287135276027,2176.886466646193,-15.442340097675052,0.0,1.6246363824541568,0.1,0.012934446334838867,0.3949012756347656,0.050082907,0.06921994,1733.5533476802716,3.0413245592811933,8.783981769541283,0.0,19200,3.0875906944274902,0.004884845115776094,0.003229884036852091,1748.413738921041,0.0
330,16.326252460479736,1755.9335414829084,416.3020498062354,2173.016834658357,-1113.0753481631702,0.0,1.7083641959733367,0.1,0.012546539306640625,0.3851432800292969,0.049488507,0.0473111,1735.7913670605353,3.0356091564660503,8.764191421666425,0.0,19200,3.0829813480377197,0.012784548662209922,0.005172555419705,1701.0361301121739,0.0
331,16.29811668395996,1711.6175549681266,459.42926245454163,2112.412241143613,-219.6410749794727,0.0,1.6597851744840149,0.1,0.012421607971191406,0.34192347526550293,0.050819814,0.049036324,1733.3739858512945,2.9614474283285923,8.54275403264481,0.0,19200,3.093289613723755,0.009488472527030492,0.006656476593660354,1714.8220485203074,0.0
332,16.55743932723999,1761.102718921602,453.714192530104,2201.1136539591366,-383.66566752803726,0.0,1.756481139988571,0.1,0.012871265411376953,0.3676948547363281,0.049483825,0.048051678,1736.1468591583252,3.0547969976361826,8.79069046887769,0.0,19200,3.0893807411193848,0.00528244619764874,0.0030121542007577828,1779.1285440660813,0.0
333,16.224359273910522,1825.7249351804592,192.7122441651354,2151.9062960012284,1062.5060406416578,0.0,1.4960752326012245,0.1,0.011962175369262695,0.3932819366455078,0.049645863,0.09577069,1745.1046667605387,3.153640871375849,9.113194260147177,0.0,19200,3.0960652828216553,0.004211064405073793,0.0021840674659715084,1769.6560541746,0.0
334,15.93150782585144,1702.2000195439202,528.9986224460771,2100.0186445789914,-144.36282001407142,0.0,1.5861548565351562,0.1,0.011764049530029297,0.4300425052642822,0.050523825,0.045279384,1740.814202038877,2.9539640604420847,8.495487155420816,0.0,19200,3.1057403087615967,0.008100652163020491,0.004829798984072177,1789.2208974623136,0.0
335,16.03299641609192,1784.5615014981095,358.84578307479876,2168.4402080910036,12.719829023883468,0.0,1.6554400683988204,0.1,0.011848688125610352,0.37625885009765625,0.049783725,0.0600798,1745.1889319848003,3.0956049112532953,8.907882463341133,0.0,19200,3.11893367767334,0.007797394249345992,0.0038414537479547787,1791.880486361982,0.0
336,16.872655153274536,1664.173474209203,669.9513586134586,2152.145976704346,-1510.0656755757773,0.0,1.32335839501094,0.1,0.013022899627685547,0.38296937942504883,0.05035193,0.06277318,1737.0873862072406,2.912768365372488,8.305396836059908,0.0,19200,3.134733200073242,0.012928200726528626,0.01037568373024393,1763.1253912000896,0.0
337,16.19284749031067,1809.2173500097017,349.254134924356,2145.674598549011,-84.76221204742325,0.0,1.5502233920297879,0.1,0.012859106063842773,0.38913917541503906,0.049779,0.08427658,1744.3003825874866,3.14266536166627,9.030863946287973,0.0,19200,3.1811721324920654,0.004432373655737222,0.003305423162370124,1901.9978928473784,0.0
338,15.990018844604492,1601.346802245612,1187.6423499017105,2181.930510758873,-8763.67041846258,0.0,1.298147151203912,0.1,0.012594223022460938,0.3753819465637207,0.04870863,0.049326524,1730.005024553299,2.9431929507611634,7.993692061244803,0.0,19200,3.179680109024048,0.16963704719483608,0.01949669428695788,1894.707885779632,0.0
339,15.92232084274292,1733.0308655698782,480.3608287766772,2166.9239450580512,-341.51497374211993,0.0,1.4450204170910808,0.1,0.013529539108276367,0.40500807762145996,0.049394764,0.05544433,1730.307608654957,2.9985083681910303,8.649681376708463,0.0,19200,3.1679158210754395,0.02037803736490019,0.006979820206866243,1735.9412861277858,0.0
340,16.175742387771606,1810.6949460331807,216.82144847602837,2200.8545002469814,927.4789280233937,0.0,1.772811366198372,0.1,0.012914180755615234,0.3721275329589844,0.05005265,0.08417407,1738.3463423927794,3.116816828647733,9.037969738917173,0.0,19200,3.119551181793213,0.004651363577601865,0.002088924729031227,1715.1900958201245,0.0
341,16.321858167648315,1846.3682157846422,181.24917814398233,2189.0737185913995,1312.0406220573677,0.0,1.7560864991443854,0.1,0.014069318771362305,0.395841121673584,0.050097648,0.05407891,1749.1485297319657,3.1625514726650903,9.216337428816571,0.0,19200,3.1913323402404785,0.0016785449041493918,0.0012489457358928,1750.7251266558442,0.0
342,16.937058925628662,1747.8228390822842,470.6579620530961,2191.9345691819212,-203.40902261406023,0.0,1.5550426025249082,0.1,0.012795209884643555,0.35815978050231934,0.049357027,0.04966377,1749.0159606669977,3.0026924390614496,8.723644736218757,0.0,19200,3.075441837310791,0.006133671505420252,0.0037997575799952996,1752.4178249601691,0.0
343,16.106751680374146,1670.5426271301083,999.7858822990147,2112.428835862106,-7327.159593671336,0.0,1.2053176894340694,0.1,0.013255119323730469,0.3954906463623047,0.0509739,0.058968365,1741.1686273133087,2.9756044117339377,8.337196895527486,0.0,19200,3.031714916229248,0.02486058867264779,0.011015374848058923,1697.9275153785652,0.0
344,16.023411750793457,1723.2370407253354,485.25626413131897,2134.001438910515,-611.6972612422907,0.0,1.4554100832810626,0.1,0.012904167175292969,0.3875596523284912,0.050518837,0.0538136,1739.3754686545112,3.009774394528572,8.601241563495543,0.0,19200,2.9810352325439453,0.008201932887730757,0.005835635975547355,1718.721646408425,0.0
345,16.283653736114502,1806.9388820297727,304.26554932261894,2126.210603407287,-70.74110760174665,0.0,1.4249990018298861,0.1,0.012533426284790039,0.3825106620788574,0.049962092,0.07924245,1746.1318099920372,3.106678731326976,9.01921624844399,0.0,19200,2.9830691814422607,0.004077039859051886,0.002703575384510357,1791.400247913892,0.0
346,16.463714361190796,1707.6791520960967,488.7220738801989,2130.164821476201,-100.2021674440692,0.0,1.584933754834442,0.1,0.013414859771728516,0.39923620223999023,0.04955068,0.044842217,1742.286544202443,2.9847837669871,8.523472548934185,0.0,19200,2.9249000549316406,0.006520779007793463,0.005088841505950238,1844.5056621239123,0.0
347,16.275176763534546,1700.1346808824965,532.4515631594875,2175.888575533889,-185.39767732932103,0.0,1.7049703102963325,0.1,0.012856006622314453,0.40918707847595215,0.050589126,0.047306225,1738.0713578704485,2.977856525178788,8.486020962782183,0.0,19200,2.960202217102051,0.008213612288441688,0.005478084589080304,1890.5623074052778,0.0
348,16.04820418357849,1745.6594815724718,470.42103374281703,2142.5511723833047,-132.7242473406342,0.0,1.5097658232724058,0.1,0.012634754180908203,0.41356325149536133,0.04937584,0.048294406,1738.830170240651,3.0484387312644414,8.713031054509052,0.0,19200,2.9970297813415527,0.004806987941152851,0.003222976473404797,1893.8760058338767,0.0
349,16.033629655838013,1801.3576841963666,378.8003391633718,2155.24834502818,-85.93643108652921,0.0,1.5502303313335601,0.1,0.012569427490234375,0.39101386070251465,0.050475102,0.049727872,1745.0829216362224,3.1213560525408965,8.991326852502981,0.0,19200,2.9494807720184326,0.0038739181526408067,0.0030291170639197332,1923.90764927614,0.0
350,15.996398210525513,1703.5912462154727,557.1668073025678,2169.501853012301,-121.80019782046988,0.0,1.5679866764106662,0.1,0.012738466262817383,0.3961493968963623,0.05051254,0.05086725,1740.9337540941474,2.97504233885336,8.50246593966551,0.0,19200,3.0040676593780518,0.005419872632003318,0.004567707174213889,1909.4863256219937,0.0
351,16.18368148803711,1672.7657485496295,629.5161316882984,2209.1937070816743,-966.1250735752825,0.0,1.5004969192861495,0.1,0.011668920516967773,0.39961957931518555,0.04984413,0.08195618,1734.1169535396957,2.945005088875726,8.348956898152812,0.0,19200,2.986619234085083,0.007188607999635657,0.005800140728246247,1895.7233225662467,0.0
352,16.582548141479492,1739.2445558605123,497.41972696719137,2162.869950245025,-150.46689766480208,0.0,1.3549452516577543,0.1,0.01191568374633789,0.3703458309173584,0.049962595,0.06469359,1734.6297137717775,3.0393595167103826,8.680786857528346,0.0,19200,3.029648780822754,0.003741459717395859,0.0031713240674118293,1905.5042056827879,0.0
353,16.38970184326172,1624.8862374916123,681.9131464586087,2181.7805093143384,-1229.065602605815,0.0,1.5420779310389106,0.1,0.013141155242919922,0.39334678649902344,0.05040181,0.047049027,1723.655366143761,2.837172643498874,8.11017478119489,0.0,19200,3.0552186965942383,0.006866916962541327,0.005268521521679013,1895.3474066296226,0.0
354,16.25979471206665,1652.9283040795917,587.9180726057427,2158.9526411829675,-319.78837997483026,0.0,1.6101689132614774,0.1,0.01255941390991211,0.3468363285064697,0.050463945,0.08809998,1716.5826599373443,2.860757830412283,8.249180233196466,0.0,19200,3.0413401126861572,0.004241920438125988,0.0036918452721092514,1908.9712976098654,0.0
355,16.29328966140747,1752.2016641644566,499.50669441588104,2169.4453039455616,-101.33528815037637,0.0,1.412308157327502,0.1,0.013295888900756836,0.41614508628845215,0.049222153,0.07799251,1720.1445603600555,3.0604101662382313,8.745463290868289,0.0,19200,3.046893835067749,0.003959511900408312,0.0027501316503983635,1922.1824237285143,0.0
