Iter | Sampling Pol | Evaluation Pol | Best (Sampled) 
   0 -497.47 -1129.11 -100000000.00 
   1 -506.30 -1155.15 -497.47 
   2 -449.64 -826.35 -497.47 
   3 -433.16 -818.99 -449.64 
   4 -423.27 -1206.37 -433.16 
   5 -489.31 -1344.09 -423.27 
   6 -441.02 -1614.87 -423.27 
   7 -471.07 -1500.57 -423.27 
   8 -425.52 -1528.40 -423.27 
   9 -438.84 -1164.26 -423.27 
  10 -413.01 -770.12 -423.27 
  11 -393.30 -906.42 -413.01 
  12 -409.95 -701.68 -393.30 
  13 -432.50 -726.94 -393.30 
  14 -389.74 -684.81 -393.30 
  15 -387.87 -685.36 -389.74 
  16 -399.05 -769.71 -387.87 
  17 -403.38 -710.65 -387.87 
  18 -396.18 -704.16 -387.87 
  19 -397.92 -713.90 -387.87 
  20 -403.60 -746.50 -387.87 
  21 -387.21 -807.11 -387.87 
  22 -379.66 -734.25 -387.21 
  23 -375.85 -735.26 -379.66 
  24 -378.66 -710.06 -375.85 
  25 -375.43 -756.95 -375.85 
  26 -369.33 -771.84 -375.43 
  27 -367.23 -821.04 -369.33 
  28 -370.94 -758.26 -367.23 
  29 -375.08 -766.21 -367.23 
  30 -364.47 -754.76 -367.23 
  31 -369.73 -888.19 -364.47 
  32 -357.70 -930.92 -364.47 
  33 -375.63 -974.40 -357.70 
  34 -374.97 -970.81 -357.70 
  35 -394.28 -976.85 -357.70 
  36 -369.19 -1094.18 -357.70 
  37 -363.91 -987.38 -357.70 
  38 -371.58 -1022.21 -357.70 
  39 -370.12 -1130.18 -357.70 
  40 -373.10 -1260.52 -357.70 
  41 -363.64 -1026.51 -357.70 
  42 -366.39 -820.74 -357.70 
  43 -362.58 -673.46 -357.70 
  44 -359.65 -652.54 -357.70 
  45 -366.25 -631.16 -357.70 
  46 -358.90 -608.20 -357.70 
  47 -360.13 -597.78 -357.70 
  48 -345.56 -590.31 -357.70 
  49 -354.71 -595.57 -345.56 
  50 -359.20 -575.64 -345.56 
  51 -346.33 -589.40 -345.56 
  52 -354.46 -588.95 -345.56 
  53 -348.32 -580.57 -345.56 
  54 -355.16 -596.98 -345.56 
  55 -343.54 -612.69 -345.56 
  56 -349.94 -631.60 -343.54 
  57 -340.20 -601.53 -343.54 
  58 -347.05 -587.11 -340.20 
  59 -339.16 -619.31 -340.20 
  60 -335.78 -610.24 -339.16 
  61 -340.49 -616.20 -335.78 
  62 -330.70 -615.86 -335.78 
  63 -346.22 -602.34 -330.70 
  64 -320.71 -620.87 -330.70 
  65 -321.38 -614.14 -320.71 
  66 -329.92 -590.72 -320.71 
  67 -314.40 -599.75 -320.71 
  68 -322.86 -596.06 -314.40 
  69 -314.21 -598.42 -314.40 
  70 -319.97 -610.13 -314.21 
  71 -320.11 -566.82 -314.21 
  72 -315.52 -580.54 -314.21 
  73 -320.59 -598.27 -314.21 
  74 -313.76 -613.99 -314.21 
  75 -312.55 -571.20 -313.76 
  76 -300.13 -598.98 -312.55 
  77 -313.26 -579.05 -300.13 
  78 -310.92 -540.01 -300.13 
  79 -301.11 -536.39 -300.13 
  80 -303.72 -538.71 -300.13 
  81 -303.87 -534.73 -300.13 
  82 -307.29 -538.69 -300.13 
  83 -297.60 -591.86 -300.13 
  84 -291.58 -513.12 -297.60 
  85 -297.38 -508.64 -291.58 
  86 -297.97 -507.28 -291.58 
  87 -297.10 -508.24 -291.58 
  88 -283.62 -497.81 -291.58 
  89 -288.06 -485.50 -283.62 
  90 -277.65 -470.47 -283.62 
  91 -285.96 -444.18 -277.65 
  92 -283.43 -424.12 -277.65 
  93 -282.11 -433.99 -277.65 
  94 -278.19 -415.81 -277.65 
  95 -279.81 -416.27 -277.65 
  96 -276.51 -413.72 -277.65 
  97 -283.33 -427.23 -276.51 
  98 -276.27 -421.44 -276.51 
  99 -275.25 -425.56 -276.27 
 100 -275.26 -434.51 -275.25 
 101 -276.06 -425.59 -275.25 
 102 -268.80 -423.58 -275.25 
 103 -269.78 -429.27 -268.80 
 104 -266.43 -433.89 -268.80 
 105 -264.63 -433.21 -266.43 
 106 -267.20 -433.00 -264.63 
 107 -266.55 -434.52 -264.63 
 108 -263.78 -473.58 -264.63 
 109 -258.09 -539.94 -263.78 
 110 -265.47 -444.04 -258.09 
 111 -263.39 -421.75 -258.09 
 112 -254.82 -454.72 -258.09 
 113 -260.00 -482.35 -254.82 
 114 -259.75 -402.42 -254.82 
 115 -259.55 -389.85 -254.82 
 116 -259.08 -387.88 -254.82 
 117 -252.16 -394.86 -254.82 
 118 -259.00 -403.47 -252.16 
 119 -257.09 -398.57 -252.16 
 120 -252.25 -404.85 -252.16 
 121 -259.32 -407.80 -252.16 
 122 -254.64 -412.72 -252.16 
 123 -254.35 -404.47 -252.16 
 124 -248.03 -385.96 -252.16 
 125 -248.20 -370.55 -248.03 
 126 -253.50 -373.62 -248.03 
 127 -250.68 -366.95 -248.03 
 128 -251.49 -360.48 -248.03 
 129 -252.61 -335.22 -248.03 
 130 -247.75 -336.51 -248.03 
 131 -242.30 -322.59 -247.75 
 132 -247.11 -326.74 -242.30 
 133 -252.12 -327.29 -242.30 
 134 -243.41 -302.65 -242.30 
 135 -246.78 -312.00 -242.30 
 136 -241.40 -303.07 -242.30 
 137 -244.31 -278.88 -241.40 
 138 -248.56 -281.65 -241.40 
 139 -243.74 -267.65 -241.40 
 140 -248.57 -272.93 -241.40 
 141 -249.36 -270.63 -241.40 
 142 -242.30 -275.13 -241.40 
 143 -245.06 -277.78 -241.40 
 144 -245.90 -285.56 -241.40 
 145 -240.95 -275.29 -241.40 
 146 -247.18 -271.03 -240.95 
 147 -241.56 -270.77 -240.95 
 148 -244.69 -262.97 -240.95 
 149 -239.60 -270.81 -240.95 
 150 -241.40 -275.84 -239.60 
 151 -242.45 -269.28 -239.60 
 152 -242.36 -266.04 -239.60 
 153 -238.30 -268.38 -239.60 
 154 -241.42 -259.93 -238.30 
 155 -242.58 -264.24 -238.30 
 156 -242.21 -271.63 -238.30 
 157 -240.05 -267.66 -238.30 
 158 -242.80 -265.41 -238.30 
 159 -236.63 -267.10 -238.30 
 160 -239.85 -263.97 -236.63 
 161 -235.92 -265.30 -236.63 
 162 -237.14 -261.96 -235.92 
 163 -240.99 -257.08 -235.92 
 164 -238.33 -254.01 -235.92 
 165 -242.92 -251.62 -235.92 
 166 -238.69 -253.68 -235.92 
 167 -238.16 -250.55 -235.92 
 168 -236.04 -257.93 -235.92 
 169 -242.47 -249.67 -235.92 
 170 -235.16 -251.03 -235.92 
 171 -235.49 -252.05 -235.16 
 172 -233.43 -251.70 -235.16 
 173 -236.81 -252.46 -233.43 
 174 -234.94 -247.30 -233.43 
 175 -232.78 -245.70 -233.43 
 176 -232.01 -241.90 -232.78 
 177 -234.19 -244.53 -232.01 
 178 -234.36 -242.31 -232.01 
 179 -237.19 -237.66 -232.01 
 180 -233.55 -240.60 -232.01 
 181 -236.95 -238.56 -232.01 
 182 -234.15 -239.27 -232.01 
 183 -230.94 -241.83 -232.01 
 184 -232.73 -237.65 -230.94 
 185 -231.12 -238.02 -230.94 
 186 -233.03 -231.94 -230.94 
 187 -233.86 -231.14 -230.94 
 188 -231.25 -231.93 -230.94 
 189 -233.10 -236.08 -230.94 
 190 -233.07 -229.47 -230.94 
 191 -227.97 -230.82 -230.94 
 192 -227.53 -228.98 -227.97 
 193 -233.51 -229.26 -227.53 
 194 -232.89 -229.41 -227.53 
 195 -232.83 -230.31 -227.53 
 196 -231.75 -227.44 -227.53 
 197 -231.03 -226.45 -227.53 
 198 -228.36 -227.18 -227.53 
 199 -225.46 -228.07 -227.53 
 200 -226.11 -228.30 -225.46 
 201 -228.80 -228.80 -225.46 
 202 -228.14 -227.97 -225.46 
 203 -230.10 -228.29 -225.46 
 204 -226.59 -222.02 -225.46 
 205 -229.25 -224.08 -225.46 
 206 -229.92 -222.24 -225.46 
 207 -235.17 -221.36 -225.46 
 208 -231.61 -221.07 -225.46 
 209 -229.03 -225.43 -225.46 
 210 -225.35 -222.57 -225.46 
 211 -227.44 -221.28 -225.35 
 212 -229.82 -221.18 -225.35 
 213 -229.31 -219.54 -225.35 
 214 -228.27 -221.30 -225.35 
 215 -227.85 -215.36 -225.35 
 216 -231.33 -219.52 -225.35 
 217 -231.29 -222.17 -225.35 
 218 -230.48 -221.55 -225.35 
 219 -230.31 -221.98 -225.35 
 220 -222.60 -219.59 -225.35 
 221 -227.93 -219.91 -222.60 
 222 -226.23 -222.73 -222.60 
 223 -226.43 -222.02 -222.60 
 224 -231.47 -220.95 -222.60 
 225 -227.85 -220.25 -222.60 
 226 -227.79 -221.68 -222.60 
 227 -224.44 -221.87 -222.60 
 228 -224.02 -222.08 -222.60 
 229 -225.44 -221.59 -222.60 
 230 -227.35 -223.65 -222.60 
 231 -224.22 -220.06 -222.60 
 232 -226.18 -223.01 -222.60 
 233 -222.64 -225.88 -222.60 
 234 -224.99 -223.43 -222.60 
 235 -222.39 -220.97 -222.60 
 236 -226.10 -224.22 -222.39 
 237 -227.58 -218.79 -222.39 
 238 -222.54 -217.45 -222.39 
 239 -220.99 -219.10 -222.39 
 240 -223.50 -221.54 -220.99 
 241 -225.69 -219.77 -220.99 
 242 -224.86 -216.13 -220.99 
 243 -220.43 -218.02 -220.99 
 244 -231.13 -220.54 -220.43 
 245 -227.96 -216.86 -220.43 
 246 -225.27 -217.89 -220.43 
 247 -221.88 -220.11 -220.43 
 248 -225.33 -221.00 -220.43 
 249 -230.03 -218.29 -220.43 
 250 -225.95 -222.58 -220.43 
 251 -222.45 -214.36 -220.43 
 252 -225.11 -218.06 -220.43 
 253 -225.06 -217.24 -220.43 
 254 -228.00 -217.81 -220.43 
 255 -229.38 -218.22 -220.43 
 256 -226.45 -215.23 -220.43 
 257 -226.14 -215.38 -220.43 
 258 -227.88 -215.93 -220.43 
 259 -226.25 -217.91 -220.43 
 260 -223.56 -217.08 -220.43 
 261 -220.80 -215.80 -220.43 
 262 -223.41 -216.18 -220.43 
 263 -220.64 -215.11 -220.43 
 264 -227.64 -215.74 -220.43 
 265 -225.62 -214.90 -220.43 
 266 -225.91 -218.54 -220.43 
 267 -223.25 -216.68 -220.43 
 268 -221.55 -219.55 -220.43 
 269 -225.95 -218.11 -220.43 
 270 -223.66 -218.41 -220.43 
 271 -228.71 -216.94 -220.43 
 272 -222.96 -214.79 -220.43 
 273 -222.62 -216.90 -220.43 
 274 -222.76 -217.97 -220.43 
 275 -224.61 -214.46 -220.43 
 276 -221.51 -217.26 -220.43 
 277 -229.12 -217.28 -220.43 
 278 -223.63 -215.56 -220.43 
 279 -222.64 -215.52 -220.43 
 280 -218.30 -214.31 -220.43 
 281 -220.59 -215.10 -218.30 
 282 -226.08 -215.39 -218.30 
 283 -217.88 -214.66 -218.30 
 284 -217.43 -218.47 -217.88 
 285 -221.01 -215.30 -217.43 
 286 -223.87 -216.06 -217.43 
 287 -214.79 -215.67 -217.43 
 288 -225.50 -216.67 -214.79 
 289 -222.11 -214.94 -214.79 
 290 -220.48 -215.51 -214.79 
 291 -221.85 -219.89 -214.79 
 292 -215.25 -217.74 -214.79 
 293 -222.93 -215.52 -214.79 
 294 -217.31 -214.86 -214.79 
 295 -217.16 -213.99 -214.79 
 296 -224.92 -215.96 -214.79 
 297 -219.72 -217.20 -214.79 
 298 -222.59 -217.03 -214.79 
 299 -220.36 -217.02 -214.79 
 300 -219.59 -216.84 -214.79 
 301 -217.06 -217.30 -214.79 
 302 -221.41 -213.89 -214.79 
 303 -221.72 -215.97 -214.79 
 304 -217.56 -218.49 -214.79 
 305 -226.56 -219.46 -214.79 
 306 -216.49 -215.38 -214.79 
 307 -220.54 -219.03 -214.79 
 308 -220.38 -218.36 -214.79 
 309 -224.96 -216.91 -214.79 
 310 -220.35 -215.99 -214.79 
 311 -222.27 -219.31 -214.79 
 312 -217.40 -216.92 -214.79 
 313 -222.26 -217.56 -214.79 
 314 -221.53 -217.02 -214.79 
 315 -220.98 -215.66 -214.79 
 316 -216.45 -215.28 -214.79 
 317 -214.42 -220.30 -214.79 
 318 -224.24 -217.43 -214.42 
 319 -217.91 -216.92 -214.42 
 320 -220.01 -216.29 -214.42 
 321 -217.28 -215.54 -214.42 
 322 -214.32 -215.52 -214.42 
 323 -215.27 -213.83 -214.32 
 324 -218.13 -213.71 -214.32 
 325 -213.65 -213.11 -214.32 
 326 -226.52 -214.03 -213.65 
 327 -218.87 -215.73 -213.65 
 328 -219.16 -216.32 -213.65 
 329 -218.07 -214.32 -213.65 
 330 -213.96 -211.45 -213.65 
 331 -215.51 -212.85 -213.65 
 332 -221.16 -212.90 -213.65 
 333 -216.97 -211.10 -213.65 
 334 -212.59 -211.92 -213.65 
 335 -219.21 -213.05 -212.59 
 336 -216.03 -209.63 -212.59 
 337 -218.45 -211.62 -212.59 
 338 -218.29 -211.38 -212.59 
 339 -220.64 -213.85 -212.59 
 340 -218.53 -215.22 -212.59 
 341 -217.33 -211.47 -212.59 
 342 -214.22 -211.36 -212.59 
 343 -217.39 -211.58 -212.59 
 344 -215.99 -212.37 -212.59 
 345 -216.15 -212.76 -212.59 
 346 -214.36 -212.72 -212.59 
 347 -213.40 -212.41 -212.59 
 348 -214.01 -212.04 -212.59 
 349 -220.70 -210.10 -212.59 
 350 -217.05 -208.21 -212.59 
 351 -217.25 -210.63 -212.59 
 352 -218.96 -210.74 -212.59 
 353 -215.66 -205.32 -212.59 
 354 -213.35 -210.26 -212.59 
 355 -213.43 -209.65 -212.59 
 356 -219.78 -208.08 -212.59 
 357 -217.30 -209.30 -212.59 
 358 -217.06 -209.82 -212.59 
 359 -218.82 -208.06 -212.59 
 360 -219.48 -210.60 -212.59 
 361 -217.84 -207.97 -212.59 
 362 -215.61 -211.83 -212.59 
 363 -219.01 -215.28 -212.59 
 364 -213.51 -211.70 -212.59 
 365 -207.46 -206.36 -212.59 
 366 -217.04 -205.59 -207.46 
 367 -217.65 -207.26 -207.46 
 368 -216.78 -206.68 -207.46 
 369 -215.32 -207.41 -207.46 
 370 -215.84 -207.05 -207.46 
 371 -222.95 -211.01 -207.46 
 372 -216.40 -215.05 -207.46 
 373 -220.14 -213.66 -207.46 
 374 -211.32 -211.74 -207.46 
 375 -218.66 -209.35 -207.46 
 376 -218.43 -210.35 -207.46 
 377 -217.04 -211.59 -207.46 
 378 -219.87 -208.74 -207.46 
 379 -215.55 -208.75 -207.46 
 380 -213.15 -207.86 -207.46 
 381 -212.95 -208.74 -207.46 
 382 -213.68 -208.40 -207.46 
 383 -215.30 -205.28 -207.46 
 384 -214.98 -206.63 -207.46 
 385 -214.44 -209.03 -207.46 
 386 -219.56 -213.61 -207.46 
 387 -218.31 -210.49 -207.46 
 388 -215.50 -208.41 -207.46 
 389 -213.76 -209.72 -207.46 
 390 -210.93 -208.49 -207.46 
 391 -218.94 -211.57 -207.46 
 392 -220.08 -208.25 -207.46 
 393 -216.95 -207.00 -207.46 
 394 -217.29 -207.81 -207.46 
 395 -216.56 -209.99 -207.46 
 396 -219.85 -209.06 -207.46 
 397 -210.34 -206.66 -207.46 
 398 -218.57 -206.06 -207.46 
 399 -211.40 -207.64 -207.46 
 400 -220.09 -207.41 -207.46 
 401 -214.73 -207.74 -207.46 
 402 -218.79 -206.64 -207.46 
 403 -214.50 -206.95 -207.46 
 404 -213.40 -206.56 -207.46 
 405 -212.01 -206.14 -207.46 
 406 -219.04 -205.79 -207.46 
 407 -217.45 -205.40 -207.46 
 408 -212.17 -203.95 -207.46 
 409 -214.25 -204.18 -207.46 
 410 -210.15 -206.24 -207.46 
 411 -208.64 -204.81 -207.46 
 412 -217.72 -206.56 -207.46 
 413 -213.50 -206.44 -207.46 
 414 -213.32 -206.33 -207.46 
 415 -212.38 -204.87 -207.46 
 416 -216.62 -206.99 -207.46 
 417 -211.93 -206.33 -207.46 
 418 -212.34 -207.78 -207.46 
 419 -216.00 -206.27 -207.46 
 420 -219.74 -209.63 -207.46 
 421 -213.35 -209.14 -207.46 
 422 -216.41 -209.50 -207.46 
 423 -213.62 -209.34 -207.46 
 424 -208.61 -209.34 -207.46 
 425 -216.26 -209.33 -207.46 
 426 -215.22 -209.99 -207.46 
 427 -215.65 -211.56 -207.46 
 428 -214.64 -207.49 -207.46 
 429 -213.12 -207.66 -207.46 
 430 -215.66 -211.62 -207.46 
 431 -213.97 -217.37 -207.46 
 432 -214.06 -213.25 -207.46 
 433 -213.21 -209.92 -207.46 
 434 -210.84 -208.93 -207.46 
 435 -213.93 -209.27 -207.46 
 436 -217.42 -214.98 -207.46 
 437 -215.73 -218.49 -207.46 
 438 -215.58 -215.41 -207.46 
 439 -214.49 -210.37 -207.46 
 440 -213.74 -214.38 -207.46 
 441 -212.32 -216.99 -207.46 
 442 -216.33 -218.03 -207.46 
 443 -211.21 -210.78 -207.46 
 444 -210.14 -211.58 -207.46 
 445 -213.33 -207.98 -207.46 
 446 -212.19 -210.93 -207.46 
 447 -219.98 -216.71 -207.46 
 448 -212.94 -211.16 -207.46 
 449 -215.16 -205.71 -207.46 
 450 -210.22 -208.68 -207.46 
 451 -214.52 -207.20 -207.46 
 452 -218.54 -207.93 -207.46 
 453 -214.99 -207.51 -207.46 
 454 -212.63 -207.15 -207.46 
 455 -212.35 -209.28 -207.46 
 456 -214.59 -207.69 -207.46 
 457 -212.50 -205.87 -207.46 
 458 -213.31 -208.28 -207.46 
 459 -213.28 -205.69 -207.46 
 460 -213.13 -204.71 -207.46 
 461 -215.48 -206.59 -207.46 
 462 -207.59 -205.50 -207.46 
 463 -207.51 -203.16 -207.46 
 464 -219.38 -203.34 -207.46 
 465 -213.29 -204.74 -207.46 
 466 -214.95 -203.69 -207.46 
 467 -208.47 -203.97 -207.46 
 468 -212.17 -210.26 -207.46 
 469 -215.48 -206.86 -207.46 
 470 -212.18 -210.57 -207.46 
 471 -208.33 -204.70 -207.46 
 472 -215.14 -204.86 -207.46 
 473 -212.95 -206.09 -207.46 
 474 -214.77 -207.73 -207.46 
 475 -208.57 -204.78 -207.46 
 476 -206.92 -205.01 -207.46 
 477 -215.26 -204.74 -206.92 
 478 -209.97 -202.25 -206.92 
 479 -213.29 -201.84 -206.92 
 480 -216.12 -203.96 -206.92 
 481 -214.40 -202.94 -206.92 
 482 -209.04 -203.85 -206.92 
 483 -212.42 -204.31 -206.92 
 484 -210.67 -201.00 -206.92 
 485 -211.18 -204.11 -206.92 
 486 -212.62 -204.97 -206.92 
 487 -212.51 -202.18 -206.92 
 488 -211.13 -203.71 -206.92 
 489 -207.68 -202.76 -206.92 
 490 -214.59 -204.01 -206.92 
 491 -205.42 -202.44 -206.92 
 492 -208.68 -202.65 -205.42 
 493 -210.04 -202.13 -205.42 
 494 -212.37 -203.48 -205.42 
 495 -210.15 -207.75 -205.42 
 496 -205.17 -205.19 -205.42 
 497 -209.73 -203.99 -205.17 
 498 -208.76 -203.78 -205.17 
 499 -214.94 -204.86 -205.17 
 500 -210.87 -204.45 -205.17 
 501 -214.63 -204.22 -205.17 
 502 -211.03 -205.72 -205.17 
 503 -211.81 -203.69 -205.17 
 504 -208.62 -204.64 -205.17 
 505 -209.88 -204.18 -205.17 
 506 -211.61 -206.60 -205.17 
 507 -211.78 -205.12 -205.17 
 508 -209.69 -206.61 -205.17 
 509 -204.85 -205.26 -205.17 
 510 -208.37 -206.12 -204.85 
 511 -213.34 -204.59 -204.85 
 512 -212.56 -204.95 -204.85 
 513 -210.28 -205.37 -204.85 
 514 -208.90 -205.43 -204.85 
 515 -210.96 -208.01 -204.85 
 516 -215.59 -206.91 -204.85 
 517 -209.22 -205.03 -204.85 
 518 -210.01 -206.55 -204.85 
 519 -206.58 -206.09 -204.85 
 520 -208.84 -203.92 -204.85 
 521 -211.49 -205.85 -204.85 
 522 -209.70 -205.85 -204.85 
 523 -207.97 -204.76 -204.85 
 524 -207.52 -204.58 -204.85 
 525 -212.39 -204.33 -204.85 
 526 -209.42 -201.54 -204.85 
 527 -209.29 -202.23 -204.85 
 528 -214.03 -202.64 -204.85 
 529 -212.63 -202.73 -204.85 
 530 -211.03 -201.10 -204.85 
 531 -203.36 -203.02 -204.85 
 532 -209.37 -203.46 -203.36 
 533 -206.56 -203.43 -203.36 
 534 -207.75 -203.67 -203.36 
 535 -211.12 -201.84 -203.36 
 536 -208.79 -201.37 -203.36 
 537 -205.86 -201.89 -203.36 
 538 -211.38 -202.09 -203.36 
 539 -207.50 -201.76 -203.36 
 540 -206.48 -201.89 -203.36 
 541 -209.73 -202.14 -203.36 
 542 -210.23 -202.20 -203.36 
 543 -208.17 -203.07 -203.36 
 544 -210.32 -203.48 -203.36 
 545 -207.19 -201.20 -203.36 
 546 -209.87 -202.46 -203.36 
 547 -209.06 -200.73 -203.36 
 548 -208.76 -202.98 -203.36 
 549 -209.40 -203.31 -203.36 
 550 -207.68 -204.15 -203.36 
 551 -213.95 -203.12 -203.36 
 552 -204.61 -203.22 -203.36 
 553 -208.61 -204.44 -203.36 
 554 -210.14 -202.90 -203.36 
 555 -209.28 -203.27 -203.36 
 556 -206.70 -205.60 -203.36 
 557 -207.83 -203.78 -203.36 
 558 -203.90 -201.54 -203.36 
 559 -209.25 -203.10 -203.36 
 560 -208.29 -201.35 -203.36 
 561 -209.95 -201.53 -203.36 
 562 -202.80 -200.97 -203.36 
 563 -208.81 -201.75 -202.80 
 564 -204.93 -202.40 -202.80 
 565 -205.75 -204.10 -202.80 
 566 -209.52 -203.75 -202.80 
 567 -204.12 -203.96 -202.80 
 568 -207.60 -203.34 -202.80 
 569 -204.64 -200.65 -202.80 
 570 -207.24 -202.28 -202.80 
 571 -209.87 -200.21 -202.80 
 572 -209.02 -199.88 -202.80 
 573 -211.54 -201.19 -202.80 
 574 -208.76 -200.19 -202.80 
 575 -204.61 -200.46 -202.80 
 576 -206.35 -200.52 -202.80 
 577 -206.73 -200.66 -202.80 
 578 -207.34 -199.31 -202.80 
 579 -201.93 -200.83 -202.80 
 580 -206.65 -202.15 -201.93 
 581 -206.46 -202.34 -201.93 
 582 -207.30 -202.01 -201.93 
 583 -209.27 -203.00 -201.93 
 584 -209.55 -202.88 -201.93 
 585 -209.88 -201.58 -201.93 
 586 -206.52 -202.11 -201.93 
 587 -209.63 -204.42 -201.93 
 588 -203.06 -201.90 -201.93 
 589 -207.56 -202.15 -201.93 
 590 -204.57 -202.09 -201.93 
 591 -208.60 -200.92 -201.93 
 592 -202.35 -202.43 -201.93 
 593 -205.43 -198.88 -201.93 
 594 -208.65 -201.29 -201.93 
 595 -203.95 -201.40 -201.93 
 596 -206.53 -203.63 -201.93 
 597 -211.97 -201.99 -201.93 
 598 -211.26 -201.48 -201.93 
 599 -203.60 -200.07 -201.93 
 600 -204.30 -201.66 -201.93 
 601 -207.63 -201.83 -201.93 
 602 -203.95 -201.50 -201.93 
 603 -208.35 -200.10 -201.93 
 604 -206.89 -199.97 -201.93 
 605 -204.21 -197.59 -201.93 
 606 -209.71 -199.00 -201.93 
 607 -208.20 -198.82 -201.93 
 608 -203.32 -199.25 -201.93 
 609 -207.21 -199.43 -201.93 
 610 -206.22 -198.44 -201.93 
 611 -203.83 -198.28 -201.93 
 612 -204.70 -199.32 -201.93 
 613 -204.78 -200.19 -201.93 
 614 -205.19 -197.88 -201.93 
 615 -204.78 -198.01 -201.93 
 616 -208.36 -197.52 -201.93 
 617 -207.95 -197.39 -201.93 
 618 -206.00 -198.71 -201.93 
 619 -206.11 -197.61 -201.93 
 620 -210.61 -199.06 -201.93 
 621 -207.08 -197.77 -201.93 
 622 -204.27 -197.75 -201.93 
 623 -204.10 -198.01 -201.93 
 624 -204.25 -196.86 -201.93 
 625 -206.00 -197.28 -201.93 
 626 -206.94 -197.06 -201.93 
 627 -206.85 -197.78 -201.93 
 628 -204.42 -197.96 -201.93 
 629 -207.25 -196.12 -201.93 
 630 -206.91 -197.73 -201.93 
 631 -208.24 -195.91 -201.93 
 632 -203.73 -194.32 -201.93 
 633 -201.83 -196.17 -201.93 
 634 -203.30 -196.03 -201.83 
 635 -203.99 -196.21 -201.83 
 636 -205.37 -196.24 -201.83 
 637 -202.25 -196.21 -201.83 
 638 -204.85 -195.87 -201.83 
 639 -203.87 -197.46 -201.83 
 640 -203.41 -197.42 -201.83 
 641 -199.30 -197.67 -201.83 
 642 -203.34 -196.20 -199.30 
 643 -205.35 -194.79 -199.30 
 644 -200.53 -196.42 -199.30 
 645 -204.32 -196.00 -199.30 
 646 -202.07 -197.62 -199.30 
 647 -209.71 -194.58 -199.30 
 648 -202.19 -197.01 -199.30 
 649 -203.06 -196.13 -199.30 
 650 -203.71 -195.81 -199.30 
 651 -206.09 -197.87 -199.30 
 652 -209.44 -197.44 -199.30 
 653 -203.93 -197.35 -199.30 
 654 -204.33 -197.23 -199.30 
 655 -202.28 -195.21 -199.30 
 656 -203.96 -198.30 -199.30 
 657 -205.44 -195.59 -199.30 
 658 -204.10 -197.12 -199.30 
 659 -209.34 -198.64 -199.30 
 660 -203.10 -199.45 -199.30 
 661 -204.94 -197.66 -199.30 
 662 -206.28 -196.69 -199.30 
 663 -207.20 -195.67 -199.30 
 664 -205.59 -198.05 -199.30 
 665 -205.96 -198.38 -199.30 
 666 -205.91 -195.62 -199.30 
 667 -205.54 -195.70 -199.30 
 668 -204.97 -196.00 -199.30 
 669 -205.21 -195.99 -199.30 
 670 -210.07 -196.05 -199.30 
 671 -200.56 -196.35 -199.30 
 672 -206.67 -196.38 -199.30 
 673 -206.80 -196.77 -199.30 
 674 -205.62 -196.65 -199.30 
 675 -207.15 -197.18 -199.30 
 676 -201.58 -196.84 -199.30 
 677 -202.69 -196.39 -199.30 
 678 -205.26 -196.93 -199.30 
 679 -205.04 -196.50 -199.30 
 680 -200.72 -197.11 -199.30 
 681 -205.42 -196.01 -199.30 
 682 -206.91 -197.57 -199.30 
 683 -207.18 -198.66 -199.30 
 684 -202.67 -197.23 -199.30 
 685 -203.69 -197.84 -199.30 
 686 -206.16 -196.78 -199.30 
 687 -204.84 -198.29 -199.30 
 688 -202.20 -196.63 -199.30 
 689 -204.24 -196.80 -199.30 
 690 -204.72 -197.12 -199.30 
 691 -202.31 -198.22 -199.30 
 692 -202.94 -197.94 -199.30 
 693 -205.63 -196.61 -199.30 
 694 -205.00 -197.12 -199.30 
 695 -202.01 -196.61 -199.30 
 696 -203.07 -196.93 -199.30 
 697 -201.64 -196.95 -199.30 
 698 -208.40 -198.90 -199.30 
 699 -200.32 -196.82 -199.30 
 700 -200.85 -197.78 -199.30 
 701 -205.05 -199.25 -199.30 
 702 -204.49 -198.92 -199.30 
 703 -201.76 -200.63 -199.30 
 704 -203.24 -198.93 -199.30 
 705 -204.49 -199.38 -199.30 
 706 -203.37 -198.08 -199.30 
 707 -201.77 -202.62 -199.30 
 708 -204.05 -200.53 -199.30 
 709 -202.87 -199.16 -199.30 
 710 -206.04 -199.35 -199.30 
 711 -204.20 -197.79 -199.30 
 712 -201.87 -198.90 -199.30 
 713 -203.56 -201.75 -199.30 
 714 -201.70 -198.74 -199.30 
 715 -204.90 -198.95 -199.30 
 716 -202.38 -201.33 -199.30 
 717 -204.63 -197.39 -199.30 
 718 -204.31 -197.72 -199.30 
 719 -203.51 -196.73 -199.30 
 720 -203.53 -201.62 -199.30 
 721 -202.72 -203.05 -199.30 
 722 -202.51 -201.16 -199.30 
 723 -203.41 -200.13 -199.30 
 724 -204.24 -200.57 -199.30 
 725 -203.35 -199.90 -199.30 
 726 -200.45 -199.23 -199.30 
 727 -205.62 -200.51 -199.30 
 728 -203.20 -198.97 -199.30 
 729 -201.79 -200.37 -199.30 
 730 -203.22 -201.61 -199.30 
 731 -205.06 -199.30 -199.30 
 732 -203.23 -199.61 -199.30 
 733 -201.21 -198.97 -199.30 
 734 -205.25 -202.89 -199.30 
 735 -204.89 -203.54 -199.30 
 736 -200.05 -201.38 -199.30 
 737 -204.44 -202.83 -199.30 
 738 -203.63 -203.11 -199.30 
 739 -201.46 -201.01 -199.30 
 740 -200.91 -199.92 -199.30 
 741 -202.66 -200.40 -199.30 
 742 -203.09 -200.37 -199.30 
 743 -202.84 -200.70 -199.30 
 744 -202.79 -199.97 -199.30 
 745 -205.53 -200.13 -199.30 
 746 -205.01 -200.59 -199.30 
 747 -202.96 -201.10 -199.30 
 748 -196.54 -203.49 -199.30 
 749 -202.99 -203.26 -196.54 
 750 -204.88 -207.04 -196.54 
 751 -206.80 -204.83 -196.54 
 752 -205.40 -202.13 -196.54 
 753 -208.81 -200.72 -196.54 
 754 -206.81 -202.17 -196.54 
 755 -204.02 -202.06 -196.54 
 756 -204.94 -198.36 -196.54 
 757 -200.55 -202.72 -196.54 
 758 -198.57 -205.05 -196.54 
 759 -199.31 -200.78 -196.54 
 760 -201.81 -201.84 -196.54 
 761 -199.99 -202.59 -196.54 
 762 -200.57 -198.74 -196.54 
 763 -200.43 -200.95 -196.54 
 764 -200.48 -201.11 -196.54 
 765 -203.16 -199.12 -196.54 
 766 -200.44 -199.00 -196.54 
 767 -202.48 -198.13 -196.54 
 768 -201.87 -200.81 -196.54 
 769 -201.15 -198.59 -196.54 
 770 -203.00 -199.01 -196.54 
 771 -201.80 -197.54 -196.54 
 772 -202.74 -199.69 -196.54 
 773 -201.57 -201.52 -196.54 
 774 -202.86 -202.50 -196.54 
 775 -205.20 -202.91 -196.54 
 776 -199.90 -202.41 -196.54 
 777 -201.97 -201.39 -196.54 
 778 -201.63 -200.80 -196.54 
 779 -200.40 -201.12 -196.54 
 780 -200.21 -201.73 -196.54 
 781 -200.23 -203.15 -196.54 
 782 -198.02 -202.64 -196.54 
 783 -203.15 -202.34 -196.54 
 784 -200.29 -202.64 -196.54 
 785 -197.26 -201.09 -196.54 
 786 -201.14 -201.35 -196.54 
 787 -198.14 -201.91 -196.54 
 788 -198.07 -201.94 -196.54 
 789 -203.36 -201.35 -196.54 
 790 -201.97 -201.84 -196.54 
 791 -200.60 -201.66 -196.54 
 792 -200.82 -200.26 -196.54 
 793 -201.73 -203.09 -196.54 
 794 -196.64 -201.76 -196.54 
 795 -200.05 -201.34 -196.54 
 796 -199.05 -200.25 -196.54 
 797 -200.17 -199.09 -196.54 
 798 -202.24 -200.36 -196.54 
 799 -200.89 -200.36 -196.54 
 800 -199.91 -200.27 -196.54 
 801 -200.88 -197.20 -196.54 
 802 -203.61 -198.47 -196.54 
 803 -199.65 -198.29 -196.54 
 804 -200.08 -198.87 -196.54 
 805 -197.86 -199.11 -196.54 
 806 -200.31 -199.17 -196.54 
 807 -195.27 -197.80 -196.54 
 808 -200.54 -198.92 -195.27 
 809 -200.97 -198.76 -195.27 
 810 -200.14 -195.48 -195.27 
 811 -200.05 -196.46 -195.27 
 812 -200.36 -197.72 -195.27 
 813 -196.89 -195.49 -195.27 
 814 -200.46 -191.34 -195.27 
 815 -199.41 -194.18 -195.27 
 816 -199.35 -194.06 -195.27 
 817 -199.96 -195.21 -195.27 
 818 -200.49 -194.05 -195.27 
 819 -200.28 -193.85 -195.27 
 820 -196.37 -192.62 -195.27 
 821 -199.55 -194.19 -195.27 
 822 -201.52 -193.91 -195.27 
 823 -201.36 -193.96 -195.27 
 824 -200.94 -193.90 -195.27 
 825 -198.85 -192.36 -195.27 
 826 -203.81 -192.37 -195.27 
 827 -199.70 -192.33 -195.27 
 828 -203.56 -194.10 -195.27 
 829 -198.79 -194.04 -195.27 
 830 -200.66 -192.34 -195.27 
 831 -201.43 -192.11 -195.27 
 832 -202.94 -193.55 -195.27 
 833 -195.40 -193.62 -195.27 
 834 -198.99 -190.98 -195.27 
 835 -198.17 -189.17 -195.27 
 836 -199.11 -188.99 -195.27 
 837 -199.30 -191.53 -195.27 
 838 -198.32 -192.85 -195.27 
 839 -198.60 -193.37 -195.27 
 840 -201.70 -190.55 -195.27 
 841 -200.22 -190.86 -195.27 
 842 -197.88 -192.60 -195.27 
 843 -198.52 -193.62 -195.27 
 844 -197.92 -191.70 -195.27 
 845 -203.04 -191.78 -195.27 
 846 -202.84 -190.40 -195.27 
 847 -196.26 -191.68 -195.27 
 848 -199.68 -192.48 -195.27 
 849 -198.65 -194.63 -195.27 
 850 -198.60 -195.78 -195.27 
 851 -204.37 -190.53 -195.27 
 852 -198.45 -194.11 -195.27 
 853 -200.47 -194.48 -195.27 
 854 -201.77 -194.30 -195.27 
 855 -199.16 -195.64 -195.27 
 856 -199.37 -192.85 -195.27 
 857 -199.48 -192.44 -195.27 
 858 -201.13 -190.89 -195.27 
 859 -200.73 -193.32 -195.27 
 860 -198.12 -193.39 -195.27 
 861 -205.17 -195.19 -195.27 
 862 -200.04 -195.31 -195.27 
 863 -200.06 -195.75 -195.27 
 864 -200.91 -193.38 -195.27 
 865 -199.48 -193.64 -195.27 
 866 -202.22 -193.58 -195.27 
 867 -200.86 -193.23 -195.27 
 868 -203.98 -192.85 -195.27 
 869 -201.96 -193.10 -195.27 
 870 -200.29 -192.76 -195.27 
 871 -199.97 -192.87 -195.27 
 872 -201.13 -193.88 -195.27 
 873 -201.28 -193.70 -195.27 
 874 -201.97 -193.75 -195.27 
 875 -198.34 -193.74 -195.27 
 876 -198.19 -193.77 -195.27 
 877 -200.23 -194.92 -195.27 
 878 -197.95 -194.81 -195.27 
 879 -201.93 -197.52 -195.27 
 880 -200.04 -194.92 -195.27 
 881 -201.40 -195.03 -195.27 
 882 -198.49 -195.36 -195.27 
 883 -201.20 -192.43 -195.27 
 884 -201.11 -196.93 -195.27 
 885 -199.94 -195.64 -195.27 
 886 -199.50 -195.17 -195.27 
 887 -201.18 -195.69 -195.27 
 888 -202.41 -195.30 -195.27 
 889 -199.93 -196.49 -195.27 
 890 -201.91 -194.91 -195.27 
 891 -199.71 -196.98 -195.27 
 892 -195.28 -196.86 -195.27 
 893 -203.66 -194.15 -195.27 
 894 -198.28 -194.40 -195.27 
 895 -198.96 -193.51 -195.27 
 896 -202.23 -193.77 -195.27 
 897 -199.04 -193.42 -195.27 
 898 -196.91 -196.82 -195.27 
 899 -197.26 -195.67 -195.27 
 900 -201.31 -195.83 -195.27 
 901 -200.55 -195.50 -195.27 
 902 -197.93 -196.19 -195.27 
 903 -200.46 -196.21 -195.27 
 904 -198.47 -194.81 -195.27 
 905 -201.27 -194.74 -195.27 
 906 -200.47 -194.89 -195.27 
 907 -200.74 -194.81 -195.27 
 908 -193.93 -195.73 -195.27 
 909 -200.30 -196.20 -193.93 
 910 -197.78 -197.95 -193.93 
 911 -199.38 -195.82 -193.93 
 912 -197.09 -197.45 -193.93 
 913 -199.88 -195.75 -193.93 
 914 -202.21 -195.78 -193.93 
 915 -199.95 -195.79 -193.93 
 916 -201.81 -195.85 -193.93 
 917 -203.83 -195.83 -193.93 
 918 -198.75 -195.90 -193.93 
 919 -197.83 -195.48 -193.93 
 920 -202.31 -195.59 -193.93 
 921 -198.79 -196.00 -193.93 
 922 -193.82 -195.40 -193.93 
 923 -196.43 -195.67 -193.82 
 924 -197.32 -195.61 -193.82 
 925 -202.46 -195.60 -193.82 
 926 -197.86 -195.53 -193.82 
 927 -198.61 -195.78 -193.82 
 928 -201.00 -195.80 -193.82 
 929 -205.15 -196.23 -193.82 
 930 -197.85 -196.64 -193.82 
 931 -196.95 -195.02 -193.82 
 932 -197.70 -193.41 -193.82 
 933 -198.00 -193.36 -193.82 
 934 -199.11 -193.24 -193.82 
 935 -196.24 -193.21 -193.82 
 936 -198.89 -194.67 -193.82 
 937 -199.17 -192.77 -193.82 
 938 -198.90 -192.85 -193.82 
 939 -195.88 -192.91 -193.82 
 940 -200.20 -193.18 -193.82 
 941 -197.32 -191.91 -193.82 
 942 -205.85 -193.04 -193.82 
 943 -201.00 -193.00 -193.82 
 944 -199.42 -193.12 -193.82 
 945 -203.04 -192.74 -193.82 
 946 -199.94 -191.26 -193.82 
 947 -198.22 -192.66 -193.82 
 948 -201.01 -192.67 -193.82 
 949 -200.27 -192.54 -193.82 
 950 -200.53 -192.42 -193.82 
 951 -200.84 -192.57 -193.82 
 952 -199.88 -192.38 -193.82 
 953 -200.46 -192.36 -193.82 
 954 -203.78 -191.56 -193.82 
 955 -199.34 -191.91 -193.82 
 956 -201.47 -194.05 -193.82 
 957 -196.07 -192.64 -193.82 
 958 -200.43 -193.77 -193.82 
 959 -197.86 -193.92 -193.82 
 960 -196.79 -191.86 -193.82 
 961 -203.82 -191.85 -193.82 
 962 -199.93 -191.73 -193.82 
 963 -197.61 -190.78 -193.82 
 964 -193.57 -191.41 -193.82 
 965 -194.98 -191.55 -193.57 
 966 -196.17 -191.64 -193.57 
 967 -202.34 -191.60 -193.57 
 968 -198.44 -193.04 -193.57 
 969 -197.96 -191.16 -193.57 
 970 -199.41 -191.53 -193.57 
 971 -198.66 -191.36 -193.57 
 972 -198.94 -191.13 -193.57 
 973 -195.99 -191.35 -193.57 
 974 -200.05 -191.41 -193.57 
 975 -199.69 -190.97 -193.57 
 976 -199.34 -191.16 -193.57 
 977 -199.08 -191.52 -193.57 
 978 -199.40 -191.23 -193.57 
 979 -201.39 -190.96 -193.57 
 980 -199.53 -191.46 -193.57 
 981 -199.02 -191.22 -193.57 
 982 -199.26 -194.64 -193.57 
 983 -201.39 -191.47 -193.57 
 984 -195.64 -192.66 -193.57 
 985 -198.55 -193.14 -193.57 
 986 -198.07 -191.25 -193.57 
 987 -196.98 -192.43 -193.57 
 988 -197.08 -192.24 -193.57 
 989 -196.54 -191.05 -193.57 
 990 -195.80 -193.38 -193.57 
 991 -199.48 -191.80 -193.57 
 992 -202.86 -189.79 -193.57 
 993 -197.56 -190.51 -193.57 
 994 -196.67 -191.26 -193.57 
 995 -196.21 -191.21 -193.57 
 996 -199.15 -193.10 -193.57 
 997 -197.38 -191.03 -193.57 
 998 -196.16 -191.56 -193.57 
 999 -199.34 -190.04 -193.57 
1000 -195.17 -192.16 -193.57 
1001 -200.28 -192.43 -193.57 
1002 -198.68 -194.02 -193.57 
1003 -194.85 -192.75 -193.57 
1004 -196.86 -192.53 -193.57 
1005 -202.31 -192.58 -193.57 
1006 -200.27 -193.03 -193.57 
1007 -199.01 -193.27 -193.57 
1008 -197.12 -193.09 -193.57 
1009 -196.40 -193.34 -193.57 
1010 -201.66 -193.29 -193.57 
1011 -200.28 -193.43 -193.57 
1012 -197.83 -193.20 -193.57 
1013 -199.23 -193.26 -193.57 
1014 -196.03 -194.53 -193.57 
1015 -201.11 -193.56 -193.57 
1016 -196.96 -193.25 -193.57 
1017 -194.71 -193.48 -193.57 
1018 -199.88 -193.98 -193.57 
1019 -197.66 -192.22 -193.57 
1020 -197.81 -192.04 -193.57 
1021 -196.65 -192.36 -193.57 
1022 -196.12 -191.00 -193.57 
1023 -200.31 -192.99 -193.57 
1024 -195.75 -192.95 -193.57 
1025 -195.19 -191.63 -193.57 
1026 -198.98 -192.87 -193.57 
1027 -197.74 -192.74 -193.57 
1028 -197.39 -193.00 -193.57 
1029 -194.44 -193.19 -193.57 
1030 -195.80 -191.53 -193.57 
1031 -203.70 -192.96 -193.57 
1032 -196.32 -192.59 -193.57 
1033 -201.11 -192.32 -193.57 
1034 -196.42 -192.59 -193.57 
1035 -194.76 -192.85 -193.57 
1036 -195.37 -192.84 -193.57 
1037 -197.33 -191.59 -193.57 
1038 -190.29 -192.85 -193.57 
1039 -195.30 -193.11 -190.29 
1040 -198.23 -194.40 -190.29 
1041 -194.58 -191.34 -190.29 
1042 -192.67 -190.80 -190.29 
1043 -195.98 -192.49 -190.29 
1044 -198.37 -192.75 -190.29 
1045 -197.49 -193.09 -190.29 
1046 -191.29 -191.92 -190.29 
1047 -194.85 -193.11 -190.29 
1048 -197.47 -192.78 -190.29 
1049 -196.00 -191.43 -190.29 
1050 -196.50 -191.32 -190.29 
1051 -200.03 -191.53 -190.29 
1052 -192.41 -191.72 -190.29 
1053 -194.24 -191.09 -190.29 
1054 -195.11 -191.28 -190.29 
1055 -197.97 -191.21 -190.29 
1056 -198.23 -190.60 -190.29 
1057 -196.72 -190.87 -190.29 
1058 -195.96 -191.08 -190.29 
1059 -194.13 -191.54 -190.29 
1060 -190.78 -191.90 -190.29 
1061 -196.31 -192.05 -190.29 
1062 -199.73 -191.77 -190.29 
1063 -196.04 -193.09 -190.29 
1064 -194.45 -193.09 -190.29 
1065 -198.13 -192.97 -190.29 
1066 -198.04 -191.31 -190.29 
1067 -194.42 -192.80 -190.29 
1068 -198.42 -191.48 -190.29 
1069 -198.65 -191.73 -190.29 
1070 -196.68 -193.23 -190.29 
1071 -195.56 -193.39 -190.29 
1072 -199.53 -191.80 -190.29 
1073 -199.16 -191.49 -190.29 
1074 -197.14 -189.93 -190.29 
1075 -198.57 -192.96 -190.29 
1076 -197.79 -190.24 -190.29 
1077 -196.54 -190.19 -190.29 
1078 -203.29 -190.07 -190.29 
1079 -194.10 -189.83 -190.29 
1080 -195.52 -190.60 -190.29 
1081 -193.31 -190.54 -190.29 
1082 -194.66 -189.12 -190.29 
1083 -195.21 -187.43 -190.29 
1084 -195.29 -190.43 -190.29 
1085 -196.28 -188.83 -190.29 
1086 -196.34 -189.16 -190.29 
1087 -196.05 -189.62 -190.29 
1088 -203.09 -189.39 -190.29 
1089 -196.11 -188.08 -190.29 
1090 -191.88 -189.10 -190.29 
1091 -194.11 -187.33 -190.29 
1092 -192.61 -189.15 -190.29 
1093 -198.00 -188.28 -190.29 
1094 -194.47 -188.50 -190.29 
1095 -195.85 -187.22 -190.29 
1096 -192.09 -186.05 -190.29 
1097 -195.52 -187.25 -190.29 
1098 -190.13 -186.97 -190.29 
1099 -198.62 -187.08 -190.13 
1100 -193.14 -188.01 -190.13 
1101 -193.49 -189.72 -190.13 
1102 -196.40 -187.91 -190.13 
1103 -195.41 -190.77 -190.13 
1104 -193.11 -189.07 -190.13 
1105 -196.15 -186.57 -190.13 
1106 -194.36 -187.97 -190.13 
1107 -192.25 -189.53 -190.13 
1108 -195.45 -189.29 -190.13 
1109 -196.97 -189.26 -190.13 
1110 -192.23 -187.76 -190.13 
1111 -189.47 -188.97 -190.13 
1112 -195.23 -188.90 -189.47 
1113 -192.36 -190.52 -189.47 
1114 -195.62 -189.47 -189.47 
1115 -194.40 -188.36 -189.47 
1116 -193.36 -189.74 -189.47 
1117 -192.31 -188.49 -189.47 
1118 -195.95 -187.05 -189.47 
1119 -193.60 -188.58 -189.47 
1120 -190.22 -188.56 -189.47 
1121 -198.14 -188.78 -189.47 
1122 -194.84 -188.86 -189.47 
1123 -192.80 -189.08 -189.47 
1124 -198.35 -186.04 -189.47 
1125 -191.18 -187.29 -189.47 
1126 -196.10 -188.48 -189.47 
1127 -197.09 -189.70 -189.47 
1128 -194.71 -190.94 -189.47 
1129 -196.47 -190.76 -189.47 
1130 -197.66 -188.04 -189.47 
1131 -193.89 -189.44 -189.47 
1132 -191.98 -190.90 -189.47 
1133 -195.74 -190.42 -189.47 
1134 -191.88 -189.36 -189.47 
1135 -195.48 -189.85 -189.47 
1136 -192.32 -188.41 -189.47 
1137 -193.74 -189.12 -189.47 
1138 -194.93 -190.53 -189.47 
1139 -194.32 -187.78 -189.47 
1140 -196.33 -189.13 -189.47 
1141 -195.73 -189.11 -189.47 
1142 -194.28 -188.96 -189.47 
1143 -200.02 -188.85 -189.47 
1144 -194.12 -187.63 -189.47 
1145 -191.70 -187.29 -189.47 
1146 -193.23 -188.50 -189.47 
1147 -192.42 -186.96 -189.47 
1148 -193.56 -188.33 -189.47 
1149 -191.12 -188.38 -189.47 
1150 -194.68 -186.43 -189.47 
1151 -191.12 -188.49 -189.47 
1152 -197.50 -189.93 -189.47 
1153 -191.95 -188.75 -189.47 
1154 -193.29 -189.12 -189.47 
1155 -195.05 -188.97 -189.47 
1156 -197.63 -189.02 -189.47 
1157 -197.74 -189.15 -189.47 
1158 -192.02 -188.53 -189.47 
1159 -196.23 -190.18 -189.47 
1160 -190.45 -188.57 -189.47 
1161 -192.60 -188.56 -189.47 
1162 -190.84 -188.80 -189.47 
1163 -198.68 -188.63 -189.47 
1164 -198.34 -188.52 -189.47 
1165 -194.33 -190.26 -189.47 
1166 -193.76 -188.63 -189.47 
1167 -195.56 -188.68 -189.47 
1168 -192.76 -188.62 -189.47 
1169 -198.31 -188.01 -189.47 
1170 -192.19 -186.32 -189.47 
1171 -190.93 -188.09 -189.47 
1172 -193.53 -186.70 -189.47 
1173 -195.11 -188.51 -189.47 
1174 -191.62 -186.96 -189.47 
1175 -197.45 -188.78 -189.47 
1176 -193.64 -188.58 -189.47 
1177 -196.92 -190.05 -189.47 
1178 -192.66 -187.88 -189.47 
1179 -196.00 -189.26 -189.47 
1180 -197.03 -187.72 -189.47 
1181 -194.66 -187.51 -189.47 
1182 -190.09 -187.71 -189.47 
1183 -193.25 -189.33 -189.47 
1184 -195.91 -187.72 -189.47 
1185 -193.20 -187.02 -189.47 
1186 -194.53 -186.50 -189.47 
1187 -190.81 -186.97 -189.47 
1188 -194.03 -188.13 -189.47 
1189 -193.87 -186.99 -189.47 
1190 -197.91 -187.18 -189.47 
1191 -196.82 -187.29 -189.47 
1192 -195.16 -187.53 -189.47 
1193 -193.56 -187.28 -189.47 
1194 -195.65 -186.78 -189.47 
1195 -193.27 -189.04 -189.47 
1196 -191.82 -187.35 -189.47 
1197 -190.71 -187.77 -189.47 
1198 -197.22 -187.41 -189.47 
1199 -189.64 -187.61 -189.47 
1200 -197.53 -189.01 -189.47 
1201 -195.06 -188.49 -189.47 
1202 -197.89 -188.48 -189.47 
1203 -196.20 -188.66 -189.47 
1204 -195.15 -189.25 -189.47 
1205 -195.62 -189.19 -189.47 
1206 -190.00 -187.49 -189.47 
1207 -193.04 -186.30 -189.47 
1208 -190.81 -188.92 -189.47 
1209 -194.79 -187.25 -189.47 
1210 -195.73 -187.27 -189.47 
1211 -195.86 -187.55 -189.47 
1212 -204.22 -185.97 -189.47 
1213 -192.30 -187.48 -189.47 
1214 -196.99 -187.17 -189.47 
1215 -197.60 -187.41 -189.47 
1216 -195.48 -187.77 -189.47 
1217 -193.05 -187.82 -189.47 
1218 -196.60 -189.32 -189.47 
1219 -193.27 -187.78 -189.47 
1220 -196.98 -187.19 -189.47 
1221 -190.99 -187.14 -189.47 
1222 -193.60 -188.71 -189.47 
1223 -194.87 -187.22 -189.47 
1224 -194.85 -188.71 -189.47 
1225 -194.64 -190.20 -189.47 
1226 -192.44 -188.55 -189.47 
1227 -191.97 -187.23 -189.47 
1228 -190.89 -188.80 -189.47 
1229 -198.19 -187.26 -189.47 
1230 -194.52 -188.58 -189.47 
1231 -194.43 -188.68 -189.47 
1232 -190.04 -188.80 -189.47 
1233 -193.79 -188.51 -189.47 
1234 -192.39 -188.47 -189.47 
1235 -196.92 -189.72 -189.47 
1236 -189.99 -191.94 -189.47 
1237 -193.38 -187.78 -189.47 
1238 -191.87 -188.37 -189.47 
1239 -196.42 -189.61 -189.47 
1240 -196.64 -187.22 -189.47 
1241 -196.74 -185.82 -189.47 
1242 -193.59 -185.64 -189.47 
1243 -190.83 -185.82 -189.47 
1244 -191.17 -186.00 -189.47 
1245 -193.31 -186.27 -189.47 
1246 -194.40 -185.66 -189.47 
1247 -195.37 -186.53 -189.47 
1248 -191.42 -186.28 -189.47 
1249 -194.84 -187.84 -189.47 
1250 -192.35 -187.71 -189.47 
1251 -189.09 -187.48 -189.47 
1252 -194.90 -187.22 -189.09 
1253 -193.30 -187.42 -189.09 
1254 -195.36 -187.28 -189.09 
1255 -191.07 -188.47 -189.09 
1256 -194.39 -187.86 -189.09 
1257 -191.26 -187.86 -189.09 
1258 -194.48 -186.41 -189.09 
1259 -195.18 -187.56 -189.09 
1260 -195.31 -187.44 -189.09 
1261 -194.38 -186.48 -189.09 
1262 -194.43 -186.23 -189.09 
1263 -194.91 -190.47 -189.09 
1264 -193.53 -190.03 -189.09 
1265 -196.02 -190.39 -189.09 
1266 -194.62 -188.83 -189.09 
1267 -191.67 -187.70 -189.09 
1268 -195.08 -188.22 -189.09 
1269 -190.60 -188.43 -189.09 
1270 -192.05 -186.52 -189.09 
1271 -191.41 -184.96 -189.09 
1272 -193.87 -186.70 -189.09 
1273 -195.38 -184.83 -189.09 
1274 -190.05 -186.41 -189.09 
1275 -193.09 -187.93 -189.09 
1276 -197.23 -188.14 -189.09 
1277 -198.16 -188.40 -189.09 
1278 -193.77 -186.73 -189.09 
1279 -196.16 -185.13 -189.09 
1280 -193.88 -188.12 -189.09 
1281 -194.89 -186.49 -189.09 
1282 -195.09 -187.98 -189.09 
1283 -193.60 -187.63 -189.09 
1284 -195.43 -185.86 -189.09 
1285 -194.29 -186.24 -189.09 
1286 -193.89 -186.22 -189.09 
1287 -194.19 -186.33 -189.09 
1288 -196.16 -185.98 -189.09 
1289 -185.50 -186.26 -189.09 
1290 -191.45 -186.87 -185.50 
1291 -193.90 -186.92 -185.50 
1292 -190.68 -188.63 -185.50 
1293 -191.62 -187.46 -185.50 
1294 -188.79 -185.92 -185.50 
1295 -195.40 -187.21 -185.50 
1296 -193.52 -187.23 -185.50 
1297 -189.31 -185.54 -185.50 
1298 -190.38 -187.05 -185.50 
1299 -196.54 -186.57 -185.50 
1300 -189.61 -185.38 -185.50 
1301 -190.00 -185.14 -185.50 
1302 -196.91 -185.17 -185.50 
1303 -193.50 -185.38 -185.50 
1304 -191.39 -187.06 -185.50 
1305 -193.27 -184.16 -185.50 
1306 -192.32 -183.83 -185.50 
1307 -188.84 -184.33 -185.50 
1308 -194.15 -184.33 -185.50 
1309 -192.74 -187.68 -185.50 
1310 -192.90 -187.54 -185.50 
1311 -191.12 -184.73 -185.50 
1312 -194.51 -187.38 -185.50 
1313 -190.21 -186.94 -185.50 
1314 -191.12 -185.33 -185.50 
1315 -189.25 -186.88 -185.50 
1316 -194.63 -186.85 -185.50 
1317 -192.24 -188.22 -185.50 
1318 -191.62 -185.36 -185.50 
1319 -190.82 -185.32 -185.50 
1320 -192.35 -185.60 -185.50 
1321 -194.98 -185.92 -185.50 
1322 -193.58 -185.58 -185.50 
1323 -192.37 -185.69 -185.50 
1324 -190.18 -183.89 -185.50 
1325 -189.21 -185.31 -185.50 
1326 -189.32 -185.18 -185.50 
1327 -191.26 -183.99 -185.50 
1328 -192.96 -183.71 -185.50 
1329 -192.33 -183.73 -185.50 
1330 -194.85 -186.84 -185.50 
1331 -190.60 -186.65 -185.50 
1332 -190.83 -186.98 -185.50 
1333 -196.14 -187.35 -185.50 
1334 -192.10 -186.97 -185.50 
1335 -192.38 -186.96 -185.50 
1336 -189.67 -185.49 -185.50 
1337 -192.90 -185.72 -185.50 
1338 -189.26 -185.66 -185.50 
1339 -189.44 -185.84 -185.50 
1340 -190.63 -187.47 -185.50 
1341 -190.28 -186.26 -185.50 
1342 -189.51 -186.08 -185.50 
1343 -192.06 -186.33 -185.50 
1344 -191.79 -186.35 -185.50 
1345 -194.76 -186.38 -185.50 
1346 -191.84 -185.98 -185.50 
1347 -193.17 -185.98 -185.50 
1348 -192.69 -186.18 -185.50 
1349 -191.59 -184.73 -185.50 
1350 -192.73 -184.48 -185.50 
1351 -191.78 -184.23 -185.50 
1352 -188.29 -184.41 -185.50 
1353 -197.02 -183.94 -185.50 
1354 -195.40 -185.90 -185.50 
1355 -192.34 -184.93 -185.50 
1356 -190.04 -185.00 -185.50 
1357 -192.14 -185.91 -185.50 
1358 -192.76 -186.50 -185.50 
1359 -193.83 -186.18 -185.50 
1360 -192.46 -186.98 -185.50 
1361 -192.94 -183.33 -185.50 
1362 -187.89 -183.81 -185.50 
1363 -193.88 -183.58 -185.50 
1364 -191.05 -185.39 -185.50 
1365 -192.15 -185.32 -185.50 
1366 -190.46 -186.73 -185.50 
1367 -194.42 -184.45 -185.50 
1368 -190.52 -186.01 -185.50 
1369 -195.25 -184.83 -185.50 
1370 -193.00 -184.95 -185.50 
1371 -193.35 -187.00 -185.50 
1372 -192.02 -185.08 -185.50 
1373 -188.33 -186.27 -185.50 
1374 -189.67 -186.22 -185.50 
1375 -188.72 -186.57 -185.50 
1376 -187.81 -186.54 -185.50 
1377 -191.17 -186.66 -185.50 
1378 -189.17 -186.66 -185.50 
1379 -190.62 -186.76 -185.50 
1380 -189.20 -185.62 -185.50 
1381 -190.10 -184.37 -185.50 
1382 -189.51 -184.75 -185.50 
1383 -190.74 -184.38 -185.50 
1384 -192.61 -184.35 -185.50 
1385 -191.69 -184.55 -185.50 
1386 -188.06 -185.93 -185.50 
1387 -192.25 -185.86 -185.50 
1388 -189.26 -185.86 -185.50 
1389 -193.14 -185.62 -185.50 
1390 -190.09 -186.80 -185.50 
1391 -192.80 -185.66 -185.50 
1392 -194.72 -185.51 -185.50 
1393 -188.96 -185.67 -185.50 
1394 -192.66 -185.69 -185.50 
1395 -191.66 -185.24 -185.50 
1396 -190.41 -185.32 -185.50 
1397 -189.59 -185.13 -185.50 
1398 -190.87 -184.88 -185.50 
1399 -191.32 -185.07 -185.50 
1400 -193.61 -186.81 -185.50 
1401 -193.23 -186.44 -185.50 
1402 -189.15 -186.40 -185.50 
1403 -189.34 -188.18 -185.50 
1404 -189.87 -184.08 -185.50 
1405 -188.01 -185.11 -185.50 
1406 -189.83 -185.03 -185.50 
1407 -194.60 -185.32 -185.50 
1408 -194.37 -184.78 -185.50 
1409 -190.10 -183.49 -185.50 
1410 -194.64 -183.10 -185.50 
1411 -192.71 -183.09 -185.50 
1412 -192.36 -183.24 -185.50 
1413 -192.52 -182.86 -185.50 
1414 -194.92 -185.35 -185.50 
1415 -189.32 -186.92 -185.50 
1416 -189.73 -182.87 -185.50 
1417 -195.16 -183.10 -185.50 
1418 -190.34 -184.62 -185.50 
1419 -190.88 -184.37 -185.50 
1420 -189.46 -184.48 -185.50 
1421 -192.93 -184.18 -185.50 
1422 -191.67 -183.89 -185.50 
1423 -193.76 -183.68 -185.50 
1424 -191.71 -183.86 -185.50 
1425 -188.87 -185.23 -185.50 
1426 -185.44 -185.19 -185.50 
1427 -190.12 -183.96 -185.44 
1428 -191.75 -183.97 -185.44 
1429 -189.31 -183.91 -185.44 
1430 -189.54 -184.19 -185.44 
1431 -194.01 -184.06 -185.44 
1432 -189.98 -183.80 -185.44 
1433 -193.28 -184.07 -185.44 
1434 -192.22 -183.91 -185.44 
1435 -194.18 -184.49 -185.44 
1436 -189.06 -184.14 -185.44 
1437 -190.48 -183.77 -185.44 
1438 -190.02 -184.05 -185.44 
1439 -194.96 -184.26 -185.44 
1440 -192.45 -186.01 -185.44 
1441 -191.40 -184.91 -185.44 
1442 -189.97 -184.62 -185.44 
1443 -188.96 -184.76 -185.44 
1444 -190.21 -184.75 -185.44 
1445 -188.71 -184.59 -185.44 
1446 -191.57 -184.45 -185.44 
1447 -194.51 -184.69 -185.44 
1448 -188.73 -184.90 -185.44 
1449 -192.39 -184.87 -185.44 
1450 -194.04 -184.73 -185.44 
1451 -191.64 -184.62 -185.44 
1452 -189.85 -182.78 -185.44 
1453 -191.70 -182.79 -185.44 
1454 -194.44 -183.10 -185.44 
1455 -193.06 -183.86 -185.44 
1456 -195.27 -184.74 -185.44 
1457 -191.27 -182.73 -185.44 
1458 -187.96 -183.13 -185.44 
1459 -192.57 -183.49 -185.44 
1460 -191.47 -183.71 -185.44 
1461 -193.12 -184.03 -185.44 
1462 -189.76 -184.29 -185.44 
1463 -191.78 -183.54 -185.44 
1464 -195.08 -183.57 -185.44 
1465 -190.93 -183.33 -185.44 
1466 -193.09 -183.51 -185.44 
1467 -187.09 -183.68 -185.44 
1468 -190.83 -186.38 -185.44 
1469 -186.35 -186.22 -185.44 
1470 -191.58 -185.07 -185.44 
1471 -191.42 -183.60 -185.44 
1472 -190.16 -186.44 -185.44 
1473 -189.82 -186.84 -185.44 
1474 -188.47 -184.80 -185.44 
1475 -188.22 -186.41 -185.44 
1476 -190.22 -186.79 -185.44 
1477 -193.70 -188.14 -185.44 
1478 -190.42 -185.55 -185.44 
1479 -194.03 -185.60 -185.44 
1480 -190.27 -185.81 -185.44 
1481 -194.17 -185.56 -185.44 
1482 -190.77 -185.46 -185.44 
1483 -191.63 -186.62 -185.44 
1484 -192.93 -185.96 -185.44 
1485 -190.25 -185.66 -185.44 
1486 -193.94 -186.96 -185.44 
1487 -192.23 -185.22 -185.44 
1488 -191.15 -185.26 -185.44 
1489 -190.93 -185.48 -185.44 
1490 -192.27 -184.89 -185.44 
1491 -190.23 -185.72 -185.44 
1492 -191.98 -186.09 -185.44 
1493 -190.38 -186.13 -185.44 
1494 -192.15 -186.70 -185.44 
1495 -189.72 -185.52 -185.44 
1496 -190.92 -185.87 -185.44 
1497 -193.33 -185.42 -185.44 
1498 -192.36 -186.42 -185.44 
1499 -191.92 -184.89 -185.44 
1500 -192.95 -186.16 -185.44 
1501 -191.77 -186.08 -185.44 
1502 -190.02 -184.74 -185.44 
1503 -189.22 -184.80 -185.44 
1504 -192.82 -184.77 -185.44 
1505 -190.40 -184.58 -185.44 
1506 -189.91 -185.79 -185.44 
1507 -183.98 -186.01 -185.44 
1508 -190.85 -185.80 -183.98 
1509 -189.76 -184.83 -183.98 
1510 -188.98 -186.41 -183.98 
1511 -190.47 -185.37 -183.98 
1512 -190.86 -185.23 -183.98 
1513 -190.93 -186.33 -183.98 
1514 -190.11 -184.85 -183.98 
1515 -186.65 -186.30 -183.98 
1516 -190.40 -185.67 -183.98 
1517 -188.59 -185.53 -183.98 
1518 -190.67 -185.53 -183.98 
1519 -189.38 -184.55 -183.98 
1520 -193.42 -184.58 -183.98 
1521 -193.18 -186.04 -183.98 
1522 -194.37 -185.17 -183.98 
1523 -188.02 -185.42 -183.98 
1524 -190.46 -184.49 -183.98 
1525 -189.96 -184.25 -183.98 
1526 -193.09 -184.13 -183.98 
1527 -190.51 -185.33 -183.98 
1528 -191.93 -184.97 -183.98 
1529 -188.27 -186.18 -183.98 
1530 -191.46 -184.78 -183.98 
1531 -187.95 -184.79 -183.98 
1532 -191.20 -183.47 -183.98 
1533 -193.21 -183.54 -183.98 
1534 -194.30 -183.72 -183.98 
1535 -191.86 -183.75 -183.98 
1536 -193.28 -183.79 -183.98 
1537 -194.24 -183.86 -183.98 
1538 -187.99 -184.04 -183.98 
1539 -189.33 -183.91 -183.98 
1540 -191.61 -183.82 -183.98 
1541 -190.57 -183.87 -183.98 
1542 -194.47 -184.31 -183.98 
1543 -195.55 -184.21 -183.98 
1544 -193.24 -183.92 -183.98 
1545 -190.15 -184.01 -183.98 
1546 -186.52 -185.27 -183.98 
1547 -193.77 -183.93 -183.98 
1548 -190.91 -183.98 -183.98 
1549 -187.45 -185.51 -183.98 
1550 -188.17 -183.48 -183.98 
1551 -191.11 -183.80 -183.98 
1552 -189.56 -185.52 -183.98 
1553 -187.82 -183.70 -183.98 
1554 -194.13 -183.78 -183.98 
1555 -187.70 -185.51 -183.98 
1556 -189.52 -184.06 -183.98 
1557 -191.33 -184.26 -183.98 
1558 -190.25 -185.43 -183.98 
1559 -187.90 -184.14 -183.98 
1560 -191.01 -184.26 -183.98 
1561 -188.19 -184.17 -183.98 
1562 -191.41 -184.20 -183.98 
1563 -190.83 -184.20 -183.98 
1564 -193.36 -184.12 -183.98 
1565 -191.33 -184.17 -183.98 
1566 -189.27 -183.77 -183.98 
1567 -193.89 -183.95 -183.98 
1568 -189.27 -184.49 -183.98 
1569 -190.29 -184.15 -183.98 
1570 -189.37 -185.39 -183.98 
1571 -191.62 -185.02 -183.98 
1572 -190.97 -185.10 -183.98 
1573 -193.83 -185.04 -183.98 
1574 -188.98 -185.02 -183.98 
1575 -190.73 -185.35 -183.98 
1576 -186.81 -185.60 -183.98 
1577 -191.46 -185.59 -183.98 
1578 -191.26 -183.92 -183.98 
1579 -191.35 -185.42 -183.98 
1580 -194.01 -183.96 -183.98 
1581 -191.15 -184.01 -183.98 
1582 -191.22 -183.99 -183.98 
1583 -191.68 -184.14 -183.98 
1584 -190.72 -186.97 -183.98 
1585 -189.36 -185.78 -183.98 
1586 -190.54 -185.55 -183.98 
1587 -192.04 -185.53 -183.98 
1588 -189.91 -186.65 -183.98 
1589 -190.69 -185.46 -183.98 
1590 -189.28 -185.48 -183.98 
1591 -189.65 -185.23 -183.98 
1592 -187.58 -184.89 -183.98 
1593 -193.62 -184.66 -183.98 
1594 -189.88 -184.42 -183.98 
1595 -189.83 -184.44 -183.98 
1596 -188.20 -184.44 -183.98 
1597 -188.92 -184.42 -183.98 
1598 -191.07 -184.76 -183.98 
1599 -190.90 -185.05 -183.98 
1600 -189.58 -183.65 -183.98 
1601 -191.70 -183.81 -183.98 
1602 -188.67 -185.62 -183.98 
1603 -192.08 -185.80 -183.98 
1604 -187.22 -185.86 -183.98 
1605 -191.66 -184.52 -183.98 
1606 -189.74 -184.76 -183.98 
1607 -192.93 -186.17 -183.98 
1608 -188.80 -184.85 -183.98 
1609 -193.49 -186.29 -183.98 
1610 -191.09 -184.80 -183.98 
1611 -187.01 -185.17 -183.98 
1612 -187.42 -185.16 -183.98 
1613 -188.30 -185.10 -183.98 
1614 -191.78 -186.44 -183.98 
1615 -187.04 -184.98 -183.98 
1616 -189.46 -186.10 -183.98 
1617 -193.83 -186.00 -183.98 
1618 -190.54 -185.62 -183.98 
1619 -190.07 -185.40 -183.98 
1620 -189.21 -185.56 -183.98 
1621 -187.27 -185.51 -183.98 
1622 -190.21 -184.88 -183.98 
1623 -191.63 -185.57 -183.98 
1624 -190.23 -185.48 -183.98 
1625 -188.94 -185.29 -183.98 
1626 -189.82 -185.54 -183.98 
1627 -192.18 -185.60 -183.98 
1628 -186.76 -185.59 -183.98 
1629 -188.84 -185.38 -183.98 
1630 -190.76 -185.40 -183.98 
1631 -190.58 -183.82 -183.98 
1632 -190.89 -185.30 -183.98 
1633 -189.02 -185.13 -183.98 
1634 -190.85 -185.02 -183.98 
1635 -188.01 -184.88 -183.98 
1636 -186.95 -184.74 -183.98 
1637 -186.54 -184.86 -183.98 
1638 -192.79 -184.59 -183.98 
1639 -190.63 -184.77 -183.98 
1640 -188.99 -184.63 -183.98 
1641 -191.54 -184.72 -183.98 
1642 -189.85 -184.56 -183.98 
1643 -186.99 -184.18 -183.98 
1644 -188.89 -185.72 -183.98 
1645 -188.43 -187.09 -183.98 
1646 -187.73 -185.55 -183.98 
1647 -188.92 -184.18 -183.98 
1648 -188.83 -184.17 -183.98 
1649 -186.72 -185.38 -183.98 
1650 -188.24 -186.56 -183.98 
1651 -186.78 -183.93 -183.98 
1652 -189.39 -185.12 -183.98 
1653 -191.47 -183.31 -183.98 
1654 -191.13 -183.73 -183.98 
1655 -190.21 -183.80 -183.98 
1656 -191.39 -183.80 -183.98 
1657 -190.05 -183.86 -183.98 
1658 -190.35 -184.07 -183.98 
1659 -192.23 -183.87 -183.98 
1660 -189.79 -183.77 -183.98 
1661 -189.88 -183.84 -183.98 
1662 -190.66 -184.25 -183.98 
1663 -192.14 -184.67 -183.98 
1664 -191.59 -184.48 -183.98 
1665 -193.10 -184.40 -183.98 
1666 -191.10 -184.13 -183.98 
1667 -189.01 -184.38 -183.98 
1668 -185.57 -184.64 -183.98 
1669 -191.45 -185.19 -183.98 
1670 -188.78 -184.81 -183.98 
1671 -190.13 -184.84 -183.98 
1672 -183.32 -185.34 -183.98 
1673 -189.01 -185.43 -183.32 
1674 -190.34 -185.38 -183.32 
1675 -187.93 -185.24 -183.32 
1676 -188.58 -185.61 -183.32 
1677 -187.84 -186.55 -183.32 
1678 -186.60 -185.70 -183.32 
1679 -190.76 -186.01 -183.32 
1680 -190.03 -186.17 -183.32 
1681 -192.26 -184.84 -183.32 
1682 -191.23 -185.81 -183.32 
1683 -189.40 -185.87 -183.32 
1684 -187.00 -185.07 -183.32 
1685 -189.10 -184.88 -183.32 
1686 -190.32 -184.58 -183.32 
1687 -191.06 -184.53 -183.32 
1688 -189.22 -184.97 -183.32 
1689 -186.44 -185.84 -183.32 
1690 -185.84 -186.83 -183.32 
1691 -190.00 -186.78 -183.32 
1692 -191.23 -185.67 -183.32 
1693 -190.48 -186.14 -183.32 
1694 -184.40 -186.29 -183.32 
1695 -189.01 -187.31 -183.32 
1696 -188.83 -186.08 -183.32 
1697 -186.78 -184.91 -183.32 
1698 -189.18 -185.96 -183.32 
1699 -191.33 -185.87 -183.32 
1700 -188.14 -185.73 -183.32 
1701 -190.11 -185.60 -183.32 
1702 -185.57 -186.00 -183.32 
1703 -187.31 -186.47 -183.32 
1704 -189.80 -186.80 -183.32 
1705 -188.02 -184.97 -183.32 
1706 -188.26 -186.18 -183.32 
1707 -188.92 -186.62 -183.32 
1708 -189.63 -186.69 -183.32 
1709 -192.21 -186.52 -183.32 
1710 -190.67 -185.06 -183.32 
1711 -187.70 -186.83 -183.32 
1712 -189.36 -185.24 -183.32 
1713 -189.55 -186.48 -183.32 
1714 -186.61 -185.21 -183.32 
1715 -191.11 -185.42 -183.32 
1716 -188.37 -185.39 -183.32 
1717 -187.56 -185.15 -183.32 
1718 -185.54 -183.79 -183.32 
1719 -188.26 -184.19 -183.32 
1720 -188.56 -183.68 -183.32 
1721 -190.14 -183.72 -183.32 
1722 -191.10 -185.07 -183.32 
1723 -189.39 -183.04 -183.32 
1724 -191.67 -185.15 -183.32 
1725 -189.30 -183.47 -183.32 
1726 -192.16 -183.93 -183.32 
1727 -187.82 -183.95 -183.32 
1728 -191.60 -183.56 -183.32 
1729 -190.05 -183.56 -183.32 
1730 -185.24 -184.07 -183.32 
1731 -188.34 -184.29 -183.32 
1732 -185.01 -184.04 -183.32 
1733 -185.86 -183.94 -183.32 
1734 -186.88 -183.88 -183.32 
1735 -189.46 -183.95 -183.32 
1736 -186.64 -183.63 -183.32 
1737 -189.25 -183.55 -183.32 
1738 -189.89 -183.74 -183.32 
1739 -191.30 -183.65 -183.32 
1740 -185.94 -183.82 -183.32 
1741 -191.95 -184.03 -183.32 
1742 -185.61 -184.24 -183.32 
1743 -190.54 -183.95 -183.32 
1744 -185.99 -183.78 -183.32 
1745 -188.17 -183.78 -183.32 
1746 -191.64 -184.08 -183.32 
1747 -190.97 -183.74 -183.32 
1748 -186.23 -183.29 -183.32 
1749 -185.67 -182.90 -183.32 
1750 -189.82 -183.01 -183.32 
1751 -189.53 -182.88 -183.32 
1752 -190.74 -182.57 -183.32 
1753 -186.18 -182.81 -183.32 
1754 -188.07 -183.04 -183.32 
1755 -189.67 -184.16 -183.32 
1756 -192.08 -182.86 -183.32 
1757 -189.69 -182.57 -183.32 
1758 -189.63 -182.39 -183.32 
1759 -188.65 -182.08 -183.32 
1760 -186.34 -181.84 -183.32 
1761 -186.20 -182.02 -183.32 
1762 -189.74 -182.18 -183.32 
1763 -189.46 -181.57 -183.32 
1764 -191.45 -181.79 -183.32 
1765 -188.09 -181.81 -183.32 
1766 -190.55 -181.88 -183.32 
1767 -189.38 -181.61 -183.32 
1768 -188.33 -183.30 -183.32 
1769 -186.99 -183.33 -183.32 
1770 -187.70 -183.50 -183.32 
1771 -188.84 -184.95 -183.32 
1772 -188.67 -182.34 -183.32 
1773 -188.61 -182.73 -183.32 
1774 -185.02 -182.91 -183.32 
1775 -188.31 -183.18 -183.32 
1776 -185.44 -183.78 -183.32 
1777 -188.63 -184.19 -183.32 
1778 -183.22 -184.24 -183.32 
1779 -187.62 -184.59 -183.22 
1780 -187.66 -183.58 -183.22 
1781 -191.71 -185.26 -183.22 
1782 -185.50 -185.07 -183.22 
1783 -185.84 -183.33 -183.22 
1784 -187.51 -185.20 -183.22 
1785 -186.95 -184.79 -183.22 
1786 -188.19 -184.50 -183.22 
1787 -191.49 -184.68 -183.22 
1788 -187.80 -182.90 -183.22 
1789 -187.09 -182.99 -183.22 
1790 -185.66 -184.58 -183.22 
1791 -191.31 -184.14 -183.22 
1792 -188.91 -184.43 -183.22 
1793 -184.15 -184.18 -183.22 
1794 -187.00 -184.16 -183.22 
1795 -187.85 -184.09 -183.22 
1796 -188.59 -183.86 -183.22 
1797 -187.48 -183.72 -183.22 
1798 -185.71 -183.49 -183.22 
1799 -188.92 -183.30 -183.22 
1800 -184.92 -183.10 -183.22 
1801 -190.71 -183.12 -183.22 
1802 -183.96 -182.82 -183.22 
1803 -188.54 -182.90 -183.22 
1804 -183.17 -183.21 -183.22 
1805 -188.42 -183.06 -183.17 
1806 -190.37 -183.35 -183.17 
1807 -187.31 -183.69 -183.17 
1808 -187.53 -185.45 -183.17 
1809 -186.62 -185.34 -183.17 
1810 -188.36 -185.47 -183.17 
1811 -189.58 -184.04 -183.17 
1812 -186.11 -184.25 -183.17 
1813 -187.43 -184.17 -183.17 
1814 -185.58 -185.60 -183.17 
1815 -187.75 -184.10 -183.17 
1816 -185.68 -184.06 -183.17 
1817 -186.33 -185.16 -183.17 
1818 -185.60 -185.09 -183.17 
1819 -188.18 -183.88 -183.17 
1820 -186.46 -185.40 -183.17 
1821 -189.60 -183.91 -183.17 
1822 -186.88 -183.80 -183.17 
1823 -190.93 -182.60 -183.17 
1824 -186.43 -184.24 -183.17 
1825 -187.59 -184.43 -183.17 
1826 -186.45 -184.38 -183.17 
1827 -190.22 -184.51 -183.17 
1828 -189.62 -186.00 -183.17 
1829 -192.47 -184.30 -183.17 
1830 -187.75 -184.26 -183.17 
1831 -187.64 -184.35 -183.17 
1832 -185.23 -184.61 -183.17 
1833 -190.99 -183.21 -183.17 
1834 -185.78 -184.82 -183.17 
1835 -186.78 -184.99 -183.17 
1836 -187.43 -183.29 -183.17 
1837 -187.15 -183.18 -183.17 
1838 -188.88 -183.46 -183.17 
1839 -186.28 -184.74 -183.17 
1840 -190.62 -181.96 -183.17 
1841 -188.23 -182.15 -183.17 
1842 -190.20 -182.02 -183.17 
1843 -188.87 -183.50 -183.17 
1844 -188.29 -181.77 -183.17 
1845 -188.87 -181.49 -183.17 
1846 -186.12 -181.64 -183.17 
1847 -187.22 -183.20 -183.17 
1848 -188.52 -183.12 -183.17 
1849 -186.08 -183.25 -183.17 
1850 -185.76 -182.77 -183.17 
1851 -187.58 -182.64 -183.17 
1852 -188.95 -182.37 -183.17 
1853 -187.42 -184.02 -183.17 
1854 -186.95 -184.11 -183.17 
1855 -185.33 -183.90 -183.17 
1856 -192.68 -184.00 -183.17 
1857 -186.38 -185.13 -183.17 
1858 -186.94 -183.95 -183.17 
1859 -189.58 -184.11 -183.17 
1860 -187.14 -184.31 -183.17 
1861 -189.52 -184.07 -183.17 
1862 -190.63 -184.23 -183.17 
1863 -188.06 -183.88 -183.17 
1864 -190.38 -185.22 -183.17 
1865 -191.21 -183.43 -183.17 
1866 -189.75 -183.70 -183.17 
1867 -191.20 -183.97 -183.17 
1868 -192.44 -183.83 -183.17 
1869 -187.72 -183.80 -183.17 
1870 -185.37 -185.21 -183.17 
1871 -189.89 -183.75 -183.17 
1872 -186.49 -185.35 -183.17 
1873 -191.12 -184.20 -183.17 
1874 -191.93 -184.38 -183.17 
1875 -189.96 -184.27 -183.17 
1876 -184.74 -184.56 -183.17 
1877 -187.42 -184.85 -183.17 
1878 -189.33 -184.83 -183.17 
1879 -185.13 -183.22 -183.17 
1880 -191.64 -183.12 -183.17 
1881 -188.55 -184.67 -183.17 
1882 -192.73 -184.52 -183.17 
1883 -183.02 -184.52 -183.17 
1884 -186.40 -184.98 -183.02 
1885 -187.97 -183.55 -183.02 
1886 -187.08 -185.10 -183.02 
1887 -187.58 -184.96 -183.02 
1888 -187.20 -185.23 -183.02 
1889 -189.29 -185.15 -183.02 
1890 -187.37 -185.12 -183.02 
1891 -188.48 -185.15 -183.02 
1892 -189.55 -185.23 -183.02 
1893 -182.58 -184.87 -183.02 
1894 -185.53 -184.79 -182.58 
1895 -189.29 -184.46 -182.58 
1896 -187.72 -184.71 -182.58 
1897 -187.11 -184.66 -182.58 
1898 -187.29 -184.67 -182.58 
1899 -187.54 -184.84 -182.58 
1900 -191.06 -185.17 -182.58 
1901 -189.19 -185.50 -182.58 
1902 -188.88 -185.63 -182.58 
1903 -185.23 -185.33 -182.58 
1904 -185.96 -185.32 -182.58 
1905 -186.64 -185.40 -182.58 
1906 -188.91 -185.09 -182.58 
1907 -186.98 -184.68 -182.58 
1908 -183.90 -182.87 -182.58 
1909 -188.43 -184.61 -182.58 
1910 -188.13 -184.70 -182.58 
1911 -188.22 -184.69 -182.58 
1912 -185.58 -182.93 -182.58 
1913 -186.88 -184.29 -182.58 
1914 -184.56 -184.41 -182.58 
1915 -186.77 -184.56 -182.58 
1916 -188.37 -184.90 -182.58 
1917 -187.47 -183.50 -182.58 
1918 -188.70 -183.88 -182.58 
1919 -187.22 -183.54 -182.58 
1920 -187.61 -184.56 -182.58 
1921 -189.24 -184.45 -182.58 
1922 -186.35 -183.29 -182.58 
1923 -187.59 -185.38 -182.58 
1924 -188.08 -184.18 -182.58 
1925 -187.14 -184.13 -182.58 
1926 -184.23 -183.92 -182.58 
1927 -183.46 -183.79 -182.58 
1928 -185.09 -183.89 -182.58 
1929 -189.71 -182.22 -182.58 
1930 -184.58 -183.56 -182.58 
1931 -182.55 -182.11 -182.58 
1932 -186.82 -185.08 -182.55 
1933 -186.20 -184.11 -182.55 
1934 -188.72 -183.95 -182.55 
1935 -190.61 -183.73 -182.55 
1936 -187.41 -183.53 -182.55 
1937 -187.98 -185.13 -182.55 
1938 -187.94 -185.44 -182.55 
1939 -183.74 -184.22 -182.55 
1940 -184.63 -184.23 -182.55 
1941 -185.51 -184.24 -182.55 
1942 -190.09 -184.18 -182.55 
1943 -188.72 -184.52 -182.55 
1944 -183.96 -183.14 -182.55 
1945 -187.96 -182.75 -182.55 
1946 -185.54 -184.17 -182.55 
1947 -189.97 -184.03 -182.55 
1948 -188.99 -184.33 -182.55 
1949 -186.71 -184.26 -182.55 
1950 -187.57 -184.15 -182.55 
1951 -186.85 -184.24 -182.55 
1952 -187.51 -184.41 -182.55 
1953 -186.10 -184.25 -182.55 
1954 -188.89 -184.29 -182.55 
1955 -184.23 -184.38 -182.55 
1956 -189.43 -184.50 -182.55 
1957 -190.21 -184.50 -182.55 
1958 -185.41 -184.49 -182.55 
1959 -186.82 -186.24 -182.55 
1960 -188.06 -184.82 -182.55 
1961 -189.31 -181.98 -182.55 
1962 -184.52 -183.70 -182.55 
1963 -185.55 -183.69 -182.55 
1964 -185.52 -185.03 -182.55 
1965 -186.19 -185.16 -182.55 
1966 -183.69 -185.54 -182.55 
1967 -184.00 -184.00 -182.55 
1968 -187.28 -184.19 -182.55 
1969 -183.87 -185.33 -182.55 
1970 -191.21 -183.80 -182.55 
1971 -182.90 -183.98 -182.55 
1972 -183.70 -183.88 -182.55 
1973 -184.96 -184.09 -182.55 
1974 -186.55 -185.40 -182.55 
1975 -189.52 -185.63 -182.55 
1976 -188.61 -183.82 -182.55 
1977 -185.37 -184.02 -182.55 
1978 -187.09 -184.19 -182.55 
1979 -184.88 -182.67 -182.55 
1980 -188.37 -184.30 -182.55 
1981 -188.78 -182.74 -182.55 
1982 -183.75 -184.12 -182.55 
1983 -184.43 -183.90 -182.55 
1984 -188.55 -185.12 -182.55 
1985 -185.55 -182.26 -182.55 
1986 -188.03 -184.02 -182.55 
1987 -189.75 -186.82 -182.55 
1988 -187.17 -185.25 -182.55 
1989 -185.10 -185.17 -182.55 
1990 -187.21 -185.20 -182.55 
1991 -186.81 -185.39 -182.55 
1992 -187.30 -185.51 -182.55 
1993 -184.32 -187.20 -182.55 
1994 -186.53 -187.39 -182.55 
1995 -186.14 -184.67 -182.55 
1996 -183.62 -186.49 -182.55 
1997 -185.12 -183.71 -182.55 
1998 -185.94 -185.23 -182.55 
1999 -187.91 -183.67 -182.55 
2000 -186.91 -186.50 -182.55 
2001 -183.64 -186.23 -182.55 
2002 -185.70 -186.33 -182.55 
2003 -186.45 -185.98 -182.55 
2004 -184.69 -185.70 -182.55 
2005 -186.99 -186.10 -182.55 
2006 -182.49 -185.82 -182.55 
2007 -186.68 -185.89 -182.49 
2008 -185.09 -185.69 -182.49 
2009 -186.66 -185.76 -182.49 
2010 -188.02 -185.55 -182.49 
2011 -188.80 -185.34 -182.49 
2012 -185.42 -183.85 -182.49 
2013 -184.78 -185.34 -182.49 
2014 -183.79 -186.97 -182.49 
2015 -187.03 -183.65 -182.49 
2016 -186.26 -183.94 -182.49 
2017 -188.25 -185.36 -182.49 
2018 -185.26 -183.74 -182.49 
2019 -185.02 -185.35 -182.49 
2020 -187.54 -182.37 -182.49 
2021 -185.72 -183.71 -182.49 
2022 -187.75 -183.88 -182.49 
2023 -191.25 -183.98 -182.49 
2024 -187.12 -183.96 -182.49 
2025 -186.25 -184.01 -182.49 
2026 -184.64 -183.60 -182.49 
2027 -186.42 -183.64 -182.49 
2028 -187.05 -183.40 -182.49 
2029 -188.73 -184.81 -182.49 
2030 -188.94 -184.71 -182.49 
2031 -187.62 -184.72 -182.49 
2032 -187.93 -183.25 -182.49 
2033 -187.43 -183.03 -182.49 
2034 -186.97 -183.29 -182.49 
2035 -187.89 -184.55 -182.49 
2036 -189.83 -182.83 -182.49 
2037 -191.21 -185.70 -182.49 
2038 -186.93 -185.32 -182.49 
2039 -188.39 -185.09 -182.49 
2040 -189.21 -185.58 -182.49 
2041 -188.74 -185.44 -182.49 
2042 -187.32 -185.23 -182.49 
2043 -185.66 -185.48 -182.49 
2044 -185.59 -185.65 -182.49 
2045 -186.07 -186.09 -182.49 
2046 -189.43 -184.76 -182.49 
2047 -186.73 -184.86 -182.49 
2048 -190.55 -185.80 -182.49 
2049 -191.17 -185.90 -182.49 
2050 -183.09 -186.05 -182.49 
2051 -184.73 -185.93 -182.49 
2052 -187.80 -183.19 -182.49 
2053 -187.34 -183.33 -182.49 
2054 -185.98 -183.22 -182.49 
2055 -184.19 -183.04 -182.49 
2056 -184.96 -181.73 -182.49 
2057 -187.89 -186.06 -182.49 
2058 -187.16 -183.19 -182.49 
2059 -184.00 -183.08 -182.49 
2060 -187.37 -184.18 -182.49 
2061 -184.49 -184.14 -182.49 
2062 -183.45 -184.03 -182.49 
2063 -186.91 -184.07 -182.49 
2064 -186.05 -184.26 -182.49 
2065 -185.62 -184.37 -182.49 
2066 -184.75 -184.36 -182.49 
2067 -189.43 -182.63 -182.49 
2068 -184.25 -182.68 -182.49 
2069 -186.51 -184.42 -182.49 
2070 -186.52 -184.14 -182.49 
2071 -189.04 -184.27 -182.49 
2072 -185.49 -184.49 -182.49 
2073 -187.61 -184.33 -182.49 
2074 -185.28 -184.33 -182.49 
2075 -187.41 -184.49 -182.49 
2076 -188.26 -184.54 -182.49 
2077 -188.73 -184.41 -182.49 
2078 -187.52 -184.43 -182.49 
2079 -184.98 -182.88 -182.49 
2080 -180.53 -182.81 -182.49 
2081 -188.33 -184.59 -180.53 
2082 -188.41 -182.89 -180.53 
2083 -182.97 -182.83 -180.53 
2084 -184.50 -182.95 -180.53 
2085 -186.48 -184.39 -180.53 
2086 -186.13 -184.44 -180.53 
2087 -185.58 -184.31 -180.53 
2088 -184.59 -184.22 -180.53 
2089 -183.94 -182.70 -180.53 
2090 -184.32 -182.88 -180.53 
2091 -185.36 -184.00 -180.53 
2092 -188.50 -183.74 -180.53 
2093 -186.90 -182.09 -180.53 
2094 -183.29 -182.06 -180.53 
2095 -188.25 -183.89 -180.53 
2096 -186.68 -184.09 -180.53 
2097 -184.65 -185.78 -180.53 
2098 -189.13 -185.85 -180.53 
2099 -187.04 -183.90 -180.53 
2100 -184.25 -185.02 -180.53 
2101 -190.84 -184.05 -180.53 
2102 -188.26 -182.70 -180.53 
2103 -187.14 -183.92 -180.53 
2104 -188.75 -185.67 -180.53 
2105 -190.22 -185.18 -180.53 
2106 -185.27 -185.97 -180.53 
2107 -187.48 -184.62 -180.53 
2108 -184.11 -184.85 -180.53 
2109 -186.79 -183.22 -180.53 
2110 -185.75 -182.91 -180.53 
2111 -187.15 -184.30 -180.53 
2112 -190.19 -182.78 -180.53 
2113 -187.48 -182.43 -180.53 
2114 -185.42 -182.22 -180.53 
2115 -186.90 -182.62 -180.53 
2116 -188.99 -182.32 -180.53 
2117 -186.77 -182.11 -180.53 
2118 -187.21 -183.88 -180.53 
2119 -190.37 -182.80 -180.53 
2120 -187.13 -182.71 -180.53 
2121 -182.47 -182.40 -180.53 
2122 -183.44 -182.04 -180.53 
2123 -188.45 -183.48 -180.53 
2124 -184.37 -183.23 -180.53 
2125 -184.86 -182.78 -180.53 
2126 -184.92 -182.41 -180.53 
2127 -190.19 -182.52 -180.53 
2128 -189.01 -182.06 -180.53 
2129 -188.89 -182.16 -180.53 
2130 -186.20 -184.12 -180.53 
2131 -186.69 -183.85 -180.53 
2132 -191.77 -182.19 -180.53 
2133 -187.54 -184.91 -180.53 
2134 -184.46 -183.21 -180.53 
2135 -188.10 -183.42 -180.53 
2136 -183.71 -182.18 -180.53 
2137 -189.24 -182.83 -180.53 
2138 -187.04 -182.75 -180.53 
2139 -185.41 -180.98 -180.53 
2140 -187.95 -182.65 -180.53 
2141 -191.07 -182.58 -180.53 
2142 -186.73 -182.75 -180.53 
2143 -188.03 -183.16 -180.53 
2144 -189.00 -183.02 -180.53 
2145 -183.23 -181.81 -180.53 
2146 -186.79 -183.16 -180.53 
2147 -188.29 -182.90 -180.53 
2148 -188.15 -182.89 -180.53 
2149 -187.04 -182.64 -180.53 
2150 -190.17 -183.00 -180.53 
2151 -183.70 -181.54 -180.53 
2152 -185.41 -183.03 -180.53 
2153 -187.87 -183.36 -180.53 
2154 -186.18 -183.40 -180.53 
2155 -188.05 -182.44 -180.53 
2156 -185.10 -182.45 -180.53 
2157 -189.32 -182.59 -180.53 
2158 -185.21 -182.51 -180.53 
2159 -187.68 -182.36 -180.53 
2160 -185.97 -183.34 -180.53 
2161 -187.88 -182.88 -180.53 
2162 -186.73 -182.84 -180.53 
2163 -187.19 -182.85 -180.53 
2164 -186.70 -181.49 -180.53 
2165 -189.01 -182.96 -180.53 
2166 -188.10 -181.12 -180.53 
2167 -190.00 -184.99 -180.53 
2168 -187.52 -184.52 -180.53 
2169 -185.81 -184.21 -180.53 
2170 -185.02 -183.95 -180.53 
2171 -186.32 -183.75 -180.53 
2172 -187.54 -184.29 -180.53 
2173 -182.91 -184.22 -180.53 
2174 -190.34 -184.30 -180.53 
2175 -189.62 -181.36 -180.53 
2176 -185.20 -183.36 -180.53 
2177 -185.92 -183.54 -180.53 
2178 -189.45 -182.31 -180.53 
2179 -187.67 -180.74 -180.53 
2180 -182.82 -182.12 -180.53 
2181 -187.01 -182.61 -180.53 
2182 -187.65 -181.50 -180.53 
2183 -184.45 -181.60 -180.53 
2184 -187.51 -181.76 -180.53 
2185 -187.67 -183.50 -180.53 
2186 -186.69 -183.17 -180.53 
2187 -189.47 -183.30 -180.53 
2188 -188.81 -183.53 -180.53 
2189 -185.39 -184.95 -180.53 
2190 -189.78 -183.43 -180.53 
2191 -187.01 -184.77 -180.53 
2192 -184.14 -184.79 -180.53 
2193 -187.79 -184.62 -180.53 
2194 -189.90 -183.57 -180.53 
2195 -186.15 -185.19 -180.53 
2196 -188.52 -183.97 -180.53 
2197 -184.79 -183.81 -180.53 
2198 -187.92 -183.95 -180.53 
2199 -185.11 -183.76 -180.53 
2200 -188.65 -184.18 -180.53 
2201 -184.20 -184.06 -180.53 
2202 -188.77 -182.64 -180.53 
2203 -188.72 -184.17 -180.53 
2204 -190.24 -184.17 -180.53 
2205 -185.57 -184.06 -180.53 
2206 -185.27 -183.97 -180.53 
2207 -186.48 -183.86 -180.53 
2208 -185.37 -183.81 -180.53 
2209 -187.01 -183.81 -180.53 
2210 -183.19 -183.74 -180.53 
2211 -188.02 -183.27 -180.53 
2212 -187.88 -183.23 -180.53 
2213 -185.46 -183.21 -180.53 
2214 -187.58 -183.08 -180.53 
2215 -186.36 -183.17 -180.53 
2216 -188.61 -183.06 -180.53 
2217 -184.81 -183.14 -180.53 
2218 -187.57 -183.30 -180.53 
2219 -191.53 -183.41 -180.53 
2220 -187.72 -181.88 -180.53 
2221 -189.52 -182.36 -180.53 
2222 -183.76 -182.13 -180.53 
2223 -188.12 -183.54 -180.53 
2224 -189.81 -183.37 -180.53 
2225 -184.72 -183.06 -180.53 
2226 -184.67 -183.30 -180.53 
2227 -185.95 -183.52 -180.53 
2228 -183.87 -182.09 -180.53 
2229 -184.60 -182.12 -180.53 
2230 -186.38 -182.26 -180.53 
2231 -183.77 -182.67 -180.53 
2232 -188.39 -182.73 -180.53 
2233 -188.32 -181.28 -180.53 
2234 -187.97 -182.37 -180.53 
2235 -188.01 -182.79 -180.53 
2236 -185.79 -181.13 -180.53 
2237 -187.78 -182.72 -180.53 
2238 -185.78 -182.53 -180.53 
2239 -188.20 -182.57 -180.53 
2240 -186.46 -182.39 -180.53 
2241 -185.58 -181.12 -180.53 
2242 -186.35 -182.09 -180.53 
2243 -187.86 -183.62 -180.53 
2244 -190.16 -183.56 -180.53 
2245 -190.46 -183.61 -180.53 
2246 -186.78 -182.14 -180.53 
2247 -186.54 -182.15 -180.53 
2248 -186.80 -181.96 -180.53 
2249 -190.38 -181.77 -180.53 
2250 -183.55 -183.22 -180.53 
2251 -187.88 -183.14 -180.53 
2252 -186.75 -183.21 -180.53 
2253 -184.69 -182.10 -180.53 
2254 -185.49 -183.75 -180.53 
2255 -188.42 -182.57 -180.53 
2256 -188.64 -181.19 -180.53 
2257 -187.57 -181.36 -180.53 
2258 -187.54 -182.96 -180.53 
2259 -187.27 -181.38 -180.53 
2260 -188.71 -182.89 -180.53 
2261 -187.45 -181.45 -180.53 
2262 -185.88 -183.31 -180.53 
2263 -187.10 -183.21 -180.53 
2264 -183.26 -184.48 -180.53 
2265 -185.78 -183.31 -180.53 
2266 -190.20 -181.38 -180.53 
2267 -190.53 -182.51 -180.53 
2268 -185.10 -181.02 -180.53 
2269 -187.96 -182.53 -180.53 
2270 -187.94 -181.29 -180.53 
2271 -185.46 -181.11 -180.53 
2272 -184.77 -181.01 -180.53 
2273 -185.20 -182.30 -180.53 
2274 -184.60 -181.11 -180.53 
2275 -189.23 -181.23 -180.53 
2276 -190.45 -181.26 -180.53 
2277 -189.78 -182.92 -180.53 
2278 -189.26 -182.95 -180.53 
2279 -188.24 -184.45 -180.53 
2280 -184.49 -182.88 -180.53 
2281 -186.52 -181.38 -180.53 
2282 -184.55 -181.10 -180.53 
2283 -189.66 -182.68 -180.53 
2284 -187.64 -182.56 -180.53 
2285 -186.70 -184.05 -180.53 
2286 -183.83 -182.51 -180.53 
2287 -184.49 -182.65 -180.53 
2288 -187.50 -184.11 -180.53 
2289 -185.45 -185.41 -180.53 
2290 -189.10 -185.35 -180.53 
2291 -186.35 -183.55 -180.53 
2292 -182.62 -183.76 -180.53 
2293 -186.88 -182.51 -180.53 
2294 -189.01 -184.20 -180.53 
2295 -182.71 -182.73 -180.53 
2296 -187.70 -182.72 -180.53 
2297 -185.06 -179.97 -180.53 
2298 -184.11 -182.92 -180.53 
2299 -186.43 -181.60 -180.53 
2300 -188.42 -181.69 -180.53 
2301 -188.97 -181.68 -180.53 
2302 -191.66 -181.71 -180.53 
2303 -188.88 -181.81 -180.53 
2304 -185.01 -181.79 -180.53 
2305 -188.37 -181.84 -180.53 
2306 -184.92 -181.76 -180.53 
2307 -185.95 -181.43 -180.53 
2308 -186.19 -181.47 -180.53 
2309 -187.17 -184.72 -180.53 
2310 -185.58 -183.40 -180.53 
2311 -184.69 -184.97 -180.53 
2312 -187.33 -184.85 -180.53 
2313 -187.48 -183.43 -180.53 
2314 -187.07 -183.26 -180.53 
2315 -191.79 -184.55 -180.53 
2316 -187.30 -184.56 -180.53 
2317 -190.11 -181.37 -180.53 
2318 -186.06 -185.88 -180.53 
2319 -185.65 -182.93 -180.53 
2320 -187.43 -182.70 -180.53 
2321 -186.14 -186.11 -180.53 
2322 -185.03 -185.97 -180.53 
2323 -186.60 -181.53 -180.53 
2324 -186.43 -181.32 -180.53 
2325 -186.93 -184.53 -180.53 
2326 -188.75 -185.95 -180.53 
2327 -189.71 -184.44 -180.53 
2328 -188.44 -184.13 -180.53 
2329 -185.86 -184.21 -180.53 
2330 -185.35 -182.54 -180.53 
2331 -184.66 -182.60 -180.53 
2332 -188.69 -182.69 -180.53 
2333 -183.99 -184.16 -180.53 
2334 -189.30 -184.10 -180.53 
2335 -185.81 -184.13 -180.53 
2336 -187.22 -183.95 -180.53 
2337 -183.92 -183.65 -180.53 
2338 -188.96 -183.82 -180.53 
2339 -185.29 -184.07 -180.53 
2340 -188.52 -183.90 -180.53 
2341 -186.00 -185.20 -180.53 
2342 -185.42 -185.14 -180.53 
2343 -190.09 -185.17 -180.53 
2344 -184.26 -185.00 -180.53 
2345 -183.51 -185.41 -180.53 
2346 -185.78 -185.10 -180.53 
2347 -184.55 -185.35 -180.53 
2348 -186.90 -185.35 -180.53 
2349 -184.69 -185.18 -180.53 
2350 -184.63 -185.15 -180.53 
2351 -183.01 -185.05 -180.53 
2352 -186.62 -184.80 -180.53 
2353 -186.71 -184.76 -180.53 
2354 -184.67 -184.95 -180.53 
2355 -183.46 -183.12 -180.53 
2356 -187.49 -185.07 -180.53 
2357 -186.91 -183.48 -180.53 
2358 -183.49 -185.38 -180.53 
2359 -186.73 -185.47 -180.53 
2360 -185.77 -183.67 -180.53 
2361 -186.04 -183.62 -180.53 
2362 -188.09 -183.55 -180.53 
2363 -186.53 -185.15 -180.53 
2364 -187.88 -183.50 -180.53 
2365 -184.62 -183.64 -180.53 
2366 -185.44 -185.19 -180.53 
2367 -183.18 -185.16 -180.53 
2368 -188.87 -185.56 -180.53 
2369 -184.65 -185.76 -180.53 
2370 -182.71 -185.69 -180.53 
2371 -186.30 -186.00 -180.53 
2372 -186.32 -185.72 -180.53 
2373 -185.88 -185.89 -180.53 
2374 -185.30 -185.47 -180.53 
2375 -183.60 -185.54 -180.53 
2376 -188.25 -185.57 -180.53 
2377 -186.95 -185.62 -180.53 
2378 -184.41 -184.39 -180.53 
2379 -186.82 -185.58 -180.53 
2380 -186.44 -185.80 -180.53 
2381 -188.72 -185.79 -180.53 
2382 -187.80 -185.91 -180.53 
2383 -187.36 -184.61 -180.53 
2384 -188.74 -184.52 -180.53 
2385 -179.74 -185.95 -180.53 
2386 -188.12 -184.74 -179.74 
2387 -184.24 -184.46 -179.74 
2388 -186.96 -184.36 -179.74 
2389 -186.29 -184.49 -179.74 
2390 -185.92 -184.32 -179.74 
2391 -183.77 -184.49 -179.74 
2392 -183.36 -184.24 -179.74 
2393 -187.36 -184.37 -179.74 
2394 -189.51 -184.54 -179.74 
2395 -188.30 -185.83 -179.74 
2396 -182.37 -185.81 -179.74 
2397 -185.63 -184.27 -179.74 
2398 -193.09 -185.65 -179.74 
2399 -187.27 -185.58 -179.74 
2400 -185.46 -185.62 -179.74 
2401 -186.40 -185.74 -179.74 
2402 -185.17 -185.83 -179.74 
2403 -186.97 -186.04 -179.74 
2404 -185.03 -186.21 -179.74 
2405 -187.20 -186.03 -179.74 
2406 -187.93 -185.89 -179.74 
2407 -186.65 -184.67 -179.74 
2408 -185.87 -184.60 -179.74 
2409 -187.29 -184.46 -179.74 
2410 -190.39 -184.12 -179.74 
2411 -185.37 -184.26 -179.74 
2412 -185.35 -185.47 -179.74 
2413 -189.98 -185.46 -179.74 
2414 -186.06 -184.12 -179.74 
2415 -192.38 -184.00 -179.74 
2416 -189.70 -184.03 -179.74 
2417 -185.06 -184.02 -179.74 
2418 -189.03 -183.93 -179.74 
2419 -187.63 -183.92 -179.74 
2420 -183.81 -184.01 -179.74 
2421 -191.42 -183.87 -179.74 
2422 -186.53 -185.40 -179.74 
2423 -184.71 -184.06 -179.74 
2424 -188.75 -184.00 -179.74 
2425 -183.20 -184.12 -179.74 
2426 -184.52 -184.01 -179.74 
2427 -188.08 -183.94 -179.74 
2428 -183.74 -183.87 -179.74 
2429 -185.04 -185.31 -179.74 
2430 -183.38 -183.98 -179.74 
2431 -184.34 -185.08 -179.74 
2432 -187.00 -185.07 -179.74 
2433 -185.58 -183.53 -179.74 
2434 -187.78 -185.04 -179.74 
2435 -183.71 -185.21 -179.74 
2436 -186.43 -183.83 -179.74 
2437 -186.00 -185.44 -179.74 
2438 -187.87 -185.56 -179.74 
2439 -187.27 -184.15 -179.74 
2440 -185.03 -184.36 -179.74 
2441 -188.32 -184.23 -179.74 
2442 -184.46 -183.90 -179.74 
2443 -185.74 -185.23 -179.74 
2444 -184.50 -184.96 -179.74 
2445 -184.87 -185.05 -179.74 
2446 -186.59 -185.15 -179.74 
2447 -186.80 -183.86 -179.74 
2448 -182.59 -184.04 -179.74 
2449 -186.06 -182.94 -179.74 
2450 -185.76 -183.00 -179.74 
2451 -187.85 -183.07 -179.74 
2452 -183.62 -183.22 -179.74 
2453 -188.04 -182.71 -179.74 
2454 -187.13 -182.61 -179.74 
2455 -183.93 -182.83 -179.74 
2456 -184.66 -184.06 -179.74 
2457 -185.44 -181.01 -179.74 
2458 -185.57 -182.69 -179.74 
2459 -190.35 -181.41 -179.74 
2460 -184.19 -182.73 -179.74 
2461 -183.79 -182.68 -179.74 
2462 -185.43 -184.29 -179.74 
2463 -184.06 -183.05 -179.74 
2464 -185.03 -182.88 -179.74 
2465 -186.01 -182.88 -179.74 
2466 -188.07 -182.01 -179.74 
2467 -188.27 -183.76 -179.74 
2468 -185.71 -183.86 -179.74 
2469 -187.86 -182.12 -179.74 
2470 -187.03 -181.83 -179.74 
2471 -186.84 -182.23 -179.74 
2472 -185.85 -182.02 -179.74 
2473 -184.89 -181.86 -179.74 
2474 -185.05 -181.75 -179.74 
2475 -184.53 -181.46 -179.74 
2476 -185.94 -182.94 -179.74 
2477 -183.24 -184.25 -179.74 
2478 -187.39 -183.10 -179.74 
2479 -185.29 -181.72 -179.74 
2480 -184.46 -183.39 -179.74 
2481 -185.66 -183.10 -179.74 
2482 -189.13 -184.87 -179.74 
2483 -183.86 -181.75 -179.74 
2484 -188.96 -181.75 -179.74 
2485 -184.63 -183.32 -179.74 
2486 -187.21 -182.02 -179.74 
2487 -185.78 -181.91 -179.74 
2488 -187.46 -180.37 -179.74 
2489 -187.59 -181.63 -179.74 
2490 -188.04 -182.10 -179.74 
2491 -188.02 -183.60 -179.74 
2492 -185.84 -183.46 -179.74 
2493 -188.89 -181.71 -179.74 
2494 -184.12 -181.74 -179.74 
2495 -188.60 -182.70 -179.74 
2496 -184.53 -181.17 -179.74 
2497 -187.43 -181.51 -179.74 
2498 -186.65 -182.70 -179.74 
2499 -185.73 -182.94 -179.74 
2500 -187.23 -181.33 -179.74 
2501 -185.05 -184.38 -179.74 
2502 -186.92 -184.48 -179.74 
2503 -179.27 -182.91 -179.74 
2504 -183.57 -182.85 -179.27 
2505 -185.18 -182.59 -179.27 
2506 -188.84 -181.22 -179.27 
2507 -182.05 -184.03 -179.27 
2508 -186.16 -184.50 -179.27 
2509 -183.39 -184.31 -179.27 
2510 -183.15 -184.39 -179.27 
2511 -184.38 -185.72 -179.27 
2512 -185.24 -181.55 -179.27 
2513 -186.88 -182.71 -179.27 
2514 -184.77 -185.21 -179.27 
2515 -188.11 -183.83 -179.27 
2516 -183.75 -185.35 -179.27 
2517 -186.09 -185.24 -179.27 
2518 -181.52 -185.03 -179.27 
2519 -182.69 -184.78 -179.27 
2520 -189.68 -183.18 -179.27 
2521 -189.80 -184.83 -179.27 
2522 -186.70 -183.45 -179.27 
2523 -187.66 -185.26 -179.27 
2524 -187.76 -184.94 -179.27 
2525 -187.60 -183.21 -179.27 
2526 -180.55 -184.72 -179.27 
2527 -184.27 -184.64 -179.27 
2528 -186.13 -183.48 -179.27 
2529 -187.52 -183.72 -179.27 
2530 -186.59 -182.51 -179.27 
2531 -184.74 -182.51 -179.27 
2532 -188.26 -182.69 -179.27 
2533 -186.46 -182.38 -179.27 
2534 -185.90 -181.01 -179.27 
2535 -186.90 -181.07 -179.27 
2536 -187.06 -182.45 -179.27 
2537 -186.95 -182.39 -179.27 
2538 -185.33 -182.16 -179.27 
2539 -191.55 -182.35 -179.27 
2540 -186.16 -182.33 -179.27 
2541 -185.43 -182.70 -179.27 
2542 -184.01 -181.22 -179.27 
2543 -189.34 -182.58 -179.27 
2544 -184.34 -183.09 -179.27 
2545 -185.85 -182.59 -179.27 
2546 -188.67 -182.75 -179.27 
2547 -185.63 -183.13 -179.27 
2548 -185.03 -181.89 -179.27 
2549 -191.29 -181.68 -179.27 
2550 -184.90 -181.25 -179.27 
2551 -186.82 -182.62 -179.27 
2552 -185.26 -183.58 -179.27 
2553 -184.17 -181.16 -179.27 
2554 -189.85 -181.45 -179.27 
2555 -186.67 -181.66 -179.27 
2556 -187.23 -180.33 -179.27 
2557 -185.25 -183.83 -179.27 
2558 -187.56 -181.09 -179.27 
2559 -185.68 -182.28 -179.27 
2560 -184.42 -181.05 -179.27 
2561 -188.14 -181.08 -179.27 
2562 -183.65 -183.56 -179.27 
2563 -181.84 -183.27 -179.27 
2564 -186.50 -181.68 -179.27 
2565 -187.60 -181.72 -179.27 
2566 -186.57 -180.35 -179.27 
2567 -190.00 -181.89 -179.27 
2568 -189.63 -181.29 -179.27 
2569 -187.15 -180.14 -179.27 
2570 -187.05 -181.55 -179.27 
2571 -187.48 -179.90 -179.27 
2572 -183.68 -181.62 -179.27 
2573 -183.18 -182.00 -179.27 
2574 -187.86 -182.06 -179.27 
2575 -188.84 -181.79 -179.27 
2576 -184.08 -181.94 -179.27 
2577 -184.37 -181.80 -179.27 
2578 -182.71 -181.53 -179.27 
2579 -180.82 -181.45 -179.27 
2580 -185.21 -181.47 -179.27 
2581 -186.11 -180.07 -179.27 
2582 -186.59 -182.49 -179.27 
2583 -184.93 -181.49 -179.27 
2584 -188.96 -181.57 -179.27 
2585 -186.60 -181.79 -179.27 
2586 -185.14 -181.93 -179.27 
2587 -185.54 -182.04 -179.27 
2588 -184.75 -183.27 -179.27 
2589 -186.88 -182.08 -179.27 
2590 -184.60 -182.02 -179.27 
2591 -183.77 -182.21 -179.27 
2592 -182.44 -182.52 -179.27 
2593 -185.08 -182.33 -179.27 
2594 -186.74 -182.52 -179.27 
2595 -189.62 -181.03 -179.27 
2596 -184.60 -182.25 -179.27 
2597 -184.25 -180.43 -179.27 
2598 -186.63 -180.37 -179.27 
2599 -181.79 -180.96 -179.27 
2600 -186.79 -181.32 -179.27 
2601 -188.33 -182.67 -179.27 
2602 -187.24 -182.73 -179.27 
2603 -181.43 -182.75 -179.27 
2604 -182.63 -181.22 -179.27 
2605 -184.74 -181.26 -179.27 
2606 -188.37 -181.09 -179.27 
2607 -183.10 -183.88 -179.27 
2608 -184.31 -182.62 -179.27 
2609 -189.60 -179.30 -179.27 
2610 -184.39 -179.46 -179.27 
2611 -187.49 -179.33 -179.27 
2612 -185.28 -179.35 -179.27 
2613 -191.71 -177.74 -179.27 
2614 -186.15 -180.69 -179.27 
2615 -185.23 -180.57 -179.27 
2616 -185.79 -180.85 -179.27 
2617 -185.38 -180.66 -179.27 
2618 -185.72 -181.05 -179.27 
2619 -186.31 -181.11 -179.27 
2620 -185.19 -180.95 -179.27 
2621 -181.87 -179.61 -179.27 
2622 -181.07 -181.14 -179.27 
2623 -185.01 -181.15 -179.27 
2624 -183.66 -181.21 -179.27 
2625 -185.24 -179.78 -179.27 
2626 -187.10 -179.65 -179.27 
2627 -185.81 -179.24 -179.27 
2628 -185.11 -179.33 -179.27 
2629 -187.09 -181.19 -179.27 
2630 -185.96 -179.74 -179.27 
2631 -186.79 -179.76 -179.27 
2632 -185.11 -179.36 -179.27 
2633 -185.73 -179.75 -179.27 
2634 -187.83 -179.84 -179.27 
2635 -183.23 -179.27 -179.27 
2636 -186.49 -179.56 -179.27 
2637 -187.54 -179.82 -179.27 
2638 -184.37 -179.33 -179.27 
2639 -183.93 -180.59 -179.27 
2640 -181.06 -181.09 -179.27 
2641 -186.14 -179.37 -179.27 
2642 -184.84 -180.59 -179.27 
2643 -189.15 -179.42 -179.27 
2644 -185.14 -179.73 -179.27 
2645 -185.04 -182.26 -179.27 
2646 -184.48 -181.97 -179.27 
2647 -188.27 -182.30 -179.27 
2648 -183.59 -183.39 -179.27 
2649 -185.64 -182.24 -179.27 
2650 -183.66 -181.95 -179.27 
2651 -188.14 -178.82 -179.27 
2652 -183.48 -179.10 -179.27 
2653 -188.34 -178.99 -179.27 
2654 -186.95 -183.56 -179.27 
2655 -189.17 -179.33 -179.27 
2656 -185.99 -179.42 -179.27 
2657 -183.02 -178.19 -179.27 
2658 -190.74 -178.18 -179.27 
2659 -186.72 -179.77 -179.27 
2660 -186.21 -179.70 -179.27 
2661 -187.11 -178.26 -179.27 
2662 -181.81 -179.60 -179.27 
2663 -188.99 -179.59 -179.27 
2664 -184.91 -178.00 -179.27 
2665 -184.44 -177.84 -179.27 
2666 -187.84 -177.96 -179.27 
2667 -183.49 -177.76 -179.27 
2668 -187.33 -177.88 -179.27 
2669 -190.58 -178.21 -179.27 
2670 -188.55 -178.36 -179.27 
2671 -185.96 -179.85 -179.27 
2672 -183.07 -181.71 -179.27 
2673 -186.85 -181.48 -179.27 
2674 -186.44 -181.44 -179.27 
2675 -188.81 -182.90 -179.27 
2676 -185.38 -182.99 -179.27 
2677 -184.16 -182.85 -179.27 
2678 -183.04 -181.73 -179.27 
2679 -189.85 -181.60 -179.27 
2680 -184.47 -180.80 -179.27 
2681 -191.12 -179.53 -179.27 
2682 -184.16 -178.12 -179.27 
2683 -186.27 -178.36 -179.27 
2684 -189.71 -177.86 -179.27 
2685 -185.49 -178.32 -179.27 
2686 -185.33 -178.16 -179.27 
2687 -185.56 -178.36 -179.27 
2688 -188.59 -178.58 -179.27 
2689 -184.41 -178.31 -179.27 
2690 -183.81 -178.15 -179.27 
2691 -184.15 -176.70 -179.27 
2692 -186.82 -178.21 -179.27 
2693 -186.08 -179.70 -179.27 
2694 -187.58 -179.76 -179.27 
2695 -186.70 -178.23 -179.27 
2696 -184.75 -178.50 -179.27 
2697 -187.67 -178.59 -179.27 
2698 -183.97 -178.54 -179.27 
2699 -182.23 -178.55 -179.27 
2700 -182.73 -177.07 -179.27 
2701 -185.36 -178.47 -179.27 
2702 -187.39 -178.66 -179.27 
2703 -183.54 -177.06 -179.27 
2704 -185.56 -177.03 -179.27 
2705 -183.69 -177.22 -179.27 
2706 -187.99 -177.26 -179.27 
2707 -187.32 -177.05 -179.27 
2708 -184.87 -176.95 -179.27 
2709 -184.22 -177.04 -179.27 
2710 -183.46 -178.67 -179.27 
2711 -186.10 -178.66 -179.27 
2712 -188.77 -177.16 -179.27 
2713 -186.77 -177.22 -179.27 
2714 -186.32 -177.47 -179.27 
2715 -184.22 -177.71 -179.27 
2716 -186.46 -177.78 -179.27 
2717 -185.01 -177.79 -179.27 
2718 -185.25 -177.65 -179.27 
2719 -186.50 -177.69 -179.27 
2720 -183.18 -177.73 -179.27 
2721 -182.48 -177.65 -179.27 
2722 -185.31 -179.14 -179.27 
2723 -185.57 -179.37 -179.27 
2724 -182.29 -179.11 -179.27 
2725 -189.79 -177.48 -179.27 
2726 -187.58 -178.79 -179.27 
2727 -186.95 -178.89 -179.27 
2728 -183.59 -179.05 -179.27 
2729 -184.34 -178.93 -179.27 
2730 -186.03 -179.01 -179.27 
2731 -186.78 -178.95 -179.27 
2732 -186.56 -179.19 -179.27 
2733 -186.29 -177.67 -179.27 
2734 -186.56 -179.16 -179.27 
2735 -183.84 -179.28 -179.27 
2736 -186.22 -177.69 -179.27 
2737 -187.16 -179.05 -179.27 
2738 -185.15 -178.95 -179.27 
2739 -183.53 -177.47 -179.27 
2740 -182.96 -177.49 -179.27 
2741 -185.01 -178.50 -179.27 
2742 -183.80 -178.83 -179.27 
2743 -185.40 -177.28 -179.27 
2744 -185.99 -178.67 -179.27 
2745 -184.21 -178.64 -179.27 
2746 -184.42 -178.69 -179.27 
2747 -183.30 -178.84 -179.27 
2748 -186.07 -178.72 -179.27 
2749 -187.79 -178.77 -179.27 
2750 -183.22 -178.82 -179.27 
2751 -187.58 -178.84 -179.27 
2752 -185.38 -178.72 -179.27 
2753 -186.32 -180.48 -179.27 
2754 -184.52 -180.42 -179.27 
2755 -188.24 -179.23 -179.27 
2756 -188.71 -177.89 -179.27 
2757 -186.14 -179.21 -179.27 
2758 -186.41 -179.03 -179.27 
2759 -187.51 -179.09 -179.27 
2760 -188.37 -179.38 -179.27 
2761 -188.95 -179.16 -179.27 
2762 -185.94 -177.78 -179.27 
2763 -185.16 -177.70 -179.27 
2764 -187.02 -179.23 -179.27 
2765 -183.72 -177.78 -179.27 
2766 -184.84 -178.94 -179.27 
2767 -185.12 -177.18 -179.27 
2768 -187.30 -178.61 -179.27 
2769 -184.66 -178.48 -179.27 
2770 -184.34 -176.89 -179.27 
2771 -184.84 -178.50 -179.27 
2772 -186.36 -177.15 -179.27 
2773 -187.21 -177.12 -179.27 
2774 -191.45 -177.16 -179.27 
2775 -188.31 -178.43 -179.27 
2776 -182.74 -176.95 -179.27 
2777 -187.88 -176.81 -179.27 
2778 -186.69 -177.03 -179.27 
2779 -185.62 -176.95 -179.27 
2780 -185.33 -176.95 -179.27 
2781 -188.97 -177.13 -179.27 
2782 -189.68 -177.10 -179.27 
2783 -180.79 -178.54 -179.27 
2784 -185.58 -178.52 -179.27 
2785 -184.94 -178.64 -179.27 
2786 -184.23 -178.48 -179.27 
2787 -184.45 -178.46 -179.27 
2788 -182.06 -178.71 -179.27 
2789 -186.61 -178.44 -179.27 
2790 -189.54 -178.34 -179.27 
2791 -185.57 -178.31 -179.27 
2792 -182.37 -178.25 -179.27 
2793 -185.65 -178.46 -179.27 
2794 -185.41 -178.34 -179.27 
2795 -184.82 -179.53 -179.27 
2796 -185.32 -178.13 -179.27 
2797 -184.05 -179.88 -179.27 
2798 -186.51 -179.32 -179.27 
2799 -186.06 -177.81 -179.27 
2800 -182.87 -177.95 -179.27 
2801 -187.67 -180.77 -179.27 
2802 -186.81 -179.31 -179.27 
2803 -185.07 -179.58 -179.27 
2804 -186.96 -178.00 -179.27 
2805 -186.67 -178.21 -179.27 
2806 -185.58 -178.08 -179.27 
2807 -187.52 -177.98 -179.27 
2808 -189.24 -179.45 -179.27 
2809 -185.96 -179.43 -179.27 
2810 -187.54 -179.51 -179.27 
2811 -184.88 -179.40 -179.27 
2812 -183.25 -179.49 -179.27 
2813 -183.11 -178.27 -179.27 
2814 -186.42 -178.52 -179.27 
2815 -186.75 -178.27 -179.27 
2816 -182.48 -178.60 -179.27 
2817 -187.13 -178.75 -179.27 
2818 -189.43 -178.59 -179.27 
2819 -184.01 -178.88 -179.27 
2820 -186.06 -178.96 -179.27 
2821 -188.63 -178.99 -179.27 
2822 -189.73 -178.88 -179.27 
2823 -188.06 -178.86 -179.27 
2824 -183.67 -178.64 -179.27 
2825 -187.39 -178.30 -179.27 
2826 -183.64 -178.32 -179.27 
2827 -185.82 -178.01 -179.27 
2828 -183.45 -177.89 -179.27 
2829 -187.54 -179.41 -179.27 
2830 -186.80 -179.17 -179.27 
2831 -184.81 -177.66 -179.27 
2832 -187.80 -177.52 -179.27 
2833 -182.73 -177.73 -179.27 
2834 -187.37 -179.27 -179.27 
2835 -185.63 -179.44 -179.27 
2836 -188.15 -180.98 -179.27 
2837 -184.61 -179.52 -179.27 
2838 -193.14 -179.86 -179.27 
2839 -188.86 -178.32 -179.27 
2840 -184.97 -179.83 -179.27 
2841 -183.28 -178.43 -179.27 
2842 -184.91 -177.24 -179.27 
2843 -187.65 -179.99 -179.27 
2844 -184.23 -177.04 -179.27 
2845 -183.96 -177.26 -179.27 
2846 -186.77 -178.61 -179.27 
2847 -186.22 -178.36 -179.27 
2848 -186.43 -178.53 -179.27 
2849 -185.95 -178.49 -179.27 
2850 -183.58 -175.50 -179.27 
2851 -184.72 -177.25 -179.27 
2852 -187.89 -175.72 -179.27 
2853 -183.05 -178.91 -179.27 
2854 -184.79 -178.86 -179.27 
2855 -183.70 -177.52 -179.27 
2856 -184.48 -181.68 -179.27 
2857 -183.65 -178.52 -179.27 
2858 -186.81 -178.62 -179.27 
2859 -188.30 -180.10 -179.27 
2860 -181.33 -178.61 -179.27 
2861 -187.45 -178.61 -179.27 
2862 -187.89 -177.34 -179.27 
2863 -186.53 -175.89 -179.27 
2864 -185.98 -177.36 -179.27 
2865 -185.50 -178.68 -179.27 
2866 -186.60 -179.88 -179.27 
2867 -184.78 -179.91 -179.27 
2868 -185.55 -177.33 -179.27 
2869 -187.85 -178.66 -179.27 
2870 -186.13 -177.16 -179.27 
2871 -185.70 -177.13 -179.27 
2872 -184.87 -176.98 -179.27 
2873 -185.76 -178.48 -179.27 
2874 -187.19 -179.76 -179.27 
2875 -184.08 -179.58 -179.27 
2876 -184.39 -179.63 -179.27 
2877 -184.99 -177.96 -179.27 
2878 -184.27 -179.62 -179.27 
2879 -186.12 -177.92 -179.27 
2880 -186.51 -181.00 -179.27 
2881 -186.20 -181.14 -179.27 
2882 -185.17 -178.13 -179.27 
2883 -184.32 -178.29 -179.27 
2884 -184.88 -178.22 -179.27 
2885 -190.08 -180.09 -179.27 
2886 -185.91 -176.94 -179.27 
2887 -181.43 -178.84 -179.27 
2888 -185.47 -178.68 -179.27 
2889 -187.10 -178.69 -179.27 
2890 -184.54 -178.45 -179.27 
2891 -186.88 -177.11 -179.27 
2892 -180.85 -176.77 -179.27 
2893 -183.54 -178.01 -179.27 
2894 -185.79 -176.70 -179.27 
2895 -184.69 -176.53 -179.27 
2896 -185.74 -179.32 -179.27 
2897 -187.99 -177.84 -179.27 
2898 -184.96 -177.70 -179.27 
2899 -185.57 -179.03 -179.27 
2900 -184.01 -179.02 -179.27 
2901 -181.45 -179.08 -179.27 
2902 -182.70 -178.95 -179.27 
2903 -185.89 -178.89 -179.27 
2904 -188.46 -178.85 -179.27 
2905 -185.54 -178.93 -179.27 
2906 -184.09 -177.56 -179.27 
2907 -186.45 -178.99 -179.27 
2908 -186.40 -178.86 -179.27 
2909 -184.14 -177.52 -179.27 
2910 -183.35 -178.84 -179.27 
2911 -181.90 -177.59 -179.27 
2912 -184.64 -180.33 -179.27 
2913 -182.25 -178.94 -179.27 
2914 -189.19 -177.33 -179.27 
2915 -179.69 -178.94 -179.27 
2916 -187.02 -178.80 -179.27 
2917 -188.80 -178.96 -179.27 
2918 -183.21 -177.22 -179.27 
2919 -188.29 -178.74 -179.27 
2920 -184.24 -178.61 -179.27 
2921 -185.13 -177.03 -179.27 
2922 -182.48 -176.95 -179.27 
2923 -183.45 -178.50 -179.27 
2924 -185.67 -175.45 -179.27 
2925 -183.54 -178.73 -179.27 
2926 -188.34 -177.21 -179.27 
2927 -185.26 -176.97 -179.27 
2928 -186.23 -176.91 -179.27 
2929 -187.27 -178.23 -179.27 
2930 -184.84 -176.48 -179.27 
2931 -180.53 -176.68 -179.27 
2932 -187.05 -176.94 -179.27 
2933 -182.91 -176.73 -179.27 
2934 -187.75 -177.02 -179.27 
2935 -190.68 -176.98 -179.27 
2936 -186.56 -176.93 -179.27 
2937 -184.76 -176.83 -179.27 
2938 -185.39 -178.34 -179.27 
2939 -186.80 -177.15 -179.27 
2940 -183.79 -175.90 -179.27 
2941 -187.72 -175.89 -179.27 
2942 -187.81 -175.94 -179.27 
2943 -185.13 -176.03 -179.27 
2944 -189.02 -179.05 -179.27 
2945 -183.02 -176.02 -179.27 
2946 -186.17 -176.27 -179.27 
2947 -187.96 -176.54 -179.27 
2948 -187.02 -179.56 -179.27 
2949 -189.48 -177.77 -179.27 
2950 -182.67 -176.38 -179.27 
2951 -186.28 -179.27 -179.27 
2952 -185.03 -177.77 -179.27 
2953 -184.28 -177.75 -179.27 
2954 -185.46 -177.98 -179.27 
2955 -185.41 -177.98 -179.27 
2956 -186.64 -177.95 -179.27 
2957 -185.88 -177.93 -179.27 
2958 -184.79 -177.89 -179.27 
2959 -186.68 -178.04 -179.27 
2960 -186.72 -178.13 -179.27 
2961 -185.90 -176.58 -179.27 
2962 -184.44 -176.39 -179.27 
2963 -185.33 -177.85 -179.27 
2964 -180.78 -177.72 -179.27 
2965 -186.32 -177.79 -179.27 
2966 -183.09 -177.66 -179.27 
2967 -190.01 -177.67 -179.27 
2968 -184.74 -177.40 -179.27 
2969 -184.48 -177.47 -179.27 
2970 -183.84 -177.53 -179.27 
2971 -187.23 -177.65 -179.27 
2972 -185.15 -177.80 -179.27 
2973 -185.56 -177.88 -179.27 
2974 -182.69 -177.71 -179.27 
2975 -182.99 -177.67 -179.27 
2976 -185.53 -179.03 -179.27 
2977 -187.56 -180.54 -179.27 
2978 -185.83 -182.08 -179.27 
2979 -184.07 -180.88 -179.27 
2980 -188.56 -178.18 -179.27 
2981 -186.27 -181.25 -179.27 
2982 -184.68 -179.90 -179.27 
2983 -184.41 -180.04 -179.27 
2984 -182.32 -181.76 -179.27 
2985 -187.60 -180.11 -179.27 
2986 -182.52 -178.66 -179.27 
2987 -182.57 -178.75 -179.27 
2988 -180.93 -178.73 -179.27 
2989 -187.28 -176.94 -179.27 
2990 -183.65 -179.91 -179.27 
2991 -185.17 -178.24 -179.27 
2992 -187.00 -178.07 -179.27 
2993 -181.69 -179.75 -179.27 
2994 -185.13 -178.27 -179.27 
2995 -184.12 -178.33 -179.27 
2996 -182.11 -179.99 -179.27 
2997 -186.80 -179.93 -179.27 
2998 -184.75 -178.24 -179.27 
2999 -187.88 -178.15 -179.27 
3000 -185.08 -179.71 -179.27 
3001 -186.80 -178.57 -179.27 
3002 -185.72 -179.77 -179.27 
3003 -189.59 -178.39 -179.27 
3004 -185.65 -180.07 -179.27 
3005 -181.62 -180.10 -179.27 
3006 -182.81 -178.43 -179.27 
3007 -186.11 -180.19 -179.27 
3008 -184.40 -178.54 -179.27 
3009 -186.13 -179.76 -179.27 
3010 -184.61 -179.83 -179.27 
3011 -183.28 -180.04 -179.27 
3012 -181.87 -179.83 -179.27 
3013 -186.41 -179.96 -179.27 
3014 -183.62 -180.06 -179.27 
3015 -185.87 -180.24 -179.27 
3016 -187.28 -180.28 -179.27 
3017 -185.45 -180.11 -179.27 
3018 -185.95 -180.34 -179.27 
3019 -181.70 -178.77 -179.27 
3020 -187.24 -178.75 -179.27 
3021 -184.47 -178.87 -179.27 
3022 -187.06 -178.85 -179.27 
3023 -188.59 -180.42 -179.27 
3024 -186.25 -178.87 -179.27 
3025 -182.23 -180.40 -179.27 
3026 -184.00 -178.90 -179.27 
3027 -185.68 -178.89 -179.27 
3028 -185.32 -177.41 -179.27 
3029 -187.75 -178.85 -179.27 
3030 -186.87 -178.84 -179.27 
3031 -186.32 -180.45 -179.27 
3032 -184.01 -180.51 -179.27 
3033 -187.23 -180.45 -179.27 
3034 -183.66 -178.90 -179.27 
3035 -187.92 -178.91 -179.27 
3036 -182.46 -180.30 -179.27 
3037 -186.49 -177.48 -179.27 
3038 -185.54 -179.12 -179.27 
3039 -187.62 -179.01 -179.27 
3040 -186.35 -177.78 -179.27 
3041 -182.57 -177.78 -179.27 
3042 -188.63 -177.71 -179.27 
3043 -184.02 -177.99 -179.27 
3044 -186.29 -177.91 -179.27 
3045 -185.45 -178.06 -179.27 
3046 -185.08 -177.92 -179.27 
3047 -180.80 -178.02 -179.27 
3048 -183.09 -178.05 -179.27 
3049 -186.29 -178.04 -179.27 
3050 -184.97 -178.04 -179.27 
3051 -184.66 -178.16 -179.27 
3052 -183.32 -178.19 -179.27 
3053 -182.09 -179.80 -179.27 
3054 -186.95 -178.27 -179.27 
3055 -184.44 -178.13 -179.27 
3056 -181.96 -179.65 -179.27 
3057 -184.62 -178.50 -179.27 
3058 -184.89 -178.53 -179.27 
3059 -184.26 -178.59 -179.27 
3060 -185.70 -178.49 -179.27 
3061 -184.62 -178.40 -179.27 
3062 -188.93 -178.37 -179.27 
3063 -188.34 -178.49 -179.27 
3064 -187.47 -180.17 -179.27 
3065 -181.15 -178.72 -179.27 
3066 -183.75 -178.70 -179.27 
3067 -181.87 -178.65 -179.27 
3068 -184.43 -178.69 -179.27 
3069 -183.02 -178.85 -179.27 
3070 -184.79 -178.76 -179.27 
3071 -185.96 -178.66 -179.27 
3072 -190.35 -178.65 -179.27 
3073 -187.16 -178.56 -179.27 
3074 -184.48 -178.54 -179.27 
3075 -186.61 -178.58 -179.27 
3076 -184.79 -178.65 -179.27 
3077 -182.32 -178.87 -179.27 
3078 -183.44 -178.64 -179.27 
3079 -183.98 -178.48 -179.27 
3080 -187.85 -178.60 -179.27 
3081 -185.58 -178.58 -179.27 
3082 -184.46 -178.48 -179.27 
3083 -183.48 -178.02 -179.27 
3084 -185.70 -178.31 -179.27 
3085 -186.90 -178.28 -179.27 
3086 -185.81 -178.27 -179.27 
3087 -185.83 -178.60 -179.27 
3088 -183.57 -178.56 -179.27 
3089 -184.74 -178.50 -179.27 
3090 -183.78 -178.70 -179.27 
3091 -183.47 -178.68 -179.27 
3092 -184.11 -178.70 -179.27 
3093 -185.17 -178.42 -179.27 
3094 -184.74 -178.75 -179.27 
3095 -182.65 -178.72 -179.27 
3096 -182.07 -178.27 -179.27 
3097 -185.74 -178.62 -179.27 
3098 -183.65 -178.83 -179.27 
3099 -186.93 -178.90 -179.27 
3100 -184.15 -178.50 -179.27 
3101 -183.22 -180.54 -179.27 
3102 -186.64 -179.01 -179.27 
3103 -184.14 -179.11 -179.27 
3104 -184.01 -179.17 -179.27 
3105 -184.31 -179.29 -179.27 
3106 -186.70 -179.08 -179.27 
3107 -182.67 -179.06 -179.27 
3108 -182.87 -178.92 -179.27 
3109 -182.22 -178.89 -179.27 
3110 -180.74 -178.90 -179.27 
3111 -187.51 -179.28 -179.27 
3112 -184.05 -179.01 -179.27 
3113 -185.00 -179.20 -179.27 
3114 -183.80 -179.17 -179.27 
3115 -183.15 -179.29 -179.27 
3116 -183.86 -179.10 -179.27 
3117 -183.18 -179.31 -179.27 
3118 -181.20 -179.36 -179.27 
3119 -183.46 -179.39 -179.27 
3120 -183.82 -179.26 -179.27 
3121 -184.82 -179.24 -179.27 
3122 -182.25 -179.47 -179.27 
3123 -181.83 -179.45 -179.27 
3124 -184.22 -179.23 -179.27 
3125 -183.15 -179.21 -179.27 
3126 -187.22 -179.56 -179.27 
3127 -184.08 -179.47 -179.27 
3128 -180.66 -179.85 -179.27 
3129 -183.19 -179.65 -179.27 
3130 -179.67 -179.87 -179.27 
3131 -182.30 -179.78 -179.27 
3132 -184.36 -179.98 -179.27 
3133 -185.95 -178.42 -179.27 
3134 -186.63 -179.92 -179.27 
3135 -180.05 -178.34 -179.27 
3136 -181.37 -178.19 -179.27 
3137 -185.33 -178.36 -179.27 
3138 -183.51 -178.18 -179.27 
3139 -186.23 -179.75 -179.27 
3140 -183.54 -178.21 -179.27 
3141 -185.84 -179.81 -179.27 
3142 -185.08 -178.26 -179.27 
3143 -183.23 -178.38 -179.27 
3144 -183.67 -178.44 -179.27 
3145 -187.79 -178.34 -179.27 
3146 -186.69 -178.37 -179.27 
3147 -185.38 -178.29 -179.27 
3148 -183.16 -178.29 -179.27 
3149 -182.15 -179.66 -179.27 
3150 -187.98 -178.20 -179.27 
3151 -184.54 -179.59 -179.27 
3152 -182.01 -179.59 -179.27 
3153 -182.51 -179.45 -179.27 
3154 -186.94 -179.20 -179.27 
3155 -185.74 -179.21 -179.27 
3156 -179.53 -179.08 -179.27 
3157 -183.26 -179.11 -179.27 
3158 -186.83 -179.20 -179.27 
3159 -187.80 -179.11 -179.27 
3160 -183.88 -178.84 -179.27 
3161 -183.37 -178.77 -179.27 
3162 -180.48 -178.77 -179.27 
3163 -183.34 -178.91 -179.27 
3164 -184.09 -179.07 -179.27 
3165 -182.67 -179.11 -179.27 
3166 -183.94 -179.15 -179.27 
3167 -186.45 -179.33 -179.27 
3168 -185.73 -179.38 -179.27 
3169 -183.97 -179.56 -179.27 
3170 -187.72 -179.62 -179.27 
3171 -190.01 -179.55 -179.27 
3172 -184.93 -179.37 -179.27 
3173 -185.52 -179.21 -179.27 
3174 -185.75 -178.84 -179.27 
3175 -183.66 -178.89 -179.27 
3176 -185.26 -178.73 -179.27 
3177 -183.30 -178.62 -179.27 
3178 -185.36 -178.74 -179.27 
3179 -184.78 -178.59 -179.27 
3180 -185.48 -178.78 -179.27 
3181 -182.22 -178.79 -179.27 
3182 -184.71 -178.73 -179.27 
3183 -181.82 -178.71 -179.27 
3184 -183.71 -178.84 -179.27 
3185 -185.64 -178.80 -179.27 
3186 -182.07 -178.91 -179.27 
3187 -187.52 -178.89 -179.27 
3188 -182.04 -178.76 -179.27 
3189 -180.22 -178.98 -179.27 
3190 -182.67 -178.78 -179.27 
3191 -181.55 -178.87 -179.27 
3192 -181.77 -178.76 -179.27 
3193 -183.27 -178.61 -179.27 
3194 -185.28 -178.43 -179.27 
3195 -182.33 -178.54 -179.27 
3196 -181.63 -178.38 -179.27 
3197 -182.52 -178.40 -179.27 
3198 -179.37 -180.01 -179.27 
3199 -185.44 -178.29 -179.27 
3200 -182.06 -178.15 -179.27 
3201 -181.03 -178.17 -179.27 
3202 -186.07 -178.09 -179.27 
3203 -182.19 -178.11 -179.27 
3204 -186.00 -179.30 -179.27 
3205 -187.00 -177.70 -179.27 
3206 -183.68 -177.72 -179.27 
3207 -183.53 -177.91 -179.27 
3208 -182.45 -177.91 -179.27 
3209 -186.48 -177.68 -179.27 
3210 -184.31 -177.69 -179.27 
3211 -182.70 -177.94 -179.27 
3212 -184.94 -177.89 -179.27 
3213 -185.65 -177.86 -179.27 
3214 -182.80 -179.00 -179.27 
3215 -184.67 -177.56 -179.27 
3216 -188.46 -177.63 -179.27 
3217 -185.51 -177.73 -179.27 
3218 -183.85 -179.19 -179.27 
3219 -183.63 -177.68 -179.27 
3220 -182.05 -177.59 -179.27 
3221 -185.38 -179.09 -179.27 
3222 -186.98 -177.63 -179.27 
3223 -184.73 -177.58 -179.27 
3224 -185.00 -177.62 -179.27 
3225 -181.03 -177.61 -179.27 
3226 -186.49 -177.61 -179.27 
3227 -182.36 -177.81 -179.27 
3228 -185.54 -177.86 -179.27 
3229 -184.74 -177.97 -179.27 
3230 -183.96 -178.22 -179.27 
3231 -183.13 -178.21 -179.27 
3232 -182.49 -179.47 -179.27 
3233 -182.19 -177.89 -179.27 
3234 -181.95 -178.15 -179.27 
3235 -185.72 -178.20 -179.27 
3236 -185.35 -178.08 -179.27 
3237 -183.87 -178.34 -179.27 
3238 -185.39 -178.32 -179.27 
3239 -183.50 -178.45 -179.27 
3240 -182.66 -178.40 -179.27 
3241 -189.72 -178.55 -179.27 
3242 -181.70 -178.64 -179.27 
3243 -183.38 -178.77 -179.27 
3244 -184.29 -178.36 -179.27 
3245 -187.37 -178.41 -179.27 
3246 -181.33 -178.42 -179.27 
3247 -180.80 -178.48 -179.27 
3248 -181.26 -178.40 -179.27 
3249 -183.74 -178.25 -179.27 
3250 -182.38 -178.34 -179.27 
3251 -182.57 -178.35 -179.27 
3252 -184.58 -178.46 -179.27 
3253 -184.63 -178.43 -179.27 
3254 -183.44 -178.23 -179.27 
3255 -183.44 -177.96 -179.27 
3256 -181.34 -177.91 -179.27 
3257 -178.47 -178.17 -179.27 
3258 -188.46 -178.27 -178.47 
3259 -183.32 -178.27 -178.47 
3260 -185.80 -177.91 -178.47 
3261 -182.91 -177.95 -178.47 
3262 -183.17 -179.36 -178.47 
3263 -180.35 -177.79 -178.47 
3264 -187.85 -177.83 -178.47 
3265 -185.38 -178.00 -178.47 
3266 -184.40 -178.14 -178.47 
3267 -180.15 -178.07 -178.47 
3268 -182.06 -178.23 -178.47 
3269 -185.00 -178.04 -178.47 
3270 -183.12 -178.28 -178.47 
3271 -184.24 -178.34 -178.47 
3272 -182.10 -178.17 -178.47 
3273 -184.89 -178.20 -178.47 
3274 -185.35 -178.18 -178.47 
3275 -184.48 -178.19 -178.47 
3276 -185.26 -177.82 -178.47 
3277 -179.24 -179.24 -178.47 
3278 -184.70 -177.52 -178.47 
3279 -183.41 -177.50 -178.47 
3280 -185.10 -177.44 -178.47 
3281 -185.11 -178.94 -178.47 
3282 -181.54 -177.55 -178.47 
3283 -184.43 -177.52 -178.47 
3284 -179.82 -177.49 -178.47 
3285 -181.09 -177.50 -178.47 
3286 -183.24 -177.38 -178.47 
3287 -184.42 -177.33 -178.47 
3288 -184.53 -177.24 -178.47 
3289 -184.40 -177.20 -178.47 
3290 -184.36 -177.29 -178.47 
3291 -184.98 -176.74 -178.47 
3292 -183.12 -176.63 -178.47 
3293 -183.34 -178.10 -178.47 
3294 -184.23 -177.97 -178.47 
3295 -182.26 -178.11 -178.47 
3296 -184.47 -178.22 -178.47 
3297 -182.43 -176.86 -178.47 
3298 -187.11 -176.80 -178.47 
3299 -183.72 -178.36 -178.47 
3300 -185.36 -176.80 -178.47 
3301 -186.34 -176.65 -178.47 
3302 -185.10 -177.03 -178.47 
3303 -183.00 -176.84 -178.47 
3304 -182.76 -176.97 -178.47 
3305 -187.04 -177.06 -178.47 
3306 -184.18 -177.52 -178.47 
3307 -184.76 -177.06 -178.47 
3308 -186.14 -177.19 -178.47 
3309 -188.63 -177.16 -178.47 
3310 -184.62 -176.96 -178.47 
3311 -182.03 -177.04 -178.47 
3312 -182.76 -176.86 -178.47 
3313 -183.60 -176.85 -178.47 
3314 -184.43 -176.81 -178.47 
3315 -184.55 -176.69 -178.47 
3316 -185.09 -176.60 -178.47 
3317 -183.45 -177.00 -178.47 
3318 -183.58 -177.08 -178.47 
3319 -184.88 -177.12 -178.47 
3320 -183.25 -176.66 -178.47 
3321 -186.55 -176.69 -178.47 
3322 -183.13 -176.66 -178.47 
3323 -180.88 -176.98 -178.47 
3324 -184.60 -177.05 -178.47 
3325 -186.09 -177.07 -178.47 
3326 -181.70 -176.88 -178.47 
3327 -181.32 -176.81 -178.47 
3328 -183.60 -176.72 -178.47 
3329 -183.54 -176.72 -178.47 
3330 -182.43 -176.72 -178.47 
3331 -183.02 -176.82 -178.47 
3332 -182.51 -178.42 -178.47 
3333 -184.46 -177.12 -178.47 
3334 -183.59 -176.98 -178.47 
3335 -186.68 -178.27 -178.47 
3336 -184.50 -178.38 -178.47 
3337 -182.42 -176.88 -178.47 
3338 -184.07 -176.81 -178.47 
3339 -182.67 -176.82 -178.47 
3340 -185.02 -176.84 -178.47 
3341 -183.56 -176.95 -178.47 
3342 -182.64 -177.29 -178.47 
3343 -183.42 -178.77 -178.47 
3344 -185.57 -178.70 -178.47 
3345 -181.91 -178.43 -178.47 
3346 -187.28 -177.14 -178.47 
3347 -182.60 -177.21 -178.47 
3348 -184.80 -176.96 -178.47 
3349 -183.42 -177.06 -178.47 
3350 -186.79 -176.87 -178.47 
3351 -184.76 -178.21 -178.47 
3352 -185.33 -178.09 -178.47 
3353 -183.63 -176.82 -178.47 
3354 -181.84 -178.13 -178.47 
3355 -185.05 -177.89 -178.47 
3356 -185.28 -177.87 -178.47 
3357 -184.36 -177.86 -178.47 
3358 -184.16 -177.93 -178.47 
3359 -185.60 -177.78 -178.47 
3360 -181.69 -177.63 -178.47 
3361 -184.17 -179.20 -178.47 
3362 -184.28 -179.19 -178.47 
3363 -180.60 -179.08 -178.47 
3364 -188.65 -179.07 -178.47 
3365 -185.57 -178.70 -178.47 
3366 -181.95 -178.71 -178.47 
3367 -186.13 -178.49 -178.47 
3368 -186.93 -180.28 -178.47 
3369 -184.04 -178.91 -178.47 
3370 -181.52 -179.20 -178.47 
3371 -186.50 -179.16 -178.47 
3372 -183.83 -179.04 -178.47 
3373 -182.73 -178.98 -178.47 
3374 -185.90 -178.94 -178.47 
3375 -184.49 -178.84 -178.47 
3376 -183.31 -179.12 -178.47 
3377 -182.73 -179.14 -178.47 
3378 -182.84 -178.96 -178.47 
3379 -183.89 -180.35 -178.47 
3380 -181.90 -178.65 -178.47 
3381 -184.29 -178.28 -178.47 
3382 -185.08 -180.24 -178.47 
3383 -186.59 -178.76 -178.47 
3384 -183.54 -178.79 -178.47 
3385 -182.77 -178.87 -178.47 
3386 -184.38 -177.55 -178.47 
3387 -185.90 -179.45 -178.47 
3388 -182.60 -177.82 -178.47 
3389 -181.94 -177.77 -178.47 
3390 -184.23 -177.53 -178.47 
3391 -181.84 -177.46 -178.47 
3392 -186.39 -177.65 -178.47 
3393 -183.87 -177.57 -178.47 
3394 -185.26 -177.38 -178.47 
3395 -182.03 -177.61 -178.47 
3396 -182.26 -177.38 -178.47 
3397 -183.60 -177.54 -178.47 
3398 -183.09 -177.50 -178.47 
3399 -185.99 -178.00 -178.47 
3400 -187.40 -178.48 -178.47 
3401 -184.83 -178.49 -178.47 
3402 -186.00 -178.59 -178.47 
3403 -186.06 -178.76 -178.47 
3404 -185.25 -178.37 -178.47 
3405 -184.83 -178.35 -178.47 
3406 -182.03 -178.75 -178.47 
3407 -187.04 -178.67 -178.47 
3408 -188.49 -178.87 -178.47 
3409 -184.38 -178.88 -178.47 
3410 -182.67 -180.15 -178.47 
3411 -181.22 -178.81 -178.47 
3412 -184.27 -178.86 -178.47 
3413 -183.25 -178.66 -178.47 
3414 -182.82 -178.48 -178.47 
3415 -183.09 -178.33 -178.47 
3416 -184.34 -179.65 -178.47 
3417 -185.76 -179.64 -178.47 
3418 -182.73 -178.70 -178.47 
3419 -183.09 -179.77 -178.47 
3420 -183.95 -179.80 -178.47 
3421 -185.44 -180.08 -178.47 
3422 -182.13 -179.94 -178.47 
3423 -186.12 -178.56 -178.47 
3424 -185.52 -180.04 -178.47 
3425 -183.71 -180.03 -178.47 
3426 -183.26 -179.92 -178.47 
3427 -182.93 -178.47 -178.47 
3428 -184.31 -178.25 -178.47 
3429 -183.95 -179.86 -178.47 
3430 -182.86 -179.91 -178.47 
3431 -181.36 -180.17 -178.47 
3432 -184.89 -179.99 -178.47 
3433 -184.76 -180.12 -178.47 
3434 -183.47 -180.04 -178.47 
3435 -184.57 -180.05 -178.47 
3436 -187.49 -179.84 -178.47 
3437 -182.83 -180.00 -178.47 
3438 -182.67 -179.92 -178.47 
3439 -182.75 -178.80 -178.47 
3440 -184.83 -177.30 -178.47 
3441 -185.35 -177.41 -178.47 
3442 -180.52 -177.35 -178.47 
3443 -183.90 -178.66 -178.47 
3444 -182.29 -180.27 -178.47 
3445 -186.72 -179.01 -178.47 
3446 -183.45 -177.77 -178.47 
3447 -185.96 -180.56 -178.47 
3448 -182.96 -179.01 -178.47 
3449 -184.61 -177.92 -178.47 
3450 -180.73 -177.94 -178.47 
3451 -186.95 -178.13 -178.47 
3452 -183.79 -178.56 -178.47 
3453 -182.72 -178.38 -178.47 
3454 -185.57 -181.19 -178.47 
3455 -179.64 -179.67 -178.47 
3456 -183.68 -179.57 -178.47 
3457 -182.91 -179.80 -178.47 
3458 -182.20 -178.25 -178.47 
3459 -183.62 -180.00 -178.47 
3460 -182.85 -178.35 -178.47 
3461 -185.88 -178.23 -178.47 
3462 -185.16 -178.16 -178.47 
3463 -182.79 -178.19 -178.47 
3464 -185.05 -178.49 -178.47 
3465 -181.58 -178.64 -178.47 
3466 -181.84 -178.53 -178.47 
3467 -183.04 -178.18 -178.47 
3468 -183.21 -178.30 -178.47 
3469 -187.39 -178.00 -178.47 
3470 -185.01 -177.87 -178.47 
3471 -185.72 -178.02 -178.47 
3472 -182.32 -178.29 -178.47 
3473 -185.25 -178.70 -178.47 
3474 -180.62 -179.01 -178.47 
3475 -183.14 -179.19 -178.47 
3476 -181.95 -179.23 -178.47 
3477 -180.24 -179.27 -178.47 
3478 -186.35 -179.51 -178.47 
3479 -183.86 -179.27 -178.47 
3480 -183.69 -179.24 -178.47 
3481 -183.69 -179.02 -178.47 
3482 -183.66 -179.07 -178.47 
3483 -184.33 -179.37 -178.47 
3484 -184.55 -179.25 -178.47 
3485 -185.10 -179.16 -178.47 
3486 -178.91 -179.57 -178.47 
3487 -181.45 -179.94 -178.47 
3488 -183.36 -179.92 -178.47 
3489 -185.35 -179.68 -178.47 
3490 -188.41 -179.53 -178.47 
3491 -184.19 -179.96 -178.47 
3492 -182.40 -179.90 -178.47 
3493 -184.47 -180.02 -178.47 
3494 -186.47 -180.32 -178.47 
3495 -184.43 -180.41 -178.47 
3496 -183.84 -180.41 -178.47 
3497 -177.53 -179.10 -178.47 
3498 -187.57 -179.13 -177.53 
3499 -184.18 -179.27 -177.53 
3500 -183.62 -179.20 -177.53 
3501 -184.13 -180.50 -177.53 
3502 -188.54 -180.23 -177.53 
3503 -182.09 -180.12 -177.53 
3504 -183.08 -179.90 -177.53 
3505 -183.38 -179.87 -177.53 
3506 -181.58 -179.79 -177.53 
3507 -188.36 -178.73 -177.53 
3508 -186.70 -180.22 -177.53 
3509 -184.69 -180.04 -177.53 
3510 -178.95 -178.79 -177.53 
3511 -183.94 -178.59 -177.53 
3512 -183.46 -180.01 -177.53 
3513 -183.88 -179.89 -177.53 
3514 -185.28 -178.09 -177.53 
3515 -184.30 -178.35 -177.53 
3516 -182.90 -179.60 -177.53 
3517 -180.95 -179.44 -177.53 
3518 -183.74 -179.41 -177.53 
3519 -184.40 -178.23 -177.53 
3520 -186.48 -179.73 -177.53 
3521 -185.17 -179.61 -177.53 
3522 -181.89 -179.65 -177.53 
3523 -183.79 -179.70 -177.53 
3524 -180.74 -179.72 -177.53 
3525 -184.08 -179.77 -177.53 
3526 -182.78 -179.76 -177.53 
3527 -187.07 -178.55 -177.53 
3528 -181.51 -178.54 -177.53 
3529 -182.96 -179.98 -177.53 
3530 -183.16 -178.80 -177.53 
3531 -185.62 -178.69 -177.53 
3532 -182.20 -177.36 -177.53 
3533 -187.11 -178.88 -177.53 
3534 -184.13 -177.29 -177.53 
3535 -186.43 -178.75 -177.53 
3536 -185.25 -178.67 -177.53 
3537 -180.03 -178.73 -177.53 
3538 -181.85 -178.75 -177.53 
3539 -184.17 -178.89 -177.53 
3540 -183.79 -178.81 -177.53 
3541 -183.66 -178.95 -177.53 
3542 -180.85 -178.66 -177.53 
3543 -183.84 -179.07 -177.53 
3544 -186.55 -178.89 -177.53 
3545 -184.20 -178.93 -177.53 
3546 -184.68 -179.17 -177.53 
3547 -183.76 -179.05 -177.53 
3548 -184.67 -178.99 -177.53 
3549 -183.03 -179.02 -177.53 
3550 -181.35 -179.03 -177.53 
3551 -183.38 -178.71 -177.53 
3552 -179.85 -178.91 -177.53 
3553 -182.61 -178.83 -177.53 
3554 -180.38 -178.69 -177.53 
3555 -179.31 -178.82 -177.53 
3556 -181.64 -177.50 -177.53 
3557 -183.71 -178.92 -177.53 
3558 -184.54 -179.02 -177.53 
3559 -181.76 -177.76 -177.53 
3560 -183.53 -177.95 -177.53 
3561 -184.53 -178.44 -177.53 
3562 -181.14 -178.51 -177.53 
3563 -183.23 -178.08 -177.53 
3564 -178.88 -179.64 -177.53 
3565 -184.85 -178.35 -177.53 
3566 -185.10 -179.58 -177.53 
3567 -182.98 -179.68 -177.53 
3568 -184.59 -179.41 -177.53 
3569 -182.60 -179.30 -177.53 
3570 -183.24 -179.22 -177.53 
3571 -181.67 -179.17 -177.53 
3572 -181.57 -179.42 -177.53 
3573 -183.99 -179.03 -177.53 
3574 -183.39 -178.87 -177.53 
3575 -183.01 -180.59 -177.53 
3576 -185.79 -180.58 -177.53 
3577 -180.38 -180.74 -177.53 
3578 -182.74 -180.53 -177.53 
3579 -182.92 -178.92 -177.53 
3580 -183.39 -178.69 -177.53 
3581 -183.34 -178.76 -177.53 
3582 -180.84 -178.53 -177.53 
3583 -184.97 -178.48 -177.53 
3584 -181.98 -178.35 -177.53 
3585 -183.90 -179.93 -177.53 
3586 -185.99 -179.62 -177.53 
3587 -181.63 -179.68 -177.53 
3588 -182.92 -179.83 -177.53 
3589 -183.47 -179.75 -177.53 
3590 -183.81 -179.43 -177.53 
3591 -188.40 -179.42 -177.53 
3592 -184.26 -179.13 -177.53 
3593 -182.77 -177.89 -177.53 
3594 -185.87 -179.61 -177.53 
3595 -180.50 -178.13 -177.53 
3596 -184.01 -178.25 -177.53 
3597 -178.92 -178.39 -177.53 
3598 -182.32 -178.36 -177.53 
3599 -186.40 -178.32 -177.53 
3600 -183.50 -178.18 -177.53 
3601 -181.48 -178.10 -177.53 
3602 -181.59 -178.36 -177.53 
3603 -187.22 -180.15 -177.53 
3604 -182.76 -178.78 -177.53 
3605 -184.01 -178.87 -177.53 
3606 -183.05 -178.86 -177.53 
3607 -183.56 -180.37 -177.53 
3608 -184.86 -179.05 -177.53 
3609 -180.94 -180.30 -177.53 
3610 -181.62 -178.92 -177.53 
3611 -186.49 -178.89 -177.53 
3612 -184.05 -178.86 -177.53 
3613 -183.60 -179.97 -177.53 
3614 -185.08 -178.76 -177.53 
3615 -186.91 -180.03 -177.53 
3616 -179.43 -179.84 -177.53 
3617 -180.22 -180.01 -177.53 
3618 -184.25 -181.76 -177.53 
3619 -184.81 -178.68 -177.53 
3620 -186.00 -178.41 -177.53 
3621 -181.15 -178.84 -177.53 
3622 -183.54 -178.92 -177.53 
3623 -180.00 -178.88 -177.53 
3624 -181.73 -178.69 -177.53 
3625 -182.02 -178.68 -177.53 
3626 -184.52 -180.15 -177.53 
3627 -185.35 -178.75 -177.53 
3628 -183.44 -180.10 -177.53 
3629 -184.10 -178.93 -177.53 
3630 -186.49 -178.94 -177.53 
3631 -187.68 -177.38 -177.53 
3632 -183.23 -178.81 -177.53 
3633 -181.69 -177.37 -177.53 
3634 -182.96 -177.34 -177.53 
3635 -184.71 -177.22 -177.53 
3636 -186.08 -177.40 -177.53 
3637 -180.35 -177.36 -177.53 
3638 -183.11 -180.29 -177.53 
3639 -183.82 -178.47 -177.53 
3640 -182.33 -178.34 -177.53 
3641 -182.16 -179.73 -177.53 
3642 -185.33 -178.27 -177.53 
3643 -181.98 -178.50 -177.53 
3644 -181.98 -178.49 -177.53 
3645 -180.65 -178.26 -177.53 
3646 -189.89 -176.64 -177.53 
3647 -185.93 -177.95 -177.53 
3648 -183.06 -179.25 -177.53 
3649 -184.53 -177.52 -177.53 
3650 -184.05 -177.84 -177.53 
3651 -179.91 -179.37 -177.53 
3652 -185.89 -180.95 -177.53 
3653 -183.16 -180.86 -177.53 
3654 -180.24 -179.26 -177.53 
3655 -184.09 -177.72 -177.53 
3656 -182.81 -180.56 -177.53 
3657 -183.93 -180.78 -177.53 
3658 -180.39 -179.52 -177.53 
3659 -183.40 -179.58 -177.53 
3660 -185.93 -179.30 -177.53 
3661 -185.07 -181.07 -177.53 
3662 -183.80 -179.97 -177.53 
3663 -184.46 -181.25 -177.53 
3664 -185.62 -178.39 -177.53 
3665 -183.92 -179.96 -177.53 
3666 -184.10 -181.61 -177.53 
3667 -179.58 -181.54 -177.53 
3668 -183.41 -180.13 -177.53 
3669 -182.92 -179.78 -177.53 
3670 -182.89 -181.11 -177.53 
3671 -186.61 -179.52 -177.53 
3672 -185.93 -181.06 -177.53 
3673 -181.39 -179.46 -177.53 
3674 -182.95 -179.28 -177.53 
3675 -184.61 -179.15 -177.53 
3676 -180.72 -179.19 -177.53 
3677 -182.21 -179.24 -177.53 
3678 -185.84 -179.41 -177.53 
3679 -185.60 -179.19 -177.53 
3680 -184.60 -179.45 -177.53 
3681 -180.56 -180.84 -177.53 
3682 -182.90 -180.71 -177.53 
3683 -179.53 -179.35 -177.53 
3684 -184.63 -179.18 -177.53 
3685 -184.17 -180.77 -177.53 
3686 -181.29 -181.06 -177.53 
3687 -184.91 -180.02 -177.53 
3688 -183.66 -181.26 -177.53 
3689 -183.45 -179.59 -177.53 
3690 -181.72 -179.51 -177.53 
3691 -185.43 -179.26 -177.53 
3692 -181.54 -180.52 -177.53 
3693 -187.96 -180.76 -177.53 
3694 -183.06 -179.45 -177.53 
3695 -184.73 -179.48 -177.53 
3696 -180.76 -179.37 -177.53 
3697 -181.41 -180.52 -177.53 
3698 -184.90 -180.53 -177.53 
3699 -181.66 -180.77 -177.53 
3700 -180.93 -182.53 -177.53 
3701 -182.40 -180.99 -177.53 
3702 -182.23 -182.54 -177.53 
3703 -181.55 -182.32 -177.53 
3704 -183.10 -180.79 -177.53 
3705 -181.68 -182.22 -177.53 
3706 -182.80 -179.37 -177.53 
3707 -184.83 -180.98 -177.53 
3708 -182.90 -181.30 -177.53 
3709 -182.81 -179.89 -177.53 
3710 -183.26 -181.31 -177.53 
3711 -180.56 -179.88 -177.53 
3712 -178.69 -181.33 -177.53 
3713 -179.31 -179.83 -177.53 
3714 -182.51 -179.79 -177.53 
3715 -184.54 -181.14 -177.53 
3716 -182.64 -179.75 -177.53 
3717 -182.20 -179.85 -177.53 
3718 -183.07 -180.03 -177.53 
3719 -183.67 -180.04 -177.53 
3720 -183.32 -179.88 -177.53 
3721 -183.43 -179.69 -177.53 
3722 -185.63 -179.69 -177.53 
3723 -181.32 -179.95 -177.53 
3724 -185.66 -179.52 -177.53 
3725 -184.84 -179.52 -177.53 
3726 -185.16 -179.68 -177.53 
3727 -180.69 -179.67 -177.53 
3728 -181.35 -179.66 -177.53 
3729 -183.93 -179.45 -177.53 
3730 -184.44 -179.49 -177.53 
3731 -181.78 -179.52 -177.53 
3732 -180.17 -179.39 -177.53 
3733 -183.34 -179.47 -177.53 
3734 -181.69 -179.46 -177.53 
3735 -184.07 -179.56 -177.53 
3736 -185.27 -179.33 -177.53 
3737 -180.86 -179.23 -177.53 
3738 -186.21 -179.19 -177.53 
3739 -183.71 -179.08 -177.53 
3740 -184.71 -178.98 -177.53 
3741 -184.64 -179.05 -177.53 
3742 -182.54 -179.09 -177.53 
3743 -181.08 -179.15 -177.53 
3744 -183.48 -180.63 -177.53 
3745 -181.53 -178.90 -177.53 
3746 -184.02 -180.16 -177.53 
3747 -181.08 -178.72 -177.53 
3748 -182.61 -180.01 -177.53 
3749 -183.94 -180.24 -177.53 
3750 -183.75 -178.53 -177.53 
3751 -186.13 -178.50 -177.53 
3752 -182.06 -178.64 -177.53 
3753 -180.63 -178.78 -177.53 
3754 -182.04 -180.24 -177.53 
3755 -184.67 -180.40 -177.53 
3756 -183.78 -178.78 -177.53 
3757 -184.74 -180.16 -177.53 
3758 -182.15 -178.91 -177.53 
3759 -180.52 -180.30 -177.53 
3760 -182.33 -180.20 -177.53 
3761 -182.06 -180.25 -177.53 
3762 -183.57 -180.24 -177.53 
3763 -181.90 -180.20 -177.53 
3764 -185.23 -179.98 -177.53 
3765 -180.94 -179.99 -177.53 
3766 -181.17 -179.69 -177.53 
3767 -186.75 -179.52 -177.53 
3768 -181.84 -181.15 -177.53 
3769 -184.67 -181.56 -177.53 
3770 -180.11 -179.74 -177.53 
3771 -181.70 -179.50 -177.53 
3772 -184.44 -179.43 -177.53 
3773 -185.78 -180.76 -177.53 
3774 -183.80 -180.58 -177.53 
3775 -180.84 -180.57 -177.53 
3776 -184.61 -180.89 -177.53 
3777 -183.59 -182.52 -177.53 
3778 -182.71 -182.58 -177.53 
3779 -184.63 -182.45 -177.53 
3780 -184.24 -182.42 -177.53 
3781 -184.14 -182.51 -177.53 
3782 -187.84 -182.58 -177.53 
3783 -181.80 -182.67 -177.53 
3784 -183.71 -182.53 -177.53 
3785 -184.78 -182.33 -177.53 
3786 -185.91 -181.06 -177.53 
3787 -182.52 -182.39 -177.53 
3788 -185.04 -183.58 -177.53 
3789 -183.57 -184.06 -177.53 
3790 -185.03 -183.92 -177.53 
3791 -185.02 -184.06 -177.53 
3792 -185.80 -182.46 -177.53 
3793 -181.09 -182.66 -177.53 
3794 -183.50 -182.82 -177.53 
3795 -180.15 -182.67 -177.53 
3796 -181.79 -182.71 -177.53 
3797 -184.69 -182.71 -177.53 
3798 -187.37 -182.74 -177.53 
3799 -183.30 -182.71 -177.53 
3800 -183.51 -182.92 -177.53 
3801 -182.94 -182.74 -177.53 
3802 -184.15 -182.96 -177.53 
3803 -185.70 -182.77 -177.53 
3804 -181.85 -182.70 -177.53 
3805 -186.96 -182.61 -177.53 
3806 -185.91 -182.83 -177.53 
3807 -181.97 -183.08 -177.53 
3808 -183.02 -183.29 -177.53 
3809 -183.66 -181.99 -177.53 
3810 -185.09 -183.21 -177.53 
3811 -181.92 -183.63 -177.53 
3812 -182.85 -180.77 -177.53 
3813 -185.16 -180.75 -177.53 
3814 -187.75 -180.71 -177.53 
3815 -182.62 -179.32 -177.53 
3816 -182.28 -182.28 -177.53 
3817 -186.46 -180.77 -177.53 
3818 -184.59 -180.64 -177.53 
3819 -183.61 -180.60 -177.53 
3820 -182.48 -179.14 -177.53 
3821 -182.32 -179.02 -177.53 
3822 -184.50 -179.14 -177.53 
3823 -183.78 -180.88 -177.53 
3824 -188.34 -181.08 -177.53 
3825 -183.38 -182.56 -177.53 
3826 -186.86 -181.05 -177.53 
3827 -183.31 -181.18 -177.53 
3828 -184.96 -179.55 -177.53 
3829 -182.50 -179.54 -177.53 
3830 -183.11 -179.58 -177.53 
3831 -185.86 -179.53 -177.53 
3832 -182.86 -179.79 -177.53 
3833 -185.50 -179.74 -177.53 
3834 -180.26 -179.35 -177.53 
3835 -182.52 -179.68 -177.53 
3836 -182.27 -180.99 -177.53 
3837 -182.85 -180.85 -177.53 
3838 -182.47 -180.53 -177.53 
3839 -184.87 -180.66 -177.53 
3840 -185.26 -180.62 -177.53 
3841 -182.47 -181.96 -177.53 
3842 -189.34 -181.70 -177.53 
3843 -185.69 -181.80 -177.53 
3844 -182.70 -181.73 -177.53 
3845 -184.97 -181.86 -177.53 
3846 -184.07 -180.05 -177.53 
3847 -184.38 -183.03 -177.53 
3848 -184.27 -182.97 -177.53 
3849 -187.05 -181.80 -177.53 
3850 -181.51 -180.30 -177.53 
3851 -181.84 -180.31 -177.53 
3852 -182.29 -180.49 -177.53 
3853 -182.22 -182.04 -177.53 
3854 -183.66 -179.02 -177.53 
3855 -187.45 -182.00 -177.53 
3856 -183.75 -178.97 -177.53 
3857 -183.64 -183.40 -177.53 
3858 -182.51 -180.54 -177.53 
3859 -183.54 -179.02 -177.53 
3860 -182.67 -180.52 -177.53 
3861 -187.20 -181.67 -177.53 
3862 -184.96 -178.94 -177.53 
3863 -190.01 -181.80 -177.53 
3864 -183.01 -178.96 -177.53 
3865 -184.89 -179.24 -177.53 
3866 -186.69 -177.74 -177.53 
3867 -183.24 -180.69 -177.53 
3868 -182.56 -180.91 -177.53 
3869 -187.23 -179.56 -177.53 
3870 -183.32 -179.37 -177.53 
3871 -184.76 -179.56 -177.53 
3872 -182.34 -178.38 -177.53 
3873 -187.87 -179.94 -177.53 
3874 -181.53 -179.96 -177.53 
3875 -182.37 -179.83 -177.53 
3876 -184.39 -179.82 -177.53 
3877 -184.03 -179.61 -177.53 
3878 -186.16 -179.65 -177.53 
3879 -184.08 -179.39 -177.53 
3880 -184.72 -179.75 -177.53 
3881 -181.16 -179.72 -177.53 
3882 -181.19 -179.79 -177.53 
3883 -185.93 -179.72 -177.53 
3884 -181.87 -179.80 -177.53 
3885 -185.06 -179.56 -177.53 
3886 -187.29 -179.32 -177.53 
3887 -185.64 -179.35 -177.53 
3888 -185.50 -179.53 -177.53 
3889 -183.86 -179.89 -177.53 
3890 -182.14 -179.79 -177.53 
3891 -183.10 -180.07 -177.53 
3892 -181.93 -178.41 -177.53 
3893 -182.63 -178.78 -177.53 
3894 -183.20 -180.11 -177.53 
3895 -185.91 -180.05 -177.53 
3896 -183.27 -178.40 -177.53 
3897 -183.97 -180.33 -177.53 
3898 -184.85 -180.46 -177.53 
3899 -185.27 -180.48 -177.53 
3900 -184.69 -180.32 -177.53 
3901 -185.41 -178.89 -177.53 
3902 -184.53 -180.51 -177.53 
3903 -186.15 -180.21 -177.53 
3904 -183.73 -178.75 -177.53 
3905 -187.43 -178.74 -177.53 
3906 -184.80 -178.73 -177.53 
3907 -183.43 -176.97 -177.53 
3908 -181.55 -178.51 -177.53 
3909 -183.77 -178.64 -177.53 
3910 -184.11 -178.71 -177.53 
3911 -188.83 -178.67 -177.53 
3912 -183.71 -178.59 -177.53 
3913 -182.49 -178.62 -177.53 
3914 -184.12 -178.30 -177.53 
3915 -185.47 -178.12 -177.53 
3916 -180.01 -178.10 -177.53 
3917 -179.38 -178.15 -177.53 
3918 -182.60 -177.91 -177.53 
3919 -183.25 -179.60 -177.53 
3920 -185.06 -179.46 -177.53 
3921 -185.35 -179.54 -177.53 
3922 -182.99 -180.78 -177.53 
3923 -181.62 -179.09 -177.53 
3924 -183.81 -180.72 -177.53 
3925 -186.37 -180.92 -177.53 
3926 -185.83 -179.14 -177.53 
3927 -184.00 -179.30 -177.53 
3928 -185.22 -179.09 -177.53 
3929 -186.04 -180.61 -177.53 
3930 -185.59 -179.24 -177.53 
3931 -182.05 -180.46 -177.53 
3932 -183.65 -180.58 -177.53 
3933 -183.41 -180.63 -177.53 
3934 -180.86 -180.64 -177.53 
3935 -186.69 -180.84 -177.53 
3936 -182.82 -180.88 -177.53 
3937 -182.67 -180.58 -177.53 
3938 -187.08 -180.55 -177.53 
3939 -180.87 -180.63 -177.53 
3940 -183.14 -180.53 -177.53 
3941 -186.18 -180.44 -177.53 
3942 -187.26 -178.74 -177.53 
3943 -181.93 -180.20 -177.53 
3944 -184.27 -178.44 -177.53 
3945 -181.84 -178.41 -177.53 
3946 -181.51 -178.37 -177.53 
3947 -179.05 -179.98 -177.53 
3948 -185.84 -179.87 -177.53 
3949 -187.88 -179.77 -177.53 
3950 -187.20 -181.40 -177.53 
3951 -185.52 -180.03 -177.53 
3952 -183.25 -180.09 -177.53 
3953 -184.82 -180.01 -177.53 
3954 -181.92 -181.25 -177.53 
3955 -181.59 -181.26 -177.53 
3956 -186.94 -181.03 -177.53 
3957 -186.49 -181.17 -177.53 
3958 -186.47 -179.72 -177.53 
3959 -186.71 -179.61 -177.53 
3960 -182.92 -182.69 -177.53 
3961 -183.45 -179.64 -177.53 
3962 -185.37 -180.84 -177.53 
3963 -183.15 -181.31 -177.53 
3964 -183.15 -179.58 -177.53 
3965 -185.47 -182.67 -177.53 
3966 -184.04 -182.72 -177.53 
3967 -187.22 -179.32 -177.53 
3968 -184.10 -180.81 -177.53 
3969 -182.73 -179.57 -177.53 
3970 -182.40 -179.62 -177.53 
3971 -185.27 -179.38 -177.53 
3972 -187.95 -177.72 -177.53 
3973 -180.74 -178.05 -177.53 
3974 -181.13 -179.17 -177.53 
3975 -182.03 -179.21 -177.53 
3976 -184.05 -179.50 -177.53 
3977 -181.12 -177.75 -177.53 
3978 -184.63 -179.42 -177.53 
3979 -184.91 -178.05 -177.53 
3980 -181.84 -178.43 -177.53 
3981 -178.91 -179.71 -177.53 
3982 -186.06 -178.12 -177.53 
3983 -184.08 -178.01 -177.53 
3984 -183.04 -178.19 -177.53 
3985 -185.77 -178.29 -177.53 
3986 -181.35 -178.29 -177.53 
3987 -182.90 -178.28 -177.53 
3988 -188.54 -178.13 -177.53 
3989 -180.74 -178.19 -177.53 
3990 -184.07 -178.07 -177.53 
3991 -187.70 -179.67 -177.53 
3992 -182.23 -177.96 -177.53 
3993 -184.37 -177.82 -177.53 
3994 -180.44 -178.07 -177.53 
3995 -183.26 -177.75 -177.53 
3996 -180.86 -179.57 -177.53 
