iteration,time_sampling,stoc_pol_mean,stoc_pol_std,stoc_pol_max,stoc_pol_min,rollout_success,alpha,delta,time_vpg,time_npg,kl_dist,surr_improvement,running_score,rwd_sparse,rwd_dense,success_percentage,num_samples,time_VF,VF_error_before,VF_error_after,eval_score,eval_success
0,2.10917329788208,-17.071836524053314,2.998618085619236,-9.629250636257373,-24.52373052315091,0.0,0.48031142831253104,0.1,0.5573930740356445,0.9772238731384277,0.0531224,0.21847217,-17.071836524053314,-0.208374113787641,-0.3307546723793609,0.0,2027,0.3874497413635254,1.002798835179073,0.1706443845986364,-5.949862662730297,0.0
1,1.6173770427703857,-15.617265176998572,2.9084924196361346,-10.358078066571327,-24.884509140872193,0.0,0.7534568568919207,0.1,0.0782170295715332,0.6463007926940918,0.050969608,0.13559008,-16.92637938934784,-0.17223499734801254,-0.3018568690156566,0.0,1900,0.20687127113342285,0.14856964067303885,0.10130396536232528,-5.1848360714198405,0.0
2,1.6177780628204346,-14.791375873484563,2.7096811429221703,-8.618831949760345,-21.353566352351343,0.0,0.7351616219057981,0.1,0.059454917907714844,1.3566420078277588,0.05117051,0.13700946,-16.712879037761514,-0.14883335752586452,-0.2854209244367755,0.0,1831,0.17322206497192383,0.09838251290664012,0.06839671408965634,-7.859695118409661,0.0
3,1.6421599388122559,-14.463246584680306,2.579694648489326,-8.50896315971554,-22.380938932140467,0.0,0.7110515335511329,0.1,0.10806798934936523,1.250931739807129,0.05219942,0.14041919,-16.487915792453393,-0.1380838731924728,-0.2788061635232699,0.0,1821,0.15283465385437012,0.066611322885867,0.043285148345092755,-5.8663542713003,0.0
4,1.5952107906341553,-14.181285757397278,2.376463560512377,-8.742429967781064,-19.679824433504237,0.0,0.6745346573195508,0.1,0.08390212059020996,1.8144376277923584,0.050390232,0.14979605,-16.25725278894778,-0.13428902561589867,-0.2732228163636264,0.0,1768,0.2046670913696289,0.03894958187059324,0.03264565277229437,-5.029529322120142,0.0
5,5.1886656284332275,-13.359238462292396,2.6383143713112283,-9.077739472135004,-22.290989748019946,0.0,0.6721176242104668,0.1,0.1385815143585205,0.8023276329040527,0.0500589,0.14300728,-15.967451356282243,-0.10619353713524848,-0.2569596654788102,0.0,1710,0.10972356796264648,0.0470556748535784,0.043370122263734136,-4.8040584041975665,0.0
6,4.555675745010376,-12.135954971370625,2.195461944611131,-7.242790103247909,-18.23627935817761,0.0,0.6616104846549195,0.1,0.010947227478027344,0.17320990562438965,0.052609418,0.15558803,-15.584301717791082,-0.06369038348824406,-0.23262479441456252,0.0,1612,0.16753506660461426,0.0478991840200198,0.03328293190259111,-4.694067575388837,0.0
7,5.855093955993652,-11.658796282332938,2.14318240013153,-7.491829643930892,-17.363873007205836,0.0,0.6484595059180364,0.1,0.030635833740234375,0.855571985244751,0.05125361,0.1631374,-15.191751174245267,-0.04385933361905439,-0.2231673464451072,0.0,1572,0.19589734077453613,0.03773487132669465,0.03472355489946776,-4.831804885696276,0.0
8,5.007037878036499,-10.398066856036111,1.6761722837259079,-7.203173905693379,-16.742293879952655,0.0,0.6713046286417896,0.1,0.08109045028686523,0.7012443542480469,0.05264046,0.15588896,-14.712382742424353,0.004617896797768604,-0.1979963372208474,0.0,1460,0.16860723495483398,0.0353956000357695,0.024917474341941998,-4.471820364893709,0.0
9,5.505967855453491,-9.794151882778143,1.419524926976167,-7.300400756695,-13.199729435975524,0.0,0.6247135095318016,0.1,0.13014960289001465,1.1479034423828125,0.05182934,0.16364098,-14.220559656459733,0.03148787050096865,-0.18608369287834492,0.0,1417,0.18196654319763184,0.02116697499812725,0.019313325740402447,-4.261346856626194,0.0
10,7.852114677429199,-9.457113466175178,1.7468989064062705,-6.471053872222235,-15.415293645940217,0.0,0.6008245626125063,0.1,0.10501265525817871,0.8794386386871338,0.0531732,0.15886442,-13.744215037431278,0.04739711520746065,-0.1795646241049076,0.0,1380,0.20300698280334473,0.031434920440592984,0.030072608863296896,-3.8300554487495617,0.0
11,5.504380464553833,-8.597667759864324,1.0051876685731198,-6.069443834939444,-11.382566891068855,0.0,0.5793032099067167,0.1,0.03676176071166992,1.3702683448791504,0.052794985,0.19013001,-13.229560309674584,0.0890341725034713,-0.16228264867457384,0.0,1316,0.15125560760498047,0.01764801804704277,0.011448059436200789,-3.649061314455752,0.0
12,2.8757433891296387,-8.47630288907326,1.2281378708181663,-5.697238334159338,-12.939048943913146,0.0,0.6009058300432736,0.1,0.04130077362060547,0.760530948638916,0.051783904,0.15747787,-12.754234567614452,0.09695435188616007,-0.1598844213264238,0.0,1308,0.11774992942810059,0.016978233688527952,0.0163594241663902,-3.6336708610141675,0.0
13,1.5103545188903809,-7.962486028515772,1.239086588924042,-6.035080036628494,-12.896415278680873,0.0,0.5533574111343825,0.1,0.09220004081726074,0.9082062244415283,0.05185348,0.16893822,-12.275059713704584,0.12343886888516682,-0.14997957034423517,0.0,1268,0.1050264835357666,0.02078404163031051,0.0170997085091283,-3.4501997734912537,0.0
14,7.903324842453003,-7.398175825038064,0.9234182349860748,-5.577903493931058,-10.398854463073393,0.0,0.5834046385966705,0.1,0.019006729125976562,1.2260403633117676,0.052334756,0.1702691,-11.787371324837931,0.15506011963870356,-0.13879476783208466,0.0,1230,0.09351038932800293,0.013553985540315863,0.010473167022887258,-3.4552963280386386,0.0
15,1.2735049724578857,-7.033347260298494,0.8179894107659318,-4.980878657030009,-9.636773550541296,0.0,0.5967457225602224,0.1,0.060487985610961914,0.2038266658782959,0.052591894,0.15985247,-11.311968918383988,0.1757789031270133,-0.13142601677386817,0.0,1192,0.17374968528747559,0.010281012807405543,0.008927283477931964,-3.2624146919679227,0.0
16,9.07306170463562,-6.741792619398478,0.7580570975908023,-5.161728377072494,-9.022819490385105,0.0,0.5293076971911543,0.1,0.05218076705932617,0.5682220458984375,0.051742893,0.17944083,-10.854951288485438,0.19266047653287596,-0.12577538998918292,0.0,1185,0.15840649604797363,0.008220963180134794,0.007369587791698745,-3.1417458186094853,0.0
17,1.32145357131958,-6.4780725709707525,0.7455183427100445,-5.0544111502766045,-10.260410986484512,0.0,0.5693760709178909,0.1,0.004317283630371094,0.1980118751525879,0.051714253,0.17181104,-10.417263416733968,0.21121642626015005,-0.1204566606962076,0.0,1181,0.08141016960144043,0.008849075872561408,0.007915170492980994,-2.8056899090182283,0.0
18,3.587435722351074,-6.204141930140925,0.6409513947212189,-4.51829427365579,-7.562242728823081,0.0,0.5454448830415662,0.1,0.07367515563964844,0.41999173164367676,0.05259251,0.20168258,-9.995951268074664,0.22690356146827742,-0.1151064189064633,0.0,1162,0.08223772048950195,0.0068841844131861596,0.00619828361291565,-2.6312435921871247,0.0
19,1.298518180847168,-5.977863795559021,0.5990823793909956,-3.950404029451827,-7.312608697160732,0.0,0.5926511712123503,0.1,0.05028486251831055,1.6344068050384521,0.05186648,0.18000215,-9.5941425208231,0.24104396992708052,-0.1107155690879656,0.0,1166,0.17813849449157715,0.00700311400208938,0.006459954371532803,-2.051875608261953,0.0
20,8.955583810806274,-5.7075783212164275,0.6027305665285485,-4.119956699653981,-6.998345484402156,0.0,0.5554569553381904,0.1,0.038121700286865234,0.23815131187438965,0.0516862,0.1909279,-9.205486100862434,0.2559357023949251,-0.10540999613469616,0.0,1145,0.1597294807434082,0.00744456358487617,0.006770926439897739,-1.9064825934250336,0.0
21,3.1959986686706543,-5.453812572167222,0.7788573418227036,-1.6322054962293238,-7.316982624405622,0.0,0.5572987703132443,0.1,0.10180377960205078,1.7207965850830078,0.05121135,0.22058593,-8.830318747992912,0.2749841835156323,-0.1004258335146729,0.0,1176,0.17252779006958008,0.014271983417144021,0.012709060722915663,-1.14556919632384,0.0
22,1.301609992980957,-5.071644138896747,0.6647467733903432,-2.7941897145637364,-6.558599918701864,0.0,0.5683945545379474,0.1,0.0677037239074707,0.44202518463134766,0.0507196,0.19094875,-8.454451287083296,0.30166483369733643,-0.09281113387622354,0.0,1183,0.09631681442260742,0.014722515959377812,0.011774214948268618,-0.6187951249934365,0.0
23,1.3053903579711914,-4.764580980186842,0.9260245626063321,-2.3191621883973847,-6.4250884763649365,0.0,0.5799653938917203,0.1,0.049265384674072266,0.788663387298584,0.051068287,0.19270313,-8.085464256393651,0.3209793235646033,-0.08676035896625718,0.0,1217,0.1827998161315918,0.025590997077425313,0.023496636978231067,1.3232655783775709,0.0
24,1.2886133193969727,-4.4874220692953175,1.0473398259197757,-0.18372292705588045,-6.649722435598681,0.0,0.610750609721379,0.1,0.07903337478637695,1.0603830814361572,0.05137622,0.1882086,-7.725660037683817,0.33960197421240523,-0.08125586216032767,0.0,1231,0.23412656784057617,0.03570944356355305,0.032477884014400334,71.26468799391898,0.0
25,1.749319076538086,-3.947186118110707,0.9767880011058949,-0.3622518247967781,-5.8735058133133,0.0,0.6014435291524551,0.1,0.011512041091918945,0.46387696266174316,0.05094442,0.16659227,-7.347812645726506,0.37950727984593796,-0.07058492740318394,0.0,1284,0.11604619026184082,0.04354129633134782,0.0362706226666065,169.1302176262882,0.0
26,1.4087529182434082,2.880685130319591,52.16861705023529,506.1763293441136,-6.145454028057664,1.0416666666666667,0.5631210988435109,0.1,0.07001352310180664,1.1742231845855713,0.050475247,0.4806931,-6.324962868121896,0.4114733828617309,0.06616669085519154,1.0416666666666667,1395,0.16958117485046387,1.016161872959871,0.9968005859159147,168.87966602731794,0.0
27,5.188466548919678,-3.2241114339023142,1.7864292497704173,9.57356966617144,-6.343818155088927,0.0,0.581675191254066,0.1,0.07840180397033691,0.3367576599121094,0.051639244,0.21177669,-6.014877724699938,0.4131696936531009,-0.056141449971845746,0.0,1358,0.10862064361572266,1.6672870328635956,1.2559868590459298,278.18612322679246,0.0
28,1.4530861377716064,-1.9052602084631864,7.021566432775293,50.30304893553905,-6.210870434942367,0.0,0.6868002652728596,0.1,0.044330596923828125,0.5542008876800537,0.050715767,0.23093727,-5.603915973076263,0.42823997189213975,-0.029913734308845932,0.0,1412,0.1891021728515625,1.0463170510439543,0.9363783905251227,277.89326170100645,0.0
29,1.5721156597137451,6.837718677079034,62.671620694289345,455.53350425605373,-5.905900726495688,2.0833333333333335,0.6850060083916982,0.1,0.14281320571899414,1.6243369579315186,0.049976528,0.2377567,-4.359752508060733,0.4475276822452967,0.14503313496572134,2.0833333333333335,1498,0.15700817108154297,1.0043506369689803,0.9982023738800193,278.061251042235,0.0
30,4.53311562538147,2.770847806092925,32.428950006080406,227.7214198718676,-5.300094982272004,0.0,0.6715275450282556,0.1,0.06531620025634766,0.8467395305633545,0.048945192,0.26577434,-3.6466924766453674,0.4561588693848327,0.06350954343997232,0.0,1526,0.17435598373413086,0.9974701887834381,0.9924513926067848,277.9542274464907,0.0
31,4.960363149642944,28.76044570135252,106.1655544422891,596.7031914751934,-5.010999965419766,3.125,0.6901356015999031,0.1,0.012186765670776367,0.2505619525909424,0.050399356,0.17936389,-0.4059786588455787,0.48413270555421756,0.5835418629876529,3.125,1694,0.21500587463378906,0.9922310608095419,0.8962314932532803,278.002430142071,0.0
32,8.378907442092896,19.853111503707268,104.82054528616405,707.6116956900656,-5.202569091537579,2.0833333333333335,0.6683997817151823,0.1,0.12438511848449707,0.6751394271850586,0.049740683,0.2070539,1.619930357409706,0.48007407846035255,0.40520131500594997,2.0833333333333335,1611,0.3295154571533203,0.9570586148211108,0.9468594741358802,278.2300800493095,0.0
33,2.5385472774505615,20.733556480872924,83.79268573613254,435.1900878152537,-5.326822424240812,2.0833333333333335,0.6804530769973373,0.1,0.039724111557006836,0.8990697860717773,0.049492195,0.20552093,3.531292969756028,0.47796512388317997,0.4229011287974804,2.0833333333333335,1678,0.14747905731201172,0.9158444460542001,0.9120863540927061,277.94459670077424,0.0
34,5.541629076004028,34.98137607001318,124.68435747953434,669.21358810939,-4.294193436499049,5.208333333333333,0.6801079218192079,0.1,0.028809547424316406,0.4938797950744629,0.04993882,0.1942579,6.676301279781743,0.5042551851425144,0.7077546431783706,5.208333333333333,1711,0.20972132682800293,0.907084265482878,0.8807785094807294,277.93637087739415,0.0
35,3.462357759475708,64.98820427661678,164.94987559400812,749.0988925006994,-6.0739264500975,7.291666666666667,0.7460735779494776,0.1,0.08107471466064453,1.8429217338562012,0.049665824,0.15776786,12.507491579465249,0.5101019741159584,1.307281007560331,7.291666666666667,1893,0.19174456596374512,0.8434876080636543,0.8146049774870705,278.00872193963784,0.0
36,5.387733697891235,33.934094015326345,106.98990744482235,503.4143439001197,-5.740329877388641,5.208333333333333,0.7269907470570542,0.1,0.03190803527832031,0.40839219093322754,0.04958593,0.17988995,14.65015182305136,0.5086934623046105,0.6867667148949206,5.208333333333333,1740,0.21492433547973633,0.9889986032565006,0.8785391597803567,277.89319167162085,0.0
37,1.804028034210205,71.67319842083128,156.70515851933635,636.166037640049,-6.692317382869795,7.291666666666667,0.8191184198678695,0.1,0.09952902793884277,2.0683176517486572,0.049115375,0.13348883,20.352456482829353,0.514129086148042,1.4420301670603746,7.291666666666667,2018,0.2833883762359619,0.8429757727805751,0.7919339558722208,267.76196015822063,0.0
38,6.701335191726685,100.66053514925186,206.8043749527215,901.8975612904676,-4.7909542596618575,11.458333333333334,0.8360209176433584,0.1,0.10037779808044434,1.345501184463501,0.051734783,0.13800418,28.383264349471606,0.5462622691616802,2.021410782826442,11.458333333333334,2110,0.5952363014221191,0.7990644145469508,0.7825248176187288,267.79121552887193,0.0
39,2.0035133361816406,100.13552961489421,183.1303556515345,828.6209587141675,-4.703634841654879,9.375,0.8263960606805947,0.1,0.13367080688476562,0.5589556694030762,0.046415247,0.11928678,35.55849087601387,0.571767764690438,2.0111490574471067,9.375,2265,0.6500339508056641,0.7451331735514103,0.7377633741420324,278.5140518834812,0.0
40,1.7235801219940186,136.79217420355587,206.09391406424396,698.421417875846,-3.9272700270940324,18.75,0.8583353525386473,0.1,0.08406496047973633,1.5477306842803955,0.050003123,0.1204784,45.681859208768074,0.5636791462651854,2.746518381567564,18.75,2343,0.7291126251220703,0.6793358915141756,0.6518458143301887,278.4556101787957,0.0
41,3.263570547103882,192.97503571280575,241.2238742291768,898.5839740048497,-3.4908784784569833,23.958333333333332,0.9220267068092077,0.1,0.0802912712097168,0.4709603786468506,0.04956889,0.110970736,60.411176859171846,0.5811526520384883,3.8683226820632197,23.958333333333332,2630,0.8329424858093262,0.6199360573151393,0.5826659472287558,279.07140540783416,0.0
42,2.487215518951416,227.9158908830918,250.00174769393024,869.5847875335625,-6.378868848292003,31.25,0.8990142581282072,0.1,0.060121774673461914,0.5671176910400391,0.049386356,0.11967144,77.16164826156384,0.5715928787973025,4.567608959329097,31.25,2644,0.514594316482544,0.5522394479925382,0.530150421172237,278.9643367693543,0.0
43,2.187251091003418,280.70200700200854,256.0356382314019,1030.846569150955,-48.48079130986821,34.375,0.8365617150118065,0.1,0.07290983200073242,0.7780842781066895,0.04011551,0.09180772,97.51568413560831,0.5086789261237344,5.622483020757307,34.375,2937,0.6828970909118652,0.483800771886175,0.4662295044978525,278.64080428825457,0.0
44,7.835498094558716,319.8168617348561,235.029283604405,1050.9775690829567,-3.3935869117175326,41.666666666666664,0.7861216335318638,0.1,0.10813760757446289,2.173499584197998,0.04988773,0.10254884,119.74580189553309,0.49683898638133384,6.405262823950578,41.666666666666664,3183,0.8085019588470459,0.3972126204882915,0.3866061584251463,278.3750911814903,0.0
45,2.63373064994812,304.68478875594684,239.15675846012903,1020.8208518404541,-2.516446819667301,37.5,0.9254888218758476,0.1,0.10147452354431152,0.9651439189910889,0.050637778,0.100067444,138.23970058157448,0.5635056573035042,6.102241810677985,37.5,2984,0.8846819400787354,0.4259514557380261,0.42029374437034317,278.4581503650145,0.0
46,1.9025428295135498,354.9039628454293,262.04048116744144,768.3734910013435,-1005.4767986010639,51.041666666666664,0.6138715995602749,0.1,0.08892512321472168,2.5408549308776855,0.039659232,0.068022795,159.90612680795996,-0.08197030168811759,7.10710487228376,51.041666666666664,3189,0.8633415699005127,0.4386011296942827,0.42311894827407304,278.7539429131016,0.0
47,3.1229798793792725,363.71426944378027,286.33755622281086,1481.453757003034,-1213.337799584872,51.041666666666664,0.5342729034656665,0.1,0.09833288192749023,1.7623331546783447,0.032270905,0.059113845,180.286941071542,-0.10249406097234594,7.2833503173779475,51.041666666666664,3206,1.0846731662750244,0.4847440549643646,0.4798289859711157,278.90888807109553,0.0
48,2.3375673294067383,354.790846076626,213.08193772725548,717.7581358120502,-396.9236132145822,52.083333333333336,0.8293977675966052,0.1,0.10167312622070312,1.1936781406402588,0.04710927,0.09675645,197.7373315720504,0.19797758200552593,7.10494847787056,52.083333333333336,3009,0.6089305877685547,0.3265429225086431,0.324512839429062,278.67884646042836,0.0
49,2.4709441661834717,435.7546496549594,207.54083073214048,849.7636527616912,-148.94704635383965,63.541666666666664,0.810096651594197,0.1,0.0886538028717041,1.1520209312438965,0.045288313,0.083499916,221.5390633803413,0.40308358846292164,8.72401264137868,63.541666666666664,3148,0.8095624446868896,0.273737884014517,0.23262631540426795,278.9771682441358,0.0
50,4.231527805328369,435.88545286651305,207.91402126254007,899.5511849375279,-283.02704362551583,67.70833333333333,0.9839228410467799,0.1,0.12547826766967773,1.3383285999298096,0.054648284,0.08765404,242.9737023289585,0.264753924705238,8.727806929606414,67.70833333333333,3196,0.8036906719207764,0.26348450303840176,0.2594960076395224,278.9733608434861,0.0
51,7.055122375488281,432.8359588729218,344.881789486937,1020.6788442073102,-2305.568251603723,71.875,0.5511934639988025,0.1,0.1235039234161377,1.2540621757507324,0.049575504,0.060869485,261.9599279833548,-0.06781181863989431,8.6658386334235,71.875,3220,0.9582829475402832,0.4835969779418345,0.47998389134444513,288.79206203673283,0.0
52,4.248625755310059,440.3060388188613,195.25652612548512,828.580479765764,0.1763219825542457,64.58333333333333,0.8227568142022056,0.1,0.09912800788879395,1.9865710735321045,0.05016293,0.10175143,279.7945390669055,0.632700320474016,8.815023964821792,64.58333333333333,3244,0.977522611618042,0.23111100821060446,0.22810154115230105,288.43284171220483,0.0
53,2.681759834289551,470.1661600362715,223.52421990172977,1229.484996715835,0.27303507375695446,71.875,0.9863871959995154,0.1,0.10078859329223633,0.9591591358184814,0.050216414,0.09165599,298.8317011638421,0.5878219134464954,9.412016254157757,71.875,3207,0.8555648326873779,0.25955559049662696,0.2532782658017682,278.98035967928774,0.0
54,2.3250460624694824,427.3379379989044,195.54554876645932,840.0135325849034,-392.37070048836165,68.75,0.7354641756187313,0.1,0.10202813148498535,1.0096867084503174,0.05228572,0.080503814,311.6823248473484,0.3259959757308033,8.55543293106477,68.75,3252,0.8149559497833252,0.2481905366912354,0.23208028089132393,338.5240539774285,0.0
55,5.92566442489624,483.77139111298374,194.02212006591202,949.814136755142,1.5818065046323913,77.08333333333333,0.6710334145333303,0.1,0.1022648811340332,1.1435058116912842,0.047232196,0.09067993,328.89123147391194,0.4466972976749537,9.684144281875149,77.08333333333333,3189,0.7329645156860352,0.22556931051917323,0.20132536974783602,338.7453656910259,0.0
56,7.314637660980225,486.8744821001986,190.09354705155894,1070.3399510446527,-1.3549249242717152,80.20833333333333,0.7097210042387446,0.1,0.10148763656616211,1.8256449699401855,0.04386115,0.09604761,344.68955653654064,0.5933150778482374,9.746106707691927,80.20833333333333,3200,1.0182361602783203,0.1847995314012518,0.18119504045465615,338.87075929662046,0.0
57,4.973959922790527,454.6329118877605,417.49329412717555,838.7707582499947,-3258.969453045348,84.375,0.9472175609196024,0.1,0.09785771369934082,1.695566177368164,0.05454828,0.063597985,355.6838920716626,0.5271835303206599,9.864801297454454,84.375,3191,0.901017427444458,0.5788218615573455,0.573591898602881,348.59153961493826,0.0
58,4.707951784133911,513.0984663004402,169.6008488130967,949.8192090544673,0.5997397285012438,82.29166666666667,0.8687243833917307,0.1,0.14850640296936035,2.341063976287842,0.050097562,0.10594124,371.4253494945404,0.531715584829419,10.271047171786064,82.29166666666667,3131,0.7959587574005127,0.1609241557976898,0.1532752331869368,348.6192965548834,0.0
59,10.656238079071045,495.05099347012543,150.92986869176602,889.8855203132958,-0.5431362130503263,88.54166666666667,0.6670639973604064,0.1,0.08847618103027344,2.24562931060791,0.03042177,0.07713431,383.7879138920989,0.5718708317880228,9.909574611977932,88.54166666666667,3108,0.8552207946777344,0.141094718441447,0.13713872845172215,348.53034120783565,0.0
60,2.1114981174468994,547.999001450074,173.92663761296944,1332.3492899466723,4.921992606331515,91.66666666666667,0.9359691032739097,0.1,0.11034107208251953,2.2640998363494873,0.049544137,0.10560193,400.20902264789646,0.6348704915969811,10.9690466427667,91.66666666666667,3256,0.7136452198028564,0.15822419247860128,0.14940426100765755,398.6915169983284,100.0
61,5.744255304336548,517.2439302559617,160.51299227903985,1200.8649374632043,1.9743583375330394,85.41666666666667,0.9523119814478357,0.1,0.10358119010925293,1.8356633186340332,0.04990138,0.099788,411.912513408703,0.5856545876310348,10.354466765360458,85.41666666666667,3163,0.7118659019470215,0.14587354060855268,0.1414392890888795,348.6617888087068,0.0
62,2.0601422786712646,503.8741552399843,156.4517235441069,900.1221929333875,-1.5978404302955633,88.54166666666667,0.7419577039735268,0.1,0.11923742294311523,2.332545042037964,0.04718616,0.08870066,421.1086775918311,0.529554336922783,10.08731328272791,88.54166666666667,3093,0.9363610744476318,0.12202889503172819,0.1196012931019178,348.5392992713076,0.0
63,7.44443154335022,523.4705795800993,170.24113059466362,970.1325243676506,0.36104328446963585,88.54166666666667,0.879175902680182,0.1,0.09851503372192383,2.3447842597961426,0.048600554,0.0985438,431.34486779065793,0.5330092307597163,10.478386784890118,88.54166666666667,3144,0.7577564716339111,0.14059747080308185,0.13675713780195528,348.4236070160946,0.0
64,5.238400936126709,497.39606554550716,172.19046735413414,949.874244033196,-185.67867305950125,88.54166666666667,0.7521643107902106,0.1,0.11294221878051758,1.6117758750915527,0.05071883,0.08871547,437.94998756614285,0.43350067753329524,9.956619917243865,88.54166666666667,3108,0.9684092998504639,0.16692478053834736,0.15736088682251803,348.2619194518019,0.0
65,9.414487838745117,549.8072071850229,119.92700202762212,1020.2961463940325,82.98042729109099,94.79166666666667,0.891379108380874,0.1,0.08707332611083984,2.4457545280456543,0.050135285,0.10134593,449.1357095280309,0.6502873659109113,11.00518193106953,94.79166666666667,3176,1.1813549995422363,0.09297118436366701,0.07890537522267589,348.03539814323267,0.0
66,6.6227757930755615,524.2940566572693,147.23518511085032,1052.076690009357,62.314717051213876,90.625,0.9491772624111746,0.1,0.10977530479431152,2.32781982421875,0.04637879,0.116526365,456.65154424095476,0.6454541448900898,10.494274349434622,90.625,3120,0.8377165794372559,0.1032815685155522,0.10127214702821362,348.03837600446326,0.0
67,3.1423401832580566,545.0191720942317,143.24633408291783,889.3243964434921,-1.5003259378381175,93.75,0.9996411051183516,0.1,0.10364270210266113,1.5920701026916504,0.04926964,0.099264294,465.4883070262825,0.5528087127415462,10.908317248568489,93.75,3159,1.1488111019134521,0.09391698003000373,0.08835178824138126,347.89931304413955,0.0
68,3.8918113708496094,519.8469947809513,142.76832891334865,1079.4911648241527,-0.1872833506018079,92.70833333333333,0.8601290286014804,0.1,0.09421229362487793,1.906522512435913,0.049673464,0.11898526,470.92417580174936,0.6530996879423561,10.40577732062731,92.70833333333333,3073,1.1182005405426025,0.11011590449137924,0.1015915521191744,397.7025522960091,100.0
69,7.632249355316162,550.7712403808514,223.73234863953962,1069.5559346142222,-1271.6635891181306,95.83333333333333,0.8248373134074324,0.1,0.10390520095825195,1.6111149787902832,0.04842865,0.08026582,478.90888225965955,0.07685480723320508,11.024249528458478,95.83333333333333,3102,0.7037103176116943,0.192174144640808,0.1879817275065112,347.6778231650198,0.0
70,10.647064208984375,546.505232400923,160.45940047034446,898.375855280373,-3.0895107363142422,90.625,0.9113932146291988,0.1,0.11879372596740723,1.4042060375213623,0.051232364,0.114371866,485.6685172737859,0.5234401760329196,10.938951236033963,90.625,3159,1.1152565479278564,0.11315349478252942,0.11002749154655371,347.6010489800473,0.0
71,2.728083610534668,543.888998004563,155.46285760661715,1191.304089067656,0.9769968100367272,91.66666666666667,0.9614101713995822,0.1,0.11395692825317383,1.0166056156158447,0.04994581,0.11600785,491.4905653468636,0.5543069635665137,10.886292673859424,91.66666666666667,3158,1.0273237228393555,0.1084650839264873,0.10705433493693092,397.55102570133175,100.0
72,7.146731376647949,567.2829919183464,126.07829353079485,849.7988940645599,2.888638073982756,95.83333333333333,0.6428340262775187,0.1,0.13623309135437012,1.3753013610839844,0.028840246,0.07731281,499.0698080040119,0.683006662944829,11.354418830672117,95.83333333333333,3166,0.9836993217468262,0.06791964268046159,0.06415398175518576,397.5274358643239,100.0
73,2.2883315086364746,547.2910513836895,211.85395305909648,1019.4385406960895,-1057.3261051742359,96.875,0.5573633904136334,0.1,0.10690832138061523,1.9505178928375244,0.040650986,0.05818129,503.89193234197967,0.09107477471256316,10.954711939607975,96.875,3070,1.303102731704712,0.19610567713865887,0.19171085942668795,347.5271629711122,0.0
74,2.4617791175842285,552.2737518505684,152.1461869221635,959.0008955362418,-0.2895741094772273,94.79166666666667,0.9308045555520493,0.1,0.10718679428100586,0.8322122097015381,0.050792348,0.14938402,508.7301142928386,0.6417910416444274,11.054297660084307,94.79166666666667,3083,1.0727131366729736,0.09299513532476214,0.09195468238907974,347.6855073956628,0.0
75,4.8264689445495605,581.7949015835046,100.29365643932341,1119.4849341936695,293.7087988175121,98.95833333333333,0.8783700533688814,0.1,0.11016964912414551,1.3965718746185303,0.032647688,0.089118294,516.0365930219052,0.6782521869704459,11.644297573665916,98.95833333333333,3146,1.1053922176361084,0.05714490208621627,0.0523809847282323,397.52873235271045,100.0
76,2.302455425262451,551.6282749301471,129.1001351055029,778.6566893738192,2.5555288456800564,96.875,0.8377489086676255,0.1,0.08457136154174805,0.6241261959075928,0.050281435,0.24890645,519.5957612127294,0.44525913415325413,11.04148032433294,96.875,3047,0.759777307510376,0.07444021734463604,0.07059610522930652,397.3953450847517,100.0
77,2.1800663471221924,202.92538357648002,3299.188365819484,839.1058869379702,-31936.576159029206,97.91666666666667,0.8601387006490705,0.1,0.09695124626159668,1.8822321891784668,0.049546536,0.049401194,487.9287234491045,-7.999510285962697,4.066923765683981,97.91666666666667,3092,1.2452874183654785,1.0064758819294457,0.9946980631793358,397.33542109717285,100.0
78,2.389359951019287,558.310603962375,159.25889707233316,839.9034473372694,-0.23423626882314696,93.75,0.97975127058706,0.1,0.13688158988952637,1.285081386566162,0.05068954,0.095442586,494.96691150043154,0.6797186432923169,11.174922714122943,93.75,3116,1.10467529296875,0.47161141773025184,0.09908806197539381,347.75099244852646,0.0
79,10.863574743270874,552.8310146236804,75.20749255688526,708.5724426054741,235.18233445562674,97.91666666666667,0.9303044213584072,0.1,0.10205507278442383,1.1174960136413574,0.05019041,0.10975564,500.75332181275644,0.6719359720252335,11.06531121967481,97.91666666666667,3132,1.1876883506774902,0.037362201391120106,0.03362042786878296,397.12419467959126,100.0
80,4.844230890274048,567.7405916656858,89.02815567222689,779.4976505301092,303.08470777222624,97.91666666666667,0.9160736988185099,0.1,0.09694361686706543,0.9218273162841797,0.050506867,0.12028107,507.45204879804936,0.6807197843905096,11.363977194462379,97.91666666666667,3118,0.90024733543396,0.04110520811149392,0.03857759114062123,397.72023574567356,100.0
81,2.4751851558685303,544.0704783407031,112.56706935096375,829.5934243098828,72.95328108088044,96.875,0.8483850429313106,0.1,0.1059882640838623,0.8890671730041504,0.04762187,0.09890579,511.11389175231477,0.5071994091161852,10.948794545546784,96.875,3066,1.35426664352417,0.06155375428362613,0.058922093188928826,397.6144602309052,100.0
82,2.309457302093506,583.002887771524,114.17723765918676,898.739434039028,49.71857942649676,97.91666666666667,1.0013855455909064,0.1,0.12170696258544922,2.357455253601074,0.050351825,0.104400404,518.3027913542358,0.6791368314857724,11.668641646202245,97.91666666666667,3214,1.108478307723999,0.06962263304400702,0.06459124449927425,347.59626594436065,0.0
83,8.082132816314697,558.0440624753136,146.24640238996722,839.387701752643,2.260712462998458,92.70833333333333,0.9536401730956137,0.1,0.11298680305480957,1.7510271072387695,0.051171176,0.09180804,522.2769184663435,0.691347768260912,11.16923761205021,92.70833333333333,3088,1.0888454914093018,0.08089430352920934,0.0790616888899976,347.85070790319526,0.0
84,10.359081268310547,571.8750163856644,90.39920373248286,1010.1556302766512,343.21399164237977,98.95833333333333,0.9562901825237935,0.1,0.10386133193969727,1.1348018646240234,0.050710212,0.12222464,527.2367282582757,0.6922505717775863,11.446075496510545,98.95833333333333,3076,0.8701381683349609,0.039580134215564625,0.038948575293078956,347.810503549764,0.0
85,2.3230741024017334,575.2248551127774,84.08480778651287,958.838899919058,325.4669162393043,98.95833333333333,0.9369270680928034,0.1,0.10479068756103516,1.8695344924926758,0.049624134,0.11172575,532.0355409437258,0.6719657963269555,11.513552934773612,98.95833333333333,3036,0.9556972980499268,0.03534017919813803,0.03496465951359134,396.9647634508579,100.0
86,8.604042053222656,576.333460334135,94.55045514946866,867.3103780747031,254.03587736202218,97.91666666666667,0.9582883338385347,0.1,0.1207437515258789,1.5755956172943115,0.049243763,0.14397582,536.4653328827667,0.695149311552842,11.537773104498463,97.91666666666667,3094,1.0628094673156738,0.03858255683367642,0.0382335562917184,397.832925143323,100.0
87,2.1175193786621094,560.4365999522729,114.04586935109845,828.9608436761491,56.28776776777123,95.83333333333333,0.9667036036489328,0.1,0.1131289005279541,1.5096893310546875,0.04636219,0.09878723,538.8624595897173,0.6573281420710749,11.217182363515223,95.83333333333333,3075,0.9953577518463135,0.055970742059939134,0.05292578792485963,397.4894242580286,100.0
88,3.137627124786377,573.7805758967233,103.12423004294975,829.1531787786674,96.08480848429936,96.875,0.9547090450741633,0.1,0.1320040225982666,1.069685697555542,0.050046504,0.09818496,542.354271220418,0.6894732732148765,11.485384118929284,96.875,3053,0.8378880023956299,0.04358623721332303,0.04255829419016621,397.67846066391564,100.0
89,2.328507900238037,480.1855309103068,994.386012856806,819.002850918962,-9172.289091325214,98.95833333333333,0.4663937895008241,0.1,0.09109783172607422,1.5231709480285645,0.032919034,0.038231324,536.1373971894069,-2.576864125193755,9.612223028212645,98.95833333333333,3050,0.9202337265014648,0.8651071750015292,0.8549507828946264,407.59134507634985,100.0
90,9.548585176467896,573.6797858644754,102.16165107935237,778.7349701863976,3.5552636226701377,96.875,0.9995964527410565,0.1,0.1017446517944336,1.8721067905426025,0.051311955,0.099110626,539.8916360569137,0.6734677628682436,11.482116568148763,96.875,3103,0.9413070678710938,0.07239266675206685,0.04703928610726732,347.43570113703396,0.0
91,9.015520572662354,563.0798903937342,100.54378272174228,849.1823553750739,73.78746324859497,95.83333333333333,0.8958835192022239,0.1,0.14858746528625488,2.3822836875915527,0.049571276,0.16563413,542.2104614905958,0.6929088466443365,11.27018922540629,95.83333333333333,3072,0.8063664436340332,0.05008414630706775,0.04869771784543941,398.05376579441867,100.0
92,2.6276938915252686,556.1138989801348,231.72473906474622,949.5952915368408,-1450.0832611067976,98.95833333333333,0.7203417872166481,0.1,0.10876154899597168,1.2318038940429688,0.053252272,0.074550316,543.6008052395497,-0.32732642307160154,11.130979551740957,98.95833333333333,3029,0.913334846496582,0.1814637177836147,0.18062694977134017,407.39128977131287,100.0
93,2.3454806804656982,611.6011168483624,84.76166765188555,937.4618089809255,451.6608343388044,100.0,0.9164918790361128,0.1,0.10978150367736816,0.8129787445068359,0.051837683,0.10571616,550.400836400431,0.701841825198625,12.240536455546149,100.0,3073,0.8756020069122314,0.04313683137463908,0.035509739741358695,358.12266376589133,0.0
94,4.956544399261475,600.0149693665253,97.30297971819184,889.3557759279277,85.55399791184892,98.95833333333333,0.8790460626526608,0.1,0.09633278846740723,1.0293140411376953,0.04973216,0.12195836,555.3622496970404,0.70165881221613,12.00887287536809,98.95833333333333,3115,0.9990630149841309,0.04172395215303342,0.04138699574811171,348.04746782014473,0.0
95,2.6655948162078857,586.9099562088103,117.5493944408819,1019.8954049796183,74.22314330838343,95.83333333333333,0.8806836683512232,0.1,0.10148787498474121,0.8854808807373047,0.051090855,0.2964877,558.5170203482173,0.6999154618647104,11.747074500894326,95.83333333333333,3038,0.9281008243560791,0.053013019416653956,0.05164247510979288,357.73810150854,0.0
96,7.391911745071411,585.9860961337998,97.85643662618453,1140.9082022839225,205.01899658197732,98.95833333333333,0.9283411829636601,0.1,0.16314172744750977,1.1416432857513428,0.04367185,0.23081593,561.2639279267756,0.6909649016297855,11.728195876688295,98.95833333333333,3039,0.5800511837005615,0.043307716771395395,0.042610139477039365,348.15177178002375,0.0
97,2.3382251262664795,584.1190453181813,112.34611106824164,898.3404995506152,73.92458699377518,95.83333333333333,0.9130809773069417,0.1,0.09883403778076172,1.2158982753753662,0.036865715,0.1765484,563.5494396659162,0.6960564705864285,11.691095744123801,95.83333333333333,3101,0.9340536594390869,0.04892183691269417,0.04865140512364487,405.6657539259836,100.0
98,2.066943407058716,574.3047626809076,166.8818786666469,829.8530594732052,-721.3435304435202,97.91666666666667,0.7747824300103259,0.1,0.14025306701660156,1.6682195663452148,0.050434995,0.07331718,564.6249719674154,0.2713528497263728,11.494814297943796,97.91666666666667,3103,0.887200117111206,0.10934908885352182,0.10766759408765264,406.2837255297715,100.0
99,9.774642705917358,583.4655558299546,138.1143152527097,1069.2801195878783,3.835034620305805,95.83333333333333,0.9667381347768401,0.1,0.12416887283325195,0.8327350616455078,0.047442675,0.10035158,566.5090303536693,0.6831128356576729,11.678260104837292,95.83333333333333,3078,0.8903121948242188,0.07193151188488421,0.07144640723325578,358.19774000094765,0.0
100,9.102177619934082,588.739402273801,98.21052099886742,1020.5760954907879,353.4391449694355,98.95833333333333,0.9401230838514887,0.1,0.1058504581451416,1.1109380722045898,0.05097898,0.20150332,568.7320675456825,0.6965011439300177,11.783318197366823,98.95833333333333,3056,0.9709374904632568,0.0395173258993585,0.03918926969844572,357.87994433683286,0.0
101,3.834376573562622,582.0156779725211,148.19518950849462,988.4540886991346,63.12169597540786,94.79166666666667,0.95905342090456,0.1,0.1895899772644043,0.6646575927734375,0.050808005,0.10028249,570.0604285883664,0.5716412123592475,11.648982975382177,94.79166666666667,3033,0.6807115077972412,0.07870778231824604,0.07818939868595357,492.5779742774376,100.0
102,7.363710641860962,585.7559082346105,119.76053665496627,949.0578500527694,104.97307080230765,94.79166666666667,0.9506202505102378,0.1,0.13267230987548828,0.9853980541229248,0.05031517,0.10956483,571.6299765529909,0.7032493861373722,11.723682437815684,94.79166666666667,3034,0.6702995300292969,0.05433853044363535,0.053899128122330824,447.33799121117005,100.0
103,7.463318586349487,596.0807878115351,86.85581793631944,768.9714788352039,245.74859096695909,98.95833333333333,0.893016328438487,0.1,0.11565494537353516,1.0647473335266113,0.050222214,0.13666058,574.0750576788454,0.7017484741259343,11.930974167279118,98.95833333333333,3035,0.7113916873931885,0.032049710555614036,0.031422273572563546,479.5942168061393,100.0
104,9.048779010772705,532.1876089622141,497.7218116685623,888.0504109840331,-4169.641699365164,96.875,0.6355865642251568,0.1,0.10970616340637207,1.3893804550170898,0.04652194,0.05767687,569.8863128071822,0.5696007864173279,11.617244505599922,96.875,3042,0.5678534507751465,0.584966224194015,0.5743126767381589,567.5420132490793,100.0
105,4.504004240036011,603.7573620530103,102.67124471483787,840.2303059531047,94.83910542189736,96.875,0.9901270848265854,0.1,0.1300034523010254,1.4336397647857666,0.050056327,0.11545992,573.273417731765,0.7049097976326001,12.083470846159697,96.875,3056,0.9874053001403809,0.07273264900011639,0.043311055929837826,445.71471822654735,100.0
106,6.464479207992554,622.2475099710769,131.3918780766383,1019.6647177307807,-29.78620306918242,98.95833333333333,0.875663318537034,0.1,0.12419724464416504,0.6764612197875977,0.046481986,0.11413722,578.1708269556962,0.7092430381982496,12.577450861586257,98.95833333333333,3066,0.6290278434753418,0.0643118834236966,0.06254183181209898,541.1809680583771,100.0
107,7.392297029495239,613.1220344797948,141.99159665914243,1009.4068957336491,115.45035299048399,93.75,0.9862519018789371,0.1,0.09875321388244629,0.7919631004333496,0.04907157,0.15874101,581.665947708106,0.6988978492042107,12.27089137161626,93.75,3126,0.8845715522766113,0.06894861544172422,0.06841745690750045,403.8272760475909,100.0
108,7.9006829261779785,622.7084065375046,116.84381104391831,879.4342757997874,4.745600886493677,98.95833333333333,0.9144870722394507,0.1,0.13837361335754395,1.0959043502807617,0.05062679,0.13745575,585.770193591046,0.6930209240598381,12.462563057578032,98.95833333333333,3120,0.6977572441101074,0.04987886052650817,0.04906159540055256,483.4714429544343,100.0
109,2.382218837738037,583.9843400347016,146.45346400363366,959.2393612210767,71.0204291540351,94.79166666666667,0.9289004044737236,0.1,0.1631002426147461,0.5903282165527344,0.046826888,0.10488596,585.5916082354115,0.6933412541125978,11.68838004597106,94.79166666666667,3117,0.9063453674316406,0.08317344763099042,0.07787942948319052,458.6372775344905,100.0
110,3.9770667552948,631.4785955198406,146.31083524419546,1019.7677201104,85.13340741960688,96.875,1.0458774134904176,0.1,0.16858220100402832,0.6079506874084473,0.049757596,0.09444377,590.1803069638545,0.7098465953129572,12.637867415336913,96.875,3095,0.8557708263397217,0.07432822447081351,0.06883362072938248,464.83923530180465,100.0
111,6.954429864883423,629.5759982755011,125.1245530203716,1080.0716407313328,95.29847201495417,96.875,1.0424128665175518,0.1,0.1405191421508789,1.8234364986419678,0.04951127,0.09684961,594.1198760950192,0.698087450806144,12.600330401092982,96.875,3081,0.8548507690429688,0.05452510045272942,0.0542210475040638,541.8984176127794,100.0
112,2.831590175628662,618.9656936780805,143.59365194455356,1009.5126730974877,44.000066883119835,97.91666666666667,0.9557055465985098,0.1,0.13405346870422363,1.2698729038238525,0.05012384,0.10994454,596.6044578533254,0.6890359479179988,12.387780684287819,97.91666666666667,3105,0.6827313899993896,0.06712047484879459,0.06667720476845852,504.32012312594907,100.0
113,2.566453218460083,618.7145358501617,148.77199928607575,960.1073272916111,0.9756649840190619,93.75,0.9866860769164363,0.1,0.14200663566589355,2.0917141437530518,0.048734397,0.100643665,598.815465653009,0.7024146966470988,12.382806047151156,93.75,3109,1.0351245403289795,0.0773070269178133,0.07661129968461977,487.15013684888294,100.0
114,3.212097644805908,602.9276645279838,128.18287704081897,1019.8498295689305,44.673583519629524,93.75,0.9564894614664938,0.1,0.12805509567260742,2.0422110557556152,0.04995251,0.11152768,599.2266855405064,0.6855895172914551,12.066939620809158,93.75,3130,0.9050862789154053,0.05664729784803502,0.055738123438031154,505.8947429028909,100.0
115,2.047693967819214,599.6745424777642,273.50219758437356,950.5111142180031,-1827.5139205925304,97.91666666666667,0.7714624603305338,0.1,0.10283112525939941,1.9663920402526855,0.052074727,0.06329548,599.2714712342323,-0.009616834069506345,12.001893025953786,97.91666666666667,3133,0.7994422912597656,0.21842027217404303,0.21664861504580532,580.4977955519082,100.0
116,4.384488344192505,601.3432908405373,129.3939413053224,890.1551436893948,83.66723176274706,95.83333333333333,0.976567698505835,0.1,0.11587381362915039,0.6760540008544922,0.049036924,0.10413114,599.4786531948629,0.6846819939144416,12.035296458128494,95.83333333333333,3074,0.8590474128723145,0.05861765282954083,0.05809067451651916,505.29034918678377,100.0
117,5.080886363983154,614.5486531024102,120.20642390902819,948.6784022868582,104.64714282006221,97.91666666666667,0.9465643655782813,0.1,0.1517014503479004,1.2390999794006348,0.0495418,0.11078643,600.9856531856176,0.7074114852892021,12.299279964229834,97.91666666666667,3089,0.7323284149169922,0.05074315271044428,0.05012084096771043,492.90533147609426,100.0
118,10.528007507324219,639.7629297821726,166.74262193869401,1069.8142361260614,2.941989898565412,95.83333333333333,0.9445363780526141,0.1,0.12253046035766602,1.9315526485443115,0.049430523,0.10324414,604.863380845273,0.7035788264912121,12.805084017280906,95.83333333333333,3075,0.953026294708252,0.08260178148495417,0.07993562455605058,503.7498850213102,100.0
119,10.045565605163574,577.4364238116905,297.8695234592893,840.3303805101093,-1965.3061915525423,95.83333333333333,0.8265994422580725,0.1,0.0799555778503418,0.7003984451293945,0.049091846,0.06778955,602.1206851419148,-0.20189706037324173,11.557492244621713,95.83333333333333,3104,0.7254080772399902,0.2731221854234123,0.2598154890185269,517.680170099857,100.0
120,11.455718755722046,629.2346288756421,152.34922580713425,880.1316007825103,23.246342904269007,95.83333333333333,0.9440022918580168,0.1,0.12627768516540527,1.1772100925445557,0.049754303,0.09981781,604.8320795152875,0.704336088662428,12.593982621123208,95.83333333333333,3063,0.775153398513794,0.07056335055109175,0.06600940948162269,640.5235254450866,100.0
121,5.787977933883667,623.5493115998828,154.41801222510622,1048.7261129857593,24.836740082937343,93.75,0.948283732018539,0.1,0.15103483200073242,1.6068968772888184,0.049824603,0.15939036,606.7038027237471,0.6981183703887647,12.479354363698063,93.75,3130,0.9058597087860107,0.0791984314583998,0.0781746548440592,702.6240787817941,100.0
122,5.2689855098724365,535.4503210378942,662.6174767608085,900.1096074069028,-5704.52162571216,93.75,0.7905810572818237,0.1,0.15003514289855957,1.8805038928985596,0.051272355,0.057414502,599.5784545551619,-1.6990701766375682,10.717458014030683,93.75,3114,0.8597240447998047,0.6818370223491597,0.6700044622706325,692.2462398401158,100.0
123,7.85847020149231,643.5560104700454,123.61262780217368,988.6540913998814,105.19030327773598,98.95833333333333,0.721830113691583,0.1,0.16652464866638184,2.1105339527130127,0.048325703,0.15560472,603.9762101466504,0.6806345034441335,12.879475849577082,98.95833333333333,3125,0.8334615230560303,0.07772195853343357,0.049302759548665184,702.6534273550125,100.0
124,4.392093181610107,652.6119284342029,117.24878176215228,1031.2999853639112,404.40609530856915,100.0,1.0104453629484527,0.1,0.13447070121765137,1.0072166919708252,0.049017835,0.10011372,608.8397819754057,0.7112587328497434,13.060765433624296,100.0,3098,1.1085422039031982,0.04437279924475444,0.04373991503038217,702.5895010921694,100.0
125,2.182588815689087,594.1815524340589,165.28614054378804,900.4165476544953,24.573441670236498,91.66666666666667,0.9840794376810611,0.1,0.13604235649108887,1.5245437622070312,0.050529864,0.112712696,607.373959021271,0.6820740429196822,11.89194837272363,91.66666666666667,3108,0.839468240737915,0.10513505116138698,0.08920983655669777,702.8117187218593,100.0
126,4.402871131896973,615.3251272264005,167.62691527403655,938.7369271765195,2.891813907792155,92.70833333333333,0.9830709986834635,0.1,0.10120916366577148,1.1487901210784912,0.05123824,0.09384592,608.169075841784,0.7033919082048375,12.315186146508958,92.70833333333333,3098,0.9375061988830566,0.08542937838086793,0.08390983477505949,752.9988930752463,100.0
127,4.518268346786499,655.4461404827832,118.1051573178771,971.2864878666163,184.86295867327289,96.875,1.0242315184931527,0.1,0.10239553451538086,0.9798703193664551,0.049643274,0.09509466,612.8967823058839,0.7167933608846259,13.117344321888202,96.875,3122,0.9132380485534668,0.04666301196219868,0.04283562012810275,752.8741114173176,100.0
128,2.5039260387420654,659.4101478165494,112.51393962958585,939.6997502327039,75.50192200273037,98.95833333333333,1.0092076546421636,0.1,0.08960700035095215,0.8784973621368408,0.04770312,0.0921929,617.5481188569505,0.7166522263016425,13.196640457805946,98.95833333333333,3136,1.1346056461334229,0.03956187642616087,0.03905375824515027,702.7370710701349,100.0
129,2.4909636974334717,663.3575404099579,134.80488884527915,961.4320956130143,7.672129590818428,97.91666666666667,0.839164745401629,0.1,0.1430354118347168,1.8410496711730957,0.049148705,0.12386912,622.1290610122512,0.7045673151852769,13.282468275597253,97.91666666666667,3140,0.913581132888794,0.05506930613005165,0.054887533155857024,752.9288018753725,100.0
130,9.293409824371338,656.3332801318514,125.89651515056772,949.2301190049566,125.89908095278517,97.91666666666667,0.992694515342139,0.1,0.12418770790100098,2.4673285484313965,0.048722964,0.09643396,625.5494829242112,0.7114411789494732,13.13514157996503,97.91666666666667,3181,0.8926465511322021,0.05165680845601625,0.049575377710542205,752.7899179068529,100.0
131,9.83728837966919,652.8348051948827,178.09851344370722,1060.2538187162183,4.998335703294343,92.70833333333333,1.0044410026279795,0.1,0.1369175910949707,1.2140717506408691,0.050665736,0.09326211,628.2780151512784,0.711019572615375,13.065246755405196,92.70833333333333,3169,0.8539090156555176,0.0918003576400826,0.09080621938052867,702.401294709352,100.0
132,6.5655388832092285,653.9876384057936,102.24759801413293,898.9024090294772,396.19360485618637,100.0,0.9768687475959957,0.1,0.1343686580657959,1.9785916805267334,0.04975978,0.10820455,630.8489774767299,0.7094422891087708,13.08834144481942,100.0,3118,0.8125967979431152,0.03696528369821552,0.03646005678764789,752.7435636778686,100.0
133,5.480997562408447,644.5503168843443,141.83156684562863,1048.7771855045141,4.6296848665260235,97.91666666666667,0.9349132609101848,0.1,0.12683320045471191,0.5318994522094727,0.047121633,0.11276069,632.2191114174915,0.7045667270920491,12.899504785393582,97.91666666666667,3164,0.9020791053771973,0.06293879738038159,0.061495109110049434,752.3696535285289,100.0
134,6.822629690170288,629.8015893686824,198.16972823956667,928.6644569719081,-659.9623399165159,95.83333333333333,0.8214407428999453,0.1,0.13640761375427246,2.5723717212677,0.05004684,0.08624815,631.9773592126105,0.26678744394107107,12.624423851159678,95.83333333333333,3100,0.8684208393096924,0.11310835802728295,0.1117305391516853,752.2466002498265,100.0
135,9.470672845840454,644.3997714095553,163.25306039009246,960.0898352864724,8.497749422806812,95.83333333333333,0.9796032793733364,0.1,0.1311037540435791,1.1092791557312012,0.04965963,0.10839618,633.219600432305,0.7097338851775626,12.896570291009722,95.83333333333333,3176,0.9795055389404297,0.08088840836054295,0.0790071613627887,702.3185229066122,100.0
136,6.6631786823272705,629.6952393990113,161.2106018621278,900.2015343758833,1.1170317371644574,93.75,0.9446170339110914,0.1,0.10825753211975098,1.4719860553741455,0.049672965,0.109258614,632.8671643289757,0.6873332738638499,12.602302275827116,93.75,3162,0.8693737983703613,0.0808370128329724,0.07903319512890365,702.2766509330362,100.0
137,7.0512895584106445,679.8343331794181,120.67019583927042,1070.8686329998095,405.6835229556058,100.0,0.960050020999104,0.1,0.1418917179107666,0.7541208267211914,0.048492704,0.12303821,637.56388121402,0.7132209480287367,13.605145459974969,100.0,3189,0.8482925891876221,0.053134506015647294,0.04482282251309032,752.4126151861627,100.0
138,10.778507709503174,663.2491675826944,167.19601483490646,1049.3832127400299,2.968954623287896,96.875,0.9894470669340484,0.1,0.18248987197875977,1.1562285423278809,0.049956616,0.085626334,640.1324098508874,0.5913243539277196,13.273226703712114,96.875,3164,1.0549991130828857,0.07777434214478618,0.0754447938199225,752.5720950708887,100.0
139,2.3335413932800293,652.8782902951472,173.08483964020493,1070.3622877188388,55.39635138783159,93.75,0.9748046342630088,0.1,0.1827836036682129,0.9137804508209229,0.05033078,0.09641735,641.4069978953133,0.7085925152393525,13.066043474356704,93.75,3131,1.3324081897735596,0.08293309044922671,0.08211349784896947,752.5060217625331,100.0
140,2.2258963584899902,654.1530859566625,142.84792726803028,1030.6923133145754,126.1649593697249,97.91666666666667,0.9471320274949149,0.1,0.12119913101196289,2.361217498779297,0.049562726,0.11701354,642.6816067014482,0.6643695451256258,13.092232687015189,97.91666666666667,3081,0.5612740516662598,0.060474410443154686,0.059905324900740214,752.5443059529518,100.0
141,3.1011838912963867,643.7730361708327,162.0930304442522,960.5408704100677,6.032286072697309,94.79166666666667,0.9239336774616164,0.1,0.12930059432983398,1.5115976333618164,0.050200906,0.09693831,642.7907496483867,0.707180501210375,12.884176209658415,94.79166666666667,3201,0.774571418762207,0.07446227161042424,0.07343090965741926,752.3174725307914,100.0
142,4.610546350479126,654.8090539014871,142.25057638626865,1170.5625350303815,-0.9050994066781382,96.875,0.7305306358236133,0.1,0.13216876983642578,1.381854772567749,0.050016064,0.08418757,643.9925800736968,0.7009720548423056,13.104495735038087,96.875,3119,0.6139702796936035,0.06114842685280012,0.059584137634013795,752.8796614696035,100.0
143,5.066009283065796,679.4639731841562,131.51635277696377,1131.524335517536,308.10085953409146,98.95833333333333,0.9907544846227089,0.1,0.1856703758239746,1.6659340858459473,0.048430216,0.1012532,647.5397193847427,0.7094626984460951,13.597733282606788,98.95833333333333,3157,0.6800582408905029,0.05184196934182414,0.05030805451264287,762.8938829901136,100.0
144,8.135432481765747,681.2992401975672,159.44699236315074,1070.4260128230108,5.42087015654907,94.79166666666667,0.9938206037604157,0.1,0.15027689933776855,1.3144800662994385,0.049390197,0.09707613,650.9156714660252,0.7204993393414516,13.634230015778883,94.79166666666667,3156,0.9322574138641357,0.0669729062750134,0.06663432291080389,763.1766623598695,100.0
145,2.7471346855163574,662.9569639046522,156.96532308385707,1051.5270143627736,89.22734849393578,95.83333333333333,0.9217940958998733,0.1,0.12418007850646973,0.8640408515930176,0.049931988,0.13441661,652.1198007098878,0.7070905837652274,13.267686181944951,95.83333333333333,3227,0.9385421276092529,0.0680711035048691,0.06745291558453255,753.3300501426886,100.0
146,2.733954906463623,32.915123425969306,5839.108067031841,1180.9523795928692,-56837.70023302126,90.625,0.5915070341517797,0.1,0.1285860538482666,0.4857518672943115,0.050234593,0.047688227,590.199332981496,-17.976172694688792,0.6665870100503591,90.625,3173,0.6331565380096436,1.0080636626428656,0.9962152860112232,762.8059439750753,100.0
147,4.550543546676636,664.1725185498827,183.40357276379498,1241.3805895034145,4.667565547345914,95.83333333333333,0.9140612729960702,0.1,0.0909113883972168,1.3840603828430176,0.048482023,1.5877378,597.5966515383348,0.7157304419300675,13.292197860010546,95.83333333333333,3193,0.6857855319976807,0.9809583200857752,0.09422208349299058,762.8548558981696,100.0
148,6.528264999389648,695.0682344842544,158.1364727369626,1021.3458288256638,34.23155421571879,96.875,0.9029192711403718,0.1,0.1096045970916748,2.618258476257324,0.04847366,0.22867227,607.3438098329267,0.7144439323352579,13.909631719980235,96.875,3241,0.6406917572021484,0.07195475435849721,0.06870696282008008,763.0020398604681,100.0
149,2.3973164558410645,664.5810673880947,164.99530207704137,960.0688325702924,1.9383495853915855,95.83333333333333,1.0073008361090834,0.1,0.08826208114624023,1.0780384540557861,0.04527983,0.09245805,613.0675355884434,0.7098279468978399,13.30031091117012,95.83333333333333,3250,1.173142910003662,0.07518261422963221,0.0727622061368326,752.410311285926,100.0
150,8.504117965698242,675.5196668331403,189.99391306711695,1230.9399206832568,3.534738013229502,93.75,1.0742705374292156,0.1,0.09639596939086914,1.0400636196136475,0.04967107,0.08893671,619.3127487129132,0.7114561726615078,13.518841348577618,93.75,3246,1.0767292976379395,0.09401706620373743,0.09314121133923309,752.2090166328985,100.0
151,2.6259829998016357,649.0041244422083,191.41462885650978,1110.1299576547324,3.7069327658836384,93.75,0.8945330341343359,0.1,0.15012907981872559,1.3238840103149414,0.044197645,0.13436012,622.2818862858427,0.7033649836752245,12.988491007794758,93.75,3133,0.9170503616333008,0.10242459468417986,0.10021172004561077,752.4376884767291,100.0
152,2.648531675338745,668.8648475882125,179.58759247114605,1081.3363903722895,3.092253186409267,94.79166666666667,1.023235177719041,0.1,0.10633397102355957,0.5374755859375,0.05037952,0.092786886,626.9401824160797,0.7067540622067767,13.385641256764993,94.79166666666667,3205,0.7952208518981934,0.08470318643912707,0.08376626931843584,752.6346993467824,100.0
153,2.4272303581237793,673.4370804504131,141.03200368916328,960.7830461613846,56.07766967503808,96.875,1.0026651018226016,0.1,0.14039254188537598,1.2486848831176758,0.050340917,0.104733594,631.589872219513,0.7153795842581664,13.47938741580361,96.875,3195,0.7205076217651367,0.053465266059561735,0.05297351557026686,752.9079341602703,100.0
154,10.496949434280396,693.6679619518462,147.50789953565976,1130.9587261097918,104.63933773398533,97.91666666666667,0.8980357714496507,0.1,0.16441011428833008,1.4789254665374756,0.048976734,0.2168057,637.7976811927464,0.7107116785387783,13.88169805640864,97.91666666666667,3188,1.0002803802490234,0.05979544730139374,0.05809023327587103,752.4570320582828,100.0
155,9.012580156326294,714.0730516736463,145.43673538628767,1181.2731798822306,128.46092079069385,97.91666666666667,0.9482493938501299,0.1,0.11925649642944336,1.8262758255004883,0.049146455,0.91207755,645.4252182408363,0.7205307897376793,14.289893318706467,97.91666666666667,3293,1.3523640632629395,0.05681383815386886,0.05588537670494076,762.6630133038173,100.0
156,5.1693806648254395,591.7747187701337,974.0389227467639,1170.4545639352475,-8750.582417361216,95.83333333333333,0.9021217860180083,0.1,0.13167262077331543,0.5369832515716553,0.04852151,0.06037331,640.0601682937661,-2.1365504145210377,11.84402755792299,95.83333333333333,3260,0.8624391555786133,0.7940756411933564,0.7826783279813136,763.1221331774672,100.0
157,7.00206184387207,686.440754975813,168.87210435382443,911.7900335369455,104.9479936669949,92.70833333333333,0.9895509746719452,0.1,0.10544347763061523,1.9523050785064697,0.03833716,0.0815927,644.6982269619708,0.7157273499092524,13.737574869679884,92.70833333333333,3289,0.7804172039031982,0.08819594224017165,0.07290016075670651,762.8022259855447,100.0
158,8.95974612236023,720.6119641629392,128.05843164281166,1070.9025257436997,94.79531795825311,98.95833333333333,0.9718891533671279,0.1,0.1103205680847168,2.08884334564209,0.0492608,0.10098477,652.2896006820677,0.726616950984012,14.420895264790714,98.95833333333333,3275,1.011847972869873,0.045756249957919666,0.04227283073083624,763.0163259463369,100.0
159,2.458796262741089,706.3133098125563,163.5987062343851,1103.1905840314507,74.48964771441791,96.875,0.9661358183168623,0.1,0.1382153034210205,1.2869813442230225,0.047809333,0.17676118,657.6919715951165,0.7195986737645143,14.13489080885512,96.875,3275,0.9793081283569336,0.06718072143134103,0.06687697597088987,763.0678416083613,100.0
160,4.905687570571899,689.369712944586,164.5639371150329,1191.3996375320935,94.19273031202619,95.83333333333333,1.091973862799232,0.1,0.1185450553894043,1.1504459381103516,0.05015216,0.090200506,660.8597457300634,0.7107991556890093,13.796154535661609,95.83333333333333,3325,0.6355288028717041,0.0716308843654732,0.06987159975585953,763.3063014371288,100.0
161,9.286641836166382,720.2792090807828,231.7169274137909,1352.6999896834882,-168.74795845301776,95.83333333333333,1.006595366411506,0.1,0.11639738082885742,1.4425196647644043,0.050057486,0.09214813,666.8016920651354,0.3597102167453108,14.414007064752548,95.83333333333333,3247,0.540250301361084,0.1196861039957378,0.1168821590460817,765.0660752568169,100.0
162,4.178223609924316,728.7118007525254,226.53651303255438,1312.8030407395092,3.3173630069681863,92.70833333333333,1.091537665917622,0.1,0.18312549591064453,0.886136531829834,0.048643157,0.08757324,672.9927029338744,0.7075639321842724,14.582421104596799,92.70833333333333,3234,0.7551569938659668,0.1067467752923757,0.10617543135699391,764.6350477277906,100.0
163,9.803521871566772,756.8936428526116,238.03105485377282,1231.5566700507336,2.882140725473687,93.75,0.9852820972531511,0.1,0.11798453330993652,0.9288790225982666,0.05000482,0.09219593,681.3827969257482,0.6018909303529169,15.145926346757966,93.75,3279,1.0307514667510986,0.11484363211111955,0.11355882138817351,764.1263524874386,100.0
164,2.631011724472046,714.8861024562598,275.02483611236033,1302.69634674981,2.5289206398469,87.5,1.0598372931728,0.1,0.1361865997314453,0.600365400314331,0.049474884,0.0902708,684.7331274787994,0.7133910106422426,14.306013489696596,87.5,3298,0.6473579406738281,0.1535924743044363,0.15002490289851242,813.7691587632311,100.0
165,7.14234185218811,805.3120651637228,191.83414680987224,1292.4359203044428,57.45122007455106,97.91666666666667,0.9924032501395239,0.1,0.16721343994140625,0.88985276222229,0.04920012,0.10048978,696.7910212472917,0.7330955083867879,16.114624645216722,97.91666666666667,3358,0.7453889846801758,0.08325786551507894,0.07229508074246246,823.7006158593132,100.0
166,4.113884687423706,833.6377315678968,204.2872936198358,1351.9627375301168,96.20286319502755,98.95833333333333,1.0555775519922694,0.1,0.1357862949371338,1.204660177230835,0.04974902,0.09522898,710.4756922793522,0.7365096827888656,16.681075944523304,98.95833333333333,3358,1.0176520347595215,0.07805544522069495,0.07643587930268461,823.783649513055,100.0
167,9.260368585586548,790.404185121692,210.03258501220677,1262.6542286260676,-1.0016204169817025,94.79166666666667,1.0517250363440451,0.1,0.0572361946105957,0.5550165176391602,0.050127774,0.085633285,718.4685415635861,0.7297698497096716,15.816553507582151,94.79166666666667,3356,0.5565989017486572,0.08138287533013082,0.07840324979945541,814.2064346066551,100.0
168,2.6000568866729736,762.8916597019582,260.9943323067404,1292.4974407978254,5.56495941471572,91.66666666666667,1.0421792170793358,0.1,0.10248541831970215,0.939032793045044,0.04830306,0.096972205,722.9108533774233,0.7290763187277358,15.271590767826723,91.66666666666667,3342,0.9118587970733643,0.12960005535624122,0.12583745960683032,763.7211783403156,100.0
169,8.185015439987183,859.0274122034831,175.2178139087382,1473.312637974796,446.6823232386588,100.0,1.1030598920992818,0.1,0.1066277027130127,0.5869698524475098,0.04935264,0.09459709,736.5225092600293,0.7433853486774211,17.188776798845236,100.0,3396,1.030510425567627,0.07549804073427549,0.05954606651711181,813.9939127249837,100.0
170,10.192807674407959,852.8476480518657,248.81654848841976,1472.880978185346,4.085582701655532,95.83333333333333,1.1270438183621698,0.1,0.1408987045288086,2.0322625637054443,0.04924634,0.08771027,748.155023139213,0.737694047066299,17.06517819604687,95.83333333333333,3373,0.7943441867828369,0.10001762314768173,0.09932141138150863,813.5886784181822,100.0
171,6.703515529632568,856.8380670768571,207.78470173006508,1352.7975703937195,125.93320592521107,97.91666666666667,1.0341530713768892,0.1,0.12402033805847168,2.037214994430542,0.049396258,0.095806204,759.0233275329774,0.7330561290939662,17.14500200571437,97.91666666666667,3320,1.11049222946167,0.07321297483828926,0.07276417867886081,763.7539584868726,100.0
172,6.247811317443848,903.3921636955052,283.04585441971204,1474.10363889562,104.81257888451236,95.83333333333333,1.0838391276872739,0.1,0.11769413948059082,1.1436309814453125,0.0487596,0.08964842,773.4602111492302,0.7080607060644581,18.076069104334465,95.83333333333333,3339,1.214099407196045,0.11100357889836483,0.10805777328489762,825.9117059213482,100.0
173,3.764667272567749,862.5398173387948,323.285152625572,1433.7752913556137,2.5232900820317816,91.66666666666667,1.0774055759285452,0.1,0.12385725975036621,1.224625587463379,0.049077198,0.085648976,782.3681717681867,0.7412540816797198,17.258919714831134,91.66666666666667,3337,0.9438266754150391,0.14388124443589886,0.14093642548741614,885.4329676317794,100.0
174,5.345914363861084,896.7741212822203,283.74564733545145,1423.3827022131964,3.5460306967857145,93.75,1.0862975191316937,0.1,0.11704134941101074,1.3350627422332764,0.049215443,0.08685948,793.80876671959,0.7459066812209021,17.943804671032975,93.75,3407,1.2196619510650635,0.11344306428033968,0.11216764893717791,1157.8225997506904,100.0
175,6.9628400802612305,892.8964355875096,299.0162600883662,1351.751964632453,2.7736106578384607,91.66666666666667,1.0736265588378542,0.1,0.1460103988647461,0.8074026107788086,0.049645547,0.08820389,803.7175336063821,0.7508332218032671,17.866062218946265,91.66666666666667,3358,1.0090129375457764,0.12134323435696691,0.12069699633104118,764.9472720879359,100.0
176,8.290017127990723,868.7746213527103,309.4345463150488,1412.971657476994,0.898317006277507,89.58333333333333,1.0469480229739156,0.1,0.10947132110595703,0.9704554080963135,0.05072858,0.09198234,810.2232423810149,0.7436989659102972,17.383571531201593,89.58333333333333,3319,1.0440630912780762,0.13174720315412597,0.13054182865034342,1006.1220096733404,100.0
177,2.289530038833618,876.8796753391684,324.41471228036596,1402.7220708234502,4.963683878010313,90.625,1.0883576788318137,0.1,0.09844374656677246,1.52874755859375,0.050117042,0.103978224,816.8888856768303,0.7460625040954113,17.545814736994735,90.625,3328,0.6376550197601318,0.14193258915413387,0.14084147139736822,1098.0033710856628,100.0
178,4.0535664558410645,971.977189213617,246.09923510163503,1423.7029301919288,3.9544639002188795,96.875,0.9842513825383855,0.1,0.10901856422424316,2.411895990371704,0.048265565,0.09391096,832.3977160305091,0.7575606535988046,19.44756413010374,96.875,3404,1.0854547023773193,0.08688871004506998,0.07619183118019977,1168.8889370971287,100.0
179,2.3666887283325195,992.9725081037091,289.29463763081395,1473.3126083782063,14.193218689682755,93.75,1.1008359506748258,0.1,0.13166236877441406,1.3449904918670654,0.04866593,0.08481554,848.455195237829,0.7602748493559748,19.867589409597002,93.75,3439,0.7980434894561768,0.09471159334584807,0.09331332231495312,1037.8186995396954,100.0
180,8.100824117660522,973.6627367171501,276.1689047739086,1413.32229295648,146.34654822744508,93.75,1.1506314809054503,0.1,0.0979151725769043,1.1923847198486328,0.049357414,0.08372932,860.9759493857612,0.7622421169135974,19.48140174759487,93.75,3425,0.7748832702636719,0.09274107251686893,0.09186086788834938,1158.8676191329735,100.0
181,6.905362367630005,983.8919596211882,340.86562208976227,1523.5830712831666,3.8340917885152166,91.66666666666667,1.0873798950770324,0.1,0.11277365684509277,1.488173484802246,0.0477411,0.08440526,873.2675504093039,0.7557727698037785,19.687022340222786,91.66666666666667,3368,0.9646186828613281,0.12482396115698627,0.12399182555457987,1158.7152691954855,100.0
182,3.640117645263672,958.0099492784253,289.90328977592713,1473.8180140830705,4.300931422979181,94.79166666666667,1.0117700027413576,0.1,0.1202383041381836,2.359881639480591,0.049532596,0.16609369,881.7417902962161,0.7523070520794333,19.168308261534523,94.79166666666667,3383,1.04970383644104,0.09999420945585542,0.09966073263757766,1219.5488437851789,100.0
183,2.719336986541748,1004.6427027239689,275.52451658920074,1473.7902680694012,125.29247988320982,95.83333333333333,1.1193161081672751,0.1,0.13501644134521484,0.7907803058624268,0.050742842,0.08663822,894.0318815389915,0.760958667118515,20.100845163913263,95.83333333333333,3442,1.0732009410858154,0.09341070134311677,0.08957343489630672,1089.1748513792681,100.0
184,7.182716369628906,993.5147629921147,242.55394607028333,1464.230156650463,397.42856060347276,100.0,0.6466107003928918,0.1,0.13390207290649414,2.3740508556365967,0.04276907,0.08841332,903.9801696843037,0.7526996395842893,19.878389260850057,100.0,3422,0.7628371715545654,0.07408618849470594,0.07313260501859546,1159.3266949926779,100.0
185,7.718355894088745,1054.739194846076,271.15348188604213,1462.729552109307,72.94161135059983,95.83333333333333,1.0734108664477315,0.1,0.15490269660949707,0.896442174911499,0.04922787,0.08352058,919.0560722004809,0.7617105662887426,21.10277439531996,95.83333333333333,3405,0.6288707256317139,0.07815215242509542,0.0722567714176194,1148.7154915788983,100.0
186,7.136486053466797,1018.0787893960564,257.0042999680441,1462.710416289086,2.9479164984514945,98.95833333333333,1.061955094583856,0.1,0.12876033782958984,1.022038221359253,0.050600603,0.09036519,928.9583439200385,0.7586541609962635,20.36967548718226,98.95833333333333,3374,1.0141997337341309,0.07534135776474074,0.07288561340588563,1249.220345207595,100.0
187,2.365553379058838,1019.296179531366,289.3518517803135,1423.3802537743352,4.021529382565063,94.79166666666667,1.01521113940557,0.1,0.1188812255859375,1.6086292266845703,0.048284076,0.08605758,937.9921274811712,0.7636429236439318,20.39398410166714,94.79166666666667,3386,0.9620301723480225,0.09099735035904459,0.09003233650786213,1300.0787310341623,100.0
188,2.1455626487731934,1014.8433848128725,297.8395940538976,1473.8710365862032,94.01174412414294,95.83333333333333,1.0824016806889956,0.1,0.09821367263793945,1.0248100757598877,0.046073016,0.08322007,945.6772532143414,0.7569227060378099,20.304991048767956,95.83333333333333,3405,0.9773004055023193,0.09537440155655628,0.09468203862537802,1320.2136516409432,100.0
189,2.388028621673584,1121.2134928811863,232.32251339476457,1533.813766301246,146.58630557054724,98.95833333333333,1.0630621540261378,0.1,0.11746859550476074,0.4819154739379883,0.04944868,0.088160336,963.2308771810259,0.7712120474047016,22.432275239303394,98.95833333333333,3424,0.7288453578948975,0.05798381287977768,0.04966598284324897,1270.1504597672147,100.0
190,9.808724880218506,1111.7080518891178,239.79455813137153,1484.125921262546,32.98295808860669,97.91666666666667,1.097294134780773,0.1,0.13859152793884277,1.9589698314666748,0.04847422,0.08174841,978.0785946518351,0.7705769892657139,22.242173907294898,97.91666666666667,3433,0.6559176445007324,0.05342372693129614,0.05299221096679539,1259.3399952991567,100.0
191,7.34457540512085,1115.5350166075182,286.9433593262169,1484.8524382330197,2.4095207109055696,94.79166666666667,1.0748007642522794,0.1,0.12315225601196289,0.993366003036499,0.04983266,0.084985994,991.8242368474035,0.767659856136112,22.318835273518133,94.79166666666667,3482,0.8026764392852783,0.07408961746830654,0.07359929692161249,1409.6457841044582,100.0
192,5.834227800369263,1062.0751121944813,333.1542505549945,1535.301249096127,2.958485913443589,92.70833333333333,1.0774790101323524,0.1,0.12857985496520996,2.630030632019043,0.04967001,0.08263398,998.8493243821114,0.7649227024464854,21.24950607317263,92.70833333333333,3471,1.0266973972320557,0.10952606960645357,0.10474886769353671,1309.5243625225005,100.0
193,7.573856592178345,1029.6261480110284,610.8567656230128,1534.7435328576141,-3780.0213358072497,90.625,0.915454416815931,0.1,0.12586617469787598,1.1639630794525146,0.048503526,0.06242742,1001.9270067450032,-0.4613059306919589,20.600493479489526,90.625,3411,0.7003421783447266,0.31910767094724446,0.3170063218968885,1459.8245836609983,100.0
194,8.30423092842102,1098.1927736585324,346.16879456957315,1534.0599834568116,1.9651257606313965,91.66666666666667,1.015823192968454,0.1,0.1407461166381836,1.4601013660430908,0.047929388,0.092845574,1011.5535834363561,0.7645281731011058,21.97183652851078,91.66666666666667,3470,0.8185145854949951,0.10564383514558845,0.10135406000184043,1309.377666002297,100.0
195,8.62550950050354,1073.0193330084014,285.1631727837258,1473.932167231852,125.60618765587903,94.79166666666667,0.971152870882539,0.1,0.0915684700012207,1.6156895160675049,0.03884399,0.07511938,1017.7001583935606,0.7632211804560859,21.468312568603054,94.79166666666667,3465,0.8053030967712402,0.0825264182069455,0.08068203862689988,1370.047979483293,100.0
196,2.565197706222534,1146.2698964584824,288.30981418715675,1484.4096185206329,24.043638555099918,95.83333333333333,1.148609246479994,0.1,0.18276381492614746,1.5059499740600586,0.049151693,0.07883435,1030.5571322000528,0.7674302778489972,22.933418521175394,95.83333333333333,3447,1.133340835571289,0.07662338511625233,0.0686310736128211,1369.9937796855015,100.0
197,2.766883134841919,1176.9728961880119,258.7158483452514,1473.5512836888101,93.83867699474293,96.875,1.1376625689413762,0.1,0.1014411449432373,0.9240481853485107,0.047830794,0.079291396,1045.1987085988487,0.7746819860122621,23.54744541630488,96.875,3489,0.9855222702026367,0.05497021797858055,0.0535716355931642,1369.8422861146719,100.0
198,2.6012446880340576,1153.694583552677,278.6135387956619,1535.0655604650578,127.70279465970579,95.83333333333333,0.9288158568259198,0.1,0.1516590118408203,0.7084982395172119,0.049113736,0.07928731,1056.0482960942315,0.7694643921449243,23.081833140367205,95.83333333333333,3504,1.059490442276001,0.06505497598700186,0.06407253051057528,1420.056692089605,100.0
199,11.028949737548828,1200.0496818859438,287.7246690533988,1534.1274759315834,136.29573348542564,94.79166666666667,1.20391483640395,0.1,0.12061262130737305,1.617687702178955,0.04896472,0.0734387,1070.4484346734027,0.7773306362199021,24.008880414161126,94.79166666666667,3508,1.028059959411621,0.06402384505442298,0.06262339344436958,1430.6139585554915,100.0
200,6.810003280639648,1129.1269504455076,327.2919131195502,1534.6511373602366,16.763032723791945,93.75,1.0490056855382908,0.1,0.13832449913024902,2.2945456504821777,0.049665336,0.08275274,1076.3162862506133,0.7724798630022969,22.590488075777316,93.75,3499,1.1994402408599854,0.09487341620776371,0.08791529994947071,848.1235832595369,100.0
201,8.283005952835083,1212.1809358380135,220.6080672204579,1534.60234466687,139.5147821455492,98.95833333333333,1.0072391986553046,0.1,0.1274583339691162,1.094433307647705,0.04929642,0.089930825,1089.9027512093533,0.7787100761407508,24.25152958852476,98.95833333333333,3544,0.7193951606750488,0.04679666940562377,0.04181946731934405,1319.5368044900652,100.0
202,2.675990104675293,1208.9061270886866,233.98357574792874,1485.1604938259595,4.35381968553474,98.95833333333333,0.9182507783703588,0.1,0.1115419864654541,1.6285035610198975,0.04562215,0.23457266,1101.8030887972866,0.776968492093704,24.186065802688386,98.95833333333333,3572,0.9379804134368896,0.04377975919124805,0.04332885416993136,918.1850743928102,100.0
203,4.678584575653076,1204.9348050339638,272.7174931030407,1534.9471596236672,44.46897716774165,95.83333333333333,1.1264064099747153,0.1,0.15222811698913574,2.32694411277771,0.047991414,0.0770576,1112.1162604209544,0.7772204985237986,24.10668390836572,95.83333333333333,3544,0.9204976558685303,0.05551169965131808,0.05517095800915068,846.1087874166583,100.0
204,3.6120450496673584,1217.8311965500777,237.2066420196872,1595.5851393593464,104.88509591602366,98.95833333333333,1.2184257272597472,0.1,0.12653303146362305,0.6453626155853271,0.049450494,0.07581081,1122.6877540338667,0.7765374173464857,24.36464358797306,98.95833333333333,3533,0.9471211433410645,0.042924269096827804,0.0420766465251838,1369.4195904465846,100.0
205,2.646167278289795,1179.8039412700207,324.00613973735307,1534.3967749782087,34.53788331945556,94.79166666666667,1.1867328228049032,0.1,0.1297588348388672,1.4135921001434326,0.04698424,0.075133696,1128.399372757482,0.7715885117120572,23.60406615741967,94.79166666666667,3536,1.0739524364471436,0.08008953306869356,0.07830030204333298,1158.5124989163708,100.0
206,3.2141849994659424,1207.27035584709,314.5977628856834,1606.3208417209569,4.505662143646576,94.79166666666667,1.1024315975619954,0.1,0.10179805755615234,1.3579649925231934,0.050535955,0.08081759,1136.2864710664428,0.7752127293411649,24.153354719625415,94.79166666666667,3532,0.917870283126831,0.07091923820518765,0.070086892324986,856.8598158701576,100.0
207,7.372649669647217,1202.4741783674488,319.51656778908466,1535.6449294331032,4.451402458182262,94.79166666666667,1.102771963232732,0.1,0.12812304496765137,2.4312493801116943,0.048821032,0.09041026,1142.9052417965434,0.7731101481222841,24.057381366755084,94.79166666666667,3588,0.7974288463592529,0.07598559179193434,0.07529696011725596,856.5670995179489,100.0
208,6.861417531967163,1261.1739872489259,215.11210532689324,1585.6089134039098,177.9265868236356,98.95833333333333,1.1442412185753814,0.1,0.13189411163330078,1.3199241161346436,0.049523313,0.08118433,1154.7321163417816,0.7823651604749579,25.23142877562125,98.95833333333333,3592,0.7531218528747559,0.03712165111329189,0.033817167382727026,916.8716990338648,100.0
209,10.253806829452515,1219.997468012414,259.59300628033657,1595.5200001205264,115.36405419077701,97.91666666666667,1.1611264293397308,0.1,0.13802385330200195,2.5746920108795166,0.049311824,0.07961366,1161.2586515088449,0.632868059658613,24.40790308673611,97.91666666666667,3589,1.1049354076385498,0.05260699440020318,0.05096568540584515,916.8164971561612,100.0
210,7.375839471817017,1250.8397332022435,235.66488194135837,1545.3555373761012,115.14342715486988,98.95833333333333,1.1236771698626904,0.1,0.1362931728363037,0.8831605911254883,0.04651063,0.075510524,1170.2167596781846,0.7789959575269014,25.02466152446786,98.95833333333333,3577,1.0021328926086426,0.0411689578518176,0.040281205893218215,997.7566640840726,100.0
211,5.693803548812866,1284.7739260286537,244.47644809156773,1535.2040597042553,135.5806919910205,97.91666666666667,1.1394850972665846,0.1,0.13452911376953125,1.2896263599395752,0.04905593,0.07920423,1181.6724763132315,0.7836225263424191,25.70337042196019,97.91666666666667,3613,0.7205469608306885,0.040699872304537164,0.039558878220945164,967.9836629679814,100.0
212,3.837606430053711,1280.5738539328856,217.88276168300828,1545.6026248625358,285.5987884223686,98.95833333333333,1.0900435009507947,0.1,0.18660950660705566,0.7957594394683838,0.044268552,0.086781606,1191.562614075197,0.7818576779098493,25.619386944569175,98.95833333333333,3628,0.8042867183685303,0.03351924867819281,0.033086175766358396,1158.4492296089513,100.0
213,9.147018194198608,1295.2965514283815,227.6453296975596,1595.4534749505342,146.81647984333014,97.91666666666667,1.1395379030837396,0.1,0.17545104026794434,1.839928388595581,0.04965848,0.07528324,1201.9360078105155,0.783864656764733,25.913812891241594,97.91666666666667,3624,1.1610653400421143,0.036138277458510455,0.03569283202461972,1598.3087077210703,100.0
214,2.8009510040283203,1306.320429903358,230.50397131648515,1535.4850699498897,96.597366766627,97.91666666666667,1.1094336804658835,0.1,0.1538245677947998,1.9503164291381836,0.05031063,0.07889745,1212.3744500197997,0.7841608481420624,26.13436633479473,97.91666666666667,3670,1.1807990074157715,0.035827769965274696,0.03543296750070389,1659.2655516889042,100.0
215,3.0319809913635254,1322.5410328345913,258.07615160447426,1595.9646781416554,45.73375689501705,96.875,1.233490725519303,0.1,0.13993525505065918,0.5788793563842773,0.049556285,0.071018204,1223.391108301279,0.7849449079795227,26.45869945823002,96.875,3631,0.6804025173187256,0.04137193908213989,0.041300865531817235,1598.4304802201818,100.0
216,8.730712890625,1267.4720288323274,292.28068014051155,1666.256550368084,126.05788246262611,95.83333333333333,1.2214039366248646,0.1,0.11687898635864258,2.0231680870056152,0.049872443,0.07451075,1227.799200354384,0.7846589527202331,25.357387838990363,95.83333333333333,3644,1.0503871440887451,0.059818591255153285,0.057848520871347585,1559.1316800699335,100.0
217,5.982757329940796,1327.9937440507906,192.25233336471888,1655.7173064675935,564.3103749030693,100.0,1.0639481900019108,0.1,0.11776518821716309,0.9090981483459473,0.049578805,0.081193455,1237.8186547240248,0.7858490657000847,26.568003887081534,100.0,3646,0.7731313705444336,0.02674679756435632,0.024295331139256623,1558.823012171819,100.0
218,8.96996259689331,1277.2533390624642,317.1428811325161,1595.5526168934011,45.64803317482094,95.83333333333333,1.2250248466546594,0.1,0.13500165939331055,1.6875135898590088,0.049232166,0.07307147,1241.7621231578687,0.7769694517410665,25.552920672136963,95.83333333333333,3653,0.713947057723999,0.06563819848702888,0.0631416473338243,1458.8006646235187,100.0
219,3.3360462188720703,1317.7574504049105,237.38243566481583,1595.6988293493532,205.07265735878994,98.95833333333333,1.3078575641903485,0.1,0.11803984642028809,2.1838231086730957,0.048665985,0.06698754,1249.361655882573,0.7868489453116533,26.362983533729693,98.95833333333333,3689,0.8059616088867188,0.03735252607343102,0.035272104687516306,1177.309435606293,100.0
220,2.7867019176483154,1302.5751429123989,279.30473196728946,1606.005216105186,1.5640607573661347,96.875,1.2449620866613433,0.1,0.12701034545898438,1.4284963607788086,0.049769178,0.07296159,1254.6830045855556,0.7822840794681195,26.05933063770274,96.875,3624,0.9778399467468262,0.0509517829091888,0.049837444648165634,1137.2906171950417,100.0
221,2.680819034576416,1330.9821512129195,214.00862976720697,1656.098534903499,59.667325928039645,98.95833333333333,1.1492173752258996,0.1,0.1674339771270752,0.8605303764343262,0.04792907,0.07822012,1262.312919248292,0.7878644756913191,26.627517415437904,98.95833333333333,3648,0.8684372901916504,0.03226140958985532,0.031619266399721256,1287.4654629778956,100.0
222,9.76964807510376,1378.0879247005407,211.6286387261661,1656.1804147166085,44.36409088472483,98.95833333333333,1.1877554170096594,0.1,0.12233352661132812,2.2120578289031982,0.049668815,0.079037994,1273.8904197935171,0.7872482620960041,27.569637989470692,98.95833333333333,3694,0.7642128467559814,0.02756403981746693,0.026530475161589805,1108.6851937628037,100.0
223,9.775982141494751,1363.4596928691733,273.5996956339373,1656.5089099398922,3.6840086242475554,96.875,1.17584452062594,0.1,0.11265897750854492,1.6360018253326416,0.049889654,0.07482986,1282.8473471010827,0.7905353267984183,27.277049674334165,96.875,3703,0.6225481033325195,0.04370210134557273,0.042395264423878275,1108.7576945104952,100.0
224,6.1279542446136475,1369.0823183859172,238.00882676068966,1676.7849084955765,307.4971242587263,96.875,1.253058988565105,0.1,0.1654665470123291,1.5788531303405762,0.050713025,0.07497569,1291.4708442295662,0.7915983797576523,27.38949985653086,96.875,3737,1.2893612384796143,0.032944808994361224,0.032565541537368056,1208.9430844009476,100.0
225,6.854892015457153,1348.6979923809758,264.8262153350844,1605.6538828393377,34.202205120228314,97.91666666666667,0.9831971274564546,0.1,0.10582518577575684,1.7937886714935303,0.048627008,0.068359956,1297.1935590447072,0.7857499497713674,26.98182040011369,97.91666666666667,3686,0.9799535274505615,0.043083355848466356,0.042549812233970474,1078.5251829366914,100.0
226,6.584265232086182,1368.7393545168868,199.25053878666563,1596.3222633482562,272.6519214654981,98.95833333333333,1.2018995494777767,0.1,0.12686562538146973,1.7287964820861816,0.05005937,0.077266194,1304.3481385919254,0.7895043513711517,27.382677037476157,98.95833333333333,3695,0.8429300785064697,0.025960192553969485,0.025327751486992546,998.9808141165227,100.0
227,2.9716849327087402,1319.275624798132,270.87978614025684,1656.128113471751,107.75904591503084,96.875,1.2527273135892285,0.1,0.09129953384399414,1.6371934413909912,0.049294338,0.07324582,1305.840887212546,0.7890022865685046,26.39340170626561,96.875,3703,1.40582275390625,0.04818047256720997,0.04553660041060595,1049.294409609481,100.0
228,3.0509963035583496,1343.958903196907,241.689861364897,1665.9882989192315,333.15295676354293,98.95833333333333,1.2937850006026226,0.1,0.14339351654052734,1.468315601348877,0.048002794,0.06872607,1309.652688810982,0.7884214761733376,26.887027267735363,98.95833333333333,3676,1.082186222076416,0.03634869394182951,0.03549172833667329,1119.6637667925077,100.0
229,2.7403838634490967,1364.4966192848342,267.8804385035024,1716.8913790418412,137.01262762250764,96.875,1.1448374013187517,0.1,0.14804315567016602,0.5018031597137451,0.047868684,0.07537308,1315.1370818583673,0.7924432213013389,27.297817945610092,96.875,3735,0.7790136337280273,0.0416033483894306,0.040977971938456016,1298.3754736172502,100.0
230,4.7422034740448,1358.8632247900362,190.27471814352396,1606.3697297722886,505.63014300698666,98.95833333333333,1.1835189785775568,0.1,0.11399531364440918,1.5002551078796387,0.049487777,0.07769372,1319.5096961515342,0.7924299981293738,27.18511561698801,98.95833333333333,3664,0.8555359840393066,0.023519679903969283,0.023212999929389178,1437.8143744969786,100.0
231,3.655064582824707,1412.7984434609286,193.0630360544484,1717.1198218738143,57.248776176225775,98.95833333333333,1.218533016884675,0.1,0.14301180839538574,0.7410333156585693,0.04949021,0.07135582,1328.8385708824737,0.7937483681767464,28.263800914967632,98.95833333333333,3697,0.8884539604187012,0.023558699074565197,0.022474502557450263,1437.7361517669879,100.0
232,5.007621765136719,1354.1225036336298,242.86470771972284,1656.127404550495,24.31529635717408,97.91666666666667,1.1516378491253272,0.1,0.11094856262207031,0.9357736110687256,0.049217775,0.07635406,1331.3669641575893,0.7910954825688382,27.090447082167646,97.91666666666667,3670,0.7934482097625732,0.03533272714228453,0.033880322759595446,1487.729529353201,100.0
233,2.9156322479248047,1394.967090059281,208.47113442283666,1656.4420902764753,195.69382959476107,98.95833333333333,1.2092635933698328,0.1,0.13164329528808594,1.7588953971862793,0.047137186,0.07661632,1337.7269767477585,0.7916701328113439,27.907191871356407,98.95833333333333,3717,1.4579498767852783,0.026303486658570355,0.025364705726499702,1448.3536239718796,100.0
234,4.67667555809021,1424.6309920425704,208.06977978873448,1656.707333603939,2.6197224591079955,98.95833333333333,0.9031410362248606,0.1,0.14710068702697754,0.649651288986206,0.041103274,0.07086484,1346.4173782772398,0.7902328838381131,28.500444379714832,98.95833333333333,3703,0.9874153137207031,0.02649429176397181,0.02535077373528753,1359.0032247863273,100.0
235,5.086588144302368,1343.2469205686575,335.92961965950076,1666.2643056160098,2.5723474006670566,94.79166666666667,1.1528533217180486,0.1,0.12776565551757812,1.293126106262207,0.04928205,0.07092238,1346.1003325063816,0.789154234077515,26.87275709561375,94.79166666666667,3703,0.9416394233703613,0.06614288785777914,0.06236903774701704,1537.81700464228,100.0
236,2.9276719093322754,1396.9158876882618,189.95956558028305,1716.5649956235377,396.2008431333421,98.95833333333333,1.1946238341554798,0.1,0.15265250205993652,1.5883145332336426,0.04886475,0.07774406,1351.1818880245698,0.7942677962734018,27.946143272773856,98.95833333333333,3718,0.8307101726531982,0.023695691727000957,0.02159667524742161,1537.8996701775543,100.0
237,10.201981782913208,1382.0758357621223,183.34187593016887,1666.9538416466737,523.4370680807549,98.95833333333333,1.302252960853283,0.1,0.09363532066345215,1.6854000091552734,0.049682815,0.06826645,1354.2712827983253,0.7942328461887116,27.649333364971767,98.95833333333333,3703,0.9793701171875,0.020816353084476526,0.02042386898665944,1538.1074742357669,100.0
238,3.6947031021118164,1328.0007148925345,238.51878720174253,1605.4451396525728,168.85803036908504,98.95833333333333,1.2544116370188072,0.1,0.1324787139892578,1.7303125858306885,0.050515227,0.07539965,1351.6442260077463,0.7877676099460073,26.567972295631836,98.95833333333333,3712,0.9968438148498535,0.038977594715347355,0.03687761139455166,1477.362055517047,100.0
239,2.7701566219329834,1431.601905051638,132.98000108508464,1666.5403974024398,962.831732933252,100.0,1.1857604375004218,0.1,0.10332512855529785,1.4945201873779297,0.049280196,0.07906053,1359.6399939121357,0.7937457267244555,28.6398883950273,100.0,3715,0.7544233798980713,0.016964392024377602,0.010786825566194638,1538.0956626953696,100.0
240,2.6985135078430176,1388.387685005958,270.74934935088675,1666.6628470261217,57.4142000393546,96.875,0.9725944832455136,0.1,0.1090247631072998,0.8123569488525391,0.048204772,1.1110336,1362.5147630215179,0.7894547303090844,27.77559689241944,96.875,3715,0.8325221538543701,0.04385361607642287,0.04188416507598515,1538.0745199084452,100.0
241,4.9940736293792725,1416.2953170994158,193.00581986234386,1656.2501266475963,148.06770552629402,98.95833333333333,1.1828216184288003,0.1,0.10200786590576172,0.7288494110107422,0.049990308,0.14944798,1367.8928184293077,0.7941808676852697,28.33377913411572,98.95833333333333,3707,0.7774710655212402,0.02346940198943528,0.02206572315107001,1477.4227603365382,100.0
242,9.309857845306396,1406.8118552445321,233.9572510325595,1716.916723208541,332.6161351951201,97.91666666666667,1.240789552787105,0.1,0.1234443187713623,1.3366389274597168,0.049922995,0.07013588,1371.7847221108302,0.7778060628704715,28.240950626193328,97.91666666666667,3719,0.5887100696563721,0.032345052725697584,0.03160079795825155,1477.3861290793152,100.0
243,9.78261423110962,1384.7071909851331,208.39158360301408,1595.9995026119739,3.9020698665442834,98.95833333333333,1.0659367127984753,0.1,0.12003612518310547,1.987504243850708,0.04965624,1.4533465,1373.0769689982603,0.7888645890459944,27.7019746611012,98.95833333333333,3719,1.2179627418518066,0.026095304009069314,0.025634410809823448,1477.4530116728884,100.0
244,2.6074564456939697,1369.4801817320522,249.43015165902796,1716.5466402840193,1.4781277571201326,98.95833333333333,1.022837741774507,0.1,0.13960981369018555,1.4495165348052979,0.048707213,0.26059833,1372.7172902716395,0.7795944825980309,27.39785821889465,98.95833333333333,3709,0.8906464576721191,0.03558901745569664,0.035147350328193674,1477.39966754229,100.0
245,2.888131856918335,1371.2442515756395,266.95417932334163,1655.894117094857,2.2128235740752853,97.91666666666667,1.1741167093980376,0.1,0.18401455879211426,1.9339792728424072,0.04909873,0.07432399,1372.5699864020396,0.7890443956188498,27.43273311217307,97.91666666666667,3687,0.926128625869751,0.03998787753107555,0.03891250018843692,1416.6627756040034,100.0
246,3.2507965564727783,1411.7094147238638,167.16257661232083,1656.2331005057283,492.7375616981022,98.95833333333333,1.3376814279027072,0.1,0.11243867874145508,0.9378819465637207,0.049749486,0.06686505,1376.4839292342222,0.794089090488813,28.241986577067156,98.95833333333333,3693,1.3571176528930664,0.017152732635591625,0.015818345793107855,1477.3267324964174,100.0
247,2.7225801944732666,1386.3516346607737,261.05129774255965,1595.6238545321855,46.1346363986029,96.875,1.1790353415040737,0.1,0.09581565856933594,0.9758236408233643,0.048499323,0.07015957,1377.4706997768774,0.7921170999770785,27.73485621026686,96.875,3686,1.0784995555877686,0.03855490541674067,0.03694008086526911,1416.5705660380963,100.0
248,5.391306400299072,1381.4529424938066,228.7269157590387,1666.660476201914,5.335186278722464,98.95833333333333,1.1740673294724682,0.1,0.09612321853637695,1.186645269393921,0.045393012,0.07195074,1377.8689240485703,0.75665721650501,27.6369073257771,98.95833333333333,3686,1.362750768661499,0.031364293956045154,0.03106354978256223,1416.520417038793,100.0
249,2.276099681854248,1387.3015319183742,194.64770146453344,1666.8286854901862,624.6253815397702,100.0,0.9842256667544911,0.1,0.11322355270385742,1.8754329681396484,0.04905452,0.066639155,1378.8121848355506,0.7909970392433525,27.753818583555113,100.0,3673,0.8249070644378662,0.02265357122318833,0.022265317348891627,1477.21010680348,100.0
250,5.310821771621704,1410.125839695741,182.77707590354865,1666.85370588911,136.13811982871437,98.95833333333333,1.1537572717386586,0.1,0.09035253524780273,1.2619459629058838,0.049110293,0.07491728,1381.9435503215695,0.7928032349488717,28.210358659730932,98.95833333333333,3674,1.2846150398254395,0.01964838634330274,0.01884775473244669,1477.1960871485203,100.0
251,2.9797677993774414,1391.1723159469373,244.21130839010644,1655.6915757277843,-417.0448261255091,100.0,1.0150653508627099,0.1,0.11739325523376465,1.2918360233306885,0.044361398,0.065377966,1382.8664268841064,0.4273887636299283,27.8312941316883,100.0,3696,0.7297813892364502,0.03966622427612122,0.03929913462796026,1416.5146487249613,100.0
252,9.039316415786743,1409.1871620893774,149.17646932194972,1655.6428876086852,912.51973769165,100.0,1.2060192911085672,0.1,0.14708805084228516,1.6405017375946045,0.049761385,0.07778509,1385.4985004046334,0.794949299675321,28.191545397435835,100.0,3695,1.1359596252441406,0.0141189737008012,0.013250242553164772,1477.27369829313,100.0
253,2.569065570831299,1433.7701897954394,130.94471938267606,1656.8229542057604,855.6070217059082,100.0,1.2420139437844906,0.1,0.10297346115112305,1.8488142490386963,0.04715732,0.06966653,1390.325669343714,0.795607772745693,28.683202289590056,100.0,3697,0.9126954078674316,0.010141575790171418,0.009503956047444691,1477.2484550219042,100.0
254,4.639631271362305,1415.2350963646816,182.7394269264967,1717.17121423294,686.3698405478312,100.0,1.2319518536659777,0.1,0.10658001899719238,1.3382740020751953,0.04829325,0.07229976,1392.8166120458109,0.7946499076579517,28.313011898153956,100.0,3737,1.0789868831634521,0.019511856925856295,0.018954044959665264,1477.3093772012403,100.0
255,8.279646873474121,1404.42347210618,197.83395412136286,1656.5983421750618,70.87893624991244,98.95833333333333,1.1716980431530664,0.1,0.1112370491027832,1.3838183879852295,0.050168417,0.07638879,1393.9772980518478,0.7957462278944537,28.096273400207565,98.95833333333333,3716,1.0882599353790283,0.023389874522363747,0.022509312383743534,1477.278802648965,100.0
256,2.58174204826355,1401.136892708165,236.84606443809966,1596.3560650202521,50.615300571364926,97.91666666666667,1.166277631217117,0.1,0.14015555381774902,2.3145601749420166,0.04965295,0.07199781,1394.6932575174797,0.7935487683592265,28.03052944776532,97.91666666666667,3704,1.2900314331054688,0.030163965532676057,0.029693852206225217,1477.2360175475342,100.0
257,4.660471200942993,1404.7173116641025,278.3840017058229,1666.9127911821663,-1.0101658196719896,97.91666666666667,1.1390215151168317,0.1,0.12022566795349121,1.4257032871246338,0.04983409,0.07195937,1395.695662932142,0.7906199093381066,28.102169959380763,97.91666666666667,3762,1.0946924686431885,0.038232314365039044,0.038224554408732146,1477.3734770606986,100.0
258,9.106186151504517,1428.022630503897,202.82686663398803,1656.484454506016,58.91742191994435,98.95833333333333,1.2968429959609937,0.1,0.12607431411743164,1.152634620666504,0.04784923,0.06929173,1398.9283596893176,0.793190856563875,28.568249925426443,98.95833333333333,3731,1.2569329738616943,0.024719589677969542,0.022682805215360705,1477.3443732098635,100.0
259,5.858632564544678,1457.0323733537105,171.37282367260653,1656.4052190402135,101.0183191302001,98.95833333333333,1.2585460670718442,0.1,0.11091375350952148,2.1454007625579834,0.049902987,0.06743163,1404.738761055757,0.796211682488293,29.148428845239568,98.95833333333333,3760,1.4037065505981445,0.017252500607943335,0.01663221483519567,1477.247859636044,100.0
260,2.7703988552093506,1444.8071676043644,107.44722900245807,1655.8734919219023,1084.6170319443502,100.0,1.1355026993814095,0.1,0.11287379264831543,0.9090514183044434,0.046549216,0.079645775,1408.7456017106178,0.7966630891152358,28.903899434990496,100.0,3725,1.1461913585662842,0.008494076319272353,0.007847542304555795,1537.8454936600845,100.0
261,2.7960681915283203,1450.138478538004,135.15353720737707,1706.880287156241,805.4588587353082,100.0,1.1763657116738697,0.1,0.10364866256713867,1.1152002811431885,0.047983896,0.07707185,1412.8848893933564,0.7978427430082201,29.010591467336884,100.0,3746,1.099592685699463,0.010336692480965994,0.010043664588910992,1537.6996070472812,100.0
262,4.9557271003723145,1403.95151228978,228.86390424044828,1716.387291045169,92.56009120262577,98.95833333333333,1.1218884025018465,0.1,0.12966418266296387,2.326026439666748,0.048961446,0.4912005,1411.9915516829988,0.7953252901604401,28.086888326189108,98.95833333333333,3737,1.311070442199707,0.03157643793374544,0.029221466684412396,1537.7247118069174,100.0
263,2.614497661590576,1404.5058284557244,248.94502397419728,1667.0570565208589,5.357400752008739,97.91666666666667,1.211108297794507,0.1,0.14742493629455566,1.3119277954101562,0.048004907,0.066515684,1411.2429793602714,0.7936424552438499,28.097907682222694,97.91666666666667,3731,0.9819824695587158,0.032394685203726424,0.031713736174182855,1537.803868582243,100.0
264,4.840283393859863,1428.9101317411653,169.72934431250647,1656.6576778163876,337.7285248793741,98.95833333333333,1.249412705375005,0.1,0.1808466911315918,2.301292657852173,0.049258955,0.070381925,1413.009694598361,0.7965519906945736,28.585995062547642,98.95833333333333,3728,1.1474218368530273,0.016894610022896224,0.015854748517815164,1537.6946499067014,100.0
265,7.6973865032196045,1438.4458146032077,134.55112616867922,1656.2250176897587,864.2282056449787,100.0,1.1883641295003489,0.1,0.16449284553527832,1.4399042129516602,0.04870305,0.07768612,1415.5533065988457,0.7942212799574708,28.776677641499703,100.0,3748,1.2234854698181152,0.011550053154156786,0.01119334756115566,1537.7789883772837,100.0
266,7.981565952301025,1464.7549924751772,124.51286726946138,1655.6795653951756,877.1544222062885,100.0,1.210809816184682,0.1,0.14531254768371582,1.3062989711761475,0.04763134,0.07272431,1420.473475186479,0.7980136667005612,29.3028918560008,100.0,3738,1.0296845436096191,0.008968939787881903,0.008505433741053836,1537.740286074474,100.0
267,2.8894686698913574,1459.2173568038788,115.20291863700275,1596.0433524652742,877.1368696801618,100.0,1.0085363485198688,0.1,0.1049344539642334,2.19390606880188,0.04754732,1.0798776,1424.3478633482189,0.7982330486013335,29.192129250324438,100.0,3731,1.137343168258667,0.007939504920773392,0.00773675987305831,1477.0732168917311,100.0
268,2.788437604904175,1455.7756154167928,207.01010428452213,1666.297243453725,1.1823573181514817,98.95833333333333,1.2002884664858646,0.1,0.10632944107055664,1.3331496715545654,0.050337184,0.071026415,1427.4906385550762,0.7819366535788946,29.12327649707721,98.95833333333333,3746,1.031249761581421,0.021180444720394827,0.02070758418973183,1537.6936982643606,100.0
269,7.738076686859131,1407.0974955285972,161.67582182366687,1656.358080338129,766.7145500432076,100.0,1.2942050450073996,0.1,0.11896061897277832,1.4828853607177734,0.049398348,0.07025473,1425.4513242524283,0.796812136242854,28.149754010976455,100.0,3732,1.2457425594329834,0.016525061630044698,0.015504481910330619,1477.0710371359203,100.0
270,7.107081174850464,1424.8170973768092,136.58635894661333,1656.6496852019905,982.9894642436838,100.0,1.1840714104528558,0.1,0.15340638160705566,0.5987906455993652,0.049867176,0.078334935,1425.3879015648663,0.7964057813656765,28.504181556055755,100.0,3705,0.9450473785400391,0.012450846387675976,0.012109482202492756,1537.7140334407347,100.0
271,3.8820455074310303,1411.0951637033147,201.41139273406262,1656.138893420747,637.0410894241043,100.0,1.294952999611821,0.1,0.10706925392150879,1.8257315158843994,0.04948438,0.080161765,1423.9586277787112,0.7954849695202766,28.229667110122197,100.0,3755,1.0523686408996582,0.022798082098082068,0.022318486018071165,1537.762937278306,100.0
272,3.7892794609069824,1450.0463327385303,169.1007021687675,1716.9694802296674,176.17401348674358,98.95833333333333,1.1408967840333404,0.1,0.11568665504455566,0.6144003868103027,0.049132064,0.072658226,1426.567398274693,0.7981283573888032,29.008738651534532,98.95833333333333,3721,0.9183394908905029,0.01588732560988129,0.015171373487274356,1477.0585730680434,100.0
273,3.525033712387085,1486.5863422833963,100.27494399830432,1667.430548797208,1127.0294679232197,100.0,1.1663856756757265,0.1,0.11898922920227051,1.5160865783691406,0.04948774,0.079610124,1432.5692926755635,0.7991754944985187,29.7395680488947,100.0,3747,0.825263261795044,0.006565447375190972,0.005959333993267226,1477.0746262097882,100.0
274,5.371548891067505,1454.0588771763867,127.16595279984338,1667.483766509677,737.2271804746083,100.0,1.2052837699120824,0.1,0.13061833381652832,1.46504545211792,0.050063893,0.07551637,1434.7182511256458,0.7987333399363665,29.089016196579127,100.0,3729,0.9740924835205078,0.009727316495915687,0.009010597364256367,1477.088420809311,100.0
275,4.890798807144165,1452.1577394594824,109.13583611742031,1656.4091810842522,1034.2000143929577,100.0,1.1623136669177212,0.1,0.13332819938659668,1.7300128936767578,0.050329246,0.08352059,1436.4621999590295,0.7982324803055088,29.051002695110867,100.0,3717,1.1838078498840332,0.007616114533569919,0.007446731128993498,1477.076447391382,100.0
276,2.6076505184173584,1493.21077623085,123.45130389026315,1717.2584934834344,874.1913654275244,100.0,1.1618391412816276,0.1,0.1376476287841797,2.4787349700927734,0.04960827,0.08125867,1442.1370575862115,0.799154060459952,29.872006358405145,100.0,3758,1.0153489112854004,0.009133379864010985,0.008076717000670556,1477.016330286462,100.0
277,2.7493417263031006,1445.2869215437343,234.60723550633082,1717.1225447062416,217.6870440479259,97.91666666666667,1.1652555333195118,0.1,0.15895915031433105,2.2004778385162354,0.04909315,0.06740161,1442.452043981964,0.7978783055704693,28.913512418938183,97.91666666666667,3813,1.067049503326416,0.02881187058649031,0.026524598459651525,1477.0107556619387,100.0
278,5.098271131515503,1457.4359766628422,191.8622132544356,1656.5249297692417,0.3913620525191197,98.95833333333333,1.2046384099025245,0.1,0.1416022777557373,1.7884142398834229,0.049396314,0.0670894,1443.9504372500517,0.7950224229261655,29.15652268330091,98.95833333333333,3745,0.9001893997192383,0.017508085196761117,0.016924247040547683,1477.196196552506,100.0
279,4.443804502487183,1453.681458757531,142.95189400862722,1667.0945878735074,807.5793826162538,100.0,1.2222863740530037,0.1,0.1247708797454834,1.3882994651794434,0.049242772,0.07779224,1444.9235394007997,0.7972543559606667,29.081501420885427,100.0,3721,1.0681354999542236,0.012466738068925906,0.011711448202459649,1477.1105233491344,100.0
280,3.6597023010253906,1471.9031205260646,162.50174161188866,1716.9583968033585,648.458695186668,100.0,0.9940098165995402,0.1,0.12931299209594727,1.7114810943603516,0.049533803,0.081683114,1447.6214975133262,0.7978891772698811,29.446271628540785,100.0,3766,1.1062123775482178,0.014528146762409707,0.014147869231854331,1477.1002940105507,100.0
281,4.276540040969849,1431.9164639277187,461.84887264390125,1727.9747709163116,-2779.8764634896006,100.0,0.7722217436288098,0.1,0.09790277481079102,1.7478773593902588,0.049597353,0.045510635,1446.0509941547655,-0.2398492089240404,28.646067241007113,100.0,3782,0.8454055786132812,0.1276213128524967,0.12568596443014998,1537.7895794116703,100.0
282,2.8537373542785645,1472.5895754262353,122.23046161239448,1667.2767752003049,974.2829323458361,100.0,1.2875292757264267,0.1,0.14972782135009766,0.9932253360748291,0.049976148,0.07431742,1448.7048522819123,0.7992613260798725,29.459599657211765,100.0,3765,1.0299453735351562,0.010337738665451025,0.009103631892489516,1477.1521734820344,100.0
283,2.7210309505462646,1447.2906595571158,199.18956264531252,1717.7814239392626,273.62298018972456,98.95833333333333,1.1695809557318306,0.1,0.10619497299194336,1.8308625221252441,0.04945529,0.074107125,1448.5634330094326,0.7980953916552078,28.953585521904916,98.95833333333333,3787,1.008192539215088,0.021505556696540282,0.020489237809284664,1477.2042201894992,100.0
284,3.4578139781951904,1494.8715698311655,123.4950646374527,1718.3060681908291,985.3233447780993,100.0,1.2827137621977167,0.1,0.13379979133605957,2.563943386077881,0.049275678,0.07292051,1453.194246691606,0.7993312997702718,29.90526073141591,100.0,3781,0.9532957077026367,0.008686794761225336,0.007668363278166536,1537.869865303257,100.0
285,4.201930284500122,1468.3131696541257,158.3402955213648,1777.0723156480235,948.2947317496464,100.0,1.144364578866848,0.1,0.14810848236083984,2.015646457672119,0.048891004,0.08033102,1454.706138987858,0.799443971087074,29.374058704407428,100.0,3842,1.26381516456604,0.013392444587802308,0.012640983908456863,1537.911246362108,100.0
286,6.073899507522583,1481.4197087548753,213.6277647117379,1717.530283464983,122.71972301653803,97.91666666666667,1.2929705354119367,0.1,0.12708497047424316,2.559243679046631,0.049335316,0.0686397,1457.3774959645596,0.7991882851455422,29.636188873474804,97.91666666666667,3789,1.1237332820892334,0.02309864132514191,0.021761349376267874,1477.2482246513046,100.0
287,4.675306558609009,1461.6238073312416,203.09830166195098,1777.6079215617438,132.21496406377335,98.95833333333333,0.5032753817025662,0.1,0.10269570350646973,1.1891725063323975,0.04672561,41.576748,1457.8021271012278,0.7937772883175597,29.240275953268466,98.95833333333333,3805,0.7447011470794678,0.023411489379518497,0.02252290102151216,1537.9482613728144,100.0
288,4.876046657562256,1461.4431072743498,266.6278255328393,1726.949831117831,0.17876825774978133,96.875,1.1969324265082202,0.1,0.12131047248840332,1.5180048942565918,0.049626097,0.066996045,1458.16622511854,0.7960954795400675,29.236609389306366,96.875,3812,1.131037950515747,0.03171655844114507,0.030842984560794616,1477.3111193497457,100.0
289,5.948893070220947,1445.2783560203782,199.1124593293275,1716.951299854044,183.19122090362848,98.95833333333333,1.211885636189996,0.1,0.11480879783630371,1.2549736499786377,0.048150774,0.067951515,1456.877438208724,0.7980466255985611,28.913368110140606,98.95833333333333,3744,1.4555482864379883,0.022376611507609837,0.021617356928952648,1477.2080946955812,100.0
290,2.9133241176605225,1471.1732602297036,148.64484935920535,1727.2144552508232,849.0514910737312,100.0,1.2919731110962116,0.1,0.10838508605957031,1.329214096069336,0.049528312,0.07120319,1458.3070204108221,0.7987807709279678,29.43125316271596,100.0,3769,0.9929234981536865,0.012153431429696885,0.0116755491839772,1477.117653297091,100.0
291,7.23813271522522,1483.6172903138968,197.33833982122854,1777.8649602364414,81.11676021464488,97.91666666666667,1.2081308789119856,0.1,0.11413097381591797,2.3234403133392334,0.050697464,0.07097588,1460.8380474011296,0.7987146215900344,29.680120268953885,97.91666666666667,3794,0.9140727519989014,0.019542723529719606,0.019036707094363302,1477.2089842668418,100.0
292,4.4076690673828125,1495.2472262543997,91.07264849434466,1657.0848942417251,1104.3275336167283,100.0,1.1746212962349911,0.1,0.1139228343963623,0.744931697845459,0.049782883,0.08178067,1464.2789652864567,0.8002871650759301,29.9126916638664,100.0,3748,0.9630265235900879,0.004927834536936746,0.004668427567096527,1537.8724122134035,100.0
293,7.860054016113281,1501.3360844318252,98.61654672036086,1718.1956985133568,1013.0865985355147,100.0,1.2106238398925073,0.1,0.11435246467590332,1.0097086429595947,0.049895547,0.07732304,1467.9846772009937,0.8004872623357966,30.03445885818648,100.0,3781,1.0048096179962158,0.006084411252767754,0.005886932729185978,1537.7044931224966,100.0
294,8.65988540649414,1487.263113507128,148.35730028428486,1777.6037254023026,743.1073458969739,100.0,1.1211080129146298,0.1,0.10716915130615234,0.9160208702087402,0.048483353,0.0771478,1469.9125208316073,0.7999648639337312,29.753053961620537,100.0,3766,0.8096067905426025,0.01130824436263509,0.010728813988876918,1537.6008958451578,100.0
295,5.787680387496948,1500.0608733551678,183.46672628932183,1777.2629605948264,36.95514868561744,98.95833333333333,1.2916227393590103,0.1,0.0977780818939209,1.3864004611968994,0.050490726,0.06746211,1472.9273560839633,0.7998119442297638,30.008979792601583,98.95833333333333,3790,0.7320928573608398,0.015964251748215107,0.015261978744934592,1537.713953492146,100.0
296,3.0978126525878906,1493.0773993861956,280.3521566099997,1777.740451374703,6.106984527632819,96.875,1.026140050067067,0.1,0.1066734790802002,2.1295950412750244,0.04743105,0.14237489,1474.9423604141866,0.7972966315431345,29.87071875931967,96.875,3810,1.3991668224334717,0.035479277732906433,0.03406240378261653,1537.6114877574814,100.0
297,5.822360038757324,1536.439873790104,98.18859040737225,1717.545062675763,1127.0035557307974,100.0,1.2433154917539109,0.1,0.11673092842102051,1.5353240966796875,0.05037564,0.07578343,1481.0921117517785,0.8024298485608673,30.736531688621113,100.0,3797,0.9603891372680664,0.0055594557234844395,0.004582200798562658,1598.247352398117,100.0
298,6.9531025886535645,1526.3980839918534,135.0458689304807,1788.1068948535094,924.4178891788331,100.0,1.3613977282733667,0.1,0.12562847137451172,1.331861972808838,0.048784167,0.06585151,1485.622708975786,0.8022842596067092,30.535746272561553,100.0,3858,0.804424524307251,0.009628806805439701,0.009160288742321424,1598.3177149346448,100.0
299,4.121633768081665,1496.557392919676,216.61801356523765,1727.9268180202694,347.6964540535455,98.95833333333333,1.384762552083958,0.1,0.09837865829467773,1.2038841247558594,0.04888799,0.06282331,1486.716177370175,0.8011490983063959,29.938914070174423,98.95833333333333,3845,0.8925130367279053,0.022136773121122933,0.021144289374728627,1537.6809853255872,100.0
300,6.453535795211792,1523.7427073060123,213.77976294695995,1777.5596130751815,127.00318458106274,98.95833333333333,1.2786537674456206,0.1,0.1280531883239746,2.3165528774261475,0.04928955,0.06299617,1490.4188303637588,0.8005381743675796,30.48262429622714,98.95833333333333,3842,1.3805828094482422,0.02011138676147242,0.019847902863261265,1537.7276104132761,100.0
301,8.881332159042358,1541.3759884502635,95.12933128068717,1776.7474272761513,1206.5584207314205,100.0,1.2323193692479115,0.1,0.09968113899230957,1.4330534934997559,0.049869046,0.08013049,1495.5145461724094,0.8021502914701529,30.835265806866364,100.0,3839,0.7984676361083984,0.006125632926820364,0.005002313123932954,1537.8394419713943,100.0
302,2.6610400676727295,1550.244413825869,139.4907706287602,1777.6368720640517,805.8191238087977,100.0,1.2117271324907462,0.1,0.1519181728363037,1.0489075183868408,0.050467137,0.07604404,1500.9875329377553,0.8031637135039392,31.012637471225286,100.0,3861,0.9539885520935059,0.008875091233995413,0.008725989324646657,1537.831847105092,100.0
303,2.6764111518859863,1525.8918815411319,270.1267763154134,1788.696337194705,27.16804479645652,96.875,1.180016296569936,0.1,0.11907029151916504,1.3253028392791748,0.048820067,0.06799149,1503.477967798093,0.7999543165033266,30.525610896250836,96.875,3887,1.1301753520965576,0.03208280033333045,0.030373029263160697,1537.9683013797458,100.0
304,4.733272552490234,1543.6903408077185,187.3129801453032,1717.4639067047183,47.233752448067975,98.95833333333333,1.2443805983379082,0.1,0.10902214050292969,1.7508797645568848,0.0498213,0.067090966,1507.4992050990556,0.8010064217418433,30.88160251944935,98.95833333333333,3833,0.9811546802520752,0.015624874320177807,0.014911940046484485,1537.9453833258194,100.0
305,7.4763195514678955,1510.8151206697248,181.37912800906076,1727.23785799699,589.9746140474663,98.95833333333333,0.9852527376827882,0.1,0.12436628341674805,2.3108129501342773,0.045466322,0.07501923,1507.8307966561226,0.7982904591206749,30.223224597553678,98.95833333333333,3823,0.8764574527740479,0.016663333258775302,0.01572111379281712,1537.9055569714358,100.0
306,4.852548837661743,1532.1036444360118,123.3046423520936,1717.2683441863219,1005.7702316287128,100.0,1.2286072619960897,0.1,0.1306016445159912,0.9515373706817627,0.049840916,0.07667315,1510.2580814341118,0.8026136527287919,30.649838938837224,100.0,3825,1.1012020111083984,0.008534202956929512,0.008293264175953054,1598.6841388587563,100.0
307,6.47494101524353,1478.6377774120435,274.27330270681273,1787.9060672962662,68.74528797445117,97.91666666666667,1.294620325469541,0.1,0.1188802719116211,1.9368956089019775,0.04937781,0.066957906,1507.096051031905,0.5857254968827544,29.579519787254224,97.91666666666667,3876,1.2431869506835938,0.03809453252402137,0.03599446481030549,1537.9734443393488,100.0
308,6.808301687240601,1554.801708642217,130.91996079965537,1848.6516456462155,1023.6259461607799,100.0,1.2051344276223759,0.1,0.10637831687927246,1.106503963470459,0.050567698,0.082763985,1511.8666167929364,0.8029524822839934,31.10383504497686,100.0,3856,0.977494478225708,0.009862507513230912,0.008331361748116523,1538.0650408795536,100.0
309,4.1760337352752686,1558.9167519645337,183.53053696023792,1838.2229855976643,29.340337213165455,98.95833333333333,1.2040265957283143,0.1,0.18051838874816895,1.8846473693847656,0.048695557,0.068807624,1516.5716303100962,0.8016492752333315,31.186108027387288,98.95833333333333,3856,1.4485814571380615,0.014409209635285204,0.013952298723595992,1537.9854875626854,100.0
310,9.027794361114502,1506.2855014923982,236.3239946711027,1727.0261363425723,50.444271168080725,97.91666666666667,1.26091740748568,0.1,0.12534809112548828,2.3846025466918945,0.049974237,0.06927247,1515.5430174283265,0.7989142981072318,30.133605878968126,97.91666666666667,3884,0.7432248592376709,0.026163923673175882,0.024724860669074207,1537.9679297906373,100.0
311,6.264913320541382,1524.0794376494948,220.51378340336788,1788.0647026335569,273.4118162244354,97.91666666666667,1.326435581319311,0.1,0.15114641189575195,1.9218437671661377,0.050351262,0.066779196,1516.3966594504434,0.8017773434815186,30.489350166143154,97.91666666666667,3884,1.1287548542022705,0.021869885280062222,0.021147888486301922,1538.024100543451,100.0
312,8.246150016784668,1522.384068719978,229.87418905072778,1787.6273809722018,337.3723628703842,97.91666666666667,0.797121702829083,0.1,0.1357588768005371,1.6149542331695557,0.04872606,0.06360265,1516.995400377397,0.7981533445766223,30.455526101382024,97.91666666666667,3874,1.1454484462738037,0.024834307071419332,0.023995823869255698,1537.9869473957187,100.0
313,4.023897886276245,1556.8521171182547,154.4697006485575,1838.0833553277425,809.5225253387707,100.0,1.2863269152247419,0.1,0.10112929344177246,1.6300132274627686,0.050128695,0.06677473,1520.981072051483,0.6609383413524709,31.144877670198127,100.0,3867,0.9095077514648438,0.0125541629952731,0.01191095833949384,1537.952111010115,100.0
314,5.908166885375977,1521.2033021558116,236.63467540281437,1787.501447953828,228.16617936637078,97.91666666666667,1.206245846189314,0.1,0.13423585891723633,2.10680890083313,0.049714338,0.07252482,1521.0032950619159,0.7989222437734984,30.43182136026196,97.91666666666667,3915,1.2232294082641602,0.02578781394548024,0.025111335519000667,1537.885503513344,100.0
315,6.981140375137329,1534.3378556175678,209.52140819945942,1777.8056647545343,247.72687832224997,97.91666666666667,1.2722084431902334,0.1,0.13007307052612305,2.037820339202881,0.05011695,0.07195025,1522.336751117481,0.8023929416696562,30.694538999917743,97.91666666666667,3870,1.3481321334838867,0.0194493910816935,0.01865578112084487,1537.8663019582718,100.0
316,2.6985533237457275,1537.1448531666513,166.04052886879782,1778.0342527110536,598.4082935755423,98.95833333333333,1.146033857486033,0.1,0.10408782958984375,0.8535492420196533,0.048956092,0.07359355,1523.8175613223982,0.802285959144669,30.75068551731503,98.95833333333333,3857,1.057849645614624,0.011714655857857489,0.01155040867022498,1537.9251692992418,100.0
317,10.201287984848022,1539.1421393176115,129.72263455009383,1898.5890762979575,962.984665697791,100.0,1.2513340396743189,0.1,0.15878701210021973,1.755378246307373,0.048792884,0.07693584,1525.3500191219196,0.8008497819578091,30.790731241483826,100.0,3827,0.8237595558166504,0.008749762646849638,0.007991731628411505,1598.6809990822599,100.0
318,7.439663887023926,1586.7875205906957,125.56315322319271,1777.8055484788697,1016.8798058298554,100.0,1.1540763157162564,0.1,0.16546058654785156,2.1290132999420166,0.04767108,0.076128565,1531.4937692687972,0.8045468891286146,31.74357461580432,100.0,3919,1.038081407546997,0.008090497029748112,0.007052702530824268,1537.9676692437918,100.0
319,8.328243255615234,1539.5412202415225,277.2046916031358,1777.503149939836,23.266928656860046,96.875,1.2145688595109534,0.1,0.1330573558807373,1.5086259841918945,0.046996843,0.062394984,1532.2985143660696,0.5182406131619389,30.798656010823777,96.875,3907,1.15671968460083,0.03883576805538819,0.036048754216907376,1537.9736907295674,100.0
320,7.9732911586761475,1552.5403451090558,237.45082655632234,1837.2337878807693,240.3372134045029,96.875,0.538876538240215,0.1,0.10220193862915039,1.1714191436767578,0.03384406,0.039272364,1534.3226974403683,0.7994054481141015,31.058606362079573,96.875,3894,0.5261752605438232,0.025380167540481082,0.024675036746650968,1538.0534820391226,100.0
321,5.703545570373535,1577.953271864312,160.6703836742002,1837.7215921321535,437.4812441207274,98.95833333333333,1.1097432030145773,0.1,0.0998537540435791,1.500213861465454,0.0498112,0.073526844,1538.6857548827627,0.8042638893682866,31.56690459566008,98.95833333333333,3907,0.9945328235626221,0.01215639219727248,0.011260981860442627,1538.040990689459,100.0
322,3.128209114074707,1574.7013532081255,163.534689907898,1777.9006344447512,476.84666878772776,98.95833333333333,1.368564297878034,0.1,0.09296417236328125,2.079526901245117,0.05107788,0.06428239,1542.287314715299,0.8033976609891486,31.501788777167828,98.95833333333333,3900,1.0246620178222656,0.011284150351860048,0.011161600715957247,1538.0052769875351,100.0
323,5.6475911140441895,1574.6831128943213,192.1338684177782,1728.136203124282,50.7276482605828,98.95833333333333,1.1259495084380662,0.1,0.10750508308410645,1.2185137271881104,0.050275795,0.07687378,1545.5268945332014,0.8015027817654463,31.501522294232913,98.95833333333333,3895,0.7258012294769287,0.015852261697217384,0.01526130401711097,1538.0522544480102,100.0
324,4.341833114624023,1574.732271791095,194.20008159448014,1777.9678460776704,368.4476024699111,97.91666666666667,1.072058016612828,0.1,0.13648557662963867,1.5983214378356934,0.050946552,0.093061484,1548.4474322589908,0.7459148513663406,31.50243728165491,97.91666666666667,3905,1.269754409790039,0.016680625665436183,0.016275007118262724,1538.0369256581355,100.0
325,5.450361013412476,1571.4873276308947,108.45396716512387,1838.4431111808356,1057.846876756867,100.0,1.2004547676447175,0.1,0.15910863876342773,2.2553961277008057,0.049440797,0.073913075,1550.7514217961811,0.8036008907939954,31.43753128745756,100.0,3873,0.882540225982666,0.006395487520795408,0.006050573147683356,1538.0456224623688,100.0
326,6.802599668502808,1593.9710863771106,115.88197036623664,1838.6110258795331,798.0486385255631,100.0,1.3061037563299414,0.1,0.11433768272399902,2.2040817737579346,0.049534053,0.06975423,1555.073388254274,0.8039644699615479,31.88721323443019,100.0,3901,0.8517518043518066,0.006338695359221998,0.006069948328233389,1598.799931192423,100.0
327,2.6963467597961426,1587.376481305377,180.20001708831379,1827.0875886427798,272.684857694313,98.95833333333333,1.2404594880197022,0.1,0.1095888614654541,0.9094445705413818,0.04848385,0.066791676,1558.3036975593845,0.8034706472282706,31.75535237544837,98.95833333333333,3915,1.2597200870513916,0.013970214785333697,0.013595172677488793,1598.7603635115493,100.0
328,2.8085274696350098,1550.774085929984,250.80177143658253,1837.9327084211814,107.97362345188064,97.91666666666667,1.222604046218645,0.1,0.14191865921020508,0.5940597057342529,0.050271805,0.07106614,1557.5507363964446,0.8020551150338419,31.023300298909874,97.91666666666667,3921,0.7543163299560547,0.025884949219844074,0.024790368182985408,1598.7278565716051,100.0
329,7.03509259223938,1595.464934743808,149.8585246708002,1838.1908486351979,502.26268792054583,98.95833333333333,1.2289127425543174,0.1,0.11520934104919434,1.566063642501831,0.049874924,0.06989034,1561.342156231181,0.80344467758988,31.91706748888416,98.95833333333333,3912,0.9163439273834229,0.011308069789013902,0.010229613899041423,1659.3997048889585,100.0
330,6.1832709312438965,1601.5787313826677,195.71922477484864,1837.9239126562215,347.5661701383397,98.95833333333333,1.2392221019501533,0.1,0.13286709785461426,2.2827866077423096,0.05027391,0.06655399,1565.3658137463296,0.8045470481878877,32.03934292164294,98.95833333333333,3959,0.6510906219482422,0.0155369521528179,0.014645675092152415,1659.3283398568542,100.0
331,6.407783269882202,1604.851889769344,206.9546351287596,1798.9150321125353,171.8122106915069,97.91666666666667,1.2654808286297938,0.1,0.14462924003601074,1.595240592956543,0.050616708,0.06517828,1569.3144213486312,0.8048376357931054,32.10481711021288,97.91666666666667,3959,0.799816370010376,0.01699520828389271,0.01662395049945959,1598.7383798994397,100.0
332,7.530434608459473,1613.5298104820497,130.83684390001983,1838.7857166902913,966.0388259720858,100.0,1.2830159776897476,0.1,0.13294434547424316,2.1242735385894775,0.050257888,0.074950844,1573.735960261973,0.8054040705239677,32.27842187580106,100.0,3940,0.943474292755127,0.00792428794090763,0.007181972358666629,1659.3777632669307,100.0
333,3.0052926540374756,1603.4668545532695,169.46122110339007,1838.2739607872647,537.4905808429623,98.95833333333333,1.1429577395839614,0.1,0.10824394226074219,1.0891528129577637,0.050088543,0.075457714,1576.7090496911028,0.8050352534095276,32.07713375361218,98.95833333333333,3953,1.0900673866271973,0.012910271030721475,0.0120050803140015,1659.3820425737786,100.0
334,3.0233001708984375,1607.1409429540329,134.29183604484814,1787.5217204971264,1008.0940982643292,100.0,1.2733188097727914,0.1,0.1113436222076416,0.901151180267334,0.04953029,0.06974605,1579.7522390173958,0.805015028449919,32.150614123973405,100.0,3935,0.7232232093811035,0.008340695388032681,0.008067172881896675,1659.4142662787924,100.0
335,4.487468719482422,1620.477196065315,155.1007530987661,1838.245856097781,458.9940290782831,98.95833333333333,1.2640893107340074,0.1,0.13091778755187988,1.068474292755127,0.04945791,0.06914507,1583.8247347221877,0.8064992782082152,32.4173450982761,98.95833333333333,3953,0.9444117546081543,0.009944983813286797,0.009623327463160766,1598.7445668481578,100.0
336,3.0246899127960205,1622.411368943035,95.52040230524989,1969.700032681039,1287.6220990112456,100.0,1.3051798365259255,0.1,0.10753822326660156,1.3549649715423584,0.0494166,0.075886615,1587.6833981442726,0.8059410108015937,32.45600822530943,100.0,3932,0.8488781452178955,0.00580679365454024,0.004849093254763479,1659.3043014421569,100.0
337,3.404171943664551,1604.0798884957997,141.66162260158455,1897.6001253002446,797.3271499622242,100.0,1.293470316175861,0.1,0.1539926528930664,1.7706823348999023,0.049737666,0.07164146,1589.3230471794254,0.8050462775476053,32.089378317976106,100.0,3950,1.1824233531951904,0.009019476198959951,0.008437734500867352,1659.1953968803823,100.0
338,2.6208789348602295,1598.450458051001,118.92628781480694,1838.3250797640871,1155.5781557859982,100.0,1.3133023268478001,0.1,0.15332674980163574,2.0103182792663574,0.050125614,0.07241299,1590.235788266583,0.8050394527687965,31.9768391821175,100.0,3940,1.169518232345581,0.007286588569578123,0.0070629705539456454,1659.225403597383,100.0
339,6.570120573043823,1567.4982868599689,194.88724162159028,1908.8382466028643,614.8157748845747,98.95833333333333,0.7599563617385449,0.1,0.15102267265319824,2.0637171268463135,0.044882353,0.8145255,1587.9620381259217,0.8008952825574113,31.35775116596173,98.95833333333333,3957,0.8217885494232178,0.017898562865203065,0.016759653831591743,1598.5508643557455,100.0
