iteration,time_sampling,stoc_pol_mean,stoc_pol_std,stoc_pol_max,stoc_pol_min,rollout_success,alpha,delta,time_vpg,time_npg,kl_dist,surr_improvement,running_score,rwd_sparse,rwd_dense,success_percentage,num_samples,time_VF,VF_error_before,VF_error_after,eval_score,eval_success
0,2.1706509590148926,-224.2221395484615,15.911784659331778,-178.69987919442514,-265.8419728326796,0.0,0.45775393354492666,0.1,0.1782534122467041,0.3184189796447754,0.05059799,0.25635344,-224.2221395484615,-0.11079188809476959,-2.946248443441926,0.0,1925,0.3618123531341553,0.9990347707862298,0.9041874435730651,-270.5546829093231,0.0
1,1.6270768642425537,-222.80307122251224,13.552524017589395,-189.5352462254927,-250.55146562048986,0.0,0.5361351611936971,0.1,0.008553028106689453,0.256500244140625,0.051209193,0.2210572,-224.0802327158666,-0.1115630586689354,-2.9275557131826986,0.0,1897,0.18927812576293945,0.9031611348865578,0.3075554140962864,-295.8267781357914,0.0
2,1.4087331295013428,-222.09837386912147,15.48991856642397,-190.6012022185401,-280.50447056178,0.0,0.5776557698660708,0.1,0.02584099769592285,0.2521698474884033,0.054547753,0.20271023,-223.8820468311921,-0.11113991880005773,-2.917990999699736,0.0,1897,0.20244622230529785,0.30611264304910407,0.1401854173579044,-299.36846582702776,0.0
3,1.49904203414917,-229.06512303497092,15.094753192338702,-189.84063865662668,-273.7990167054392,0.0,0.5804129306134559,0.1,0.008226633071899414,0.24387812614440918,0.05185171,0.19207437,-224.40035445157,-0.11166539290136446,-3.0099644975767283,0.0,1951,0.19487452507019043,0.14026607520770604,0.11483471877027249,-275.64202871128043,0.0
4,1.4282193183898926,-224.32783441768547,21.767521464057044,-188.09773586348504,-357.8977631200744,0.0,0.5725830538524596,0.1,0.05580854415893555,0.27298712730407715,0.047936607,0.18750729,-224.39310244818154,-0.11098578965031385,-2.946662142916594,0.0,1921,0.21560382843017578,0.11642900855552192,0.09237222839040306,-285.075161802514,0.0
5,1.565809965133667,-222.02644893222768,20.66112411110894,-194.12648970624008,-347.80380870795415,0.0,0.5369318700238376,0.1,0.008029699325561523,0.27475857734680176,0.048783373,0.19405843,-224.15643709658616,-0.11074988101034483,-2.916192702511644,0.0,1906,0.17870664596557617,0.08995781957041316,0.06938221596197193,-293.1786367542097,0.0
6,1.2886481285095215,-221.4665642387405,19.392456089041847,-187.1568437463914,-327.19285739971946,0.0,0.5869767299219835,0.1,0.05061221122741699,0.276012659072876,0.054445673,0.18636592,-223.8874498108016,-0.11003136652653615,-2.909036787925787,0.0,1920,0.15457558631896973,0.07000519911590274,0.04949397267851546,-275.7104956461528,0.0
7,1.4254484176635742,-224.11601993775272,21.007657256418433,-186.96981068765558,-342.8200569454278,0.0,0.5825457958711563,0.1,0.029156208038330078,0.3341195583343506,0.04980497,0.17983672,-223.9103068234967,-0.11048679535303879,-2.9436049958321227,0.0,1923,0.18714070320129395,0.050455296540629496,0.03434276756413432,-263.1933256096368,0.0
8,1.325631856918335,-222.71524161731824,15.424762068250425,-195.09496768280226,-294.81512049915966,0.0,0.5584517573161837,0.1,0.04177427291870117,0.2657012939453125,0.0529495,0.20820923,-223.79080030287886,-0.11160747779650944,-2.925240856589238,0.0,1892,0.19048380851745605,0.031010929723996328,0.02102228950656405,-274.3963029313782,0.0
9,1.5569779872894287,-221.85249832125646,19.439248678247615,-174.1338202940912,-325.1160333556998,0.0,0.5492985760672221,0.1,0.022481441497802734,0.22356414794921875,0.050459933,0.19057156,-223.5969701047166,-0.11006915655491085,-2.9125127470958723,0.0,1915,0.1560807228088379,0.023909474005850924,0.021540235965079462,-288.8538691704226,0.0
10,1.4992787837982178,-221.86217030032336,13.732137108659073,-191.92639345163164,-262.71871878124654,0.0,0.5288977114538451,0.1,0.04097151756286621,0.3548085689544678,0.05067295,0.2035207,-223.4234901242773,-0.10990760219256841,-2.9134882072599173,0.0,1922,0.22248339653015137,0.019467171044377906,0.018505563522488014,-255.19291806494965,0.0
11,1.3296787738800049,-218.66113015992565,14.881786987341615,-185.9127317555134,-266.85971378383863,0.0,0.5652621661617833,0.1,0.023428678512573242,0.3292067050933838,0.052081466,0.19170444,-222.94725412784214,-0.1087077045794153,-2.8703927121399655,0.0,1909,0.19837236404418945,0.018884705605703406,0.017799849402848587,-216.71457011112705,0.0
12,1.2432246208190918,-216.64348101721438,14.464985323043562,-176.43262214922936,-251.71964981211943,0.0,0.553543460863103,0.1,0.023948192596435547,0.22305917739868164,0.04975161,0.18897288,-222.31687681677937,-0.10755071196708182,-2.8436758915184495,0.0,1927,0.21416807174682617,0.01980104835736003,0.01820988190454715,-258.1742085884749,0.0
13,1.3261699676513672,-215.24974806010337,16.00491386877993,-185.04354149945254,-271.96924205147764,0.0,0.5402368803986989,0.1,0.016317367553710938,0.23998117446899414,0.049583882,0.20093067,-221.61016394111178,-0.10730527188246315,-2.826187448586206,0.0,1909,0.21476268768310547,0.019500515935023752,0.01862334145541101,-228.88817168004428,0.0
14,1.3920388221740723,-219.57448441130532,22.41735680037197,-180.70892281740353,-377.31525486316593,0.0,0.5637394669923911,0.1,0.04335951805114746,0.2849564552307129,0.04940961,0.1593741,-221.40659598813113,-0.10777554861690657,-2.8830676132440636,0.0,1942,0.17586398124694824,0.030078573418908967,0.02744757140112078,-257.2832140161308,0.0
15,1.4949512481689453,-214.80058153824572,17.581941032062655,-169.15916359437819,-275.4035273825108,0.0,0.557918500080154,0.1,0.021817922592163086,0.29569411277770996,0.049959615,0.19516018,-220.74599454314261,-0.1047342745912103,-2.819005483619332,0.0,1953,0.14666104316711426,0.020258587072920796,0.019478272993028074,-232.39028796340176,0.0
16,1.3880794048309326,-217.1566298305056,14.496912375725257,-179.40745041782537,-255.2868289264993,0.0,0.5594182093843998,0.1,0.045290470123291016,0.28711771965026855,0.050370045,0.18695407,-220.38705807187893,-0.10473237177205082,-2.850112961908771,0.0,1984,0.25311732292175293,0.017764162423232744,0.016548053482791755,-271.2036651415283,0.0
17,1.7137713432312012,-212.04953850363222,18.04428126734887,-178.01969805710758,-267.4420960778755,0.0,0.5865817171534572,0.1,0.021781206130981445,0.3049449920654297,0.050214306,0.18107654,-219.55330611505428,-0.10263524766699234,-2.7827007733813587,0.0,1978,0.2238314151763916,0.021102209345934746,0.01981959765702045,-278.8333816879572,0.0
18,1.7465181350708008,-216.88315266892414,17.840938313454917,-180.89890326517133,-280.5155199700222,0.0,0.5856081523046517,0.1,0.03028106689453125,0.34371113777160645,0.050671693,0.17454234,-219.28629077044127,-0.10271527682529698,-2.8480609113693247,0.0,2016,0.22795629501342773,0.022109534707006176,0.02094914601109061,-250.2081153935183,0.0
19,1.5151376724243164,-214.4050246854533,18.875143870134842,-176.016397056958,-295.6741653207967,0.0,0.5476008744417838,0.1,0.02817821502685547,0.2528352737426758,0.050007425,0.19657621,-218.79816416194248,-0.10216345138656352,-2.813717683429863,0.0,2013,0.24264216423034668,0.020320949290887947,0.01868763958485727,-228.33914066694197,0.0
20,1.8195126056671143,-211.73137519703218,16.998426431709095,-180.33695828730276,-285.8187840922517,0.0,0.5888573131546148,0.1,0.008104085922241211,0.24781274795532227,0.05071317,0.1728169,-218.09148526545147,-0.10171869760217889,-2.7787778470285254,0.0,1988,0.2874751091003418,0.019822352842071296,0.018785849468399778,-243.54346539872384,0.0
21,1.8356671333312988,-209.07777145624618,16.315526216431728,-179.11723322572408,-247.4268266258347,0.0,0.5842930009662737,0.1,0.01801466941833496,0.26033544540405273,0.050212942,0.18439798,-217.19011388453094,-0.10161430895451828,-2.7438526835267374,0.0,1978,0.2882089614868164,0.017985292357200207,0.016691552466618333,-251.78486139778101,0.0
22,1.6675574779510498,-209.26300090470446,17.439882545560284,-166.057054847985,-265.86432634440087,0.0,0.5839963997407055,0.1,0.027380943298339844,0.23078298568725586,0.050600305,0.19119528,-216.3974025865483,-0.10022460526697145,-2.745965724996266,0.0,2006,0.18190383911132812,0.017277424564986894,0.016630054558633593,-223.06717094629073,0.0
23,1.9073362350463867,-206.17980516636771,18.835895879001395,-169.77637419412935,-278.93765137942717,0.0,0.5728436582155653,0.1,0.029929161071777344,0.25708651542663574,0.05076828,0.17964458,-215.37564284453026,-0.09991021019140663,-2.7057003967710567,0.0,2004,0.24866867065429688,0.019345941319624915,0.01862442962940774,-247.3318020297584,0.0
24,1.575225591659546,-206.75774690491474,15.971852644345024,-162.41236404521572,-253.8001476558444,0.0,0.6000176890566097,0.1,0.04630422592163086,0.19438838958740234,0.049633436,0.17798567,-214.5138532505687,-0.09960944019793244,-2.711797607701397,0.0,2009,0.3655369281768799,0.016352549542385037,0.015442769284683367,-236.40998928120314,0.0
25,1.7873096466064453,-204.194401590496,17.124340504536786,-159.94008006980619,-246.31509968767844,0.0,0.5814581200153643,0.1,0.021488666534423828,0.3456261157989502,0.05077279,0.189997,-213.48190808456144,-0.09749622143125947,-2.678799258811317,0.0,2024,0.27691197395324707,0.016688982728214535,0.01565236733829263,-245.5547977776526,0.0
26,2.099574327468872,-206.51075129007538,26.551948821855014,-169.43289153662488,-357.3880740587912,0.0,0.5874309209207933,0.1,0.04287290573120117,0.2935454845428467,0.05098699,0.16722383,-212.78479240511285,-0.09705766273802907,-2.7095641809715354,0.0,2057,0.23913908004760742,0.029875283486252138,0.027937088286573975,-238.0929394201045,0.0
27,1.593503475189209,-205.86781992489966,19.01834104344732,-166.54371728994312,-253.91879638846586,0.0,0.625188845433112,0.1,0.05045318603515625,0.2323136329650879,0.04956306,0.16752848,-212.09309515709154,-0.0986873599854506,-2.700128562661682,0.0,2019,0.3129904270172119,0.016842522169688484,0.015755593924445473,-239.44412161870886,0.0
28,1.8157458305358887,-201.60901718816467,17.82080057761582,-167.22558840194483,-272.475569886603,0.0,0.6285189225067647,0.1,0.02681136131286621,0.3138580322265625,0.05068318,0.15954949,-211.04468736019885,-0.09615560605683855,-2.6433301275884085,0.0,2046,0.4465503692626953,0.01714608472353098,0.01623569092286848,-233.31944473123295,0.0
29,1.831296682357788,-202.3582426004788,16.53625753309301,-159.61297818439692,-231.53612527087427,0.0,0.5764216379040795,0.1,0.023608922958374023,0.25460171699523926,0.05147971,0.18634774,-210.17604288422686,-0.09764124934521784,-2.6538023186850945,0.0,2008,0.34609007835388184,0.015303780616438514,0.014892019315512017,-206.9764731563226,0.0
30,1.733677864074707,-197.6804216041478,15.734331836800637,-164.74534442498623,-240.07781248290385,0.0,0.6168269692749911,0.1,0.04998612403869629,0.25849246978759766,0.0500458,0.17283043,-208.92648075621895,-0.09497968309146831,-2.592024130288871,0.0,2047,0.3293619155883789,0.014185621725843525,0.013409207820998376,-220.41334177312632,0.0
31,1.4364781379699707,-200.76823535934201,20.317731835689614,-154.30142821415964,-300.38982279961095,0.0,0.6288763293115319,0.1,0.021576881408691406,0.31901121139526367,0.049741235,0.16423413,-208.11065621653128,-0.09656578524479098,-2.631784114800903,0.0,2027,0.37236595153808594,0.01688146861650592,0.016216542519208878,-212.37003155467784,0.0
32,1.562462329864502,-200.66587970051546,15.896066379875496,-159.63854583662217,-269.3233757904319,0.0,0.6436312585643815,0.1,0.022848844528198242,0.28101325035095215,0.049971394,0.16312043,-207.36617856492973,-0.0957035329098469,-2.6309928049946216,0.0,2054,0.36185193061828613,0.012938475504303874,0.012401314889454718,-211.38738086159188,0.0
33,1.6242671012878418,-198.8756104213936,18.875053962210707,-166.8838993647958,-274.619951538956,0.0,0.6195889687716116,0.1,0.018599271774291992,0.27995920181274414,0.048740216,0.15997949,-206.51712175057614,-0.0953146835168302,-2.6073277650896713,0.0,2050,0.3906533718109131,0.017007968911683987,0.016388916632923918,-212.13933071080842,0.0
34,1.6477851867675781,-197.1437325855055,16.6858438923092,-165.76125623280817,-242.05133386142015,0.0,0.6316363057814774,0.1,0.024076461791992188,0.27193331718444824,0.049611297,0.16554987,-205.57978283406908,-0.09548292910950923,-2.583932636803628,0.0,2034,0.49302053451538086,0.0158065737428309,0.015082107881712353,-204.2086505504176,0.0
35,2.0305838584899902,-198.55573702094424,16.368216104300064,-168.0805334967198,-247.06233399612705,0.0,0.6346206602435223,0.1,0.02715134620666504,0.3062112331390381,0.05137269,0.17133561,-204.8773782527566,-0.09417898640188165,-2.603273979710711,0.0,2077,0.3929746150970459,0.013578511863863819,0.01301540263196176,-202.3419522801183,0.0
36,1.6966018676757812,-193.57032089962118,17.44403683967532,-163.6294431920084,-250.88032141503052,0.0,0.5827466592499148,0.1,0.026059389114379883,0.24966120719909668,0.05016256,0.18408082,-203.74667251744307,-0.09442364750804731,-2.537327871862258,0.0,2027,0.4368569850921631,0.01353974921976497,0.01285803494463257,-199.07251717968842,0.0
37,1.6854248046875,-194.35652515718576,15.540404713407183,-164.92064576149005,-242.68793101133576,0.0,0.6025503269820722,0.1,0.043374061584472656,0.1969590187072754,0.050047964,0.17429501,-202.80765778141733,-0.09420514048364857,-2.546878880650142,0.0,2053,0.46468162536621094,0.01266747388953226,0.01240576236087796,-201.57357245327685,0.0
38,1.673969030380249,-194.56299194113922,17.01878607417257,-154.7827357034171,-258.7331687138545,0.0,0.6446253465383657,0.1,0.03724813461303711,0.24831771850585938,0.051594567,0.16415946,-201.98319119738954,-0.09427096796155303,-2.5499401875855576,0.0,2036,0.38657546043395996,0.01389780423871166,0.012920440982993235,-209.25939607109711,0.0
39,1.4816203117370605,-196.61832444474484,17.63767965530325,-147.0959116220646,-236.67247981830172,0.0,0.6386372167151388,0.1,0.024672985076904297,0.32062435150146484,0.05087101,0.16907595,-201.44670452212506,-0.09396599264948328,-2.5771501347095995,0.0,2069,0.3978111743927002,0.012871082576640717,0.012310307328877603,-176.8105037798823,0.0
40,1.7204725742340088,-191.9764210329366,13.888028608096848,-159.767893440477,-229.37769039990138,0.0,0.6254650371794784,0.1,0.030508995056152344,0.22163629531860352,0.05001139,0.17419893,-200.49967617320624,-0.09330613482844226,-2.514300464152948,0.0,2051,0.32912206649780273,0.010940830843619914,0.010056225176380353,-206.60960235447425,0.0
41,1.894568681716919,-194.27929947999283,16.946305814727257,-159.94016676241517,-266.97249956215444,0.0,0.6474580160703565,0.1,0.02377033233642578,0.24713540077209473,0.04898505,0.15676628,-199.8776385038849,-0.09401245450787203,-2.5462254046833475,0.0,2054,0.424746036529541,0.012391848840796344,0.011894961279985084,-197.2635355466513,0.0
42,1.7609636783599854,-191.33642477376193,14.228176108145114,-156.76654546715974,-230.6270976707855,0.0,0.6657205160737495,0.1,0.03210020065307617,0.13132858276367188,0.050258797,0.15339904,-199.0235171308726,-0.09348000785361932,-2.5069303445636133,0.0,2039,0.3876497745513916,0.010828044272318822,0.010121626298159783,-226.61848731822397,0.0
43,1.5847182273864746,-192.58117489108835,14.035458112636091,-156.7802586356563,-226.3538800662772,0.0,0.6342381681661531,0.1,0.034091949462890625,0.22194647789001465,0.05113783,0.16831613,-198.37928290689416,-0.09280558503069941,-2.5236938194668816,0.0,2083,0.41596531867980957,0.010296867229213297,0.009566917132275653,-213.30287322805952,0.0
44,1.4947421550750732,-190.74932025507601,14.359527182604534,-155.00120135553325,-237.97727229089188,0.0,0.655896942873152,0.1,0.03261995315551758,0.32836222648620605,0.04965856,0.15900984,-197.61628664171235,-0.09340651383090957,-2.4992317935129686,0.0,2051,0.4041109085083008,0.010585711410966559,0.01018443377402211,-222.45346366303264,0.0
45,1.51741361618042,-191.46980207691317,15.12744774272598,-159.85949356056375,-225.84919265134428,0.0,0.634381046101013,0.1,0.01902031898498535,0.24637651443481445,0.050489124,0.15933356,-197.00163818523242,-0.09377575916200769,-2.508208182602281,0.0,2049,0.5234143733978271,0.010408722325864608,0.009996728921188565,-226.1631716259601,0.0
46,1.976691722869873,-190.3477884828669,15.325058932553452,-148.0191574219583,-239.57730662640904,0.0,0.638733651282018,0.1,0.009226799011230469,0.3105497360229492,0.04954204,0.16180433,-196.33625321499588,-0.09287958129191869,-2.492891134722609,0.0,2068,0.41610217094421387,0.010116537596458221,0.009932612270154665,-221.32714523940768,0.0
47,2.005204439163208,-189.48109758639544,15.670228619603275,-153.6463346604041,-231.43160470125076,0.0,0.6695357828745184,0.1,0.058499813079833984,0.3241908550262451,0.050699502,0.15174246,-195.65073765213583,-0.09350324667791106,-2.4821202107675333,0.0,2041,0.3734889030456543,0.010032240615163654,0.009783166404960558,-190.482799329155,0.0
48,1.7705626487731934,-187.79720775109286,13.585191645346477,-153.5073213167792,-220.60158585082195,0.0,0.6806951747742914,0.1,0.0222475528717041,0.3079683780670166,0.048581462,0.14710715,-194.86538466203154,-0.09364979670281286,-2.4595878958220174,0.0,2019,0.41200947761535645,0.00964734562480698,0.009047637622995462,-219.29611930741893,0.0
49,2.16382098197937,-185.37899261547378,15.942547609715664,-142.14474188234567,-241.8653395484489,0.0,0.686542411242296,0.1,0.026967287063598633,0.26692867279052734,0.050971095,0.14670503,-193.91674545737578,-0.0916654557908279,-2.4275364841346136,0.0,2057,0.4970405101776123,0.011045249198997492,0.010536966106235491,-225.13453239477886,0.0
50,1.9787766933441162,-184.3591398445585,16.101402771484704,-150.52654956350685,-242.2410084824065,0.0,0.6798483990058672,0.1,0.0188901424407959,0.17046809196472168,0.050194472,0.15030973,-192.96098489609406,-0.0911065009309821,-2.4138497098137743,0.0,2064,0.4740941524505615,0.009362910375781118,0.008930774980193672,-205.62370049022496,0.0
51,1.9292457103729248,-183.99512166513887,14.302308824867737,-157.7475448986025,-214.6429251680383,0.0,0.6572985132731954,0.1,0.02278923988342285,0.24414420127868652,0.05027488,0.15695058,-192.06439857299856,-0.09053377033268513,-2.408324422594674,0.0,2071,0.41542482376098633,0.008366052311677195,0.00804575198197278,-183.7977857486352,0.0
52,1.6000432968139648,-183.18262161054335,15.984763675825993,-154.27924764319243,-224.54724694495195,0.0,0.6554670648688306,0.1,0.02456498146057129,0.25731921195983887,0.051159915,0.15585135,-191.17622087675306,-0.09095785293202722,-2.397971826129778,0.0,2053,0.39227747917175293,0.009618547907825858,0.0092905063616101,-184.72192810153308,0.0
53,1.8715155124664307,-184.24216147704092,14.699914866310678,-150.85421876150866,-224.96397980953822,0.0,0.6992406174065386,0.1,0.028807640075683594,0.33114099502563477,0.05102178,0.14627264,-190.48281493678186,-0.09121083069115339,-2.4125964839601792,0.0,2074,0.4028604030609131,0.009821720914353052,0.008520950900104995,-164.34822475227918,0.0
54,1.383019208908081,-182.49834334695652,15.385531365180087,-147.76429475645202,-219.9784823339125,0.0,0.7012011395185292,0.1,0.03435873985290527,0.26605701446533203,0.05000562,0.14376079,-189.68436777779934,-0.09021360210943907,-2.388679246364475,0.0,2070,0.400604248046875,0.00963838376722647,0.008730918140150439,-187.6255457644823,0.0
55,1.8299541473388672,-177.30771899852562,15.38042420520566,-135.56163973889224,-214.04577812780437,0.0,0.671798229486581,0.1,0.03609442710876465,0.2755768299102783,0.049156394,0.15533182,-188.44670289987195,-0.08976719016267859,-2.319498088620881,0.0,2034,0.36963558197021484,0.009355187592404782,0.008923623231623629,-185.74571567511225,0.0
56,1.889110803604126,-184.89971395993007,14.75883276582091,-146.01043999851038,-216.78608946756805,0.0,0.6937912306887082,0.1,0.026264190673828125,0.2632436752319336,0.051289193,0.14357291,-188.09200400587775,-0.09183082311480568,-2.4202099783226285,0.0,2057,0.3964056968688965,0.008538194096292081,0.007266068294786332,-163.33273135303142,0.0
57,1.788255214691162,-177.2861269300948,14.307495216555074,-139.45443742316579,-210.04689918227612,0.0,0.7190957599444876,0.1,0.03025984764099121,0.2509760856628418,0.050693296,0.14601888,-187.01141629829948,-0.08953589102946717,-2.318682684565347,0.0,2072,0.43805360794067383,0.009716418205552678,0.007829331922673264,-175.28116098334232,0.0
58,1.755432367324829,-180.05806718573672,15.237870846060947,-144.96807412451955,-216.80606935629083,0.0,0.6671839387995222,0.1,0.024060964584350586,0.2894003391265869,0.05050935,0.15679447,-186.3160813870432,-0.08981011580340975,-2.3560358412605438,0.0,2080,0.38730525970458984,0.009402694470867414,0.008901027274453346,-182.6116587041375,0.0
59,2.1057748794555664,-181.32674890841963,14.108310949862492,-147.91740665198293,-213.788917359028,0.0,0.7147273843448254,0.1,0.051474809646606445,0.37441420555114746,0.050647844,0.14186026,-185.81714813918086,-0.0898939665066673,-2.3733288157020946,0.0,2089,0.4825778007507324,0.007738626293037378,0.007439691839000471,-165.0471868187506,0.0
60,1.8325283527374268,-177.46570752660304,13.03593586881722,-142.80013263206288,-206.7345209900745,0.0,0.7310076522517025,0.1,0.02053093910217285,0.28858470916748047,0.049813118,0.14007984,-184.98200407792308,-0.08912324823610777,-2.3216734705528617,0.0,2081,0.45433902740478516,0.007560008279689736,0.006959792590108147,-183.2397152899929,0.0
61,1.6285109519958496,-176.05992661466425,14.425846506360424,-145.08463691845708,-208.53422692768584,0.0,0.6856219001866438,0.1,0.03119635581970215,0.258556604385376,0.05074125,0.13947836,-184.0897963315972,-0.08889347120834597,-2.3021666414964552,0.0,2073,0.4429607391357422,0.008313471371086827,0.008244978005280878,-167.68605607264982,0.0
62,1.9507734775543213,-177.57164344268253,14.214299025637628,-142.67169212809353,-208.39766557037083,0.0,0.6442018211130495,0.1,0.035776376724243164,0.31082653999328613,0.05104831,0.1594028,-183.43798104270576,-0.08873801317452878,-2.3224867922057655,0.0,2098,0.4228494167327881,0.00844034646771251,0.007971925545143017,-194.48757698120627,0.0
63,1.5572218894958496,-177.525571161352,13.8468614231327,-139.40643952062797,-211.3948555419318,0.0,0.6773430681255793,0.1,0.014968633651733398,0.33048391342163086,0.04994991,0.14691246,-182.84674005457038,-0.0880176916874925,-2.322404234344764,0.0,2103,0.4364645481109619,0.0071193152818045235,0.006767429962531226,-179.38017659657424,0.0
64,1.8513774871826172,-177.64948840478647,14.785618318593993,-147.5208029625341,-231.46742896324437,0.0,0.7216371493261253,0.1,0.033123016357421875,0.30178332328796387,0.050082203,0.1372125,-182.327014889592,-0.08782197742902338,-2.3245025563617285,0.0,2116,0.4479045867919922,0.007977170464832564,0.007744142774766982,-161.34578784305623,0.0
65,1.8855490684509277,-175.07351308257944,14.443695112780308,-138.77844132987616,-223.53838399968598,0.0,0.686684702835494,0.1,0.02873396873474121,0.25916123390197754,0.04988916,0.15003967,-181.60166470889072,-0.08767999547672384,-2.289444572863498,0.0,2109,0.40783238410949707,0.008191199358279883,0.00814377330449907,-174.93763575148455,0.0
66,2.075634479522705,-173.472992920314,13.803407948939967,-147.15519165588404,-209.98671860792348,0.0,0.7013894002512947,0.1,0.02724170684814453,0.25627732276916504,0.050464094,0.13851371,-180.78879753003307,-0.08681419559955728,-2.268087761358107,0.0,2119,0.4712104797363281,0.006613187029515024,0.006182833106061667,-174.0825858314597,0.0
67,1.734442949295044,-175.07959798344856,14.246087253094341,-142.4224443161041,-209.98680593396466,0.0,0.675057608179358,0.1,0.00893259048461914,0.22432756423950195,0.05009241,0.15069896,-180.21787757537464,-0.08693732028541963,-2.289478107296262,0.0,2130,0.4860997200012207,0.00777420786031213,0.007130635527644565,-162.5154669698705,0.0
68,1.6272964477539062,-174.6877351877345,14.428526821295906,-137.85064758285597,-209.91258205665545,0.0,0.6937681418105509,0.1,0.043203115463256836,0.2721366882324219,0.049543947,0.14921367,-179.66486333661064,-0.08703081112957779,-2.2842782781570232,0.0,2134,0.575082540512085,0.007108103609012337,0.006806543487807215,-195.0323146761843,0.0
69,2.0248348712921143,-173.07533573502178,11.387442461596663,-150.47829760511996,-195.81341762967085,0.0,0.7268149261961355,0.1,0.022246599197387695,0.2300107479095459,0.05034947,0.14277104,-179.00591057645175,-0.08614181116213848,-2.2637381589428744,0.0,2157,0.3990628719329834,0.005838487084931233,0.005592351190780008,-202.7554404699596,0.0
70,1.568352222442627,-171.56596661399112,14.022453445331783,-144.45744637604514,-203.03026000111706,0.0,0.7116232002986322,0.1,0.026219606399536133,0.3164684772491455,0.05027718,0.14265266,-178.2619161802057,-0.08592052873363083,-2.2432188333553635,0.0,2142,0.39606332778930664,0.007353452885771536,0.006615432278260346,-167.99548337571713,0.0
71,1.8924195766448975,-171.0256585895337,13.034156753588698,-141.99446290010755,-213.53231601195216,0.0,0.7274717005069431,0.1,0.049834489822387695,0.3061044216156006,0.050003342,0.13958603,-177.5382904211385,-0.08511329736891067,-2.2365758536367264,0.0,2169,0.4289882183074951,0.006524236274221496,0.006058669402696433,-196.10524729347878,0.0
72,2.3144710063934326,-170.9664730876008,14.201941842681682,-142.28610587565032,-217.1395179391463,0.0,0.7270907333784639,0.1,0.03064727783203125,0.2755911350250244,0.050132226,0.13764443,-176.88110868778475,-0.08563125310308778,-2.2345340620860554,0.0,2145,0.5002002716064453,0.006656883926694243,0.0063015711570329576,-170.06927958959483,0.0
73,1.9741806983947754,-173.68626637079174,16.751808070841992,-129.60034733018037,-235.28408289294907,0.0,0.712214496933961,0.1,0.020527124404907227,0.26706576347351074,0.050810672,0.13835697,-176.56162445608544,-0.08501410383561413,-2.270465850738501,0.0,2195,0.4957118034362793,0.008256496073970481,0.007298783078230828,-165.00266210113762,0.0
74,2.0408313274383545,-170.32071800459062,14.027133764360238,-136.0071654058154,-193.1799345750731,1.0416666666666667,0.72260894766497,0.1,0.06234145164489746,0.25272178649902344,0.05046922,0.13867906,-175.93753381093595,-0.08491165204142594,-2.226546704575318,1.0416666666666667,2177,0.50246262550354,0.006624443359042328,0.0066812390312002805,-191.62286959691676,0.0
75,1.759516954421997,-170.68145966363954,13.12499382554082,-144.46521398377544,-210.57845749032384,0.0,0.7420910007143647,0.1,0.03943800926208496,0.2839384078979492,0.0511766,0.1342966,-175.4119263962063,-0.08386868098857074,-2.2307481920492855,0.0,2215,0.4780561923980713,0.0060104512731341524,0.0055199348846627005,-166.56835288763293,0.0
76,2.088804244995117,-171.77190289186777,13.195150866885898,-139.6227882178178,-202.59017047678384,0.0,0.7099792384918774,0.1,0.04828333854675293,0.308704137802124,0.050181057,0.14219439,-175.04792404577245,-0.08464992986949409,-2.2455210605863267,0.0,2207,0.47350192070007324,0.005726835983083285,0.005511130932323106,-202.3734092638259,0.0
77,1.7183597087860107,-167.30336020886793,14.834657476242219,-124.36637158923772,-198.8760905612089,0.0,0.7472257013501603,0.1,0.008999109268188477,0.2524876594543457,0.050663173,0.13019879,-174.273467662082,-0.08278615740565116,-2.186874959384721,0.0,2233,0.4399547576904297,0.00808411686040789,0.007504611465289981,-199.6110011729396,0.0
78,1.938652753829956,-167.66758917400767,12.903847602041187,-140.0651604742583,-200.9472277842846,0.0,0.7265039466074524,0.1,0.022548913955688477,0.2928173542022705,0.05068741,0.13594598,-173.6128798132746,-0.08277268444062057,-2.1905611424391958,0.0,2248,0.4689791202545166,0.005670871349854882,0.005313222745238318,-223.10897610826436,0.0
79,1.7010023593902588,-163.9360921102964,14.451332259065552,-124.60866297504506,-193.5923845532401,1.0416666666666667,0.7196309428252295,0.1,0.02676868438720703,0.3024866580963135,0.050387222,0.13989083,-172.6452010429768,-0.08175667866143588,-2.1420495621650475,1.0416666666666667,2249,0.5014050006866455,0.007002564599005049,0.0064002629414027495,-227.08510375332202,0.0
80,2.088350772857666,-167.13825318362456,13.327696687179213,-126.93449581593343,-189.53205364017603,0.0,0.7212637330622769,0.1,0.024243831634521484,0.278592586517334,0.04959343,0.14772022,-172.0945062570416,-0.0824521658569415,-2.1836615915267954,0.0,2254,0.46785688400268555,0.006631042845032317,0.006216464540302199,-246.9450101097674,0.0
81,1.616220474243164,-165.79707723604488,15.332998461233029,-139.67104524846957,-222.05189908390668,0.0,0.7163790159630401,0.1,0.038543701171875,0.2714223861694336,0.050364897,0.12917154,-171.4647633549419,-0.08107582118676847,-2.1663266427750067,0.0,2283,0.4772515296936035,0.00657613883884153,0.006149520871506849,-207.10356753988242,0.0
82,1.6635363101959229,-161.97179267333226,14.127951775834163,-130.4759876521253,-203.1858843618601,1.0416666666666667,0.6998809298021235,0.1,0.03470468521118164,0.30168819427490234,0.05059553,0.14622615,-170.51546628678096,-0.08093866026916914,-2.1151060303522744,1.0416666666666667,2262,0.5242738723754883,0.006726998221445117,0.006673611416143427,-221.7251050206799,0.0
83,2.3025126457214355,-165.23389189813466,14.08247713772763,-139.99121040090304,-195.2575107141828,0.0,0.7236413118074267,0.1,0.01965785026550293,0.3259735107421875,0.05098213,0.13724929,-169.98730884791632,-0.0817185549203226,-2.1587837100862846,0.0,2267,0.5171613693237305,0.006912501883087967,0.005664700068394671,-205.03704098907332,0.0
84,1.9901938438415527,-164.03961914811717,12.374441581181127,-136.8532886668409,-187.53807759536093,0.0,0.7468037434316072,0.1,0.02563619613647461,0.31348419189453125,0.04969861,0.1326371,-169.39253987793643,-0.08168441868605482,-2.1422558910374616,0.0,2263,0.493941068649292,0.006639933728637679,0.006432350576540369,-182.70840722792406,0.0
85,1.942168951034546,-163.04165585844623,12.656361090499646,-128.42887592021413,-196.26975460196488,0.0,0.787136065403762,0.1,0.024687767028808594,0.30187296867370605,0.050437696,0.12756583,-168.7574514759874,-0.08044739261106142,-2.129167913828926,0.0,2289,0.5461974143981934,0.006272436738612538,0.005822552339766272,-199.39315532241955,0.0
86,2.2462353706359863,-161.95423460240798,13.079528530961435,-129.8547504315036,-192.17957043569498,0.0,0.7065794244941875,0.1,0.020891189575195312,0.28296804428100586,0.050201233,0.14394373,-168.07712978862946,-0.08072726377291846,-2.114824510487178,0.0,2247,0.6258382797241211,0.00628058722662939,0.005980942240358828,-202.87924401674732,0.0
87,1.7112021446228027,-165.8727465319848,15.713249607567672,-136.38424653361534,-227.4471019713941,0.0,0.7047569219936225,0.1,0.05099940299987793,0.20507168769836426,0.050222557,0.1402958,-167.856691462965,-0.08085931723831767,-2.166878345626935,0.0,2312,0.5090336799621582,0.008158560338333603,0.006446411044178874,-207.59345508839883,0.0
88,1.8887197971343994,-161.71142706748995,14.154337155616965,-130.37147394207008,-193.4502618479082,1.0416666666666667,0.7233918029172531,0.1,0.019646406173706055,0.3224031925201416,0.049348693,0.1450437,-167.2421650234175,-0.08077803959875415,-2.110435089324429,1.0416666666666667,2286,0.4733712673187256,0.0067663580655945715,0.006447735140302529,-184.06762409853937,0.0
89,2.179600954055786,-162.8504902036957,13.24972865594214,-127.00124743754552,-194.24276255826473,0.0,0.7352078072432766,0.1,0.0178372859954834,0.29142045974731445,0.050240587,0.13605502,-166.80299754144534,-0.08135045881872272,-2.126276685687829,0.0,2267,0.4969136714935303,0.006497233892533434,0.00593253788534657,-189.58587715955187,0.0
90,1.952101230621338,-161.63680176069207,12.774703020248454,-116.69377868609348,-196.78269818729365,0.0,0.8006664966569597,0.1,0.03763723373413086,0.2522268295288086,0.04930828,0.13539085,-166.28637796337,-0.08029399097187316,-2.1104435037449023,0.0,2314,0.5368549823760986,0.005898796884292351,0.005626697266402893,-190.5735645416171,0.0
91,1.8722288608551025,-161.05986154649722,15.124153025846654,-127.18701942196519,-212.52486082597807,1.0416666666666667,0.7710252366887528,0.1,0.03347611427307129,0.23853468894958496,0.050061658,0.1296081,-165.76372632168273,-0.07930742447466065,-2.1028284709155995,1.0416666666666667,2326,0.613375186920166,0.006492173886314798,0.006240796845593302,-187.12174803111697,0.0
92,1.6637003421783447,-161.3345772379171,13.519830543899623,-133.30600371577964,-193.67971408398793,0.0,0.7211428544884791,0.1,0.024773359298706055,0.2586631774902344,0.05003257,0.14028023,-165.32081141330616,-0.08044232607601388,-2.1065670835092734,0.0,2296,0.5566878318786621,0.00590138591244762,0.00566740052302377,-172.9660797531885,0.0
93,1.9863147735595703,-160.8500393991507,14.448686912206563,-129.92493390024356,-191.03514341686198,1.0416666666666667,0.7888092533673563,0.1,0.024198293685913086,0.30478930473327637,0.050335478,0.12689726,-164.87373421189062,-0.08064830018617347,-2.1007031036707122,1.0416666666666667,2281,0.4962327480316162,0.00625821998736585,0.0061181571633289675,-190.3985760613517,0.0
94,2.1302714347839355,-160.75435372053863,14.076927029837327,-127.7579459684903,-191.20315888554532,1.0416666666666667,0.7694624969520505,0.1,0.008842706680297852,0.3328723907470703,0.04996117,0.13257736,-164.46179616275543,-0.07908150357112609,-2.098297734023282,1.0416666666666667,2350,0.5880036354064941,0.006238681030912544,0.005959949508237497,-192.35733319823117,0.0
95,1.9919850826263428,-157.65932400771828,13.594049336045067,-121.32959816510584,-196.90644648500282,0.0,0.7512113277453724,0.1,0.023308992385864258,0.19910168647766113,0.050194442,0.13786882,-163.7815489472517,-0.07861068248052398,-2.0576982627275306,0.0,2339,0.5072691440582275,0.006020473593250361,0.005710185044807071,-161.63278935584756,0.0
96,1.8361105918884277,-155.84662286177374,14.255870806760065,-125.25936452693176,-211.61731136065572,1.0416666666666667,0.7107375523632269,0.1,0.01956939697265625,0.19870615005493164,0.050727203,0.13566646,-162.98805633870393,-0.07791795696722138,-2.034368904393362,1.0416666666666667,2362,0.5377883911132812,0.006486857836620466,0.006266950205054826,-188.0655008861958,0.0
97,2.1846868991851807,-156.166322617658,16.341613803892038,-118.41870491539183,-200.95182874310956,0.0,0.7755866385894616,0.1,0.017169713973999023,0.3339064121246338,0.050382547,0.1331207,-162.30588296659934,-0.07735527798358803,-2.0377539422462103,0.0,2386,0.5236861705780029,0.008028408706299124,0.007666880906409842,-185.48418072209452,0.0
98,1.5024914741516113,-155.06949056499954,13.793769965986893,-124.03823471459496,-192.6024824063004,1.0416666666666667,0.7798952683113225,0.1,0.048253536224365234,0.2777416706085205,0.050586205,0.13202731,-161.58224372643937,-0.07778198062080165,-2.023509118369699,1.0416666666666667,2358,0.5137772560119629,0.00609755463235536,0.006243169141114149,-161.1929369855963,0.0
99,1.7854747772216797,-156.56085035369793,16.089251798719065,-116.56085723471976,-194.84682555976832,1.0416666666666667,0.7323106309063164,0.1,0.02950000762939453,0.282240629196167,0.04959544,0.14454246,-161.08010438916523,-0.07736205824436117,-2.04294254961206,1.0416666666666667,2408,0.5849957466125488,0.007274728893690083,0.007055134030837223,-144.83225732136862,0.0
100,2.0206363201141357,-157.1795965977643,14.218104025618485,-126.8318506620573,-197.2344473472458,0.0,0.713606691864083,0.1,0.019952058792114258,0.22688865661621094,0.049674608,0.13991491,-160.69005361002513,-0.07733804684871877,-2.0518991945258533,0.0,2402,0.5597403049468994,0.006547435475210063,0.006336437997025317,-165.08899474316468,0.0
101,2.1048901081085205,-153.86613057596233,15.477936876912272,-121.62125108354533,-201.66791287240892,2.0833333333333335,0.7570003289997207,0.1,0.01886582374572754,0.3925333023071289,0.05065707,0.13259576,-160.00766130661887,-0.07637999998811178,-2.00809872974161,2.0833333333333335,2415,0.550055980682373,0.008152146062223668,0.007711458784356492,-148.20104018525058,0.0
102,1.8580420017242432,-154.58327984799664,16.026748280241524,-112.15046427753099,-185.9168742000794,2.0833333333333335,0.7466684186982963,0.1,0.019816875457763672,0.2631032466888428,0.05038329,0.13774131,-159.46522316075666,-0.07665600720160083,-2.016600819369401,2.0833333333333335,2416,0.6215195655822754,0.007464506854170197,0.007248286545981918,-152.46123725690273,0.0
103,1.8051083087921143,-151.60509231420897,16.62040961523318,-109.4314509098582,-192.4930097853469,4.166666666666667,0.7420088042351263,0.1,0.027325868606567383,0.2615010738372803,0.050754033,0.13516364,-158.6792100761019,-0.07605588787055162,-1.9774657094390118,4.166666666666667,2409,0.5696287155151367,0.008574784606849776,0.00900419948179533,-161.18853083735206,0.0
104,1.7605183124542236,-152.77182571295555,15.973863287974208,-115.64266843959378,-209.45841686333455,2.0833333333333335,0.7565063735970855,0.1,0.01893138885498047,0.3024024963378906,0.050505448,0.13564798,-158.08847163978726,-0.07587707432034183,-1.993470744810059,2.0833333333333335,2444,0.6011874675750732,0.008097691705604334,0.007384940468701748,-160.95262003340596,0.0
105,1.7378058433532715,-154.73802377223376,15.49051417152965,-119.880745632376,-205.71293071321637,1.0416666666666667,0.760642006956084,0.1,0.020029544830322266,0.28525447845458984,0.05097323,0.12946534,-157.7534268530319,-0.0764040872115539,-2.0188936176390686,1.0416666666666667,2441,0.558086633682251,0.00735632284173822,0.006985120533761269,-151.98622269983747,0.0
106,1.9651951789855957,-153.47504344188624,16.048102050838754,-118.588702258372,-207.32760805379496,3.125,0.7159035045873494,0.1,0.023802518844604492,0.26881933212280273,0.050444752,0.13655192,-157.32558851191735,-0.07576595498232248,-2.0021273321406357,3.125,2448,0.5252480506896973,0.007739533318970107,0.007408863897401431,-137.91067704717588,0.0
107,1.8584187030792236,-148.35096194121363,13.724461744001307,-122.67776473283054,-182.0689346701581,5.208333333333333,0.7402816783181784,0.1,0.027942657470703125,0.26380467414855957,0.050569326,0.13341741,-156.428125854847,-0.07487103922229958,-1.9337541187578104,5.208333333333333,2471,0.5747230052947998,0.006714017486553435,0.006206096684057298,-147.4511297011155,0.0
108,1.6462347507476807,-148.87681456707426,16.239783003022524,-115.8587054115992,-186.7663307615977,8.333333333333334,0.7936495737997019,0.1,0.015552282333374023,0.28684258460998535,0.04998019,0.12994452,-155.6729947260697,-0.07487044587522272,-1.9394864858960486,8.333333333333334,2478,0.5414931774139404,0.007976993571010494,0.007524265761853092,-146.39975875037476,0.0
109,1.7560973167419434,-148.1590979819363,14.370613087165383,-118.29431420809223,-181.3831767320719,10.416666666666666,0.7581977953615342,0.1,0.041059255599975586,0.2169806957244873,0.04997811,0.13355117,-154.92160505165634,-0.07410979754518086,-1.9309312392074245,10.416666666666666,2490,0.5010755062103271,0.006721463310128668,0.006492434612866959,-140.29678185220666,0.0
110,2.40360164642334,-147.80069417287532,17.15921619240958,-116.01190045554436,-191.78286032200583,9.375,0.7385504385908349,0.1,0.009578466415405273,0.3263814449310303,0.05084984,0.12977412,-154.20951396377825,-0.0734541846388231,-1.9263228741714498,9.375,2535,0.569368839263916,0.008419150623188605,0.00818787945475257,-130.2860690466435,0.0
111,1.7156105041503906,-150.64763958716637,16.541822078392812,-105.33336508069007,-186.1837465663851,7.291666666666667,0.7850213123483472,0.1,0.023231029510498047,0.30250072479248047,0.0509247,0.12443195,-153.85332652611706,-0.07458873158040787,-1.9643521736840401,7.291666666666667,2511,0.5645434856414795,0.008084575826634235,0.00790769136995803,-140.5868834768074,0.0
112,2.519976854324341,-146.3628529548345,15.3908131295674,-97.48246369396594,-189.6408210531648,13.541666666666666,0.7737526169668566,0.1,0.03212237358093262,0.2828977108001709,0.05066091,0.13031279,-153.1042791689888,-0.0735569443758889,-1.907195193299257,13.541666666666666,2540,0.5348291397094727,0.007240683920064108,0.006614890839633383,-130.61365603877667,0.0
113,1.9342398643493652,-147.07339732730244,17.070248325990363,-113.56153095545065,-189.6621163773264,14.583333333333334,0.7705734826299688,0.1,0.03528785705566406,0.25824785232543945,0.050543323,0.12520584,-152.50119098482017,-0.0734779362591372,-1.9155678505381655,14.583333333333334,2549,0.5903420448303223,0.008039571093697498,0.0078055912594898235,-107.6449143455867,0.0
114,2.0992178916931152,-145.23443759154742,17.514231594012195,-106.7095803741746,-194.24998433683328,16.666666666666668,0.7718503696508898,0.1,0.022470474243164062,0.31365180015563965,0.05094222,0.1357113,-151.7745156454929,-0.07308864003123454,-1.8917538183899152,16.666666666666668,2559,0.6216607093811035,0.009530482132786752,0.009736463486676603,-137.98479573938724,0.0
115,2.307596206665039,-145.4877558793237,16.68509982798963,-108.48646444320552,-180.55752909614597,15.625,0.758803969415995,0.1,0.03785514831542969,0.301347017288208,0.049985383,0.13205338,-151.145839668876,-0.07280221527622499,-1.894983527722969,15.625,2597,0.5458087921142578,0.009130264995999305,0.00841425391330901,-158.31568523674926,0.0
116,2.437436819076538,-145.73656746727377,16.87546689194471,-98.05407991527889,-191.43206662897154,15.625,0.813347267096558,0.1,0.026993751525878906,0.2807791233062744,0.049884714,0.1265117,-150.60491244871577,-0.072375429176534,-1.8990754408263146,15.625,2607,0.5529398918151855,0.00802636609772206,0.007713264444495053,-115.64207340925878,100.0
117,1.8958499431610107,-141.49064661214527,16.968330752370317,-98.97435306814657,-188.73448357312304,21.875,0.7908604868577446,0.1,0.02165842056274414,0.2832479476928711,0.04989469,0.13012855,-149.69348586505873,-0.07051745810788622,-1.8420361880374647,21.875,2668,0.5430924892425537,0.00867744960084904,0.008431296047480191,-97.19799205090274,100.0
118,1.9801111221313477,-139.99225707307744,19.654557422859863,-95.46335773344178,-192.68052851752134,26.041666666666668,0.7769572041162801,0.1,0.02487015724182129,0.3156917095184326,0.05020999,0.13048258,-148.7233629858606,-0.07101376385562928,-1.8226977249666267,26.041666666666668,2605,0.562983512878418,0.010219473211774868,0.009845941465399669,-99.0168287915024,100.0
119,2.304372549057007,-142.17681894863983,18.544934583376374,-91.24373881552873,-205.29744267540272,27.083333333333332,0.770405608117289,0.1,0.019735097885131836,0.2780301570892334,0.05062872,0.12675272,-148.06870858213853,-0.07212242136346371,-1.8505239993356584,27.083333333333332,2603,0.5638465881347656,0.00993861035473202,0.009365292752807496,-94.91121292866661,100.0
120,2.3760063648223877,-137.27637613111315,16.95802822972402,-78.07294965664781,-178.78749327853146,28.125,0.7854234771036143,0.1,0.021523475646972656,0.2951350212097168,0.05032141,0.13018978,-146.989475337036,-0.07038367328011892,-1.7861549442486375,28.125,2656,0.5623743534088135,0.009949037313461957,0.00940141300366843,-78.84698110499878,100.0
121,2.0201985836029053,-135.39566687513474,17.544776241568496,-91.49889170876632,-189.28928109772352,39.583333333333336,0.7745954457510604,0.1,0.01826786994934082,0.31206822395324707,0.05067964,0.12395044,-145.83009449084588,-0.07013412749361067,-1.7601971012209843,39.583333333333336,2658,0.5385644435882568,0.01030101016816684,0.009756179691566863,-78.42382651273414,100.0
122,2.3838918209075928,-135.87339799561275,16.72471596042518,-99.20447643483676,-171.39229128150276,33.333333333333336,0.7919162655366311,0.1,0.022124528884887695,0.32410645484924316,0.05073491,0.12923406,-144.83442484132257,-0.06917953182709713,-1.7672850283191313,33.333333333333336,2718,0.6063892841339111,0.009389424618838505,0.008967434305591777,-93.62231284730684,100.0
123,1.9288439750671387,-133.07204044225887,18.479394993419863,-91.5519879337079,-192.5790999806154,45.833333333333336,0.7968163619693419,0.1,0.028987884521484375,0.3619675636291504,0.05046041,0.12040242,-143.65818640141623,-0.06867259130199087,-1.729613754664036,45.833333333333336,2740,0.5076847076416016,0.011532412317826665,0.010901106232486028,-88.79562737757426,100.0
124,2.2053709030151367,-132.32431299199104,21.02901979945715,-92.04481900651211,-193.18041574703176,43.75,0.820671058238957,0.1,0.025594234466552734,0.2571711540222168,0.049324322,0.12066416,-142.52479906047373,-0.06762445661732096,-1.7211603607340586,43.75,2797,0.5680418014526367,0.012536493681029517,0.012085915922975421,-95.83393324427814,100.0
125,1.9407312870025635,-132.78938101167554,18.625668908856444,-85.90551587879806,-179.46534088504697,44.791666666666664,0.8602517076127707,0.1,0.03970599174499512,0.27082395553588867,0.050777383,0.11597093,-141.5512572555939,-0.06728451170300942,-1.7265796506505193,44.791666666666664,2821,0.5389962196350098,0.010728345136392108,0.010459550759991372,-80.01759156284407,100.0
126,2.213172197341919,-124.99909252872267,17.602918961134723,-87.30374166607406,-174.44944489117327,63.541666666666664,0.8746559715098263,0.1,0.030658721923828125,0.32414937019348145,0.049840804,0.11518367,-139.89604078290677,-0.06629275101290127,-1.6221719730462674,63.541666666666664,2837,0.5569539070129395,0.011337153369841287,0.010022026309990805,-99.12527815883874,100.0
127,2.1594157218933105,-126.92867934129369,21.14258296327313,-83.08746113824489,-194.61246963074024,56.25,0.8187293249936051,0.1,0.025935888290405273,0.2681729793548584,0.049645882,0.11942039,-138.59930463874548,-0.06648486730784327,-1.6486786020074626,56.25,2842,0.5097284317016602,0.01309958812756813,0.012394636006225238,-90.53833959717863,100.0
128,2.123636484146118,-129.22706465471285,20.18111704437504,-81.23674745896923,-183.36365746479402,46.875,0.8555423444358365,0.1,0.020884037017822266,0.24498939514160156,0.050355304,0.116066374,-137.66208064034223,-0.06710400173062964,-1.6787683387911567,46.875,2806,0.5637023448944092,0.013215684782971457,0.012444703913522325,-108.68523454098207,0.0
129,2.4102258682250977,-126.18325662087723,19.37923321686359,-76.54223749809165,-194.094362999262,60.416666666666664,0.8569714682255256,0.1,0.009091615676879883,0.26508402824401855,0.049951553,0.117738225,-136.51419823839572,-0.06607980937840506,-1.6382276765209756,60.416666666666664,2867,0.5517275333404541,0.01209086983488741,0.011788988673792843,-117.27128689304405,0.0
130,2.669750928878784,-129.23032259260404,22.913816553416755,-74.37136681757251,-179.3972492309968,58.333333333333336,0.8285112250290121,0.1,0.026951074600219727,0.3050820827484131,0.049964834,0.1223641,-135.78581067381654,-0.06612217028244656,-1.6785511081932967,58.333333333333336,2913,0.5507750511169434,0.013421165787821796,0.012869139192231737,-80.36115194714664,100.0
131,2.0755882263183594,-126.16869020465417,19.61739977337219,-60.615644301377074,-173.67644162861578,58.333333333333336,0.856083890062541,0.1,0.009220361709594727,0.3155853748321533,0.05024418,0.11950573,-134.8240986269003,-0.065446772228665,-1.6373383514784108,58.333333333333336,2932,0.5808811187744141,0.012008401065020553,0.0115488890658085,-71.54962656913139,100.0
132,2.0004284381866455,-122.19573814453906,19.706884233222137,-81.88343439100046,-199.635839598585,66.66666666666667,0.8814637591115935,0.1,0.028586149215698242,0.35056066513061523,0.049800813,0.107758746,-133.56126257866418,-0.06421406288811551,-1.5840242335647101,66.66666666666667,2977,0.6083381175994873,0.013207858418022843,0.012447310155591031,-78.53489298120027,100.0
133,2.58900785446167,-120.06003547085261,22.020702439128335,-74.58233602682213,-183.41630995886993,71.875,0.8977757707750513,0.1,0.020311594009399414,0.31468677520751953,0.050046727,0.109994575,-132.21113986788302,-0.06402505649811849,-1.5563652168436235,71.875,2969,0.6096720695495605,0.015550695147587749,0.014820009902882137,-58.42886463698349,100.0
134,2.201838970184326,-116.78381284667195,19.77815467870006,-71.24134984440059,-166.15620680244768,80.20833333333333,0.924010433014113,0.1,0.02144646644592285,0.2875673770904541,0.05057853,0.10665666,-130.66840716576192,-0.06294918757390518,-1.5113184974906038,80.20833333333333,3031,0.6394357681274414,0.014099155812866802,0.013420723050061947,-90.16157518074247,100.0
135,1.9515862464904785,-120.59470301384916,21.41773382872222,-74.08810058296726,-173.36774725066465,70.83333333333333,0.8607637129494758,0.1,0.02319812774658203,0.32178544998168945,0.0480782,0.11330649,-129.66103675057064,-0.06321314680064233,-1.5628132807355553,70.83333333333333,3073,0.6462850570678711,0.016783593047926412,0.015619505774441156,-70.10711946448465,100.0
136,1.840639352798462,-120.89388711402768,21.50318509780913,-82.42122487990758,-179.6877258791879,64.58333333333333,0.8990758717534101,0.1,0.027133464813232422,0.2475583553314209,0.050742563,0.10813164,-128.78432178691637,-0.06349680026600146,-1.5672997570913114,64.58333333333333,3031,0.6072859764099121,0.01573864013059137,0.014484733348462123,-91.92935837246998,100.0
137,2.4603824615478516,-122.53302011112481,23.750532062176784,-59.79681180179366,-179.29874106792587,67.70833333333333,0.8598688592134441,0.1,0.01983499526977539,0.27762746810913086,0.049910437,0.11314713,-128.1591916193372,-0.06351729691644264,-1.5886084694870248,67.70833333333333,3058,0.5660610198974609,0.016566376816493804,0.016052680180624647,-85.00638173332469,100.0
138,2.103201150894165,-115.10378692028736,21.233571437964443,-74.271671779944,-189.7548711232372,75.0,0.8751457516050797,0.1,0.038503170013427734,0.3076801300048828,0.050097816,0.11329354,-126.85365114943222,-0.06210388138523463,-1.4892328893591136,75.0,3118,0.6215686798095703,0.015457763270601678,0.014190968457565735,-75.16166306275784,100.0
139,2.1843655109405518,-117.07986311462601,21.001989351288284,-63.74014831634264,-167.59540769184798,80.20833333333333,0.8589191868464485,0.1,0.02716374397277832,0.3350694179534912,0.05098762,0.11298221,-125.8762723459516,-0.06233592483267431,-1.5163369851076913,80.20833333333333,3115,0.6635870933532715,0.01766803961512595,0.017760026246082528,-66.73991920661982,100.0
140,2.693793535232544,-113.91137101124139,21.821162923506755,-64.08875247189262,-190.26225369846458,82.29166666666667,0.8674721242049311,0.1,0.030496597290039062,0.3812859058380127,0.04738146,0.109327644,-124.67978221248059,-0.06158349773419145,-1.475000348812377,82.29166666666667,3119,0.6119465827941895,0.018593894859481222,0.016262121478303204,-49.086985978638154,100.0
141,2.600867509841919,-111.05216036445263,20.127720868010382,-67.94353217764487,-160.20392093996693,80.20833333333333,0.9415266335177734,0.1,0.023501157760620117,0.2571585178375244,0.049980365,0.1076681,-123.31702002767778,-0.06103656664633087,-1.4355656910900738,80.20833333333333,3170,0.5889737606048584,0.016481629844172233,0.015553626360215497,-48.38148031827995,100.0
142,2.6715710163116455,-114.39165205771758,21.172460230390495,-27.156985845370336,-187.76362088186755,76.04166666666667,0.917876708353655,0.1,0.025407791137695312,0.29784488677978516,0.051169787,0.11010998,-122.42448323068177,-0.06095117181156321,-1.481988603723088,76.04166666666667,3209,0.6255569458007812,0.016630149754083768,0.015033717621577004,-61.167372347752774,100.0
143,2.163121461868286,-110.49773492821407,23.385478328784345,-36.650566310669994,-189.6099429989034,81.25,0.9093944885858265,0.1,0.04306960105895996,0.36568784713745117,0.049817238,0.1126187,-121.231808400435,-0.06058479226317648,-1.429754073906981,81.25,3233,0.5911476612091064,0.01814963862151706,0.017424050998097514,-59.56637753751215,100.0
144,2.3984358310699463,-107.84071324591412,20.185827890388197,-56.61898046717279,-162.85954619727698,84.375,0.9116762673280682,0.1,0.029317140579223633,0.25989389419555664,0.049826033,0.10984122,-119.8926988849829,-0.060307646099977054,-1.392707096589149,84.375,3229,0.5967652797698975,0.015889513784858204,0.015243324288003006,-23.87462094096198,100.0
145,2.209149122238159,-107.40550258700853,24.572860724098096,-54.65379230803178,-183.76976341062434,78.125,0.9489462575683086,0.1,0.040444135665893555,0.23211288452148438,0.049895126,0.1047894,-118.64397925518547,-0.059348167073769276,-1.38717189919687,78.125,3298,0.6276772022247314,0.019796301318434552,0.019225675490602015,-4.307892462146668,100.0
146,2.2305712699890137,-105.70666894213464,21.041888094076395,-57.22431930455616,-162.03628564572583,84.375,0.9323752672375576,0.1,0.062195539474487305,0.3765580654144287,0.04919511,0.10245627,-117.35024822388039,-0.058854468203364374,-1.3645789272494147,84.375,3355,0.6523377895355225,0.017233052478762854,0.015752471657915275,-20.86174431880962,100.0
147,2.8146049976348877,-105.81033853512986,24.15302287137667,-57.4453633924656,-187.0391544958856,82.29166666666667,0.9436998319870535,0.1,0.03480195999145508,0.3485090732574463,0.048982304,0.103482164,-116.19625725500534,-0.05858414352468533,-1.365929569010108,82.29166666666667,3357,0.650195837020874,0.021225835229657444,0.02038908846603601,-1.805508557317708,100.0
148,2.6299145221710205,-104.64010617317315,20.32350055829172,-51.880673636560786,-158.85734374071612,87.5,0.9277074420627651,0.1,0.04991292953491211,0.3675556182861328,0.050028943,0.10781365,-115.04064214682212,-0.05834822015897854,-1.3508891703655517,87.5,3387,0.7290093898773193,0.017653276357399484,0.017200743762791505,28.777026484038846,100.0
149,2.2453463077545166,-101.6625681372055,26.077722090981666,-51.93561154849647,-203.71551456569435,88.54166666666667,1.019017246301695,0.1,0.02931666374206543,0.3403959274291992,0.049036235,0.09555717,-113.70283474586046,-0.057805223003528174,-1.3107787403070572,88.54166666666667,3437,0.7410719394683838,0.025024435730107993,0.023471328609524503,77.17735696654006,100.0
150,2.2570409774780273,-96.66278943087927,23.15946131983464,-57.90122379888696,-170.48557053916966,89.58333333333333,0.995542931160059,0.1,0.03015446662902832,0.2843019962310791,0.049184892,0.09797097,-111.99883021436234,-0.05704040241414291,-1.244743041285002,89.58333333333333,3441,0.6964526176452637,0.020319818463830523,0.019342908171165334,93.46987130798776,100.0
151,2.3240792751312256,-92.59062533076543,22.661050245161103,-39.69596291410362,-151.4325694156487,87.5,1.0619084306188196,0.1,0.021100521087646484,0.3541843891143799,0.050029706,0.09620106,-110.05800972600265,-0.055564229437081426,-1.1897351696431393,87.5,3566,0.7652935981750488,0.020822207670578078,0.019398617898353367,77.54411853887007,100.0
152,2.203442096710205,-95.55557931300409,25.93484464039027,-43.22893396969596,-184.41572749971508,89.58333333333333,0.9979516567360239,0.1,0.02726888656616211,0.3463778495788574,0.04989926,0.09825111,-108.6077666847028,-0.0569954678589489,-1.2300155302634475,89.58333333333333,3458,0.6998798847198486,0.023658928282458268,0.022777917118665503,142.78698162254526,100.0
153,2.519062042236328,-97.29565950451759,24.256815253377344,-36.738791332410585,-165.36830054596447,87.5,0.9994273489067601,0.1,0.03110957145690918,0.3989088535308838,0.049906433,0.10599553,-107.47655596668427,-0.05631607385178622,-1.2527946449488219,87.5,3544,0.7778680324554443,0.022321151435178918,0.020475542398172716,53.821280641008144,100.0
154,2.1087682247161865,-101.09570455894378,25.595427768118185,-55.97417788685652,-177.04197469998104,84.375,1.0195619002715584,0.1,0.01955270767211914,0.28030943870544434,0.050940488,0.0963205,-106.83847082591024,-0.05735086955834048,-1.3025134155333429,84.375,3459,0.6875731945037842,0.02246359795481639,0.020605235912490957,102.75083175273632,100.0
155,2.341179847717285,-91.41066816466628,26.728917767532536,-16.984047588019756,-161.4609398694302,92.70833333333333,1.055834406190315,0.1,0.023201704025268555,0.19808697700500488,0.05083981,0.092084035,-105.29569055978585,-0.055970391600987664,-1.1739395634657859,92.70833333333333,3522,0.6888072490692139,0.02594080713510947,0.023833018522166367,398.42499736579026,100.0
156,2.630927801132202,-91.9631224611241,27.410614046812963,-34.26832499247125,-165.59153192162898,91.66666666666667,1.0913769992164404,0.1,0.03341031074523926,0.30299973487854004,0.049097177,0.090648614,-103.96243374991968,-0.05587893409768278,-1.1816443401374959,91.66666666666667,3538,0.7882161140441895,0.024964811405293597,0.024265571311134947,459.1026094797862,100.0
157,2.3805227279663086,-88.59145895800503,24.694872094881347,-36.449649706881246,-158.85076405643602,93.75,1.1008063326108943,0.1,0.02797722816467285,0.2687211036682129,0.050924,0.09324958,-102.42533627072822,-0.05553055341439914,-1.1365264619323603,93.75,3600,0.7465431690216064,0.02224327013251163,0.021569208172971522,343.9619802933127,100.0
158,2.4734976291656494,-87.13114163961893,26.709283563283616,2.273598304007052,-155.99258647581084,91.66666666666667,0.9963431760579062,0.1,0.018947124481201172,0.29295969009399414,0.0498112,0.09847333,-100.8959168076173,-0.0549692148253682,-1.117283848848594,91.66666666666667,3635,0.7255063056945801,0.02857891537102395,0.026886243952739235,499.0913250474413,100.0
159,2.8515748977661133,-81.74078868081423,29.395296441612082,-23.56761565515889,-159.4043668921667,90.625,1.021889582188325,0.1,0.025827407836914062,0.26340651512145996,0.049325984,0.098391764,-98.98040399493699,-0.05412574023410501,-1.0459104638089511,90.625,3674,0.7004141807556152,0.030632158894615596,0.029377144641135798,493.3420556907536,100.0
160,2.7076494693756104,-79.93782670913184,23.710441086014665,-24.75301545937354,-157.0137562464845,93.75,1.0409149506122355,0.1,0.029834985733032227,0.34969663619995117,0.049867544,0.09586233,-97.07614626635649,-0.0533289827697253,-1.0207859985719647,93.75,3747,0.750999927520752,0.020804817770840884,0.01974352947335678,509.6845678781415,100.0
161,2.3643651008605957,-85.67848253143961,26.990539382203217,22.01686499208276,-179.03715722037856,90.625,1.1510326889314817,0.1,0.02678680419921875,0.34952497482299805,0.049953215,0.08400215,-95.9363798928648,-0.054108183312879275,-1.0979464870018611,90.625,3700,0.7265288829803467,0.02473346564765972,0.023378540526200912,241.33335099471145,100.0
162,2.3787612915039062,-80.25932058038927,28.049055567710223,-10.913754149804543,-157.56475970726027,97.91666666666667,1.1546677673581378,0.1,0.03847146034240723,0.3517439365386963,0.050154824,0.086741336,-94.36867396161726,-0.054067011736442065,-1.0253885961064395,97.91666666666667,3743,0.6616437435150146,0.03067785467335538,0.028952820415176144,498.5243617822625,100.0
163,2.2177798748016357,-77.052040043623,27.17116863324117,-10.488412954367888,-186.19402583171632,94.79166666666667,1.1262061178695704,0.1,0.013344049453735352,0.2738761901855469,0.048895463,0.08701239,-92.63701056981783,-0.05309958299938763,-0.9831699267737063,94.79166666666667,3838,0.7101840972900391,0.02761987061637386,0.02692952458113928,377.78689888455085,100.0
164,2.3965718746185303,-81.00613958732743,28.584525817218562,-9.370896297841746,-156.4305725279404,90.625,1.1496242370440999,0.1,0.04203677177429199,0.36225366592407227,0.04890797,0.08546544,-91.47392347156878,-0.05378081507082209,-1.0350375710516546,90.625,3785,0.7005908489227295,0.029555434256037825,0.026835758657557694,362.1512590772866,100.0
165,2.306014060974121,-77.25067914247813,30.056005917023864,5.533597622926472,-138.94344755250145,95.83333333333333,1.115916092044742,0.1,0.00936126708984375,0.33847951889038086,0.048547655,0.091082886,-90.05159903865972,-0.05281818661557864,-0.985220206146446,95.83333333333333,3800,0.8102107048034668,0.032998355889837266,0.031166089021510725,224.64290830438006,0.0
166,2.6039135456085205,-74.23595514071097,28.95944644662772,-8.086048421128616,-176.61447089198174,93.75,1.147106295920824,0.1,0.0361788272857666,0.29297852516174316,0.049452327,0.0835196,-88.47003464886484,-0.05207754518286147,-0.9450195683137755,93.75,3880,0.8179745674133301,0.03358288986822774,0.03227054896996756,231.0491028236831,0.0
167,2.4938273429870605,-75.68856663260986,27.67805819574788,-16.345661860240174,-162.65865980886397,96.875,1.2295461305488364,0.1,0.024540185928344727,0.21579599380493164,0.050452027,0.0804024,-87.19188784723934,-0.05275030647618975,-0.964184400899077,96.875,3873,0.7213118076324463,0.030273598136225523,0.02911294066583664,344.9839038582858,100.0
168,2.956134796142578,-77.71874692876665,30.18672270420632,57.92715053129395,-149.89458707939787,96.875,1.115223005930401,0.1,0.020845890045166016,0.26406264305114746,0.048943724,0.09109535,-86.24457375539208,-0.05308879697112775,-0.9907430295471121,96.875,3865,0.7492461204528809,0.037118211999633846,0.0360402009785996,228.74160203268738,0.0
169,2.599278450012207,-77.64335909734126,32.67571677426898,-9.698533506153375,-165.2732461492169,92.70833333333333,1.093238964179332,0.1,0.027834177017211914,0.4410269260406494,0.050920036,0.08646466,-85.384452289587,-0.0530647064862639,-0.9904303149715101,92.70833333333333,3796,0.7280521392822266,0.03424409484827089,0.03335789233691406,222.0943451165551,0.0
170,2.8390157222747803,-74.84012625713952,30.928772520156336,0.1986425274700494,-156.03969340549705,92.70833333333333,1.2287507818372227,0.1,0.021375179290771484,0.416978120803833,0.0485481,0.08010059,-84.33001968634227,-0.0518906585122449,-0.9539256353649059,92.70833333333333,3937,0.6954545974731445,0.03181724325534508,0.029221725998865494,216.93748344813625,0.0
171,2.6524219512939453,-67.96469333520345,29.056234999511904,25.41938577392537,-137.27381657792938,96.875,1.1782903502519864,0.1,0.023822307586669922,0.37668681144714355,0.04912524,0.082838625,-82.69348705122839,-0.05133214657948381,-0.8626259568806529,96.875,3963,0.7552402019500732,0.03652354816088562,0.03476869062027935,217.38327371502555,0.0
172,2.377366542816162,-67.67506752631115,24.627317807597663,-4.616042375671832,-118.13911550937217,97.91666666666667,1.153586525402113,0.1,0.03457903861999512,0.3137991428375244,0.049618468,0.085813366,-81.19164509873667,-0.05153880548727807,-0.8576912487135556,97.91666666666667,3913,0.7029049396514893,0.02691343011665639,0.025697975543228734,211.91447221676398,0.0
173,2.8245699405670166,-66.59009021354228,29.786279783753233,15.97144310918209,-137.89000061650808,93.75,1.1962827789993133,0.1,0.03569602966308594,0.30310916900634766,0.04928896,0.08343848,-79.73148961021722,-0.05119087321919293,-0.842648240252438,93.75,4021,0.741774320602417,0.03098536889116343,0.029735465107582893,221.38448304370473,0.0
174,2.8542704582214355,-65.27248727326015,31.500651961887648,13.945100474850058,-153.12607856670138,94.79166666666667,1.17317047192096,0.1,0.02703094482421875,0.3202855587005615,0.050480403,0.08776996,-78.28558937652151,-0.05070297639000742,-0.8249733869855441,94.79166666666667,4027,0.7687220573425293,0.03614580747126742,0.03409518243656268,483.06272908482856,100.0
175,2.525217056274414,-63.19242092742814,31.70035699114157,17.528213016913902,-165.3749360912876,94.79166666666667,1.1546487850712197,0.1,0.05312466621398926,0.4599454402923584,0.05055773,0.08771468,-76.77627253161218,-0.05037445253950828,-0.7974308750119604,94.79166666666667,4045,0.7763497829437256,0.03406145159258844,0.03314984544177422,508.1605467567521,100.0
176,2.634639024734497,-60.94276624610848,33.025825942427666,1.8834173372005978,-155.0509867492514,96.875,1.1765967723857582,0.1,0.0643160343170166,0.4115612506866455,0.049062215,0.08108234,-75.1929219030618,-0.0502279863737799,-0.7678489863467243,96.875,4062,0.7953519821166992,0.039060201785848216,0.03772650721709671,487.0930758739097,100.0
177,2.4953041076660156,-67.48200528489937,34.48457117795216,45.06447042227509,-144.93284769111324,97.91666666666667,1.1808373700679344,0.1,0.0440981388092041,0.40422725677490234,0.04888445,0.083984636,-74.42183024124556,-0.05169995870724798,-0.8552027040051549,97.91666666666667,3997,0.959064245223999,0.04243802994347193,0.03936557174470608,465.8783135611258,100.0
178,3.2515995502471924,-55.99573887859632,33.296439950082245,16.29243301569467,-134.19833990435131,98.95833333333333,1.2226335938778194,0.1,0.0175628662109375,0.3336503505706787,0.050724845,0.080743805,-72.57922110498063,-0.049545957954169384,-0.7027029818110795,98.95833333333333,4141,0.765657901763916,0.043069835109979214,0.03922303145529875,485.0296369120315,100.0
179,2.7216227054595947,-58.564755236036206,37.553344823093404,31.946485532938127,-191.53763567761303,96.875,1.183863052988422,0.1,0.009738445281982422,0.3553929328918457,0.050408177,0.0834753,-71.1777745180862,-0.05033626834999962,-0.7358591969101176,96.875,4091,0.8294699192047119,0.04830155222939603,0.04532934524990951,482.9858163650546,100.0
180,2.6941754817962646,-56.0444835696023,39.28474896169969,32.58348572008414,-136.28693211286543,96.875,1.2878731428470536,0.1,0.05701494216918945,0.35218381881713867,0.05016371,0.08034113,-69.66444542323781,-0.05032742461924084,-0.7030258403416428,96.875,4093,0.8862230777740479,0.05125404149253899,0.04953826146416995,420.2748501409645,100.0
181,3.252871036529541,-55.92228769466638,39.45937626888477,56.83426584492273,-139.82180861546487,98.95833333333333,1.2003947727014845,0.1,0.033321380615234375,0.3392341136932373,0.05015896,0.08209847,-68.29022965038067,-0.04956754136693262,-0.7012382669135486,98.95833333333333,4178,0.787132740020752,0.05753066772679791,0.055851328488939055,348.2964088232058,100.0
182,3.1078150272369385,-54.18843997985662,37.596971309127234,49.17303652553568,-167.6904701043518,97.91666666666667,1.2211531315926314,0.1,0.024230480194091797,0.31949377059936523,0.05074223,0.081647374,-66.88005068332826,-0.04953212302484327,-0.6784396391262707,97.91666666666667,4210,0.8785800933837891,0.05224519648114168,0.050946982260187276,475.71880809193766,100.0
183,2.5006327629089355,-48.67242458280185,32.3610832299193,23.90362406890071,-161.18795148999902,97.91666666666667,1.2711071352005263,0.1,0.03643059730529785,0.3916027545928955,0.05037419,0.07794408,-65.05928807327562,-0.048277577796411564,-0.6046953988584266,97.91666666666667,4300,0.8734054565429688,0.04654511473188979,0.04345449844947168,281.9815968029437,100.0
184,2.608809471130371,-46.312365484284214,36.896193027713586,42.550549751975986,-130.2777817984445,98.95833333333333,1.2203059083685792,0.1,0.028367996215820312,0.26067280769348145,0.04902635,0.08222178,-63.18459581437648,-0.04827924341695036,-0.5727095475219778,98.95833333333333,4313,0.8412754535675049,0.0473827722449428,0.045562072734277634,229.80669527194334,0.0
185,2.5059733390808105,-37.15657038971743,34.16776910564616,43.676050710529054,-149.73182889669738,100.0,1.2820265997500804,0.1,0.027187108993530273,0.42103099822998047,0.04897886,0.079164855,-60.58179327191058,-0.047411658102543185,-0.45149724797894836,100.0,4360,0.9166631698608398,0.051853851607478414,0.047851598665237874,382.23677127671203,100.0
186,2.4965531826019287,-56.675051311457366,39.32877767422535,59.86240471947886,-147.82715370184042,93.75,1.207345790284221,0.1,0.0642693042755127,0.41811418533325195,0.050000194,0.0850636,-60.19111907586526,-0.049597210143199545,-0.7106568088489151,93.75,4216,0.8469183444976807,0.0639246197001816,0.050509551517921594,401.1349923460162,100.0
187,2.9538629055023193,-48.90434577211079,45.518943810179714,94.09074213205918,-160.28020439740263,95.83333333333333,1.202726420049914,0.1,0.031931400299072266,0.2972257137298584,0.05034553,0.08269547,-59.062441745489814,-0.049243341339255654,-0.6075619921265156,95.83333333333333,4247,0.8672628402709961,0.07474369827316255,0.070932721260465,213.6158244318726,0.0
188,2.744178056716919,-43.50776594998774,42.544534245748636,44.99411296246697,-189.17362030907265,95.83333333333333,1.3195093801149875,0.1,0.025757551193237305,0.3716156482696533,0.049489953,0.07301951,-57.50697416593961,-0.04791456420026549,-0.5355730493842196,95.83333333333333,4384,0.9081625938415527,0.06606168895208402,0.062262308572380735,198.30280531173918,0.0
189,2.826709508895874,-46.519696175150536,43.35613135442732,62.54043224559367,-202.16459741344488,94.79166666666667,1.274715253617363,0.1,0.010344982147216797,0.405484676361084,0.049410805,0.07520867,-56.40824636686071,-0.04733366976022626,-0.5754281659722755,94.79166666666667,4474,0.8415007591247559,0.06234697911872404,0.06092100212185254,187.0493493274211,0.0
190,3.6309733390808105,-34.58401628971972,38.527841770059986,62.0973081354321,-136.01153347669216,100.0,1.2860007245213425,0.1,0.0719306468963623,0.15642261505126953,0.047263246,0.07615381,-54.22582335914661,-0.0466243148550437,-0.41624995811081095,100.0,4549,0.9353110790252686,0.06575353540341954,0.062290451291692465,187.96001387906392,0.0
191,2.592960834503174,-30.62838458097491,50.54788758411821,139.4132759780851,-149.41083916906177,94.79166666666667,1.270649444160447,0.1,0.02984166145324707,0.3290221691131592,0.046512377,0.06996323,-51.866079481329436,-0.04567454688151218,-0.36382198122579484,94.79166666666667,4642,0.9922914505004883,0.10701820546703034,0.09820718488582046,180.41449999565484,0.0
192,2.673213481903076,-27.88766641586983,57.91645806699522,296.87504612314586,-183.02779108227108,97.91666666666667,1.426102607386167,0.1,0.07256817817687988,0.3815345764160156,0.049400553,0.07263135,-49.46823817478347,-0.04533416233408704,-0.3270157577629634,97.91666666666667,4694,1.0531609058380127,0.15878266504931396,0.1536150882513611,169.21531089528824,0.0
193,2.5431559085845947,-26.732286064065935,49.26985798123508,183.64327024666943,-172.7690345473132,95.83333333333333,1.3154968755689878,0.1,0.00979304313659668,0.39892101287841797,0.050198402,0.07445387,-47.19464296371172,-0.04563197673872549,-0.3111371729659795,95.83333333333333,4696,1.0324904918670654,0.09420782190799488,0.09041236106797401,134.1312402044928,0.0
194,3.3784778118133545,-14.428826030194704,61.02757650505109,267.542163457914,-133.2112319304722,96.875,1.4489862257156712,0.1,0.045101165771484375,0.31770968437194824,0.050085206,0.071459614,-43.91806127036002,-0.043871757701347124,-0.14803372091060304,96.875,4904,0.9870266914367676,0.177177691573026,0.1700338732837074,128.662168757774,0.0
195,2.8471784591674805,-20.024781836264467,64.63086773547352,347.8153067626187,-122.9481769468475,97.91666666666667,1.3970322248093237,0.1,0.022905349731445312,0.38462281227111816,0.049594846,0.07330031,-41.528733326950466,-0.04477608781269321,-0.22288684899326786,97.91666666666667,4827,0.9867563247680664,0.18310501129696946,0.1749423730945097,145.69451190334328,0.0
196,3.566854476928711,-26.323245386228773,46.537418230513346,107.06141687905831,-147.21720989985306,96.875,1.3204865612692107,0.1,0.021709442138671875,0.3691723346710205,0.049498484,0.07491897,-40.008184532878296,-0.04479254151225298,-0.3071489402667709,96.875,4799,0.8468706607818604,0.08604344164381324,0.08114992871719585,-84.34412376776962,0.0
197,3.338463068008423,-23.48972239227885,45.192330794207216,102.11555493506243,-176.2922092104854,95.83333333333333,1.4047346320610616,0.1,0.034216880798339844,0.4610610008239746,0.04988758,0.06940574,-38.35633831881835,-0.044714324259541194,-0.2689473667427631,95.83333333333333,4761,0.9917972087860107,0.08063169102973794,0.07766709892025705,43.54845839891433,0.0
198,3.292600631713867,-24.564428008090957,50.11101749682372,78.45468030789337,-140.59625492980243,98.95833333333333,1.4759991395135967,0.1,0.04187417030334473,0.3497893810272217,0.04982764,0.06805772,-36.97714728774561,-0.04491746715478915,-0.28273352355866127,98.95833333333333,4837,1.0174391269683838,0.09298185274258164,0.09071521102778492,35.54457537778663,0.0
199,3.1418824195861816,-7.959205012606688,70.56597845066521,258.4446412332107,-218.5308380953849,95.83333333333333,1.3370960108568473,0.1,0.042270660400390625,0.2028961181640625,0.050704055,0.07722355,-34.07535306023172,-0.04335409888694572,-0.061140850355646,95.83333333333333,4970,1.082993507385254,0.2160488686684497,0.19277854195709312,-5.456618770760996,0.0
200,3.150606870651245,-11.24351128760697,58.96317768327211,249.56670315666193,-153.20746538713092,96.875,1.3546649744705148,0.1,0.042403221130371094,0.20610499382019043,0.048097357,0.07193881,-31.792168882969246,-0.042798814460967144,-0.10473582885451153,96.875,5101,0.910820484161377,0.14392682656868497,0.13840859693878663,-86.98180067890651,0.0
201,3.1387486457824707,-8.4533080135184,68.08781314895873,280.8657632803765,-215.30788532362618,96.875,1.4139917535570286,0.1,0.03941655158996582,0.4396498203277588,0.050336584,0.07258114,-29.45828279602416,-0.04298148753190087,-0.06825866010612204,96.875,5088,1.0741331577301025,0.17807122095391092,0.17368750879804776,-81.37518174548063,0.0
202,3.1415133476257324,-1.1180603613017597,69.52196987629786,328.37666245106215,-129.0694520236383,97.91666666666667,1.4504121755718586,0.1,0.05713939666748047,0.2197251319885254,0.04775314,0.06582917,-26.62426055255192,-0.04262583967391118,0.02983149104787269,97.91666666666667,5058,0.7757391929626465,0.22610810820848726,0.21551210304117893,-78.13240317655583,0.0
203,2.966404438018799,-7.419961065536865,61.3300255254882,237.43694743748063,-165.82313618022957,96.875,1.3905624868261597,0.1,0.0351872444152832,0.28911900520324707,0.048315722,0.075283185,-24.703830603850413,-0.042846750921723555,-0.05382147135038823,96.875,5215,1.1479952335357666,0.15798901933178763,0.1498100483550484,-78.67426589194328,0.0
204,3.5455470085144043,-14.62163220724014,74.24538273431007,387.2796879393718,-177.36212697378477,96.875,1.3687963009194966,0.1,0.0266721248626709,0.4016873836517334,0.04860094,0.07706534,-23.69561076418939,-0.04345898532532283,-0.15573440196195007,96.875,5039,1.0652508735656738,0.22760536973136045,0.21830151931935599,-38.349752748051635,0.0
205,3.8974997997283936,7.671165138038742,83.22519929944602,365.5706656076342,-137.34423869921778,95.83333333333333,1.5415200498392156,0.1,0.042023658752441406,0.38251686096191406,0.048681196,0.06595505,-20.558933173966576,-0.04175410129078736,0.14249260743257397,95.83333333333333,5303,1.1799232959747314,0.27485603475745785,0.2608323980460573,35.3665021231057,0.0
206,3.890021324157715,13.921776740733904,80.91674528062941,411.35486280689184,-151.9150902890092,96.875,1.5444463006560063,0.1,0.021506786346435547,0.3286731243133545,0.048722025,0.07051003,-17.11086218249653,-0.04095013674499625,0.22350981925345428,96.875,5288,1.2044262886047363,0.30915311997854855,0.3066458504983507,35.93297068105515,0.0
207,3.0819528102874756,21.818126894023816,81.94217152074893,401.0026136417546,-101.31563086735527,100.0,1.5375704828303027,0.1,0.03186631202697754,0.37836432456970215,0.04932106,0.06454695,-13.217963274844495,-0.04043277421005035,0.33196784617874514,100.0,5398,1.008514165878296,0.3301340141999102,0.3106891647289693,-33.32063732840443,0.0
208,3.284365177154541,20.40976307032499,97.21490531830237,465.8551552099942,-145.6355611340915,98.95833333333333,1.5665841183121008,0.1,0.030106544494628906,0.391498327255249,0.049746156,0.0662935,-9.855190640327546,-0.040324791362609726,0.3119127388715548,98.95833333333333,5414,1.2574191093444824,0.4085418736727076,0.39806749223098403,-75.01842502973656,0.0
209,3.3606066703796387,25.65640523850711,87.39426363377918,409.30540121905864,-159.24935207312515,96.875,1.5221930237111327,0.1,0.040767669677734375,0.41524744033813477,0.050052434,0.0655123,-6.304031052444081,-0.039342697208626924,0.3843775123732769,96.875,5612,1.207202434539795,0.33798003947762145,0.3271941689080683,-26.86890304920561,0.0
210,2.9707658290863037,17.120487400368987,86.93958484898474,399.67120427679794,-159.8512125831518,98.95833333333333,1.4768010039669652,0.1,0.06730937957763672,0.3742637634277344,0.04952708,0.07052349,-3.9615792071627745,-0.04052799790444364,0.27231932275971127,98.95833333333333,5392,1.012542724609375,0.32588431414417024,0.3126664438761164,-104.79710451805684,0.0
211,3.1100919246673584,34.77648218509625,106.45684587746736,417.49773303270115,-165.34815607779512,97.91666666666667,1.5789354465625993,0.1,0.02608323097229004,0.4404442310333252,0.0481691,0.06382921,-0.087773067936872,-0.0383771443911498,0.5084231399649297,97.91666666666667,5668,1.0875208377838135,0.45818938258081787,0.4265330140507533,-81.7989817965291,0.0
212,3.4444637298583984,30.89652300566296,92.64328053156055,407.1441913851957,-115.54072572595683,98.95833333333333,1.5405851216955342,0.1,0.030267000198364258,0.42356109619140625,0.048844624,0.06435617,3.0106565394231115,-0.038886902397030215,0.44599339678884614,98.95833333333333,5626,1.0622949600219727,0.38421341703664397,0.3582412468659825,82.20441486989583,0.0
213,3.2743523120880127,34.35012175014148,85.74886783270347,401.27486568314083,-98.8878711292644,98.95833333333333,1.4654509640934237,0.1,0.031616926193237305,0.3742814064025879,0.045886844,0.06453606,6.1446030604949495,-0.03904098647309074,0.5028632406448527,98.95833333333333,5657,1.1559967994689941,0.3225794729280987,0.3109594215868679,23.281315712919998,0.0
214,3.291494846343994,43.758725894456234,105.30232012730279,406.7125507131886,-210.97918867704175,96.875,1.5838770836388467,0.1,0.022118568420410156,0.1555492877960205,0.046073258,0.059656497,9.906015343891077,-0.037558684985242986,0.6160499178029828,96.875,5846,1.0724542140960693,0.43418303506938244,0.41956278165832483,150.89853720542402,0.0
215,3.4176459312438965,63.53004440774577,127.54659029665505,479.34443776271803,-111.92202906891768,100.0,1.5974295322283314,0.1,0.036031246185302734,0.40505528450012207,0.04841683,0.06266233,15.268418250276547,-0.03610462815651654,0.880970693861137,100.0,5785,1.2233238220214844,0.6041118295774963,0.564997780873729,-88.00237646367081,0.0
216,3.0717620849609375,54.3266257110673,113.69536659914269,464.02450831109104,-102.5201368961522,100.0,1.5874537399562743,0.1,0.05219602584838867,0.4073514938354492,0.04723531,0.06046975,19.174238996355623,-0.03606604760326747,0.7685543894979642,100.0,5849,1.2832996845245361,0.5374261902820756,0.4856729864864887,-91.0282149732702,0.0
217,3.5778470039367676,59.50084343230054,120.53031382099509,432.1706579253224,-103.22978156777236,100.0,1.5328674688889565,0.1,0.03742337226867676,0.49774765968322754,0.047801122,0.06454108,23.206899439950114,-0.03544727467072919,0.8345620119364408,100.0,5954,1.1995749473571777,0.5362240312567663,0.5096364504782315,-107.00322471972703,0.0
218,3.2567994594573975,70.68445511072373,136.88232067954326,444.3669902715646,-158.22415266194372,95.83333333333333,1.6774207810143553,0.1,0.012533903121948242,0.3484230041503906,0.04773141,0.059937604,27.954655007027476,-0.033933991221871906,0.9649325061259603,95.83333333333333,6139,1.4295649528503418,0.6006530973457952,0.5790459672567851,-111.52250642157095,0.0
219,3.4798834323883057,91.03568532354625,129.4023506533342,420.29653869929405,-131.20832614143518,96.875,1.8548620197145893,0.1,0.008446693420410156,0.31545495986938477,0.048395704,0.05364428,34.26275803867935,-0.03171134050358864,1.2469495786527254,96.875,6411,1.2939629554748535,0.5991003210653973,0.5537503626031449,-124.89545573292476,0.0
220,3.513044834136963,92.50163918631927,163.74557102331735,430.60218439528325,-161.81118792304096,96.875,1.6344192347192195,0.1,0.010766983032226562,0.36154627799987793,0.048331425,0.05821887,40.08664615344334,-0.031687173285788274,1.2585440374961647,96.875,6225,1.3238532543182373,0.6622951793440767,0.6481489671683266,-133.26053497208565,0.0
221,4.019320487976074,120.10597093226097,162.61132840306544,438.48205433003517,-223.7910803903062,94.79166666666667,1.6861095159740584,0.1,0.010461568832397461,0.3307609558105469,0.048693515,0.056360804,48.088578631325106,-0.028784565982550595,1.6311340381529227,94.79166666666667,6405,1.2191205024719238,0.6500628386669428,0.6115196860151685,-134.42613850849852,0.0
222,3.5260562896728516,91.73490897104152,143.97407165073858,422.482887072065,-183.46313303563466,92.70833333333333,1.7273336920407218,0.1,0.008612394332885742,0.3349771499633789,0.04809534,0.054658536,52.45321166529675,-0.029761706487560918,1.2422797310613587,92.70833333333333,6396,1.2645263671875,0.6466163259185413,0.5999596228174022,-149.50143710265422,0.0
223,4.344080209732056,124.81173078696213,147.97875202913946,429.8086771975424,-120.30645410906814,94.79166666666667,1.7142097145553905,0.1,0.01154780387878418,0.3481125831604004,0.04904015,0.057404924,59.689063577463294,-0.027286803423547144,1.6765930296196327,94.79166666666667,6570,1.1947524547576904,0.6208046165317418,0.5910530312475206,-136.00737930056152,0.0
224,4.443328142166138,165.18652003732512,150.52119161612623,431.9165725454921,-112.76624244407752,95.83333333333333,1.833700033197603,0.1,0.01387333869934082,0.34072136878967285,0.048202705,0.052334484,70.23880922344948,-0.022864539777589413,2.2175153069559,95.83333333333333,6764,1.1962695121765137,0.5969858940184766,0.5315584904417686,-142.09473461973553,0.0
225,3.526796579360962,140.37938253548973,162.64799772232848,431.49610164622266,-186.69780486076095,90.625,1.5542967745292708,0.1,0.01231694221496582,0.33229732513427734,0.045369636,0.061977252,77.25286655465351,-0.024978750370991537,1.888436886645789,90.625,6637,1.2853009700775146,0.6422202183591161,0.5918684176985105,-135.87042929412007,0.0
226,3.6026532649993896,195.30683264515142,150.21700482035894,423.52976246337755,-222.44698146323532,94.79166666666667,1.8061561785019562,0.1,0.010557413101196289,0.3577284812927246,0.048811436,0.053003237,89.0582631637033,-0.020673703241089598,2.6111659806207057,94.79166666666667,6907,1.475916862487793,0.5954287931288154,0.5084499890171934,-132.06604288618036,0.0
227,3.623835563659668,166.58920102538352,156.92125706876658,495.8111812180764,-179.66194082238235,94.79166666666667,1.8860815821160213,0.1,0.010067462921142578,0.35049962997436523,0.049019393,0.052175853,96.81135694987134,-0.02400664456436971,2.234645967975885,94.79166666666667,6746,1.2904565334320068,0.541061927655493,0.5192698965134547,-129.85579953345072,0.0
228,4.335373640060425,132.09282308937102,168.02493113638792,442.06898580779296,-158.88228940514992,91.66666666666667,1.7048324980735878,0.1,0.011867046356201172,0.35305309295654297,0.048048846,0.056820605,100.33950356382131,-0.02755236291602378,1.7792570742284812,91.66666666666667,6472,1.38100004196167,0.6161898897227645,0.5868503874891972,-122.55883244958623,0.0
229,3.7569823265075684,169.61627295690081,159.1915524103682,465.0464957544089,-181.26820663036273,98.95833333333333,1.9015416502741649,0.1,0.011398553848266602,0.3568446636199951,0.048492327,0.052108154,107.26718050312925,-0.0244979378116975,2.2935971611566823,98.95833333333333,6649,1.4255633354187012,0.565589183957621,0.5499497780451663,-115.03567519681427,0.0
230,4.690910339355469,155.8239996900679,169.37662933536464,423.8826102457975,-157.33368811830957,96.875,1.7650764290367242,0.1,0.015694618225097656,0.32814598083496094,0.04663773,0.054583978,112.12286242182311,-0.025191729307879777,2.087058322182449,96.875,6567,1.2613418102264404,0.5999248333816285,0.5747741524195885,-117.41035746729342,0.0
231,3.587489604949951,152.58449182314388,151.29729521868722,405.70366026572674,-131.3888955207159,95.83333333333333,1.7745295678129658,0.1,0.011918067932128906,0.34854602813720703,0.04560991,0.050465047,116.16902536195519,-0.025443631768729224,2.063835764693391,95.83333333333333,6658,1.4550795555114746,0.5660870897741159,0.5625866730563794,-112.54173628962718,0.0
232,4.310537099838257,169.6322918018395,156.36001535304032,443.68900011005627,-186.5924573795409,94.79166666666667,1.8000278573989588,0.1,0.010446786880493164,0.32628774642944336,0.047503386,0.05279391,121.51535200594364,-0.022722518109033845,2.2659730442537156,94.79166666666667,6747,1.3472790718078613,0.5724250289281263,0.5395736293194036,-117.9616878791498,0.0
233,3.5854341983795166,175.62402500004,160.89046329952626,472.91623259638106,-158.7680372949972,97.91666666666667,1.7077948213315475,0.1,0.012257814407348633,0.3390171527862549,0.049182624,0.05479609,126.92621930535327,-0.023664496122226698,2.37416049293638,97.91666666666667,6668,1.2247495651245117,0.5151986200999503,0.5012503000619709,-107.62036044128278,0.0
234,3.4363651275634766,186.0564130358689,148.69004252794514,473.1300405434193,-88.9913515780416,97.91666666666667,1.6630508296244817,0.1,0.010834217071533203,0.35425472259521484,0.048229117,0.05984551,132.83923867840483,-0.022378526523899423,2.486363867272909,97.91666666666667,6769,1.387153148651123,0.509234324544824,0.49922316102965486,-113.19398097214653,0.0
235,4.346890449523926,200.03524564903697,161.437661318929,494.7162535445961,-181.94340848658837,95.83333333333333,1.7511452685488385,0.1,0.014925003051757812,0.35570216178894043,0.048867866,0.057616048,139.55883937546804,-0.021005386269552544,2.6749874383514936,95.83333333333333,6803,1.3156907558441162,0.49283271320271216,0.4681434552431388,-102.36461804396242,0.0
236,3.5211055278778076,197.5152540235357,150.7321688966519,446.31854805847917,-140.63924436227398,97.91666666666667,1.6791320854609297,0.1,0.012388467788696289,0.32564401626586914,0.04669923,0.055515338,145.35448084027482,-0.022110285176700797,2.6525768560140897,97.91666666666667,6736,1.2586135864257812,0.4582932653312829,0.4456296948775682,-103.70630985743682,0.0
237,4.431765556335449,187.56516397463474,162.91084938818014,419.76703150206185,-173.43722041013825,97.91666666666667,1.7838308133906398,0.1,0.022045373916625977,0.3383657932281494,0.047627278,0.05164276,149.57554915371082,-0.022502110726895775,2.5188431030179763,97.91666666666667,6732,1.2655086517333984,0.5039749520486777,0.4990446888596359,-95.70542943421692,0.0
238,3.5873661041259766,196.1160759038232,155.57453843964004,481.9928130194092,-103.2983302836451,96.875,1.6786985695739498,0.1,0.011995315551757812,0.35209035873413086,0.044405427,0.056323066,154.22960182872208,-0.021794621664126417,2.6284971499461967,96.875,6672,1.3511874675750732,0.4951022027466406,0.45291087913559386,-105.78977142512053,0.0
239,3.685863971710205,185.21039956788334,148.79033058114848,511.46727246123567,-124.79531430634425,96.875,1.790111844341771,0.1,0.022696971893310547,0.33552050590515137,0.047681697,0.059505925,157.32768160263822,-0.021718580869669647,2.47818764469345,96.875,6845,1.403348445892334,0.5318034797399779,0.5041672947617798,-106.47498234057264,0.0
240,4.716127872467041,180.68223024234678,158.0333584097646,490.56269554772155,-177.99260023985056,91.66666666666667,1.8037459005681657,0.1,0.01800084114074707,0.36068272590637207,0.044450168,0.049782086,159.66313646660907,-0.02158538904419899,2.4263870461293426,91.66666666666667,6806,1.3058397769927979,0.5024088946718502,0.47089824689946597,-120.39986132838007,0.0
241,3.8786160945892334,187.52263837672186,142.96836111158967,432.59554996096193,-128.49903691783322,94.79166666666667,1.8093464759940068,0.1,0.037353515625,0.35166430473327637,0.045545284,0.0520502,162.44908665762037,-0.020246613024775442,2.502050863231462,94.79166666666667,6886,1.3550398349761963,0.47820844286399183,0.45663847896963505,-124.78521439509578,0.0
242,4.492974281311035,155.71991118849095,160.60361685842338,508.112183083746,-255.65882144400265,92.70833333333333,1.9857748494963445,0.1,0.013109445571899414,0.33131837844848633,0.048665684,0.052303426,161.77616911070743,-0.023637570657180095,2.0838737705549626,92.70833333333333,6740,1.309554100036621,0.5725772874102157,0.539071191995982,-101.17322233876763,0.0
243,3.816744327545166,222.01151072824678,154.32160823866673,481.62918139557434,-122.47340658258864,97.91666666666667,1.9562473990425482,0.1,0.019249439239501953,0.348524808883667,0.0495541,0.048929166,167.79970327246136,-0.019417241415291643,2.9641156289270647,97.91666666666667,6844,1.3200275897979736,0.4903464921215723,0.387540176248376,-112.30328930216723,0.0
244,3.7145137786865234,214.0469169154071,142.0301039315561,449.21694336857007,-152.62316974150835,94.79166666666667,1.699620361019099,0.1,0.010364770889282227,0.33281707763671875,0.048866674,0.056598015,172.42442463675593,-0.019075928889239716,2.8606712458715613,94.79166666666667,6951,1.3251872062683105,0.4197999993625412,0.40378796002804407,-116.28315242340928,0.0
245,3.5026321411132812,183.7024358652608,154.99391992451064,483.21885689371743,-211.91269389008073,92.70833333333333,1.8919497812664536,0.1,0.010374069213867188,0.3322725296020508,0.046594378,0.055457015,173.55222575960642,-0.021482576748163843,2.4670061444015583,92.70833333333333,6734,1.3152122497558594,0.4706049868406243,0.4445007342739432,-107.76216500876217,0.0
246,3.6158831119537354,211.91723627452552,147.03307649326962,461.2491834670457,-180.283252116234,94.79166666666667,1.7322452379707745,0.1,0.01808333396911621,0.3346598148345947,0.049679592,0.055650964,177.38872681109834,-0.01962165039814892,2.8330404211103706,94.79166666666667,6882,1.3071322441101074,0.4155586717849543,0.3973288319365624,-112.340622872782,0.0
247,3.74886155128479,196.60750670164134,163.90258825657833,511.871336123471,-148.38193087624862,91.66666666666667,1.6846621669689157,0.1,0.01345205307006836,0.3674015998840332,0.049011834,0.05783928,179.31060480015265,-0.020987240729114398,2.63342151647958,91.66666666666667,6870,1.1617391109466553,0.5003982192066511,0.48266404474210484,-122.32373539061666,0.0
248,3.6529321670532227,200.44144193690613,161.4017707818654,467.7913803654497,-142.05329894531437,95.83333333333333,1.6337355636194373,0.1,0.010386228561401367,0.33094215393066406,0.04831464,0.057574544,181.423688513828,-0.020969430551701102,2.6978525017417225,95.83333333333333,6813,1.2866168022155762,0.4519599556241615,0.4377802873193135,-119.92392529618563,0.0
249,4.502309083938599,215.03963989832278,165.60604446447897,458.1346134010214,-114.6316798574166,100.0,1.9088274666635197,0.1,0.01177215576171875,0.3647501468658447,0.049068566,0.051287625,184.78528365227749,-0.02160798968101137,2.893530512630305,100.0,6740,1.1817083358764648,0.46934406203227186,0.43083693643161747,-115.93391984601797,0.0
250,3.615190029144287,242.92277908991375,165.00364328145898,460.6932728928416,-167.3427926785293,97.91666666666667,1.7219038778775384,0.1,0.011536121368408203,0.3731386661529541,0.048341002,0.055438094,190.59903319604112,-0.019520137250401925,3.2632687199036465,97.91666666666667,6828,1.2749300003051758,0.4021282495825745,0.378395216068335,-99.68227633248912,0.0
251,4.6807701587677,217.98095267333792,159.5304950018741,474.5965089811101,-155.87239527230528,94.79166666666667,1.7357455441792031,0.1,0.012351512908935547,0.34345555305480957,0.04835619,0.053594757,193.3372251437708,-0.01993363846645296,2.915478125476129,94.79166666666667,6814,1.3047659397125244,0.461627318150407,0.39101545221627165,-98.3343960296601,0.0
252,4.071670770645142,204.87229941224254,153.02924014729305,493.43851545078786,-91.1240962689076,96.875,1.8849913380904648,0.1,0.011971473693847656,0.3375248908996582,0.04728892,0.05051783,194.49073257061798,-0.02077307405470136,2.754553922589808,96.875,6795,1.3477346897125244,0.4243174318030871,0.40415322424436545,-90.39195667498092,0.0
253,4.781808614730835,250.61827156193758,142.48922257057114,500.20852204033645,-133.2947351935297,97.91666666666667,1.897520999474546,0.1,0.010840415954589844,0.34101343154907227,0.048388984,0.05081163,200.10348646974995,-0.01746731080379753,3.35520023487762,97.91666666666667,7016,1.3468787670135498,0.3568863051352831,0.3208796569398226,-78.37803152935938,0.0
254,4.406714677810669,230.91265058743602,173.93692001844943,502.4283942771311,-116.80605710567269,98.95833333333333,1.6706441909529322,0.1,0.01292729377746582,0.34560632705688477,0.04844677,0.059819374,203.18440288151857,-0.02113802408767604,3.091221947314592,98.95833333333333,6712,1.0885019302368164,0.41877347834749135,0.397875455312824,174.21509665798766,0.0
255,4.6982033252716064,227.27925820250957,166.49485594296038,460.700490779251,-171.61385278776243,97.91666666666667,1.6633541112124404,0.1,0.012203216552734375,0.314068078994751,0.044925496,0.052875593,205.59388841361766,-0.021126783403399768,3.0388350797118,97.91666666666667,6826,1.2912497520446777,0.42034620093696884,0.40542545733651836,160.880841611438,0.0
256,3.543491840362549,229.16625566519141,177.87978433013635,506.49023963632106,-123.68775632877495,98.95833333333333,1.770415983661126,0.1,0.013173103332519531,0.3360276222229004,0.04784048,0.05395009,207.95112513877504,-0.02106333292057058,3.059638502875945,98.95833333333333,6783,1.3706507682800293,0.4283915371284676,0.4192388292700361,-82.42978812017515,0.0
257,3.635636806488037,221.7959781373012,165.84395528562672,476.05571123761354,-159.7526751684894,94.79166666666667,1.8020182419628639,0.1,0.010803937911987305,0.3262937068939209,0.046619676,0.053228147,209.33561043862764,-0.02103290882961012,2.9556355131963468,94.79166666666667,6775,1.3421909809112549,0.40489616365950376,0.36598134410917094,-104.33910889753338,0.0
258,3.943603277206421,241.76008721517314,151.2409492265664,475.03118123316585,-119.25313529307026,98.95833333333333,1.9061199236921467,0.1,0.010338783264160156,0.33427000045776367,0.046084415,0.04897451,212.5780581162822,-0.018599645484071666,3.2403534734833763,98.95833333333333,6898,1.4587068557739258,0.36262786743117176,0.3341494436773234,-73.07786237791956,0.0
259,4.76830792427063,256.156655234555,166.63051484334187,467.09360019425145,-95.54397474876046,100.0,2.0073826132009245,0.1,0.01079869270324707,0.33000922203063965,0.047096558,0.04547677,216.9359178281095,-0.018955964825105063,3.4311321636105174,100.0,6858,1.3524260520935059,0.3333313504652171,0.30925430182028746,-70.76037475676316,0.0
260,3.790342092514038,234.18385824026984,177.4883016791014,507.10306263164154,-135.57928337801374,97.91666666666667,1.831113504548442,0.1,0.009270668029785156,0.35079073905944824,0.048861355,0.05365206,218.66071186932552,-0.02032436939434543,3.1273683777223575,97.91666666666667,6866,1.3773701190948486,0.44072500870659065,0.4135584496310678,-85.7801416767306,0.0
261,4.608990907669067,243.06829611472767,160.43104850697952,455.0784499899031,-110.50435644686529,98.95833333333333,1.714906513797522,0.1,0.010492086410522461,0.34213852882385254,0.04395897,0.053723875,221.10147029386576,-0.019717828923063032,3.259068576182038,98.95833333333333,6825,1.5381553173065186,0.3548932485753094,0.33926563028546114,-75.18962958102031,0.0
262,3.4846603870391846,251.9757591838758,158.10146635699536,490.50205698865005,-124.90501282803389,98.95833333333333,1.7926434363830315,0.1,0.011868000030517578,0.38226842880249023,0.047806483,0.053109623,224.18889918286675,-0.018834053801432337,3.370412916814672,98.95833333333333,6935,1.2474188804626465,0.35663790437198367,0.3418491387637489,-72.14754198755466,0.0
263,3.7584595680236816,240.7050567102534,164.6603012580404,476.03812215773326,-219.10198466210625,98.95833333333333,1.9674171648451713,0.1,0.011588096618652344,0.37333106994628906,0.049844768,0.050822046,225.8405149356054,-0.01897885667116411,3.2087672647200116,98.95833333333333,6915,1.3975861072540283,0.3890847220280426,0.3719278352290178,-92.9297160453843,0.0
264,3.7752323150634766,237.51722945023903,149.75829932316162,513.2551467984492,-167.081707507188,98.95833333333333,1.8108835148981777,0.1,0.01385951042175293,0.3520641326904297,0.04864449,0.0534331,227.00818638706878,-0.018695466440411656,3.1693199189391925,98.95833333333333,6923,1.410445213317871,0.357062312022261,0.34065958173656646,-80.90201259554703,0.0
265,3.7632346153259277,237.77508570412036,170.01921135098092,492.9676821699555,-186.5171821528498,94.79166666666667,1.788220199800924,0.1,0.009929180145263672,0.3569300174713135,0.048021063,0.05262816,228.08487631877395,-0.018747525809760367,3.16688914155046,94.79166666666667,6931,1.4378323554992676,0.4230283389230084,0.3954185666992604,-53.706325808629806,0.0
266,4.624094247817993,242.70816888584628,152.15792671657428,490.4183173312089,-195.24417356745016,97.91666666666667,1.7149646657384061,0.1,0.03142976760864258,0.37862420082092285,0.049177606,0.054556333,229.54720557548117,-0.01840905537828113,3.2360807970721748,97.91666666666667,6964,1.3972177505493164,0.35581554903101575,0.33908044227014167,-56.18024661969825,0.0
267,3.826104164123535,258.1193518012395,160.15350834512265,519.2279328608521,-131.33195897765893,97.91666666666667,1.8492058687221098,0.1,0.010542869567871094,0.3154938220977783,0.046375286,0.051739458,232.404420198057,-0.018158768991607774,3.434859347349628,97.91666666666667,6939,1.3949718475341797,0.3515105164715676,0.33090695151245925,-55.41669095573958,0.0
268,3.7226319313049316,245.03303617081633,163.70808445103245,497.7721256499571,-100.06453616100447,100.0,1.8041607075686523,0.1,0.01165008544921875,0.36123156547546387,0.049271334,0.054376874,233.66728179533294,-0.018949821452990626,3.280213545414213,100.0,6924,1.3994777202606201,0.3748790727926733,0.36001099704811995,186.48629880302246,0.0
269,3.7594027519226074,255.32936064325182,176.48232433351552,492.2342350381129,-99.65566558242983,100.0,1.786350359570428,0.1,0.02063274383544922,0.32592010498046875,0.04428345,0.05076652,235.83348968012484,-0.019988517178834746,3.4044845473822463,100.0,6822,1.5414698123931885,0.38185320743661544,0.364999830844359,178.33958550732146,0.0
270,3.8044097423553467,249.63919003565056,176.21177538995167,507.5133820106782,-157.3774978894086,98.95833333333333,1.6969333475342452,0.1,0.012749433517456055,0.3273792266845703,0.048219185,0.054486603,237.21405971567742,-0.019465047751088958,3.345397747094904,98.95833333333333,6791,1.2938964366912842,0.37495970134402556,0.35844642876885485,184.79981951002145,0.0
271,4.17397665977478,256.03930251365233,165.139130003605,520.2617629395559,-130.6044469125971,98.95833333333333,1.7694835789721908,0.1,0.01134800910949707,0.3379523754119873,0.04468048,0.05219877,239.0965839954749,-0.019558855270147526,3.420201956613037,98.95833333333333,6879,1.3665771484375,0.3502744444751727,0.3283441184747091,-23.224238332877835,0.0
272,3.458574056625366,224.78322467600515,173.5602845037144,480.0944306293421,-110.30437919992906,97.91666666666667,1.811253126925384,0.1,0.014682531356811523,0.3348877429962158,0.047850344,0.053415637,237.66524806352794,-0.021244024845765697,3.021497631699255,97.91666666666667,6817,1.4192531108856201,0.4369035083088601,0.40650566658424026,-73.41835218507579,0.0
273,4.443378448486328,275.69420853983405,153.73548589495087,481.55486064177313,-136.1322275305178,95.83333333333333,1.9692408683070919,0.1,0.020992279052734375,0.3348119258880615,0.050504666,0.049665686,241.46814411115858,-0.01659254682281032,3.6884005667259103,95.83333333333333,6978,1.3714277744293213,0.303195777573572,0.2846777335591921,177.28039642320127,0.0
274,3.8815178871154785,274.0693990366852,146.10417041031175,502.92427495603425,-50.89356814817234,100.0,1.8735216667681744,0.1,0.009854316711425781,0.3548250198364258,0.047305673,0.05375821,244.72826960371125,-0.01705228829950337,3.661714563710117,100.0,7023,1.4365339279174805,0.29135450948172087,0.27177773755223755,42.58238427796941,0.0
275,3.7269842624664307,270.24419961250834,137.03259670769353,484.6408322702224,-70.79934755464585,98.95833333333333,1.9715098391040342,0.1,0.0190122127532959,0.3585536479949951,0.049035694,0.04871784,247.27986260459096,-0.01637335126224607,3.600410408343919,98.95833333333333,6998,1.3964650630950928,0.254593456782452,0.25143626110731376,15.559622106371325,0.0
276,3.9123573303222656,255.32064663478045,155.8662942339695,517.5872655426302,-125.05367335090679,95.83333333333333,1.8709527380361732,0.1,0.039096832275390625,0.3500025272369385,0.049512215,0.05261899,248.08394100760992,-0.017664453498943213,3.4171152377783542,95.83333333333333,6961,1.3614022731781006,0.33982249008031373,0.32370841016913665,185.5815999346075,0.0
277,3.7744956016540527,265.03858029408224,160.5514315191276,502.03733406795715,-195.29977473435204,96.875,1.8751848648905445,0.1,0.011785745620727539,0.33020710945129395,0.046777487,0.04495883,249.77940493625718,-0.017933545018316795,3.5348819111218384,96.875,6903,1.5024564266204834,0.3123632319609309,0.2934452657666604,185.34240893927318,0.0
278,3.5591208934783936,262.2940993632127,168.1449337549174,511.74389501679656,-86.82165465888939,100.0,1.7133732140276767,0.1,0.018463850021362305,0.36197686195373535,0.044246532,0.053367496,251.03087437895275,-0.019287287149241165,3.512260890442215,100.0,6860,1.4730398654937744,0.33629975618047,0.3181764971263197,-29.372569292008126,0.0
279,4.635545253753662,299.53588214545795,151.12213739276135,510.6425201606681,-176.66058107070342,98.95833333333333,1.9262920498909943,0.1,0.010056734085083008,0.3503098487854004,0.04780506,0.045343257,255.88137515560325,-0.01590502153390546,3.9864058747402447,98.95833333333333,7004,1.368330717086792,0.2685670598858155,0.244678365968516,-68.95248843384901,0.0
280,3.9732134342193604,280.7929776080202,152.27698468632713,480.6261902582114,-119.45558866095124,100.0,1.7736020831764743,0.1,0.011338949203491211,0.3616764545440674,0.048399355,0.05421617,258.3725354008449,-0.016882374719325025,3.74348772104714,100.0,6988,1.441375970840454,0.2793909110048321,0.26942944901602306,177.05125780134472,0.0
281,4.0323615074157715,280.70616059877807,170.83112750502926,503.39243650704833,-98.27672039907759,98.95833333333333,1.7351021419998434,0.1,0.010886192321777344,0.3334999084472656,0.04622312,0.05726212,260.60589792063826,-0.01784744853508079,3.7489809596591406,98.95833333333333,6926,1.527083158493042,0.32621461203154917,0.31237568441298774,194.63811890235561,0.0
282,3.4567015171051025,290.32541072546854,161.7210750447741,502.4246842958537,-90.1336786991273,100.0,1.8698754745800905,0.1,0.011435508728027344,0.40342020988464355,0.04788811,0.050245583,263.5778492011213,-0.017567010932644223,3.8786689065541595,100.0,6918,1.343581199645996,0.2873394183505572,0.2732150781951531,196.81746197921032,0.0
283,4.6027820110321045,300.8224809167388,158.98862700070958,497.78997590627466,-139.42394232737814,98.95833333333333,1.758121479075273,0.1,0.022542238235473633,0.3651869297027588,0.048093714,0.055144995,267.30231237268305,-0.01672901991120226,4.009507346391243,98.95833333333333,6938,1.339015007019043,0.25977401827611757,0.2525918987379476,164.87916013814828,0.0
284,3.854012966156006,308.87400681041635,151.40271997414484,522.9576781750641,-115.72698450751986,98.95833333333333,1.7922874574336827,0.1,0.011993885040283203,0.35474681854248047,0.048341002,0.051815953,271.4594818164564,-0.016095319212422392,4.118441841577886,98.95833333333333,7051,1.4566798210144043,0.26204106827625134,0.25389084321699934,120.06846955530413,0.0
285,3.7583184242248535,306.6859945466295,161.44712619062062,514.1238864281353,-152.30726951322652,98.95833333333333,1.9576997957270081,0.1,0.011208534240722656,0.380481481552124,0.047471467,0.047090434,274.98213308947373,-0.01688602126228893,4.094805182272484,98.95833333333333,7008,1.397568702697754,0.290888787576925,0.281534207781571,-89.50497124026823,0.0
286,4.616597414016724,280.79556834231,173.88048596708717,511.9366665132563,-141.46386050929652,100.0,1.799957412055649,0.1,0.011279821395874023,0.33739209175109863,0.048074357,0.053644065,275.5634766147574,-0.018402540145203473,3.768905947949957,100.0,6858,1.4308490753173828,0.3275761642152881,0.30846779510468314,-101.98493613117164,0.0
287,3.7335708141326904,285.786713768183,165.6499871328903,511.54497400899635,-139.54758363771066,100.0,1.8103514852110347,0.1,0.012155294418334961,0.3406250476837158,0.04946256,0.051915146,276.58580033009997,-0.01785988202334673,3.8143943159657496,100.0,6960,1.3157899379730225,0.3372796055711435,0.3263035564045271,-91.0660537751592,0.0
288,4.753073692321777,301.87724353279094,169.02575287977245,507.51268551578477,-123.49126982450346,100.0,1.9841971264065068,0.1,0.013180971145629883,0.33812451362609863,0.049406644,0.048481446,279.11494465036907,-0.01709877805275191,4.025409789230476,100.0,6877,1.1847708225250244,0.27163880642383337,0.2617818277659829,-86.98016741937816,0.0
289,4.712698459625244,292.9082515210188,160.13220102531412,499.0503843487146,-119.51812664938151,98.95833333333333,1.918754477183586,0.1,0.011377811431884766,0.333237886428833,0.048939943,0.048683077,280.49427533743403,-0.016938425645314975,3.9112649599367386,98.95833333333333,6956,1.147794485092163,0.287534129751948,0.2678504507489178,-89.86520602318922,0.0
290,3.768057346343994,278.67121423346515,168.94661466695135,511.78840733738923,-194.76719403315607,98.95833333333333,1.8521052693274636,0.1,0.011131763458251953,0.34769630432128906,0.047643594,0.048847537,280.31196922703714,-0.017754238079887925,3.735038267315367,98.95833333333333,6909,1.3509957790374756,0.30874548091218945,0.30158768579679845,-90.57150549587622,0.0
291,4.152369976043701,294.4380572862755,153.08056782950013,500.2564250703906,-132.93477514303032,98.95833333333333,1.7987796428271812,0.1,0.01066446304321289,0.3499777317047119,0.046541147,0.04908809,281.72457803296095,-0.01635745290866897,3.9399376709465663,98.95833333333333,7066,1.345583438873291,0.3041452878805526,0.26598776249675615,-96.9912195347036,0.0
292,4.840353488922119,301.12914309780473,133.74010155713128,492.5841322874595,-95.20839466822446,98.95833333333333,1.885069065306078,0.1,0.013692140579223633,0.3363375663757324,0.0478009,0.049982235,283.66503453944534,-0.01499340985616536,4.016876336424066,98.95833333333333,7072,1.3549702167510986,0.22900448360711284,0.22001317763847683,-93.91023627171703,0.0
293,3.7494075298309326,320.6011820250444,133.03634632655485,505.2320368903538,-67.38608373243378,100.0,1.7634610988306774,0.1,0.01979660987854004,0.3792259693145752,0.049948443,0.05583002,287.35864928800527,-0.014573448972116048,4.280618950554167,100.0,7082,1.274385690689087,0.200413557654248,0.19087577249061075,-77.02309293073971,0.0
294,4.633025884628296,329.95299620305286,142.83080305014118,502.05409061803454,-94.99538922066057,100.0,2.0229590287234025,0.1,0.010602235794067383,0.3633403778076172,0.048151944,0.043922972,291.61808397951,-0.014436955841319038,4.400465789098674,100.0,7095,1.534825086593628,0.20736804579706425,0.20091836646767092,-75.14325506299508,100.0
295,3.651512384414673,326.23241756618376,166.1339368571431,516.1813363289901,-112.78390486874429,100.0,1.7053242706606642,0.1,0.011624813079833984,0.33355045318603516,0.045514237,0.05221165,295.07951733817737,-0.015823305387112557,4.354076954028803,100.0,6969,1.2444522380828857,0.25258081401834676,0.23553102983704186,-85.46206506905901,0.0
296,4.610304832458496,306.3136675834247,162.6422965895468,500.9974487571332,-115.71913294783302,100.0,1.815618176570791,0.1,0.011085271835327148,0.35153675079345703,0.048748516,0.052462462,296.20293236270214,-0.017019999776978767,4.082806023716118,100.0,6956,1.3459563255310059,0.259780778707325,0.2509265356840527,-83.26258186115098,0.0
297,3.8313632011413574,294.9860871026999,163.66541835966856,499.4128135037215,-130.85535519548068,100.0,1.8508330784115927,0.1,0.011133909225463867,0.3423128128051758,0.048075248,0.05095419,296.08124783670195,-0.016834498395090127,3.944669093556359,100.0,6911,1.3694677352905273,0.2759156096559281,0.2618636982719259,-81.65516711640728,0.0
298,3.8095099925994873,299.7278696989653,168.68606252580022,510.2068549860482,-156.53260918183483,100.0,1.8182828705849319,0.1,0.013586044311523438,0.33643412590026855,0.04730473,0.05254824,296.4459100229283,-0.01728319776354839,4.006857669302973,100.0,6919,1.3618102073669434,0.28215072052555656,0.27052060782439447,-68.88222611553978,100.0
299,3.847489833831787,308.0868297094816,172.30695330435407,515.5422655819914,-122.18088077440942,100.0,1.8129558402501875,0.1,0.011755704879760742,0.3517739772796631,0.048163414,0.04992411,297.6100019915836,-0.017311882121853226,4.11277804435327,100.0,6939,1.3467869758605957,0.2718960468311073,0.272998136445573,172.75033429643824,0.0
300,3.8721117973327637,289.51632537490656,181.90892054271652,520.4781101806851,-149.96077636565028,98.95833333333333,1.8179390981055374,0.1,0.012688875198364258,0.3617837429046631,0.04967274,0.052801646,296.8006343299159,-0.019228419463858115,3.8719496204415074,98.95833333333333,6867,1.398655652999878,0.3389910579427485,0.312372591565775,-77.66890955871584,0.0
301,4.903116464614868,327.93380279454175,149.65270179511774,503.7597183569868,-68.14131271518937,100.0,1.957435152783883,0.1,0.012137889862060547,0.34476327896118164,0.04724674,0.045394957,299.91395117637853,-0.0158575056797231,4.377424546633809,100.0,7015,1.4592485427856445,0.24426373039596166,0.21922108180712213,-98.35361804870008,0.0
302,3.736168146133423,312.07336685936184,160.6086275669503,518.5264684774738,-80.20458726569674,100.0,1.7905311604101986,0.1,0.012416839599609375,0.3661069869995117,0.045240726,0.050431624,301.12989274467685,-0.016340244401989508,4.182158517531846,100.0,6975,1.5144479274749756,0.24865467821891266,0.23403574780594455,-98.73120186750575,0.0
303,3.7582833766937256,317.0269194977507,165.86262421368204,510.7525290505779,-86.79190413230913,100.0,1.8850480418280533,0.1,0.010702371597290039,0.3357369899749756,0.044990003,0.045891624,302.7195954199842,-0.016519420995577534,4.230178039231315,100.0,6989,1.4381887912750244,0.27042820480185387,0.251014101413433,-101.50912662243842,0.0
304,3.7510225772857666,312.17658283326153,155.4448426794858,514.0930123562351,-78.83284488551178,100.0,1.7915138532122343,0.1,0.009155750274658203,0.34406304359436035,0.048093278,0.05221969,303.665294161312,-0.015681268795911422,4.15553402365401,100.0,6959,1.232651948928833,0.23141263260138836,0.22362913671048307,-69.86677701013642,0.0
305,3.8069205284118652,307.3293407222031,149.8951477449381,504.73313139954047,-62.55897760620938,100.0,1.8676482470692424,0.1,0.011863231658935547,0.3599679470062256,0.049679507,0.04953314,304.0316988174011,-0.01589179228983544,4.091724695562552,100.0,7045,1.460707187652588,0.23407167876466115,0.22770966402083434,-65.30130300401498,0.0
306,4.185957670211792,348.66634239049444,136.201543496769,513.2621565108946,-152.74706682390664,100.0,1.9315344468571678,0.1,0.009772777557373047,0.33736157417297363,0.04914649,0.051432908,308.49516317471046,-0.01390681397513989,4.640204317312907,100.0,7109,1.3951704502105713,0.17762810881039817,0.16145989227480534,-64.44830585419741,0.0
307,3.607717275619507,317.8979211181783,178.69069754083128,509.42322822713476,-185.50115286985215,97.91666666666667,1.8832236157683702,0.1,0.010982513427734375,0.34559178352355957,0.04780351,0.047550492,309.43543896905726,-0.01629365698944468,4.238571977814152,97.91666666666667,6951,1.3365247249603271,0.27558752961785105,0.26370574391613866,-70.27062807988689,100.0
308,3.7934422492980957,337.1080881205006,152.37822687966613,512.2081616447563,-148.5857181930034,100.0,1.8669020698862273,0.1,0.010776519775390625,0.3272438049316406,0.048074335,0.048740372,312.2027038842016,-0.014802834100220458,4.505557448534614,100.0,7084,1.4533016681671143,0.23500054893783412,0.21976789104795116,-73.45980427429966,0.0
309,3.710559606552124,310.2177713400561,167.4769275910109,507.18772884726286,-97.83312310164125,100.0,1.919397566369665,0.1,0.012153387069702148,0.3642270565032959,0.05009668,0.048909537,312.00421062978705,-0.016774912455971614,4.12865342189724,100.0,6974,1.3920261859893799,0.26390979361001937,0.24584979966293313,-68.22985054247799,0.0
310,4.219496011734009,329.90645292145666,136.11043096200433,513.9195369210246,-87.0202962859698,100.0,1.9817989386196055,0.1,0.011519432067871094,0.36502671241760254,0.04770141,0.047022935,313.794434858954,-0.014192332247046116,4.40140910664804,100.0,7076,1.407716989517212,0.19662654762599927,0.17919554545390676,172.45680070265175,0.0
311,4.080857038497925,339.7776521671404,145.5990785915115,508.7787285188274,-70.50729149026536,100.0,1.9813169826043848,0.1,0.013193368911743164,0.34642577171325684,0.05103284,0.049124133,316.39275658977266,-0.014494608521060943,4.5298207828799795,100.0,7007,1.3160197734832764,0.19051098543945175,0.18829586041968052,181.41479356898836,0.0
312,3.5273377895355225,332.30813460124335,172.45001733918312,517.2133705462134,-135.05532320050094,98.95833333333333,1.7633932767980185,0.1,0.02254033088684082,0.3280017375946045,0.04960391,0.052865222,317.98429439091973,-0.01621467139014071,4.431152558514673,98.95833333333333,6988,1.2611103057861328,0.25289339743334077,0.24238198818424558,204.25969964939912,0.0
313,3.7663846015930176,347.2876039231484,163.16364403204904,515.3111893334509,-179.78873356304652,98.95833333333333,1.8163306853066066,0.1,0.010091066360473633,0.3627495765686035,0.04760682,0.049547922,320.91462534414256,-0.014960682570875294,4.622062902228737,98.95833333333333,7016,1.3038914203643799,0.21819824533114254,0.2134727448420998,198.4170652259998,0.0
314,4.851689338684082,363.51139221713146,144.1369263584141,512.6429252228019,-40.06390472616835,98.95833333333333,1.8747574812218402,0.1,0.009469032287597656,0.3428521156311035,0.047095936,0.04920857,325.17430203144147,-0.013662988817839528,4.837027462398936,98.95833333333333,7073,1.3532428741455078,0.17318766186592757,0.17857052943926277,183.36918657926216,0.0
315,3.831059455871582,370.78248201410315,143.51081515915334,522.4344136594149,-54.079168403004566,100.0,1.8698676808485766,0.1,0.012871265411376953,0.3396749496459961,0.04815226,0.05061,329.7351200297076,-0.013608575833138048,4.954863336565,100.0,7051,1.4408447742462158,0.16628173466631135,0.15053065306233313,196.8450927257741,0.0
316,4.670298099517822,327.6754439721299,174.04290064388255,512.9222655589222,-115.82458037374414,100.0,1.9302908345702918,0.1,0.035010576248168945,0.3441486358642578,0.04831055,0.04668436,329.5291524239498,-0.016408008628204337,4.373278366022226,100.0,6932,1.4774761199951172,0.267367301018741,0.2334960230633373,194.28635181838408,0.0
317,4.9994072914123535,342.432783306943,174.3605406527677,520.0040781648464,-149.87642901214673,100.0,1.8604065957010287,0.1,0.01854991912841797,0.3442423343658447,0.048331033,0.049248286,330.81951551224915,-0.015410392869678222,4.558094665900647,100.0,7011,1.425593376159668,0.25434891197662446,0.2474941837431242,185.62298998636163,0.0
318,4.835438251495361,391.29462479800276,133.80648988340607,518.2516790074825,-51.03326817335653,100.0,1.9446728109388782,0.1,0.013007879257202148,0.3353433609008789,0.049221717,0.047340747,336.86702644082453,-0.012633073455520597,5.2143416977176,100.0,7094,1.4044151306152344,0.1438557442221524,0.12311633357276125,188.24257588981243,0.0
319,3.7105557918548584,359.66474600859465,159.8159518776193,521.5515250878061,-132.59248408185593,100.0,1.8032559037839968,0.1,0.013056516647338867,0.3954176902770996,0.046997096,0.046786293,339.1467983976015,-0.014712708187055971,4.813530779954163,100.0,7032,1.3896207809448242,0.19770671883371188,0.18064495172536088,188.82233005139045,0.0
320,4.830718994140625,345.4097893270908,172.14706454626284,519.2568330022074,-136.30578437317513,100.0,1.8951263186456908,0.1,0.012065649032592773,0.32074928283691406,0.04847653,0.04638234,339.77309749055047,-0.01563527891566358,4.596255485708868,100.0,6903,1.356297254562378,0.21377099089743218,0.18259958871288512,171.46919155952494,0.0
321,3.534640073776245,352.0077559221022,165.09681783954613,517.494876674486,-163.56573613875156,98.95833333333333,1.9416270878972215,0.1,0.030181169509887695,0.37032008171081543,0.047963362,0.045515835,340.99656333370564,-0.014957330245262185,4.683588585365759,98.95833333333333,6971,1.2591094970703125,0.1983833597853168,0.18482433370938403,202.22695488404665,100.0
322,4.632756471633911,357.16033204528276,155.3091499819241,522.6136227961407,-174.9818685561438,98.95833333333333,1.8469095392164074,0.1,0.010527849197387695,0.36981773376464844,0.046395916,0.048004813,342.6129402048634,-0.01441669432629606,4.767428621796979,98.95833333333333,7035,1.400754690170288,0.17470582102188326,0.16801863329281558,187.7883230651894,0.0
323,3.6608548164367676,338.4202481778864,154.83423238416847,509.2491692431992,-159.38524266278748,97.91666666666667,1.9189274618714287,0.1,0.012454032897949219,0.3534660339355469,0.04731872,0.046786238,342.1936710021657,-0.015276401825394996,4.511756694971102,97.91666666666667,7015,1.319467306137085,0.1900712920479205,0.18584732070729737,0.6540963525997778,0.0
324,4.629857301712036,367.6127438756536,124.78214046403427,516.5069713822902,-63.86118369889156,100.0,1.7625973616139072,0.1,0.029869556427001953,0.325101375579834,0.046386972,0.049420558,344.7355782895145,-0.012896741120404717,4.8988314079713255,100.0,7073,1.2489013671875,0.13897619541020706,0.13291139240506328,188.9397657020557,0.0
325,3.747983694076538,342.3843569300689,163.16000270590519,517.8360242075431,-174.94696783619267,98.95833333333333,1.8145885160413397,0.1,0.011726140975952148,0.34102487564086914,0.04765519,0.04964875,344.50045615357,-0.015006159038864783,4.56548762117055,98.95833333333333,6991,1.2249948978424072,0.2200661868422737,0.21696845749434282,194.03901057127098,0.0
326,4.080104827880859,361.3679311075357,153.30798604085925,521.0918037423598,-147.7736366122415,100.0,1.8536302893876984,0.1,0.011389732360839844,0.34476375579833984,0.049027868,0.047718763,346.18720364896654,-0.013894205967878418,4.8112911310917665,100.0,7020,1.254969835281372,0.18489847664387662,0.16457887282205663,205.22840364158387,100.0
327,4.701390981674194,360.19488046452426,129.4144267563943,517.9849165817072,-187.71012665249515,98.95833333333333,1.8950110877636452,0.1,0.012296438217163086,0.3515048027038574,0.048769865,0.05007819,347.5879713305223,-0.012897799306913196,4.795082875784175,98.95833333333333,7123,1.3166606426239014,0.1536753567370426,0.1331253777691124,208.01808620882798,100.0
328,4.777161359786987,375.18907242964497,131.8152870521484,516.3473641028445,-103.78156440449516,98.95833333333333,2.0830413300904933,0.1,0.012637615203857422,0.3539001941680908,0.04782212,0.04283503,350.34808144043456,-0.012501458119597712,5.004119032489734,98.95833333333333,7116,1.38041090965271,0.14435922208001759,0.14138604453209677,216.02135295206446,100.0
329,3.674406051635742,384.09832792677497,134.9263113930251,515.4506248484649,-49.40573487701925,100.0,1.9164132980842956,0.1,0.011623620986938477,0.3560655117034912,0.046775546,0.04677714,353.7231060890686,-0.012727337808157616,5.1193032751363425,100.0,7080,1.291128158569336,0.14792530699244358,0.12940713245263777,210.91924277077953,100.0
330,4.942773818969727,342.729920251154,163.45661136949582,520.5370306832531,-148.62586161396302,100.0,1.8856312830712865,0.1,0.014091253280639648,0.31351375579833984,0.04637013,0.04565397,352.62378750527716,-0.015226609670511893,4.580051256706953,100.0,6974,1.1796457767486572,0.2264684702854562,0.1996604620264902,192.11547358188685,0.0
331,3.961733102798462,366.64694682423993,128.55463035389843,522.2959235386555,-48.00252345285513,100.0,1.8746755615478041,0.1,0.013103723526000977,0.341721773147583,0.049119335,0.05023967,354.02610343717345,-0.01281646431542683,4.904273690757109,100.0,7134,1.289555311203003,0.14559341643249224,0.14162377548609428,210.69951166441678,100.0
332,4.20639181137085,349.64335824124555,168.7238402685743,519.113117437593,-93.77413667454584,100.0,1.8499889809924253,0.1,0.010880470275878906,0.3421473503112793,0.047336508,0.046847127,353.5878289175806,-0.015244131408033804,4.669998412710428,100.0,7011,1.4919753074645996,0.22368096235221,0.21170117399457292,199.56838565814033,0.0
333,4.727079391479492,328.97813483185087,165.9320803768233,506.7293085638134,-174.3383799381739,98.95833333333333,1.9366514819412917,0.1,0.012450933456420898,0.3167247772216797,0.049301572,0.046881758,351.12685950900766,-0.016283785472780622,4.388085649481127,98.95833333333333,6972,1.3203418254852295,0.23601948486823343,0.21351115156437198,204.59824038258645,100.0
334,3.6606178283691406,373.8587271798735,147.7038896558644,516.9718290404503,-56.90579172160402,100.0,1.958378660853076,0.1,0.010746002197265625,0.3320963382720947,0.047381718,0.046536345,353.40004627609426,-0.013782332783919998,4.981479935606564,100.0,7047,1.3241217136383057,0.17578866170321644,0.1647326968272245,206.76816122709468,100.0
335,4.7130677700042725,393.3812491890698,134.7012981419988,523.6327596495473,-46.943843465892016,100.0,1.8749067437695222,0.1,0.04142141342163086,0.34915590286254883,0.049448725,0.048848066,357.39816656739185,-0.012286735101845131,5.25239165131259,100.0,7084,1.2778151035308838,0.14021958062323114,0.1381866272828907,213.19342796288763,100.0
336,3.7247819900512695,383.2179144038018,152.75191907657148,522.261365098727,-90.32181895812346,100.0,1.9143646344400795,0.1,0.01161336898803711,0.3523111343383789,0.04808286,0.04613389,359.9801413510329,-0.013506359909027627,5.121054070706093,100.0,7061,1.3681550025939941,0.1719744680921719,0.16599289184513155,237.13362915400614,100.0
337,4.893184423446655,370.6013558417294,152.6055243067001,514.3699432646848,-68.33431242801024,100.0,1.8649555910790825,0.1,0.04532814025878906,0.37877726554870605,0.047025833,0.047757275,361.04226280010255,-0.01398890977713207,4.941240752502716,100.0,7024,1.2566452026367188,0.1644355538918025,0.1609685794410403,272.27631740698155,100.0
