Iter | Sampling Pol | Evaluation Pol | Best (Sampled) 
   0 -231.91 -277.32 -100000000.00 
   1 -232.33 -264.85 -231.91 
   2 -232.88 -282.89 -231.91 
   3 -232.41 -267.16 -231.91 
   4 -230.40 -294.26 -231.91 
   5 -227.68 -268.02 -230.40 
   6 -231.45 -280.08 -227.68 
   7 -231.15 -280.90 -227.68 
   8 -229.68 -304.72 -227.68 
   9 -226.65 -273.03 -227.68 
  10 -225.85 -338.43 -226.65 
  11 -225.90 -320.84 -225.85 
  12 -227.96 -344.42 -225.85 
  13 -223.97 -344.12 -225.85 
  14 -226.92 -336.57 -223.97 
  15 -221.86 -320.09 -223.97 
  16 -223.07 -315.47 -221.86 
  17 -223.18 -329.83 -221.86 
  18 -221.48 -325.26 -221.86 
  19 -220.70 -301.10 -221.48 
  20 -221.54 -306.30 -220.70 
  21 -218.05 -305.59 -220.70 
  22 -219.25 -292.20 -218.05 
  23 -218.18 -274.02 -218.05 
  24 -215.76 -248.57 -218.05 
  25 -217.92 -271.01 -215.76 
  26 -212.49 -246.72 -215.76 
  27 -212.43 -230.78 -212.49 
  28 -210.16 -207.45 -212.43 
  29 -210.24 -219.64 -210.16 
  30 -207.50 -211.24 -210.16 
  31 -208.72 -216.28 -207.50 
  32 -208.03 -230.26 -207.50 
  33 -207.88 -228.30 -207.50 
  34 -205.05 -203.73 -207.50 
  35 -205.51 -227.26 -205.05 
  36 -206.21 -218.89 -205.05 
  37 -201.80 -218.83 -205.05 
  38 -201.57 -214.79 -201.80 
  39 -200.86 -244.16 -201.57 
  40 -195.20 -230.96 -200.86 
  41 -198.22 -231.34 -195.20 
  42 -198.52 -247.96 -195.20 
  43 -195.94 -226.76 -195.20 
  44 -197.02 -224.46 -195.20 
  45 -194.36 -235.79 -195.20 
  46 -193.81 -240.66 -194.36 
  47 -192.78 -211.28 -193.81 
  48 -193.68 -212.51 -192.78 
  49 -192.74 -234.26 -192.78 
  50 -191.26 -223.99 -192.74 
  51 -193.53 -229.18 -191.26 
  52 -190.11 -216.05 -191.26 
  53 -189.15 -218.52 -190.11 
  54 -190.32 -219.42 -189.15 
  55 -188.73 -221.60 -189.15 
  56 -190.59 -191.50 -188.73 
  57 -184.09 -174.61 -188.73 
  58 -187.05 -156.17 -184.09 
  59 -186.79 -178.24 -184.09 
  60 -185.31 -153.65 -184.09 
  61 -179.24 -164.43 -184.09 
  62 -182.36 -151.98 -179.24 
  63 -182.01 -180.49 -179.24 
  64 -181.72 -171.40 -179.24 
  65 -178.03 -177.96 -179.24 
  66 -177.32 -155.84 -178.03 
  67 -178.18 -160.94 -177.32 
  68 -176.33 -173.57 -177.32 
  69 -172.87 -166.66 -176.33 
  70 -176.74 -170.27 -172.87 
  71 -173.06 -146.55 -172.87 
  72 -174.85 -163.00 -172.87 
  73 -174.23 -153.47 -172.87 
  74 -172.99 -142.75 -172.87 
  75 -167.20 -149.42 -172.87 
  76 -172.51 -149.51 -167.20 
  77 -170.48 -149.26 -167.20 
  78 -170.31 -146.73 -167.20 
  79 -166.33 -149.25 -167.20 
  80 -165.87 -131.93 -166.33 
  81 -167.22 -128.25 -165.87 
  82 -165.72 -152.35 -165.87 
  83 -167.92 -154.56 -165.72 
  84 -168.78 -137.91 -165.72 
  85 -165.14 -129.88 -165.72 
  86 -169.73 -155.96 -165.14 
  87 -165.73 -129.23 -165.14 
  88 -163.65 -144.55 -165.14 
  89 -164.14 -128.75 -163.65 
  90 -162.86 -152.17 -163.65 
  91 -162.96 -149.67 -162.86 
  92 -163.89 -120.53 -162.86 
  93 -159.80 -135.45 -162.86 
  94 -162.57 -143.31 -159.80 
  95 -157.38 -134.71 -159.80 
  96 -157.45 -131.34 -157.38 
  97 -159.08 -134.87 -157.38 
  98 -157.00 -134.72 -157.38 
  99 -160.01 -136.77 -157.00 
 100 -155.40 -93.62 -157.00 
 101 -156.62 -92.52 -155.40 
 102 -155.26 -105.90 -155.40 
 103 -154.24 -80.97 -155.26 
 104 -154.31 -49.37 -154.24 
 105 -152.09 -50.39 -154.24 
 106 -153.95 -55.45 -152.09 
 107 -150.36 -64.80 -152.09 
 108 -151.85 -64.48 -150.36 
 109 -149.51 -93.43 -150.36 
 110 -152.10 -107.66 -149.51 
 111 -148.97 -116.42 -149.51 
 112 -146.77 -113.23 -148.97 
 113 -147.09 -107.99 -146.77 
 114 -143.59 -63.11 -146.77 
 115 -142.06 -85.57 -143.59 
 116 -143.78 -73.72 -142.06 
 117 -143.11 -101.27 -142.06 
 118 -141.66 -53.85 -142.06 
 119 -142.16 -40.01 -141.66 
 120 -137.70 -54.05 -141.66 
 121 -137.94 -100.81 -137.70 
 122 -139.92 -83.49 -137.70 
 123 -135.74 -109.04 -137.70 
 124 -135.05 -143.72 -135.74 
 125 -135.82 -98.57 -135.05 
 126 -131.12 -92.02 -135.05 
 127 -131.80 -82.00 -131.12 
 128 -128.88 -73.12 -131.12 
 129 -129.66 -95.93 -128.88 
 130 -127.75 -95.17 -128.88 
 131 -123.44 -82.06 -127.75 
 132 -123.59 -99.40 -123.44 
 133 -117.27 -91.81 -123.44 
 134 -119.42 -106.99 -117.27 
 135 -119.63 -70.99 -117.27 
 136 -112.60 -81.88 -117.27 
 137 -113.63 -91.60 -112.60 
 138 -111.30 -80.29 -112.60 
 139 -113.42 -110.38 -111.30 
 140 -114.06 -106.23 -111.30 
 141 -109.50 -73.66 -111.30 
 142 -111.39 -95.10 -109.50 
 143 -105.36 92.50 -109.50 
 144 -101.42 215.74 -105.36 
 145 -104.08 209.78 -101.42 
 146 -95.71 125.40 -101.42 
 147 -86.40 89.91 -95.71 
 148 -99.71 170.19 -86.40 
 149 -97.96 244.02 -86.40 
 150 -89.65 198.05 -86.40 
 151 -87.38 84.86 -86.40 
 152 -88.04 90.10 -86.40 
 153 -93.67 81.42 -86.40 
 154 -87.10 33.99 -86.40 
 155 -83.56 106.12 -86.40 
 156 -88.63 165.47 -83.56 
 157 -82.06 164.27 -83.56 
 158 -79.21 165.27 -82.06 
 159 -80.25 170.36 -79.21 
 160 -78.78 167.35 -79.21 
 161 -84.00 170.57 -78.78 
 162 -75.11 169.89 -78.78 
 163 -79.69 170.57 -75.11 
 164 -75.04 173.28 -75.11 
 165 -68.60 172.04 -75.04 
 166 -69.58 173.36 -68.60 
 167 -69.16 172.08 -68.60 
 168 -69.54 169.03 -68.60 
 169 -65.23 146.93 -68.60 
 170 -68.58 139.96 -65.23 
 171 -57.55 153.85 -65.23 
 172 -66.15 147.00 -57.55 
 173 -52.55 156.99 -57.55 
 174 -51.44 168.64 -52.55 
 175 -51.52 170.34 -51.44 
 176 -53.77 168.76 -51.44 
 177 -43.48 169.02 -51.44 
 178 -46.57 168.05 -43.48 
 179 -45.16 148.00 -43.48 
 180 -34.94 137.55 -43.48 
 181 -37.35 126.67 -34.94 
 182 -36.81 108.27 -34.94 
 183 -25.03 104.03 -34.94 
 184 -23.69 73.02 -25.03 
 185 -28.65 86.04 -23.69 
 186 -21.15 94.75 -23.69 
 187 -17.17 64.58 -21.15 
 188 -5.37 25.88 -17.17 
 189 -9.63  8.57 -5.37 
 190 22.36 -87.14 -5.37 
 191 27.93 -58.92 22.36 
 192 51.35 -97.46 27.93 
 193 46.87 -96.52 51.35 
 194 72.83 -98.19 51.35 
 195 93.66 -99.12 72.83 
 196 92.32 -100.23 93.66 
 197 95.51 -108.65 93.66 
 198 159.12 -110.36 95.51 
 199 166.01 -111.25 159.12 
 200 180.75 -114.58 166.01 
 201 177.79 -108.51 180.75 
 202 184.61 -27.45 180.75 
 203 209.49 -107.52 184.61 
 204 187.19 -108.31 209.49 
 205 210.82 -107.50 209.49 
 206 208.06 -109.73 210.82 
 207 212.91 -110.70 210.82 
 208 217.33 -111.36 212.91 
 209 211.50 -107.81 217.33 
 210 228.90 -111.94 217.33 
 211 216.14 -110.11 228.90 
 212 215.69 -111.21 228.90 
 213 189.17 -110.61 228.90 
 214 217.46 -103.56 228.90 
 215 229.81 -98.02 228.90 
 216 242.47 -94.21 229.81 
 217 269.94 -94.42 242.47 
 218 235.56 -108.27 269.94 
 219 254.72 -105.14 269.94 
 220 238.38 -79.68 269.94 
 221 237.13 -67.42 269.94 
 222 242.73 -98.89 269.94 
 223 266.24 -98.35 269.94 
 224 259.66 -80.86 269.94 
 225 272.84 -62.91 269.94 
 226 268.60 -80.16 272.84 
 227 248.80 -92.61 272.84 
 228 252.53 -93.79 272.84 
 229 279.30 -93.74 272.84 
 230 268.99 -81.87 279.30 
 231 286.76 -73.58 279.30 
 232 309.85 -73.00 286.76 
 233 275.56 -63.91 309.85 
 234 307.21 -68.58 309.85 
 235 306.27 -43.20 309.85 
 236 255.88 21.57 309.85 
 237 275.64 45.37 309.85 
 238 292.65 -13.92 309.85 
 239 342.68 -62.86 309.85 
 240 308.18 -54.91 342.68 
 241 319.76 -81.02 342.68 
 242 307.13 -71.69 342.68 
 243 297.22 -70.94 342.68 
 244 327.89 -71.32 342.68 
 245 318.08 -63.04 342.68 
 246 321.12 -58.60 342.68 
 247 352.25 -67.40 342.68 
 248 322.24 -63.35 352.25 
 249 347.36 -72.79 352.25 
 250 336.60 -72.83 352.25 
 251 327.96 -64.40 352.25 
 252 347.47 -81.43 352.25 
 253 333.74 -88.58 352.25 
 254 374.22 -88.80 352.25 
 255 353.70 -93.97 374.22 
 256 358.51 -94.09 374.22 
 257 364.69 -95.05 374.22 
 258 336.63 -94.56 374.22 
 259 361.71 -93.72 374.22 
 260 352.51 -93.65 374.22 
 261 371.71 -94.04 374.22 
 262 389.72 -88.78 374.22 
 263 397.18 -89.47 389.72 
 264 369.97 -89.25 397.18 
 265 374.41 -89.02 397.18 
 266 380.71 -88.76 397.18 
 267 406.72 -88.80 397.18 
 268 410.38 -90.04 406.72 
 269 396.87 -89.76 410.38 
 270 385.95 -90.53 410.38 
 271 406.10 -90.76 410.38 
 272 394.72 -90.47 410.38 
 273 397.88 -85.97 410.38 
 274 407.21 -86.34 410.38 
 275 400.53 -85.82 410.38 
 276 400.33 -90.76 410.38 
 277 393.45 -90.81 410.38 
 278 386.56 -82.55 410.38 
 279 411.89 -81.58 410.38 
 280 405.98 -90.61 411.89 
 281 402.03 -89.68 411.89 
 282 430.02 -82.13 411.89 
 283 412.46 -77.48 430.02 
 284 403.53 -78.07 430.02 
 285 416.20 -73.57 430.02 
 286 395.27 -83.26 430.02 
 287 424.72 -87.14 430.02 
 288 393.20 -82.98 430.02 
 289 390.46 -78.81 430.02 
 290 426.78 -73.82 430.02 
 291 414.76 -68.96 430.02 
 292 418.66 -63.28 430.02 
 293 430.91 -61.99 430.02 
 294 448.43 -57.39 430.91 
 295 435.61 -58.15 448.43 
 296 431.94 -63.04 448.43 
 297 435.56 -58.52 448.43 
 298 432.12 -63.43 448.43 
 299 431.34 -64.74 448.43 
 300 426.51 -63.13 448.43 
 301 432.88 -49.53 448.43 
 302 434.91 -32.70 448.43 
 303 438.65 -10.27 448.43 
 304 456.88 22.85 448.43 
 305 440.53  9.57 456.88 
 306 462.46 20.27 456.88 
 307 443.57  7.85 462.46 
 308 459.33  4.68 462.46 
 309 449.08  9.97 462.46 
 310 443.70  8.39 462.46 
 311 452.22  4.19 462.46 
 312 443.12  6.13 462.46 
 313 446.26 32.26 462.46 
 314 462.01 16.63 462.46 
 315 459.99 12.36 462.46 
 316 456.52  3.81 462.46 
 317 457.80 18.77 462.46 
 318 454.21 -17.09 462.46 
 319 462.08  5.28 462.46 
 320 461.30 -4.52 462.46 
 321 439.36 12.42 462.46 
 322 443.93 20.43 462.46 
 323 437.57  1.97 462.46 
 324 450.23 15.29 462.46 
 325 460.34 -3.03 462.46 
 326 454.42  3.40 462.46 
 327 435.29 -3.00 462.46 
 328 441.76  3.65 462.46 
 329 450.13 23.98 462.46 
 330 446.88 22.80 462.46 
 331 452.38 23.03 462.46 
 332 454.87 -2.72 462.46 
 333 454.82 19.51 462.46 
 334 455.26 10.30 462.46 
 335 463.29 64.54 462.46 
 336 478.30 200.31 463.29 
 337 458.10 98.32 478.30 
 338 468.92 192.73 478.30 
 339 475.19 257.77 478.30 
 340 446.21 203.69 478.30 
 341 460.32 242.23 478.30 
 342 464.77 280.81 478.30 
 343 461.78 211.98 478.30 
 344 484.48 90.51 478.30 
 345 469.97 22.90 484.48 
 346 471.23 70.86 484.48 
 347 469.61 11.14 484.48 
 348 473.28 38.62 484.48 
 349 479.82 11.94 484.48 
 350 480.90  7.64 484.48 
 351 461.76 37.02 484.48 
 352 469.34 71.14 484.48 
 353 466.61 84.88 484.48 
 354 489.18 173.98 484.48 
 355 485.87 240.36 489.18 
 356 483.44 59.97 489.18 
 357 489.18 18.08 489.18 
 358 485.53 14.21 489.18 
 359 486.74 32.90 489.18 
 360 473.97 -1.82 489.18 
 361 477.68 48.65 489.18 
 362 493.56 68.73 489.18 
 363 489.42 40.23 493.56 
 364 488.80 82.96 493.56 
 365 478.67 82.13 493.56 
 366 473.26  3.10 493.56 
 367 490.61  2.82 493.56 
 368 490.20 57.53 493.56 
 369 470.75 52.06 493.56 
 370 480.93 36.20 493.56 
 371 490.45 36.12 493.56 
 372 485.37 80.99 493.56 
 373 481.18 46.86 493.56 
 374 497.00 85.58 493.56 
 375 485.81 45.68 497.00 
 376 497.58 18.52 497.00 
 377 475.94 17.92 497.58 
 378 487.69 40.70 497.58 
 379 499.99 69.56 497.58 
 380 487.39 89.86 499.99 
 381 486.97 257.23 499.99 
 382 474.22 194.92 499.99 
 383 491.47 135.64 499.99 
 384 493.12 81.28 499.99 
 385 485.25 92.31 499.99 
 386 479.54 54.39 499.99 
 387 479.01 113.57 499.99 
 388 478.72 75.85 499.99 
 389 493.90 66.67 499.99 
 390 487.56 65.32 499.99 
 391 496.77 62.61 499.99 
 392 497.47 99.17 499.99 
 393 481.16 111.18 499.99 
 394 478.27 52.78 499.99 
 395 500.45 53.68 499.99 
 396 497.58 52.92 500.45 
 397 481.67 47.61 500.45 
 398 475.75 47.82 500.45 
 399 485.44 57.56 500.45 
 400 475.90 46.16 500.45 
 401 492.58 82.21 500.45 
 402 491.27 93.76 500.45 
 403 490.25 106.18 500.45 
 404 473.03 59.02 500.45 
 405 483.51 56.59 500.45 
 406 494.33 69.96 500.45 
 407 475.99 66.78 500.45 
 408 493.63 67.04 500.45 
 409 471.34 54.28 500.45 
 410 496.66 60.50 500.45 
 411 492.69 54.21 500.45 
 412 491.05 59.04 500.45 
 413 481.10 48.00 500.45 
 414 488.51 47.81 500.45 
 415 488.27 43.15 500.45 
 416 490.39 54.01 500.45 
 417 488.85 74.55 500.45 
 418 494.53 55.19 500.45 
 419 480.09 52.90 500.45 
 420 491.61 77.91 500.45 
 421 494.23 83.78 500.45 
 422 491.07 124.08 500.45 
 423 490.63 106.91 500.45 
 424 497.33 61.46 500.45 
 425 490.47 97.23 500.45 
 426 487.35 215.94 500.45 
 427 502.15 145.80 500.45 
 428 496.84 58.13 502.15 
 429 494.32 47.23 502.15 
 430 479.11 56.06 502.15 
 431 493.90 53.24 502.15 
 432 494.75 55.05 502.15 
 433 491.65 93.85 502.15 
 434 496.66 81.00 502.15 
 435 490.08 63.46 502.15 
 436 493.71 67.97 502.15 
 437 502.14 50.74 502.15 
 438 498.24 55.01 502.15 
 439 500.51 71.03 502.15 
 440 501.72 72.73 502.15 
 441 484.89 67.34 502.15 
 442 499.72 93.22 502.15 
 443 505.49 71.90 502.15 
 444 507.42 78.74 505.49 
 445 500.78 96.40 507.42 
 446 503.07 71.43 507.42 
 447 505.41 67.71 507.42 
 448 498.08 77.05 507.42 
 449 499.26 74.04 507.42 
 450 507.51 79.23 507.42 
 451 506.01 94.65 507.51 
 452 491.60 66.09 507.51 
 453 483.21 57.56 507.51 
 454 504.53 68.09 507.51 
 455 506.04 93.72 507.51 
 456 488.94 68.30 507.51 
 457 501.02 73.06 507.51 
 458 505.13 57.01 507.51 
 459 495.68 52.83 507.51 
 460 504.93 61.46 507.51 
 461 490.08 55.05 507.51 
 462 510.61 74.73 507.51 
 463 504.95 66.00 510.61 
 464 502.26 66.83 510.61 
 465 509.71 60.80 510.61 
 466 509.21 50.06 510.61 
 467 504.55 47.09 510.61 
 468 505.04 51.25 510.61 
 469 506.51 52.75 510.61 
 470 510.44 59.93 510.61 
 471 505.20 52.64 510.61 
 472 509.99 47.10 510.61 
 473 497.11 56.86 510.61 
 474 506.74 56.48 510.61 
 475 505.92 83.22 510.61 
 476 495.42 87.29 510.61 
 477 491.47 108.99 510.61 
 478 499.66 145.21 510.61 
 479 499.40 154.58 510.61 
 480 506.39 157.46 510.61 
 481 508.39 117.51 510.61 
 482 504.64 122.26 510.61 
 483 510.28 109.66 510.61 
 484 503.42 148.89 510.61 
 485 504.80 154.49 510.61 
 486 505.12 145.95 510.61 
 487 497.63 127.22 510.61 
 488 491.48 89.42 510.61 
 489 502.26 101.62 510.61 
 490 498.64 88.99 510.61 
 491 482.71 98.73 510.61 
 492 486.59 82.87 510.61 
 493 502.65 79.12 510.61 
 494 499.99 75.74 510.61 
 495 508.79 98.14 510.61 
 496 504.01 105.16 510.61 
 497 496.79 93.92 510.61 
 498 498.83 110.14 510.61 
 499 502.98 134.09 510.61 
 500 505.19 118.81 510.61 
 501 502.12 114.48 510.61 
 502 508.79 312.11 510.61 
 503 498.72 117.69 510.61 
 504 502.17 102.48 510.61 
 505 506.22 87.46 510.61 
 506 500.09 88.12 510.61 
 507 506.53 87.13 510.61 
 508 509.10 89.06 510.61 
 509 499.97 63.88 510.61 
 510 505.70 98.13 510.61 
 511 510.28 116.01 510.61 
 512 502.13 111.04 510.61 
 513 490.46 97.69 510.61 
 514 495.03 103.44 510.61 
 515 505.17 88.54 510.61 
 516 510.67 71.79 510.61 
 517 509.62 68.39 510.67 
 518 505.12 76.88 510.67 
 519 504.91 116.44 510.67 
 520 507.33 84.78 510.67 
 521 510.96 72.34 510.67 
 522 494.25 71.50 510.96 
 523 502.31 70.09 510.96 
 524 506.83 67.04 510.96 
 525 500.82 71.93 510.96 
 526 495.02 71.21 510.96 
 527 507.11 75.78 510.96 
 528 502.32 146.06 510.96 
 529 509.39 105.56 510.96 
 530 505.17 135.47 510.96 
 531 506.32 131.30 510.96 
 532 513.14 131.23 510.96 
 533 496.91 80.95 513.14 
 534 510.33 148.92 513.14 
 535 506.31 100.82 513.14 
 536 510.38 130.76 513.14 
 537 511.46 134.46 513.14 
 538 510.03 155.73 513.14 
 539 512.50 104.47 513.14 
 540 504.18 162.32 513.14 
 541 504.96 217.15 513.14 
 542 502.06 213.33 513.14 
 543 508.15 209.34 513.14 
 544 494.87 133.81 513.14 
 545 505.98 103.21 513.14 
 546 506.08 124.06 513.14 
 547 512.54 122.70 513.14 
 548 506.22 227.99 513.14 
 549 511.29 237.45 513.14 
 550 508.33 196.63 513.14 
 551 509.27 166.26 513.14 
 552 509.96 141.88 513.14 
 553 507.88 119.24 513.14 
 554 509.60 139.61 513.14 
 555 502.82 100.62 513.14 
 556 513.28 106.09 513.14 
 557 508.58 109.75 513.28 
 558 510.33 170.38 513.28 
 559 514.59 338.19 513.28 
 560 493.44 256.33 514.59 
 561 502.39 212.84 514.59 
 562 506.45 239.86 514.59 
 563 503.11 265.39 514.59 
 564 503.89 322.72 514.59 
 565 508.76 328.56 514.59 
 566 505.13 263.95 514.59 
 567 509.83 273.18 514.59 
 568 511.40 296.99 514.59 
 569 506.02 310.96 514.59 
 570 506.36 333.08 514.59 
 571 507.37 351.70 514.59 
 572 504.89 352.65 514.59 
 573 511.26 318.17 514.59 
 574 503.51 301.81 514.59 
 575 512.37 292.73 514.59 
 576 514.66 264.92 514.59 
 577 512.27 227.53 514.66 
 578 501.60 183.64 514.66 
 579 509.55 173.78 514.66 
 580 509.37 187.56 514.66 
 581 506.31 211.47 514.66 
 582 510.78 135.89 514.66 
 583 489.61 149.90 514.66 
 584 514.95 149.91 514.66 
 585 507.70 130.60 514.95 
 586 508.01 150.26 514.95 
 587 507.05 100.83 514.95 
 588 514.91 111.23 514.95 
 589 516.19 98.30 514.95 
 590 490.71 97.97 516.19 
 591 495.69 72.03 516.19 
 592 507.87 124.63 516.19 
 593 511.08 118.48 516.19 
 594 505.04 88.59 516.19 
 595 515.49 103.29 516.19 
 596 498.54 88.55 516.19 
 597 508.24 113.39 516.19 
 598 509.66 102.67 516.19 
 599 509.03 128.10 516.19 
 600 508.98 167.15 516.19 
 601 513.10 233.87 516.19 
 602 511.48 263.69 516.19 
 603 511.14 243.21 516.19 
 604 516.62 209.62 516.19 
 605 509.92 354.61 516.62 
 606 509.53 208.40 516.62 
 607 509.64 234.81 516.62 
 608 502.29 255.27 516.62 
 609 512.76 255.22 516.62 
 610 515.17 318.73 516.62 
 611 509.42 260.66 516.62 
 612 512.64 266.21 516.62 
 613 517.35 229.83 516.62 
 614 492.97 179.94 517.35 
 615 502.75 121.44 517.35 
 616 507.76 102.04 517.35 
 617 510.99 97.42 517.35 
 618 509.89 120.68 517.35 
 619 510.92 122.07 517.35 
 620 502.52 112.66 517.35 
 621 509.87 170.25 517.35 
 622 514.48 164.52 517.35 
 623 513.63 144.91 517.35 
 624 501.24 111.13 517.35 
 625 505.33 112.72 517.35 
 626 512.50 109.32 517.35 
 627 516.72 112.92 517.35 
 628 515.93 108.45 517.35 
 629 512.18 123.27 517.35 
 630 514.13 99.83 517.35 
 631 502.08 138.53 517.35 
 632 514.43 157.19 517.35 
 633 512.31 149.01 517.35 
 634 512.03 139.53 517.35 
 635 511.64 148.04 517.35 
 636 505.78 146.49 517.35 
 637 499.28 117.13 517.35 
 638 515.88 140.90 517.35 
 639 515.66 166.50 517.35 
 640 507.27 306.41 517.35 
 641 510.57 309.99 517.35 
 642 511.77 175.79 517.35 
 643 505.44 160.91 517.35 
 644 511.52 166.41 517.35 
 645 515.44 199.04 517.35 
 646 497.84 344.75 517.35 
 647 510.60 312.96 517.35 
 648 515.14 338.24 517.35 
 649 499.26 324.65 517.35 
 650 500.01 332.53 517.35 
 651 512.81 353.45 517.35 
 652 511.51 344.42 517.35 
 653 495.97 267.99 517.35 
 654 496.65 235.43 517.35 
 655 510.78 150.25 517.35 
 656 502.87 209.97 517.35 
 657 515.55 154.66 517.35 
 658 514.79 122.79 517.35 
 659 519.08 184.52 517.35 
 660 503.55 202.03 519.08 
 661 519.43 224.14 519.08 
 662 513.24 195.63 519.43 
 663 518.98 181.44 519.43 
 664 506.59 195.11 519.43 
 665 513.52 189.12 519.43 
 666 504.75 278.61 519.43 
 667 513.26 303.23 519.43 
 668 516.48 310.53 519.43 
 669 513.43 438.31 519.43 
 670 517.11 443.00 519.43 
 671 512.35 430.12 519.43 
 672 517.95 333.18 519.43 
 673 509.42 311.16 519.43 
 674 515.09 299.18 519.43 
 675 511.42 304.24 519.43 
 676 500.71 305.00 519.43 
 677 517.35 305.09 519.43 
 678 508.76 322.87 519.43 
 679 510.23 406.18 519.43 
 680 517.68 433.82 519.43 
 681 501.11 338.10 519.43 
 682 513.93 373.45 519.43 
 683 516.92 349.02 519.43 
 684 514.81 336.83 519.43 
 685 506.33 315.34 519.43 
 686 506.22 410.95 519.43 
 687 508.53 413.16 519.43 
 688 500.14 407.74 519.43 
 689 511.88 411.90 519.43 
 690 518.55 402.63 519.43 
 691 499.36 398.35 519.43 
 692 518.05 398.34 519.43 
 693 517.05 407.25 519.43 
 694 510.32 385.03 519.43 
 695 499.47 389.42 519.43 
 696 513.78 389.19 519.43 
 697 508.99 397.76 519.43 
 698 509.88 398.26 519.43 
 699 508.66 411.48 519.43 
 700 518.61 420.82 519.43 
 701 501.74 424.70 519.43 
 702 511.56 433.51 519.43 
 703 512.46 423.99 519.43 
 704 512.44 428.90 519.43 
 705 517.71 441.84 519.43 
 706 519.88 442.03 519.43 
 707 513.69 433.37 519.88 
 708 513.37 415.20 519.88 
 709 518.17 433.14 519.88 
 710 516.65 442.18 519.88 
 711 508.68 437.79 519.88 
 712 515.13 433.35 519.88 
 713 514.53 433.19 519.88 
 714 521.64 441.72 519.88 
 715 509.03 424.25 521.64 
 716 513.57 437.32 521.64 
 717 521.09 424.03 521.64 
 718 508.09 428.30 521.64 
 719 521.85 428.13 521.64 
 720 517.39 432.88 521.85 
 721 514.91 433.19 521.85 
 722 509.05 424.18 521.85 
 723 522.62 415.57 521.85 
 724 522.43 450.80 522.62 
 725 502.47 425.39 522.62 
 726 509.49 418.02 522.62 
 727 521.37 404.96 522.62 
 728 518.32 410.24 522.62 
 729 522.35 425.58 522.62 
 730 521.61 427.00 522.62 
 731 500.90 427.86 522.62 
 732 511.39 393.32 522.62 
 733 515.82 424.35 522.62 
 734 511.09 352.50 522.62 
 735 521.79 368.19 522.62 
 736 513.88 396.81 522.62 
 737 521.31 409.68 522.62 
 738 515.83 404.81 522.62 
 739 511.76 400.70 522.62 
 740 517.11 412.13 522.62 
 741 517.53 394.54 522.62 
 742 522.21 411.42 522.62 
 743 513.77 398.06 522.62 
 744 521.63 406.95 522.62 
 745 522.50 421.66 522.62 
 746 525.00 436.82 522.62 
 747 510.95 425.64 525.00 
 748 521.57 411.77 525.00 
 749 517.48 409.25 525.00 
 750 517.69 404.57 525.00 
 751 518.81 405.85 525.00 
 752 523.54 375.10 525.00 
 753 519.73 391.90 525.00 
 754 513.00 401.61 525.00 
 755 522.71 392.39 525.00 
 756 518.43 401.01 525.00 
 757 519.29 365.99 525.00 
 758 521.99 344.63 525.00 
 759 521.14 365.58 525.00 
 760 517.20 369.11 525.00 
 761 514.26 392.46 525.00 
 762 522.13 410.46 525.00 
 763 512.63 369.93 525.00 
 764 522.74 383.18 525.00 
 765 523.26 397.70 525.00 
 766 520.49 412.52 525.00 
 767 512.88 402.47 525.00 
 768 516.57 411.59 525.00 
 769 525.30 424.32 525.00 
 770 498.82 424.09 525.30 
 771 517.12 407.39 525.30 
 772 525.36 424.37 525.30 
 773 502.74 423.76 525.36 
 774 517.68 411.05 525.36 
 775 496.43 393.72 525.36 
 776 521.00 398.40 525.36 
 777 522.97 394.04 525.36 
 778 522.34 411.33 525.36 
 779 524.92 415.86 525.36 
 780 525.84 429.14 525.36 
 781 520.11 438.30 525.84 
 782 514.48 442.37 525.84 
 783 524.28 442.33 525.84 
 784 524.73 446.43 525.84 
 785 526.50 451.07 525.84 
 786 514.74 446.23 526.50 
 787 508.20 450.30 526.50 
 788 515.78 450.82 526.50 
 789 525.47 450.80 526.50 
 790 514.63 445.89 526.50 
 791 522.71 441.23 526.50 
 792 526.59 454.44 526.50 
 793 524.31 450.47 526.59 
 794 521.33 446.06 526.59 
 795 521.25 441.74 526.59 
 796 526.65 450.89 526.59 
 797 528.22 446.22 526.65 
 798 514.27 442.14 528.22 
 799 521.36 428.62 528.22 
 800 523.65 441.98 528.22 
 801 518.29 441.32 528.22 
 802 527.31 454.67 528.22 
 803 527.41 455.19 528.22 
 804 524.44 437.32 528.22 
 805 528.44 432.56 528.22 
 806 527.39 445.75 528.44 
 807 523.82 441.61 528.44 
 808 525.38 445.71 528.44 
 809 526.01 441.29 528.44 
 810 527.08 437.31 528.44 
 811 520.31 446.07 528.44 
 812 522.31 450.44 528.44 
 813 527.58 446.02 528.44 
 814 515.59 436.89 528.44 
 815 519.84 436.36 528.44 
 816 527.43 427.68 528.44 
 817 523.82 427.87 528.44 
 818 523.35 437.08 528.44 
 819 522.84 428.51 528.44 
 820 521.01 433.39 528.44 
 821 527.41 450.82 528.44 
 822 526.12 451.20 528.44 
 823 527.27 464.84 528.44 
 824 527.11 464.82 528.44 
 825 519.58 465.19 528.44 
 826 522.11 465.23 528.44 
 827 520.01 455.48 528.44 
 828 526.35 446.90 528.44 
 829 527.32 446.94 528.44 
 830 521.43 455.20 528.44 
 831 525.45 442.21 528.44 
 832 527.54 442.57 528.44 
 833 527.41 442.72 528.44 
 834 516.08 424.77 528.44 
 835 524.59 411.66 528.44 
 836 527.68 416.57 528.44 
 837 525.80 425.24 528.44 
 838 522.10 429.62 528.44 
 839 524.21 416.15 528.44 
 840 519.66 424.99 528.44 
 841 521.98 425.29 528.44 
 842 528.14 425.13 528.44 
 843 527.30 438.42 528.44 
 844 521.06 450.91 528.44 
 845 521.02 456.08 528.44 
 846 520.13 447.22 528.44 
 847 527.58 451.37 528.44 
 848 525.72 469.42 528.44 
 849 519.37 464.70 528.44 
 850 523.53 486.59 528.44 
 851 522.92 473.62 528.44 
 852 510.76 469.36 528.44 
 853 519.27 469.11 528.44 
 854 524.25 464.67 528.44 
 855 526.89 469.13 528.44 
 856 526.57 473.78 528.44 
 857 526.55 465.18 528.44 
 858 516.12 460.75 528.44 
 859 529.08 455.53 528.44 
 860 522.61 442.34 529.08 
 861 528.15 451.55 529.08 
 862 528.20 448.44 529.08 
 863 527.43 461.59 529.08 
 864 522.27 456.77 529.08 
 865 526.53 447.83 529.08 
 866 528.35 456.05 529.08 
 867 525.76 464.74 529.08 
 868 520.82 460.09 529.08 
 869 518.29 451.68 529.08 
 870 524.92 446.77 529.08 
 871 527.13 455.92 529.08 
 872 528.17 469.73 529.08 
 873 529.38 478.90 529.08 
 874 529.53 474.71 529.38 
 875 525.08 483.05 529.53 
 876 527.90 490.00 529.53 
 877 529.44 482.20 529.53 
 878 529.88 335.80 529.53 
 879 517.29 341.15 529.88 
 880 530.13 290.72 529.88 
 881 529.97 345.65 530.13 
 882 529.88 485.02 530.13 
 883 530.26 361.15 530.13 
 884 528.47 388.90 530.26 
 885 530.38 469.88 530.26 
 886 530.81 466.41 530.38 
 887 530.87 470.32 530.81 
 888 518.87 478.51 530.87 
 889 524.18 479.16 530.87 
 890 524.80 475.21 530.87 
 891 530.91 470.81 530.87 
 892 531.03 475.12 530.91 
 893 531.09 479.30 531.03 
 894 524.28 495.64 531.09 
 895 513.84 488.19 531.09 
 896 518.52 394.63 531.09 
 897 524.16 468.27 531.09 
 898 525.11 483.75 531.09 
 899 522.14 480.10 531.09 
 900 530.47 493.04 531.09 
 901 530.44 497.60 531.09 
 902 526.52 497.96 531.09 
 903 525.01 494.10 531.09 
 904 530.70 491.08 531.09 
 905 530.61 491.24 531.09 
 906 530.53 483.31 531.09 
 907 530.40 483.34 531.09 
 908 529.49 479.24 531.09 
 909 531.11 483.34 531.09 
 910 524.32 482.87 531.11 
 911 530.87 487.52 531.11 
 912 530.85 482.30 531.11 
 913 530.86 477.33 531.11 
 914 523.38 477.02 531.11 
 915 528.03 473.37 531.11 
 916 531.04 477.29 531.11 
 917 530.39 472.78 531.11 
 918 530.00 477.63 531.11 
 919 524.94 478.41 531.11 
 920 528.72 469.81 531.11 
 921 531.60 461.60 531.11 
 922 531.79 466.15 531.60 
 923 525.47 471.17 531.79 
 924 531.12 462.48 531.79 
 925 524.57 461.96 531.79 
 926 531.36 462.09 531.79 
 927 530.77 466.44 531.79 
 928 525.82 458.14 531.79 
 929 531.01 458.03 531.79 
 930 527.97 462.89 531.79 
 931 531.07 458.77 531.79 
 932 531.30 466.86 531.79 
 933 523.31 461.91 531.79 
 934 525.09 461.51 531.79 
 935 521.07 456.96 531.79 
 936 530.35 461.52 531.79 
 937 530.60 465.34 531.79 
 938 530.93 460.80 531.79 
 939 531.19 466.78 531.79 
 940 526.90 467.86 531.79 
 941 514.00 462.86 531.79 
 942 531.12 466.71 531.79 
 943 530.32 476.12 531.79 
 944 529.60 476.70 531.79 
 945 530.83 476.63 531.79 
 946 531.15 476.67 531.79 
 947 524.42 476.13 531.79 
 948 525.30 471.51 531.79 
 949 531.51 465.90 531.79 
 950 519.60 466.28 531.79 
 951 531.44 466.22 531.79 
 952 531.06 462.09 531.79 
 953 520.67 461.80 531.79 
 954 531.49 462.30 531.79 
 955 528.82 461.66 531.79 
 956 531.54 473.92 531.79 
 957 530.96 479.43 531.79 
 958 531.23 484.50 531.79 
 959 531.98 467.64 531.79 
 960 525.99 475.66 531.98 
 961 531.54 465.33 531.98 
 962 529.96 469.13 531.98 
 963 527.15 464.99 531.98 
 964 524.86 464.99 531.98 
 965 531.09 455.82 531.98 
 966 529.62 463.78 531.98 
 967 528.59 471.90 531.98 
 968 531.53 479.90 531.98 
 969 530.84 477.41 531.98 
 970 527.06 477.11 531.98 
 971 525.04 468.32 531.98 
 972 531.34 467.09 531.98 
 973 532.23 472.32 531.98 
 974 532.12 472.07 532.23 
 975 532.87 476.56 532.23 
 976 532.44 480.94 532.87 
 977 532.34 493.82 532.87 
 978 525.29 505.49 532.87 
 979 532.78 509.41 532.87 
 980 532.28 509.87 532.87 
 981 532.58 495.59 532.87 
 982 515.92 490.11 532.87 
 983 528.24 490.56 532.87 
 984 528.24 511.87 532.87 
 985 532.96 512.25 532.87 
 986 528.83 511.41 532.96 
 987 533.00 511.20 532.96 
 988 526.93 510.03 533.00 
 989 531.87 511.12 533.00 
 990 532.45 510.53 533.00 
 991 532.58 506.20 533.00 
 992 533.16 510.78 533.00 
 993 530.39 503.60 533.16 
 994 532.35 510.59 533.16 
 995 533.04 511.39 533.16 
 996 533.38 510.29 533.16 
 997 533.12 511.22 533.38 
 998 533.40 512.58 533.38 
 999 527.10 360.32 533.40 
1000 533.19 366.29 533.40 
1001 533.11 508.83 533.40 
1002 528.27 510.45 533.40 
1003 531.30 510.44 533.40 
1004 531.28 510.07 533.40 
1005 532.54 509.54 533.40 
1006 532.86 509.54 533.40 
1007 532.97 510.94 533.40 
1008 532.76 511.04 533.40 
1009 532.98 511.54 533.40 
1010 533.51 511.93 533.40 
1011 533.26 512.03 533.51 
1012 527.33 512.35 533.51 
1013 530.76 511.44 533.51 
1014 524.70 510.28 533.51 
1015 533.98 509.14 533.51 
1016 521.94 509.98 533.98 
1017 532.81 511.30 533.98 
1018 533.57 510.08 533.98 
1019 526.09 509.91 533.98 
1020 527.05 509.50 533.98 
1021 532.51 510.18 533.98 
1022 533.12 511.83 533.98 
1023 533.34 507.66 533.98 
1024 533.22 504.01 533.98 
1025 533.74 496.14 533.98 
1026 532.74 499.63 533.98 
1027 529.49 492.15 533.98 
1028 533.46 512.06 533.98 
1029 534.19 509.41 533.98 
1030 520.27 513.76 534.19 
1031 526.46 513.58 534.19 
1032 534.13 512.40 534.19 
1033 533.69 507.79 534.19 
1034 533.19 507.51 534.19 
1035 533.90 502.95 534.19 
1036 534.10 512.71 534.19 
1037 534.27 513.34 534.19 
1038 534.51 513.59 534.27 
1039 534.49 514.00 534.51 
1040 534.51 485.81 534.51 
1041 530.76 514.55 534.51 
1042 534.45 514.20 534.51 
1043 534.73 514.69 534.51 
1044 534.64 515.32 534.73 
1045 528.44 514.76 534.73 
1046 534.54 514.74 534.73 
1047 534.67 515.14 534.73 
1048 534.76 494.94 534.73 
1049 528.85 477.42 534.76 
1050 535.07 477.58 534.76 
1051 530.03 481.82 535.07 
1052 527.80 486.09 535.07 
1053 528.50 472.96 535.07 
1054 528.21 473.29 535.07 
1055 534.77 482.51 535.07 
1056 528.42 482.62 535.07 
1057 530.92 486.18 535.07 
1058 533.94 477.60 535.07 
1059 530.20 494.64 535.07 
1060 533.82 506.46 535.07 
1061 533.52 513.71 535.07 
1062 533.43 506.50 535.07 
1063 529.47 513.93 535.07 
1064 533.81 513.14 535.07 
1065 532.58 512.92 535.07 
1066 533.47 508.77 535.07 
1067 534.07 504.09 535.07 
1068 534.04 509.03 535.07 
1069 534.33 513.58 535.07 
1070 534.67 508.97 535.07 
1071 523.02 513.65 535.07 
1072 534.53 513.82 535.07 
1073 534.92 514.37 535.07 
1074 532.79 515.02 535.07 
1075 528.61 509.58 535.07 
1076 521.97 508.98 535.07 
1077 528.35 505.07 535.07 
1078 528.83 504.77 535.07 
1079 534.48 500.67 535.07 
1080 534.70 509.45 535.07 
1081 534.19 508.95 535.07 
1082 534.44 504.21 535.07 
1083 534.79 513.11 535.07 
1084 534.68 508.16 535.07 
1085 530.58 499.16 535.07 
1086 534.85 493.79 535.07 
1087 534.41 499.20 535.07 
1088 534.77 495.02 535.07 
1089 533.92 503.63 535.07 
1090 524.55 508.37 535.07 
1091 534.67 513.43 535.07 
1092 534.09 508.99 535.07 
1093 534.78 508.80 535.07 
1094 529.36 512.97 535.07 
1095 534.71 504.28 535.07 
1096 534.58 508.45 535.07 
1097 535.11 508.49 535.07 
1098 531.30 498.70 535.11 
1099 528.99 499.02 535.11 
1100 535.56 494.12 535.11 
1101 534.89 503.66 535.56 
1102 535.34 508.33 535.56 
1103 535.58 499.56 535.56 
1104 535.76 508.85 535.58 
1105 535.53 513.79 535.76 
1106 528.43 509.01 535.76 
1107 535.72 508.79 535.76 
1108 535.69 503.56 535.76 
1109 536.10 507.42 535.76 
1110 530.05 512.42 536.10 
1111 535.88 512.94 536.10 
1112 536.31 513.34 536.10 
1113 536.42 512.75 536.31 
1114 529.84 514.18 536.42 
1115 524.30 514.86 536.42 
1116 535.94 514.55 536.42 
1117 529.29 514.33 536.42 
1118 536.45 512.89 536.42 
1119 536.08 507.30 536.45 
1120 535.00 502.62 536.45 
1121 536.84 497.66 536.45 
1122 536.46 511.38 536.84 
1123 536.69 511.91 536.84 
1124 536.77 507.13 536.84 
1125 537.04 511.60 536.84 
1126 536.02 511.07 537.04 
1127 531.83 511.00 537.04 
1128 537.30 511.51 537.04 
1129 537.04 513.34 537.30 
1130 529.90 512.67 537.30 
1131 524.64 511.59 537.30 
1132 529.76 512.25 537.30 
1133 536.68 502.40 537.30 
1134 530.50 502.43 537.30 
1135 536.62 493.22 537.30 
1136 536.90 501.78 537.30 
1137 536.34 511.63 537.30 
1138 536.77 502.21 537.30 
1139 536.63 511.56 537.30 
1140 537.00 511.51 537.30 
1141 537.30 512.92 537.30 
1142 537.54 512.18 537.30 
1143 537.68 513.54 537.54 
1144 537.64 514.69 537.68 
1145 537.45 515.29 537.68 
1146 533.37 514.73 537.68 
1147 537.57 513.10 537.68 
1148 534.96 512.96 537.68 
1149 537.21 513.29 537.68 
1150 537.76 513.55 537.68 
1151 537.40 513.61 537.76 
1152 537.81 512.19 537.76 
1153 537.74 512.31 537.81 
1154 538.04 514.33 537.81 
1155 538.02 514.40 538.04 
1156 538.21 514.97 538.04 
1157 537.83 515.28 538.21 
1158 538.15 515.19 538.21 
1159 538.53 514.13 538.21 
1160 538.56 515.48 538.53 
1161 538.25 516.19 538.56 
1162 531.70 514.33 538.56 
1163 537.87 513.20 538.56 
1164 531.68 514.91 538.56 
1165 538.21 513.69 538.56 
1166 538.19 513.76 538.56 
1167 538.35 513.16 538.56 
1168 538.44 512.96 538.56 
1169 538.01 514.01 538.56 
1170 534.59 515.36 538.56 
1171 538.46 516.35 538.56 
1172 538.41 515.95 538.56 
1173 538.37 514.29 538.56 
1174 538.38 514.34 538.56 
1175 538.18 513.37 538.56 
1176 538.55 513.51 538.56 
1177 538.67 513.99 538.56 
1178 538.83 513.93 538.67 
1179 532.32 512.98 538.83 
1180 537.58 514.79 538.83 
1181 538.26 514.95 538.83 
1182 539.11 515.51 538.83 
1183 538.50 515.80 539.11 
1184 538.66 516.19 539.11 
1185 539.09 516.18 539.11 
1186 538.56 515.21 539.11 
1187 538.93 515.44 539.11 
1188 538.87 517.10 539.11 
1189 539.22 516.79 539.11 
1190 539.07 517.80 539.22 
1191 539.08 517.20 539.22 
1192 539.37 518.41 539.22 
1193 532.91 517.17 539.37 
1194 539.63 515.90 539.37 
1195 539.13 515.55 539.63 
1196 538.72 516.39 539.63 
1197 539.49 515.72 539.63 
1198 539.42 515.90 539.63 
1199 539.31 516.48 539.63 
1200 539.11 518.42 539.63 
1201 539.75 518.77 539.63 
1202 540.06 518.37 539.75 
1203 539.84 518.36 540.06 
1204 539.28 518.19 540.06 
1205 539.98 518.87 540.06 
1206 540.50 518.68 540.06 
1207 540.33 519.51 540.50 
1208 536.86 519.57 540.50 
1209 540.65 519.68 540.50 
1210 540.65 519.83 540.65 
1211 541.10 523.82 540.65 
1212 541.65 524.21 541.10 
1213 542.38 524.47 541.65 
1214 542.08 525.19 542.38 
1215 524.58 521.09 542.38 
1216 542.61 511.75 542.38 
1217 542.69 508.23 542.61 
1218 542.89 504.04 542.69 
1219 543.06 507.81 542.89 
1220 542.67 516.47 543.06 
1221 543.20 525.55 543.06 
1222 543.02 520.94 543.20 
1223 543.17 525.53 543.20 
1224 543.09 525.40 543.20 
1225 543.81 524.91 543.20 
1226 543.16 525.81 543.81 
1227 537.52 525.41 543.81 
1228 543.42 526.12 543.81 
1229 543.98 525.89 543.81 
1230 536.59 525.64 543.98 
1231 543.72 525.97 543.98 
1232 543.98 522.11 543.98 
1233 543.86 517.51 543.98 
1234 543.97 520.55 543.98 
1235 544.06 525.24 543.98 
1236 544.55 526.24 544.06 
1237 538.25 526.44 544.55 
1238 544.32 526.51 544.55 
1239 544.65 526.02 544.55 
1240 544.73 525.99 544.65 
1241 544.29 526.35 544.73 
1242 544.83 525.04 544.73 
1243 544.64 524.66 544.83 
1244 545.28 524.95 544.83 
1245 545.31 525.29 545.28 
1246 545.47 525.30 545.31 
1247 545.44 524.84 545.47 
1248 545.65 524.45 545.47 
1249 545.68 524.43 545.65 
1250 545.89 524.56 545.68 
1251 545.94 524.52 545.89 
1252 545.42 524.65 545.94 
1253 545.85 524.94 545.94 
1254 546.08 525.42 545.94 
1255 545.46 525.55 546.08 
1256 545.99 526.78 546.08 
1257 545.98 525.75 546.08 
1258 540.09 526.13 546.08 
1259 545.85 526.03 546.08 
1260 545.71 525.62 546.08 
1261 546.13 525.77 546.08 
1262 535.88 526.04 546.13 
1263 546.29 525.36 546.13 
1264 545.91 525.52 546.29 
1265 545.81 525.91 546.29 
1266 546.07 525.44 546.29 
1267 546.30 525.03 546.29 
1268 544.33 525.30 546.30 
1269 546.20 525.63 546.30 
1270 545.86 525.89 546.30 
1271 542.22 525.83 546.30 
1272 546.52 525.76 546.30 
1273 546.14 525.97 546.52 
1274 546.05 525.56 546.52 
1275 546.58 525.62 546.52 
1276 545.76 525.12 546.58 
1277 546.24 525.60 546.58 
1278 540.83 526.17 546.58 
1279 546.57 525.95 546.58 
1280 545.85 525.40 546.58 
1281 546.50 525.81 546.58 
1282 546.47 525.42 546.58 
1283 546.82 524.54 546.58 
1284 546.42 525.02 546.82 
1285 540.75 524.72 546.82 
1286 540.70 524.24 546.82 
1287 546.52 524.09 546.82 
1288 546.21 524.14 546.82 
1289 546.10 524.45 546.82 
1290 542.64 524.34 546.82 
1291 546.44 524.27 546.82 
1292 546.39 525.21 546.82 
1293 546.66 524.97 546.82 
1294 546.61 524.15 546.82 
1295 546.51 524.88 546.82 
1296 546.77 524.73 546.82 
1297 546.79 525.27 546.82 
1298 546.42 524.81 546.82 
1299 546.62 524.38 546.82 
1300 546.91 524.87 546.82 
1301 540.49 524.08 546.91 
1302 547.22 524.32 546.91 
1303 546.64 524.54 547.22 
1304 546.48 525.93 547.22 
1305 546.67 527.00 547.22 
1306 546.76 526.89 547.22 
1307 546.27 527.04 547.22 
1308 545.77 526.46 547.22 
1309 546.70 525.64 547.22 
1310 546.50 525.50 547.22 
1311 546.44 525.60 547.22 
1312 544.62 525.22 547.22 
1313 546.40 524.93 547.22 
1314 546.52 525.13 547.22 
1315 546.43 525.64 547.22 
1316 545.90 525.13 547.22 
1317 546.63 524.73 547.22 
1318 546.77 525.03 547.22 
1319 546.99 525.90 547.22 
1320 547.31 525.85 547.22 
1321 546.98 525.73 547.31 
1322 547.48 526.01 547.31 
1323 547.20 526.19 547.48 
1324 546.90 525.89 547.48 
1325 547.04 525.75 547.48 
1326 546.77 525.31 547.48 
1327 547.25 525.54 547.48 
1328 546.97 525.63 547.48 
1329 544.12 525.29 547.48 
1330 547.31 525.42 547.48 
1331 547.01 525.15 547.48 
1332 547.05 525.67 547.48 
1333 547.11 525.59 547.48 
1334 547.51 526.21 547.48 
1335 546.26 525.95 547.51 
1336 547.46 525.32 547.51 
1337 547.38 525.68 547.51 
1338 547.19 525.34 547.51 
1339 547.28 525.32 547.51 
1340 540.88 525.49 547.51 
1341 547.85 525.20 547.51 
1342 547.62 525.36 547.85 
1343 547.31 525.20 547.85 
1344 547.54 524.62 547.85 
1345 547.70 524.23 547.85 
1346 547.28 524.18 547.85 
1347 547.70 524.03 547.85 
1348 548.15 524.46 547.85 
1349 547.87 524.26 548.15 
1350 547.37 524.53 548.15 
1351 542.01 524.27 548.15 
1352 547.66 524.20 548.15 
1353 548.25 524.21 548.15 
1354 547.72 524.26 548.25 
1355 541.48 524.43 548.25 
1356 547.76 524.44 548.25 
1357 547.74 525.12 548.25 
1358 547.36 524.40 548.25 
1359 547.77 525.14 548.25 
1360 547.77 525.22 548.25 
1361 535.36 524.72 548.25 
1362 547.98 524.26 548.25 
1363 547.68 523.40 548.25 
1364 547.98 523.74 548.25 
1365 548.02 523.48 548.25 
1366 547.52 524.24 548.25 
1367 547.66 524.38 548.25 
1368 547.53 524.35 548.25 
1369 547.75 523.97 548.25 
1370 547.61 525.17 548.25 
1371 543.14 525.59 548.25 
1372 547.37 525.54 548.25 
1373 547.53 525.51 548.25 
1374 547.41 525.18 548.25 
1375 547.89 525.41 548.25 
1376 547.91 525.74 548.25 
1377 547.83 526.35 548.25 
1378 544.93 526.46 548.25 
1379 548.13 526.83 548.25 
1380 547.65 526.94 548.25 
1381 543.19 526.95 548.25 
1382 547.76 526.79 548.25 
1383 547.32 526.58 548.25 
1384 547.12 526.22 548.25 
1385 547.80 525.91 548.25 
1386 547.59 525.35 548.25 
1387 547.68 525.59 548.25 
1388 547.75 525.75 548.25 
1389 547.75 525.24 548.25 
1390 547.64 525.84 548.25 
1391 547.95 526.82 548.25 
1392 548.16 526.72 548.25 
1393 546.75 526.76 548.25 
1394 548.08 526.55 548.25 
1395 547.32 525.87 548.25 
1396 548.43 526.13 548.25 
1397 547.87 526.72 548.43 
1398 547.90 526.96 548.43 
1399 548.02 526.61 548.43 
1400 548.05 525.84 548.43 
1401 547.89 526.83 548.43 
1402 548.19 527.36 548.43 
1403 548.46 527.53 548.43 
1404 548.31 527.61 548.46 
1405 547.91 527.81 548.46 
1406 548.29 527.98 548.46 
1407 548.35 527.96 548.46 
1408 541.86 527.39 548.46 
1409 548.25 526.55 548.46 
1410 548.11 527.10 548.46 
1411 548.29 526.97 548.46 
1412 547.97 526.70 548.46 
1413 547.78 527.51 548.46 
1414 547.91 527.22 548.46 
1415 548.65 527.76 548.46 
1416 548.41 527.70 548.65 
1417 548.59 527.93 548.65 
1418 549.02 527.80 548.65 
1419 548.60 528.12 549.02 
1420 548.83 528.33 549.02 
1421 542.28 528.04 549.02 
1422 548.88 528.16 549.02 
1423 548.59 527.85 549.02 
1424 548.94 527.74 549.02 
1425 548.84 527.41 549.02 
1426 548.55 527.78 549.02 
1427 548.60 527.78 549.02 
1428 548.59 528.14 549.02 
1429 542.28 527.96 549.02 
1430 548.70 528.08 549.02 
1431 542.87 528.00 549.02 
1432 548.00 528.03 549.02 
1433 547.71 528.42 549.02 
1434 548.25 528.60 549.02 
1435 548.95 529.35 549.02 
1436 548.70 529.57 549.02 
1437 548.78 529.69 549.02 
1438 548.60 529.72 549.02 
1439 548.62 530.09 549.02 
1440 548.65 529.91 549.02 
1441 542.21 529.68 549.02 
1442 548.53 529.05 549.02 
1443 548.63 529.45 549.02 
1444 548.90 529.33 549.02 
1445 548.33 529.93 549.02 
1446 548.54 530.10 549.02 
1447 548.73 530.58 549.02 
1448 548.61 530.06 549.02 
1449 548.85 530.84 549.02 
1450 549.21 530.56 549.02 
1451 548.67 530.48 549.21 
1452 548.35 530.19 549.21 
1453 548.48 529.82 549.21 
1454 548.80 529.29 549.21 
1455 548.51 528.67 549.21 
1456 548.36 528.57 549.21 
1457 548.60 528.59 549.21 
1458 548.48 528.69 549.21 
1459 548.82 529.09 549.21 
1460 548.89 529.30 549.21 
1461 549.04 529.29 549.21 
1462 549.15 529.49 549.21 
1463 548.61 529.23 549.21 
1464 548.82 529.42 549.21 
1465 548.98 529.46 549.21 
1466 549.26 529.14 549.21 
1467 548.78 528.49 549.26 
1468 549.13 529.23 549.26 
1469 548.36 529.50 549.26 
1470 548.87 528.94 549.26 
1471 549.12 528.34 549.26 
1472 549.17 528.96 549.26 
1473 549.54 529.28 549.26 
1474 541.96 529.63 549.54 
1475 549.07 528.56 549.54 
1476 542.40 529.41 549.54 
1477 548.60 529.40 549.54 
1478 548.70 529.84 549.54 
1479 549.33 530.47 549.54 
1480 548.95 530.67 549.54 
1481 544.36 530.85 549.54 
1482 548.81 530.71 549.54 
1483 549.06 530.25 549.54 
1484 543.92 529.54 549.54 
1485 548.90 529.28 549.54 
1486 548.98 529.72 549.54 
1487 542.86 529.81 549.54 
1488 549.10 529.85 549.54 
1489 549.14 529.26 549.54 
1490 548.98 529.15 549.54 
1491 543.25 528.97 549.54 
1492 549.02 529.52 549.54 
1493 548.65 529.25 549.54 
1494 542.88 529.54 549.54 
1495 548.78 529.42 549.54 
1496 548.76 528.83 549.54 
1497 548.64 528.09 549.54 
1498 548.69 528.47 549.54 
1499 548.85 528.59 549.54 
1500 548.68 528.63 549.54 
1501 548.99 528.50 549.54 
1502 548.82 528.16 549.54 
1503 549.14 528.72 549.54 
1504 548.86 528.67 549.54 
1505 548.88 528.59 549.54 
1506 548.60 528.40 549.54 
1507 549.24 528.17 549.54 
1508 549.06 528.18 549.54 
1509 548.92 528.38 549.54 
1510 549.01 529.11 549.54 
1511 549.45 529.67 549.54 
1512 549.33 529.27 549.54 
1513 549.73 529.28 549.54 
1514 549.36 528.61 549.73 
1515 549.61 529.05 549.73 
1516 549.53 529.24 549.73 
1517 549.28 529.22 549.73 
1518 549.28 528.93 549.73 
1519 549.63 529.42 549.73 
1520 549.59 529.66 549.73 
1521 549.48 529.30 549.73 
1522 547.20 528.77 549.73 
1523 549.75 529.02 549.73 
1524 549.52 529.44 549.75 
1525 549.54 529.35 549.75 
1526 549.48 529.15 549.75 
1527 549.25 529.34 549.75 
1528 549.14 529.79 549.75 
1529 549.19 529.69 549.75 
1530 549.50 529.55 549.75 
1531 546.98 529.81 549.75 
1532 549.28 530.03 549.75 
1533 549.66 530.55 549.75 
1534 543.37 530.31 549.75 
1535 549.60 529.14 549.75 
1536 549.53 529.13 549.75 
1537 548.97 529.95 549.75 
1538 549.57 530.21 549.75 
1539 549.31 529.89 549.75 
1540 542.92 530.38 549.75 
1541 549.52 530.43 549.75 
1542 549.11 530.41 549.75 
1543 549.66 529.98 549.75 
1544 549.58 529.56 549.75 
1545 549.50 529.65 549.75 
1546 549.33 529.47 549.75 
1547 543.60 529.38 549.75 
1548 549.78 528.83 549.75 
1549 549.51 527.92 549.78 
1550 549.26 527.68 549.78 
1551 549.24 528.16 549.78 
1552 549.36 528.75 549.78 
1553 549.50 529.25 549.78 
1554 549.56 529.30 549.78 
1555 549.34 529.90 549.78 
1556 549.73 530.20 549.78 
1557 549.58 530.37 549.78 
1558 549.83 530.87 549.78 
1559 543.25 530.66 549.83 
1560 549.64 531.21 549.83 
1561 549.61 531.46 549.83 
1562 549.48 531.32 549.83 
1563 549.68 531.54 549.83 
1564 549.14 531.40 549.83 
1565 549.60 531.01 549.83 
1566 549.82 531.23 549.83 
1567 549.82 531.00 549.83 
1568 549.70 530.66 549.83 
1569 549.31 530.81 549.83 
1570 549.71 530.93 549.83 
1571 544.28 529.95 549.83 
1572 549.65 530.53 549.83 
1573 549.67 530.59 549.83 
1574 549.31 530.90 549.83 
1575 543.89 531.21 549.83 
1576 549.47 531.25 549.83 
1577 549.44 530.28 549.83 
1578 548.55 531.38 549.83 
1579 549.52 531.55 549.83 
1580 550.02 531.57 549.83 
1581 549.75 531.87 550.02 
1582 549.61 531.68 550.02 
1583 549.36 531.60 550.02 
1584 549.97 532.24 550.02 
1585 549.85 532.20 550.02 
1586 549.50 532.78 550.02 
1587 549.80 533.18 550.02 
1588 549.68 533.29 550.02 
1589 549.85 532.78 550.02 
1590 550.13 532.70 550.02 
1591 550.13 532.33 550.13 
1592 549.86 532.44 550.13 
1593 550.08 532.25 550.13 
1594 550.17 531.81 550.13 
1595 549.99 531.35 550.17 
1596 550.06 531.36 550.17 
1597 550.11 531.35 550.17 
1598 549.99 531.33 550.17 
1599 544.39 531.07 550.17 
1600 549.99 530.89 550.17 
1601 549.87 530.54 550.17 
1602 549.51 530.44 550.17 
1603 550.12 530.28 550.17 
1604 550.01 530.96 550.17 
1605 550.04 530.36 550.17 
1606 550.15 531.08 550.17 
1607 550.24 530.80 550.17 
1608 550.22 530.76 550.24 
1609 550.07 530.54 550.24 
1610 550.46 530.28 550.24 
1611 550.37 530.54 550.46 
1612 550.11 531.09 550.46 
1613 550.04 531.10 550.46 
1614 550.14 530.89 550.46 
1615 550.25 530.92 550.46 
1616 550.10 531.51 550.46 
1617 550.09 531.75 550.46 
1618 550.23 531.42 550.46 
1619 545.75 531.42 550.46 
1620 550.19 531.31 550.46 
1621 550.19 530.27 550.46 
1622 550.57 529.47 550.46 
1623 549.96 529.47 550.57 
1624 549.98 529.31 550.57 
1625 550.38 528.86 550.57 
1626 550.07 529.27 550.57 
1627 550.52 529.12 550.57 
1628 550.31 528.68 550.57 
1629 550.34 528.94 550.57 
1630 550.61 529.67 550.57 
1631 550.54 529.39 550.61 
1632 550.47 530.18 550.61 
1633 550.56 530.64 550.61 
1634 550.58 530.85 550.61 
1635 550.66 530.39 550.61 
1636 550.31 530.02 550.66 
1637 550.65 530.02 550.66 
1638 550.61 530.36 550.66 
1639 550.51 531.13 550.66 
1640 550.39 530.57 550.66 
1641 550.43 530.91 550.66 
1642 550.43 531.11 550.66 
1643 550.49 530.72 550.66 
1644 550.50 530.71 550.66 
1645 550.58 530.74 550.66 
1646 550.48 531.11 550.66 
1647 550.46 531.01 550.66 
1648 545.92 530.56 550.66 
1649 544.02 530.24 550.66 
1650 550.47 530.28 550.66 
1651 544.05 530.55 550.66 
1652 550.41 530.74 550.66 
1653 550.19 531.00 550.66 
1654 550.14 530.26 550.66 
1655 550.38 530.39 550.66 
1656 550.36 530.34 550.66 
1657 550.55 530.04 550.66 
1658 550.20 529.97 550.66 
1659 550.26 529.75 550.66 
1660 550.38 530.09 550.66 
1661 550.63 529.85 550.66 
1662 550.05 530.09 550.66 
1663 550.43 530.49 550.66 
1664 550.24 530.77 550.66 
1665 550.50 530.92 550.66 
1666 550.20 531.70 550.66 
1667 550.55 531.86 550.66 
1668 550.38 532.25 550.66 
1669 550.38 532.24 550.66 
1670 550.76 532.39 550.66 
1671 550.69 532.14 550.76 
1672 550.85 531.73 550.76 
1673 550.67 531.33 550.85 
1674 550.67 532.02 550.85 
1675 550.77 532.41 550.85 
1676 550.72 532.48 550.85 
1677 550.91 532.16 550.85 
1678 550.82 532.36 550.91 
1679 550.68 532.32 550.91 
1680 550.78 531.94 550.91 
1681 550.80 533.10 550.91 
1682 550.83 532.83 550.91 
1683 550.65 532.34 550.91 
1684 550.86 531.94 550.91 
1685 550.60 532.09 550.91 
1686 550.62 532.81 550.91 
1687 550.73 533.03 550.91 
1688 550.68 532.92 550.91 
1689 550.84 533.63 550.91 
1690 550.65 533.30 550.91 
1691 550.46 533.60 550.91 
1692 551.03 533.49 550.91 
1693 550.82 533.56 551.03 
1694 550.79 533.46 551.03 
1695 550.77 533.69 551.03 
1696 550.96 533.16 551.03 
1697 551.02 533.44 551.03 
1698 551.08 533.52 551.03 
1699 550.87 533.60 551.08 
1700 550.80 533.25 551.08 
1701 551.14 532.98 551.08 
1702 551.02 532.79 551.14 
1703 551.32 533.96 551.14 
1704 551.00 534.15 551.32 
1705 551.00 533.58 551.32 
1706 550.82 533.08 551.32 
1707 551.15 533.01 551.32 
1708 550.92 533.29 551.32 
1709 550.89 532.37 551.32 
1710 551.01 531.96 551.32 
1711 550.90 531.66 551.32 
1712 550.76 532.67 551.32 
1713 545.19 532.93 551.32 
1714 550.98 532.98 551.32 
1715 550.95 533.21 551.32 
1716 550.65 533.30 551.32 
1717 550.78 533.18 551.32 
1718 551.11 532.71 551.32 
1719 550.86 532.85 551.32 
1720 550.89 532.38 551.32 
1721 550.54 532.50 551.32 
1722 551.14 532.71 551.32 
1723 550.96 532.68 551.32 
1724 550.86 533.08 551.32 
1725 551.23 533.58 551.32 
1726 551.15 533.40 551.32 
1727 551.05 533.38 551.32 
1728 551.02 533.13 551.32 
1729 551.25 533.32 551.32 
1730 551.31 533.35 551.32 
1731 551.18 534.17 551.32 
1732 551.25 534.59 551.32 
1733 551.06 534.72 551.32 
1734 551.11 534.99 551.32 
1735 550.88 534.30 551.32 
1736 551.19 534.22 551.32 
1737 551.10 534.47 551.32 
1738 551.11 533.98 551.32 
1739 550.92 533.92 551.32 
1740 551.05 533.95 551.32 
1741 551.13 533.70 551.32 
1742 550.89 533.74 551.32 
1743 551.03 533.30 551.32 
1744 551.26 533.40 551.32 
1745 551.03 533.95 551.32 
1746 551.09 533.90 551.32 
1747 551.31 533.85 551.32 
1748 551.24 533.74 551.32 
1749 545.13 534.12 551.32 
1750 550.99 534.05 551.32 
1751 551.00 533.80 551.32 
1752 551.04 532.70 551.32 
1753 550.80 532.62 551.32 
1754 550.51 532.66 551.32 
1755 550.84 532.84 551.32 
1756 551.05 533.00 551.32 
1757 551.06 533.24 551.32 
1758 551.03 533.32 551.32 
1759 551.27 533.21 551.32 
1760 551.23 533.23 551.32 
1761 551.11 533.05 551.32 
1762 551.36 533.00 551.32 
1763 551.28 533.10 551.36 
1764 551.32 533.06 551.36 
1765 551.03 533.27 551.36 
1766 551.24 532.81 551.36 
1767 551.19 533.49 551.36 
1768 551.22 533.58 551.36 
1769 551.17 533.55 551.36 
1770 551.10 533.23 551.36 
1771 551.17 533.01 551.36 
1772 551.20 532.98 551.36 
1773 551.23 532.95 551.36 
1774 551.32 533.24 551.36 
1775 551.10 533.64 551.36 
1776 551.19 532.72 551.36 
1777 551.46 532.36 551.36 
1778 551.42 533.08 551.46 
1779 551.26 533.25 551.46 
1780 551.40 533.67 551.46 
1781 551.44 533.37 551.46 
1782 551.16 533.31 551.46 
1783 551.30 534.15 551.46 
1784 551.14 533.63 551.46 
1785 551.45 533.73 551.46 
1786 551.48 533.76 551.46 
1787 551.39 534.03 551.48 
1788 551.58 534.32 551.48 
1789 551.23 534.21 551.58 
1790 551.56 533.67 551.58 
1791 551.52 534.02 551.58 
1792 551.33 535.38 551.58 
1793 551.27 535.57 551.58 
1794 551.41 535.80 551.58 
1795 551.56 536.25 551.58 
1796 551.41 536.50 551.58 
1797 551.49 535.82 551.58 
1798 551.61 535.70 551.58 
1799 551.51 535.38 551.61 
1800 551.43 534.93 551.61 
1801 551.53 534.83 551.61 
1802 551.66 534.92 551.61 
1803 551.34 535.31 551.66 
1804 551.63 535.41 551.66 
1805 551.37 535.90 551.66 
1806 551.00 535.75 551.66 
1807 551.70 535.79 551.66 
1808 551.38 535.59 551.70 
1809 551.37 535.41 551.70 
1810 551.76 535.77 551.70 
1811 551.64 535.75 551.76 
1812 551.52 536.05 551.76 
1813 551.41 536.39 551.76 
1814 551.74 536.67 551.76 
1815 551.37 536.58 551.76 
1816 551.68 536.45 551.76 
1817 551.35 535.77 551.76 
1818 551.68 536.13 551.76 
1819 551.51 536.40 551.76 
1820 551.44 535.73 551.76 
1821 551.66 535.74 551.76 
1822 551.59 535.84 551.76 
1823 551.50 535.78 551.76 
1824 551.69 536.07 551.76 
1825 551.51 535.92 551.76 
1826 551.69 536.65 551.76 
1827 551.78 536.05 551.76 
1828 551.61 536.20 551.78 
1829 551.68 536.23 551.78 
1830 551.49 536.90 551.78 
1831 551.44 536.45 551.78 
1832 551.50 535.96 551.78 
1833 551.73 536.06 551.78 
1834 551.99 536.13 551.78 
1835 551.53 536.02 551.99 
1836 551.89 536.15 551.99 
1837 551.82 535.71 551.99 
1838 551.88 536.18 551.99 
1839 551.97 536.29 551.99 
1840 551.99 535.85 551.99 
1841 551.66 535.98 551.99 
1842 551.82 536.25 551.99 
1843 551.73 536.14 551.99 
1844 546.89 535.66 551.99 
1845 551.88 535.95 551.99 
1846 551.74 535.47 551.99 
1847 551.69 535.66 551.99 
1848 551.64 535.12 551.99 
1849 551.52 534.78 551.99 
1850 551.38 534.47 551.99 
1851 551.43 534.06 551.99 
1852 551.54 534.43 551.99 
1853 551.41 534.64 551.99 
1854 551.57 534.97 551.99 
1855 551.84 535.01 551.99 
1856 551.44 534.82 551.99 
1857 551.64 534.77 551.99 
1858 551.38 534.09 551.99 
1859 551.49 534.95 551.99 
1860 551.80 534.43 551.99 
1861 551.44 534.32 551.99 
1862 551.58 534.70 551.99 
1863 551.73 535.24 551.99 
1864 544.86 535.09 551.99 
1865 551.68 535.57 551.99 
1866 551.71 535.75 551.99 
1867 551.82 535.83 551.99 
1868 551.66 535.57 551.99 
1869 551.63 535.22 551.99 
1870 551.67 535.30 551.99 
1871 551.71 535.68 551.99 
1872 551.70 535.38 551.99 
1873 551.70 535.96 551.99 
1874 551.68 536.64 551.99 
1875 551.84 536.75 551.99 
1876 551.61 537.10 551.99 
1877 551.78 536.99 551.99 
1878 551.38 537.31 551.99 
1879 546.44 536.99 551.99 
1880 551.74 536.08 551.99 
1881 551.88 536.10 551.99 
1882 551.61 535.84 551.99 
1883 551.65 536.06 551.99 
1884 551.46 535.98 551.99 
1885 551.69 535.92 551.99 
1886 551.52 535.98 551.99 
1887 551.28 536.33 551.99 
1888 551.37 536.10 551.99 
1889 551.72 535.65 551.99 
1890 551.42 536.45 551.99 
1891 551.78 536.94 551.99 
1892 551.74 536.63 551.99 
1893 551.67 535.80 551.99 
1894 551.86 535.28 551.99 
1895 551.71 535.90 551.99 
1896 551.99 535.60 551.99 
1897 551.79 535.76 551.99 
1898 545.51 535.97 551.99 
1899 551.83 535.80 551.99 
1900 551.96 535.51 551.99 
1901 551.50 535.43 551.99 
1902 551.72 535.59 551.99 
1903 551.31 535.15 551.99 
1904 551.64 534.89 551.99 
1905 551.73 534.83 551.99 
1906 551.89 535.09 551.99 
1907 551.75 534.66 551.99 
1908 551.36 534.83 551.99 
1909 551.67 535.05 551.99 
1910 551.94 534.38 551.99 
1911 551.69 534.25 551.99 
1912 551.78 534.61 551.99 
1913 551.94 534.68 551.99 
1914 551.75 534.57 551.99 
1915 551.99 535.01 551.99 
1916 551.92 534.69 551.99 
1917 546.52 534.81 551.99 
1918 551.83 534.84 551.99 
1919 551.73 534.60 551.99 
1920 551.61 534.25 551.99 
1921 551.62 534.61 551.99 
1922 551.75 534.99 551.99 
1923 551.92 535.10 551.99 
1924 551.69 534.69 551.99 
1925 551.61 534.78 551.99 
1926 551.79 534.64 551.99 
1927 551.94 534.47 551.99 
1928 551.69 534.43 551.99 
1929 551.83 535.00 551.99 
1930 551.96 534.89 551.99 
1931 551.86 534.91 551.99 
1932 551.85 535.29 551.99 
1933 551.88 535.12 551.99 
1934 551.79 534.98 551.99 
1935 551.83 534.87 551.99 
1936 552.02 534.04 551.99 
1937 551.99 534.34 552.02 
1938 551.98 534.96 552.02 
1939 551.95 535.17 552.02 
1940 552.01 535.32 552.02 
1941 551.78 535.46 552.02 
1942 552.05 535.85 552.02 
1943 551.97 536.23 552.05 
1944 552.07 535.67 552.05 
1945 552.12 535.09 552.07 
1946 551.92 534.57 552.12 
1947 551.82 534.71 552.12 
1948 552.11 534.97 552.12 
1949 552.16 534.81 552.12 
1950 552.05 534.72 552.16 
1951 552.16 534.88 552.16 
1952 552.04 534.82 552.16 
1953 552.06 535.18 552.16 
1954 552.05 535.66 552.16 
1955 552.16 535.57 552.16 
1956 552.16 535.52 552.16 
1957 552.37 534.84 552.16 
1958 552.15 534.79 552.37 
1959 552.11 534.95 552.37 
1960 552.06 535.22 552.37 
1961 552.19 536.07 552.37 
1962 552.01 535.97 552.37 
1963 552.21 536.52 552.37 
1964 552.13 536.41 552.37 
1965 552.11 536.24 552.37 
1966 552.19 535.53 552.37 
1967 552.05 535.36 552.37 
1968 545.61 535.46 552.37 
1969 552.19 535.19 552.37 
1970 552.11 534.72 552.37 
1971 552.05 533.86 552.37 
1972 552.13 534.18 552.37 
1973 552.26 533.73 552.37 
1974 552.19 533.86 552.37 
1975 552.02 533.77 552.37 
1976 552.17 534.41 552.37 
1977 551.73 534.73 552.37 
1978 552.03 534.85 552.37 
1979 552.01 534.19 552.37 
1980 551.96 533.47 552.37 
1981 552.21 533.91 552.37 
1982 552.26 534.04 552.37 
1983 552.05 534.37 552.37 
1984 552.43 534.56 552.37 
1985 552.11 534.30 552.43 
1986 552.33 534.48 552.43 
1987 552.33 534.71 552.43 
1988 552.21 535.06 552.43 
1989 552.23 535.01 552.43 
1990 552.14 535.21 552.43 
1991 552.31 535.47 552.43 
1992 552.08 535.34 552.43 
1993 552.31 535.49 552.43 
1994 552.19 535.80 552.43 
1995 552.22 535.66 552.43 
1996 552.34 535.38 552.43 
1997 552.27 535.74 552.43 
1998 552.29 535.83 552.43 
1999 552.15 535.36 552.43 
2000 552.21 535.28 552.43 
2001 552.33 535.43 552.43 
2002 552.35 535.53 552.43 
2003 552.41 535.03 552.43 
2004 552.16 534.66 552.43 
2005 552.36 535.37 552.43 
2006 552.30 535.12 552.43 
2007 552.28 534.56 552.43 
2008 552.18 534.32 552.43 
2009 552.33 534.03 552.43 
2010 552.31 535.11 552.43 
2011 552.39 535.72 552.43 
2012 552.39 535.77 552.43 
2013 552.27 535.91 552.43 
2014 552.30 536.13 552.43 
2015 552.44 535.96 552.43 
2016 552.42 535.85 552.44 
2017 552.47 535.97 552.44 
2018 552.21 536.05 552.47 
2019 552.56 536.27 552.47 
2020 552.27 535.98 552.56 
2021 552.54 536.29 552.56 
2022 552.17 536.01 552.56 
2023 552.51 536.37 552.56 
2024 552.38 535.66 552.56 
2025 552.39 535.80 552.56 
2026 545.56 535.16 552.56 
2027 552.60 535.14 552.56 
2028 552.32 534.93 552.60 
2029 552.35 535.09 552.60 
2030 552.22 535.30 552.60 
2031 552.19 535.03 552.60 
2032 552.16 534.07 552.60 
2033 552.17 533.41 552.60 
2034 551.59 533.41 552.60 
2035 552.20 533.46 552.60 
2036 552.22 534.37 552.60 
2037 552.30 534.38 552.60 
2038 552.38 534.93 552.60 
2039 552.41 535.20 552.60 
2040 552.31 534.70 552.60 
2041 552.39 535.37 552.60 
2042 551.99 534.77 552.60 
2043 552.25 534.45 552.60 
2044 552.27 535.04 552.60 
2045 552.26 534.62 552.60 
2046 552.40 534.76 552.60 
2047 552.31 534.63 552.60 
2048 552.26 534.69 552.60 
2049 552.29 533.98 552.60 
2050 545.34 534.07 552.60 
2051 552.39 534.08 552.60 
2052 552.44 534.73 552.60 
2053 552.19 535.29 552.60 
2054 551.97 535.45 552.60 
2055 552.28 535.71 552.60 
2056 552.25 535.27 552.60 
2057 552.56 535.46 552.60 
2058 552.38 536.03 552.60 
2059 552.18 535.96 552.60 
2060 552.56 535.76 552.60 
2061 552.35 535.42 552.60 
2062 552.33 535.54 552.60 
2063 552.34 536.47 552.60 
2064 552.45 536.21 552.60 
2065 552.57 536.29 552.60 
2066 552.64 535.87 552.60 
2067 552.36 535.74 552.64 
2068 552.47 534.98 552.64 
2069 552.52 535.54 552.64 
2070 546.09 535.84 552.64 
2071 552.41 536.15 552.64 
2072 552.43 536.36 552.64 
2073 552.26 536.69 552.64 
2074 546.11 537.20 552.64 
2075 552.30 537.30 552.64 
2076 552.46 537.14 552.64 
2077 552.23 537.01 552.64 
2078 552.24 536.99 552.64 
2079 552.30 536.15 552.64 
2080 552.30 537.15 552.64 
2081 552.25 537.43 552.64 
2082 552.34 537.47 552.64 
2083 552.25 536.81 552.64 
2084 552.42 536.96 552.64 
2085 552.48 537.00 552.64 
2086 552.57 537.08 552.64 
2087 552.35 537.22 552.64 
2088 552.39 536.52 552.64 
2089 552.47 536.61 552.64 
2090 552.36 536.60 552.64 
2091 552.31 536.32 552.64 
2092 552.16 537.20 552.64 
2093 552.34 537.54 552.64 
2094 552.24 537.02 552.64 
2095 552.43 537.88 552.64 
2096 552.36 537.97 552.64 
2097 552.37 537.88 552.64 
2098 552.50 538.00 552.64 
2099 552.60 537.30 552.64 
2100 552.47 537.55 552.64 
2101 545.63 538.04 552.64 
2102 552.73 537.53 552.64 
2103 545.87 537.05 552.73 
2104 552.39 536.94 552.73 
2105 552.44 537.29 552.73 
2106 552.58 537.13 552.73 
2107 552.47 537.26 552.73 
2108 552.44 537.09 552.73 
2109 552.58 537.22 552.73 
2110 552.49 537.45 552.73 
2111 552.65 537.51 552.73 
2112 552.58 537.16 552.73 
2113 552.39 536.65 552.73 
2114 552.68 536.89 552.73 
2115 552.61 537.39 552.73 
2116 552.55 537.18 552.73 
2117 552.70 537.67 552.73 
2118 552.41 537.55 552.73 
2119 552.72 537.54 552.73 
2120 552.60 537.31 552.73 
2121 552.80 537.61 552.73 
2122 552.75 537.89 552.80 
2123 552.77 538.29 552.80 
2124 552.62 538.82 552.80 
2125 552.65 539.39 552.80 
2126 552.56 539.08 552.80 
2127 552.67 539.80 552.80 
2128 552.45 540.03 552.80 
2129 552.74 540.04 552.80 
2130 552.61 540.81 552.80 
2131 552.77 541.00 552.80 
2132 552.66 540.84 552.80 
2133 552.77 540.25 552.80 
2134 552.76 540.88 552.80 
2135 552.81 541.13 552.80 
2136 552.83 541.01 552.81 
2137 552.95 540.96 552.83 
2138 552.73 541.21 552.95 
2139 552.70 541.13 552.95 
2140 552.85 541.28 552.95 
2141 552.87 540.83 552.95 
2142 552.87 540.93 552.95 
2143 547.25 542.30 552.95 
2144 552.83 542.86 552.95 
2145 552.72 543.15 552.95 
2146 552.83 543.03 552.95 
2147 552.67 542.72 552.95 
2148 540.28 542.45 552.95 
2149 553.04 542.41 552.95 
2150 552.58 542.48 553.04 
2151 552.75 542.33 553.04 
2152 547.03 542.61 553.04 
2153 552.84 543.14 553.04 
2154 552.57 543.42 553.04 
2155 552.73 543.24 553.04 
2156 552.54 542.86 553.04 
2157 552.74 543.44 553.04 
2158 552.79 542.77 553.04 
2159 552.64 542.13 553.04 
2160 545.94 542.40 553.04 
2161 546.36 542.32 553.04 
2162 538.58 542.02 553.04 
2163 552.45 542.52 553.04 
2164 552.65 542.45 553.04 
2165 552.62 543.07 553.04 
2166 539.86 542.50 553.04 
2167 552.77 542.31 553.04 
2168 552.58 542.23 553.04 
2169 552.76 541.90 553.04 
2170 552.89 542.30 553.04 
2171 552.86 542.58 553.04 
2172 540.23 542.84 553.04 
2173 545.96 542.82 553.04 
2174 552.52 543.09 553.04 
2175 552.80 542.52 553.04 
2176 552.71 542.10 553.04 
2177 546.23 542.52 553.04 
2178 545.82 542.44 553.04 
2179 552.83 542.19 553.04 
2180 552.65 542.12 553.04 
2181 552.65 542.16 553.04 
2182 552.80 542.28 553.04 
2183 552.59 542.24 553.04 
2184 552.53 542.19 553.04 
2185 552.76 542.40 553.04 
2186 552.65 542.27 553.04 
2187 540.89 542.26 553.04 
2188 552.66 542.78 553.04 
2189 552.56 544.21 553.04 
2190 552.89 544.90 553.04 
2191 552.65 545.32 553.04 
2192 552.61 544.88 553.04 
2193 552.78 543.71 553.04 
2194 552.79 544.08 553.04 
2195 552.72 543.57 553.04 
2196 552.93 543.77 553.04 
2197 552.83 544.13 553.04 
2198 546.80 545.02 553.04 
2199 552.79 545.00 553.04 
2200 546.83 545.81 553.04 
2201 540.06 545.70 553.04 
2202 552.70 545.57 553.04 
2203 552.55 545.99 553.04 
2204 552.68 545.43 553.04 
2205 552.85 544.87 553.04 
2206 552.73 545.08 553.04 
2207 552.64 545.53 553.04 
2208 552.78 545.38 553.04 
2209 552.75 544.23 553.04 
2210 552.67 544.33 553.04 
2211 552.78 544.44 553.04 
2212 552.84 543.73 553.04 
2213 552.72 543.57 553.04 
2214 552.81 544.47 553.04 
2215 552.85 544.01 553.04 
2216 553.04 544.55 553.04 
2217 552.72 544.31 553.04 
2218 552.92 543.92 553.04 
2219 552.86 543.23 553.04 
2220 552.70 543.58 553.04 
2221 545.92 543.61 553.04 
2222 553.12 543.65 553.04 
2223 548.13 543.23 553.12 
2224 553.03 543.54 553.12 
2225 552.78 542.62 553.12 
2226 552.88 543.37 553.12 
2227 545.58 542.52 553.12 
2228 552.73 542.97 553.12 
2229 552.73 543.11 553.12 
2230 552.89 543.13 553.12 
2231 552.88 542.46 553.12 
2232 552.78 542.41 553.12 
2233 552.83 541.52 553.12 
2234 552.58 541.78 553.12 
2235 552.66 541.93 553.12 
2236 552.51 541.68 553.12 
2237 552.75 542.50 553.12 
2238 545.92 542.33 553.12 
2239 552.83 542.01 553.12 
2240 552.81 541.44 553.12 
2241 553.00 540.85 553.12 
2242 552.99 541.11 553.12 
2243 552.62 540.92 553.12 
2244 552.99 541.29 553.12 
2245 546.61 541.19 553.12 
2246 548.27 541.62 553.12 
2247 552.88 541.99 553.12 
2248 546.83 541.37 553.12 
2249 547.46 541.74 553.12 
2250 552.98 541.77 553.12 
2251 553.04 541.50 553.12 
2252 552.98 541.39 553.12 
2253 552.90 541.36 553.12 
2254 553.03 541.52 553.12 
2255 553.25 541.61 553.12 
2256 540.85 542.08 553.25 
2257 553.34 541.75 553.25 
2258 546.34 542.79 553.34 
2259 553.19 542.83 553.34 
2260 553.29 542.14 553.34 
2261 553.24 541.04 553.34 
2262 553.62 541.26 553.34 
2263 546.84 540.71 553.62 
2264 553.57 540.97 553.62 
2265 553.57 541.44 553.62 
2266 546.86 541.56 553.62 
2267 553.49 542.13 553.62 
2268 546.23 542.04 553.62 
2269 539.75 542.25 553.62 
2270 552.93 542.64 553.62 
2271 546.49 541.87 553.62 
2272 553.18 541.91 553.62 
2273 553.40 541.59 553.62 
2274 547.74 540.60 553.62 
2275 546.77 540.23 553.62 
2276 553.30 539.56 553.62 
2277 553.71 540.56 553.62 
2278 553.44 540.13 553.71 
2279 553.79 539.85 553.71 
2280 554.05 544.05 553.79 
2281 541.38 544.76 554.05 
2282 554.48 544.05 554.05 
2283 548.66 545.09 554.48 
2284 554.51 544.87 554.48 
2285 540.17 545.05 554.51 
2286 548.19 544.65 554.51 
2287 554.45 545.06 554.51 
2288 554.72 544.00 554.51 
2289 548.13 543.91 554.72 
2290 553.92 543.04 554.72 
2291 554.70 542.97 554.72 
2292 554.61 543.19 554.72 
2293 555.37 543.53 554.72 
2294 541.16 539.59 555.37 
2295 549.00 544.76 555.37 
2296 547.30 544.89 555.37 
2297 554.49 545.19 555.37 
2298 554.94 545.59 555.37 
2299 555.05 546.13 555.37 
2300 554.92 546.49 555.37 
2301 555.54 546.49 555.37 
2302 528.16 546.00 555.54 
2303 549.90 545.60 555.54 
2304 549.00 546.12 555.54 
2305 549.09 546.62 555.54 
2306 547.94 547.94 555.54 
2307 555.10 547.28 555.54 
2308 554.40 547.31 555.54 
2309 541.14 547.50 555.54 
2310 555.10 547.88 555.54 
2311 554.34 547.24 555.54 
2312 555.02 546.92 555.54 
2313 541.50 545.89 555.54 
2314 555.11 546.27 555.54 
2315 549.97 545.28 555.54 
2316 554.81 545.17 555.54 
2317 555.48 544.48 555.54 
2318 535.88 544.36 555.54 
2319 548.37 543.88 555.54 
2320 555.00 543.91 555.54 
2321 554.77 543.94 555.54 
2322 548.43 544.39 555.54 
2323 554.96 543.70 555.54 
2324 555.14 543.24 555.54 
2325 555.13 542.72 555.54 
2326 555.24 542.85 555.54 
2327 555.48 542.53 555.54 
2328 548.72 542.78 555.54 
2329 550.15 542.40 555.54 
2330 555.36 542.67 555.54 
2331 555.32 542.11 555.54 
2332 555.65 542.20 555.54 
2333 549.01 541.87 555.65 
2334 555.07 541.88 555.65 
2335 548.37 542.85 555.65 
2336 548.13 542.66 555.65 
2337 543.26 542.41 555.65 
2338 554.49 542.25 555.65 
2339 547.78 542.36 555.65 
2340 554.44 542.08 555.65 
2341 548.24 541.75 555.65 
2342 554.32 541.20 555.65 
2343 554.52 539.76 555.65 
2344 554.36 539.77 555.65 
2345 554.12 539.87 555.65 
2346 543.58 540.41 555.65 
2347 554.59 539.67 555.65 
2348 554.47 538.93 555.65 
2349 554.01 539.36 555.65 
2350 554.29 539.18 555.65 
2351 553.98 539.34 555.65 
2352 553.85 539.10 555.65 
2353 553.42 539.51 555.65 
2354 549.34 539.51 555.65 
2355 553.72 539.91 555.65 
2356 553.82 539.52 555.65 
2357 553.62 539.31 555.65 
2358 553.46 539.32 555.65 
2359 553.80 539.06 555.65 
2360 553.58 538.54 555.65 
2361 553.88 539.64 555.65 
2362 547.08 539.68 555.65 
2363 554.00 539.87 555.65 
2364 553.58 539.85 555.65 
2365 546.62 540.05 555.65 
2366 553.89 539.70 555.65 
2367 553.42 539.37 555.65 
2368 545.78 539.51 555.65 
2369 553.41 540.53 555.65 
2370 553.92 540.17 555.65 
2371 547.02 540.50 555.65 
2372 553.99 540.73 555.65 
2373 549.31 540.10 555.65 
2374 553.69 539.51 555.65 
2375 554.04 540.04 555.65 
2376 553.82 540.17 555.65 
2377 554.15 540.22 555.65 
2378 553.69 540.04 555.65 
2379 553.96 539.61 555.65 
2380 554.00 540.01 555.65 
2381 553.90 540.10 555.65 
2382 553.71 539.72 555.65 
2383 554.37 539.85 555.65 
2384 554.02 540.01 555.65 
2385 554.37 539.91 555.65 
2386 547.97 540.01 555.65 
2387 554.05 540.55 555.65 
2388 554.35 540.67 555.65 
2389 554.46 540.33 555.65 
2390 554.22 540.49 555.65 
2391 554.30 540.83 555.65 
2392 554.38 540.38 555.65 
2393 548.37 540.71 555.65 
2394 554.08 540.75 555.65 
2395 553.86 540.59 555.65 
2396 554.35 540.39 555.65 
2397 553.84 540.85 555.65 
2398 554.50 540.45 555.65 
2399 554.26 540.63 555.65 
2400 554.74 540.75 555.65 
2401 554.44 540.80 555.65 
2402 554.10 541.01 555.65 
2403 554.34 540.40 555.65 
2404 553.76 540.64 555.65 
2405 553.45 541.03 555.65 
2406 553.76 541.06 555.65 
2407 554.21 540.85 555.65 
2408 554.04 541.38 555.65 
2409 554.33 541.45 555.65 
2410 548.07 541.76 555.65 
2411 554.28 541.75 555.65 
2412 547.25 541.54 555.65 
2413 554.43 541.43 555.65 
2414 547.38 540.58 555.65 
2415 554.92 540.07 555.65 
2416 554.52 540.31 555.65 
2417 554.53 540.15 555.65 
2418 554.57 540.75 555.65 
2419 554.69 541.19 555.65 
2420 555.04 540.76 555.65 
2421 554.77 540.65 555.65 
2422 554.71 539.94 555.65 
2423 554.56 540.32 555.65 
2424 554.75 539.61 555.65 
2425 554.56 539.53 555.65 
2426 554.56 539.31 555.65 
2427 554.38 539.34 555.65 
2428 547.53 540.02 555.65 
2429 554.55 540.06 555.65 
2430 554.10 540.24 555.65 
2431 554.45 540.42 555.65 
2432 548.08 540.33 555.65 
2433 554.27 539.24 555.65 
2434 554.59 539.97 555.65 
2435 554.48 539.89 555.65 
2436 554.82 540.36 555.65 
2437 554.76 540.54 555.65 
2438 555.48 539.80 555.65 
2439 555.68 539.69 555.65 
2440 549.35 540.36 555.68 
2441 555.24 540.64 555.68 
2442 555.26 539.98 555.68 
2443 555.70 540.16 555.68 
2444 555.42 540.06 555.70 
2445 555.33 541.02 555.70 
2446 555.57 542.02 555.70 
2447 555.62 541.64 555.70 
2448 556.17 541.85 555.70 
2449 555.85 541.36 556.17 
2450 548.53 541.76 556.17 
2451 555.85 541.53 556.17 
2452 556.46 542.00 556.17 
2453 556.22 541.51 556.46 
2454 550.42 541.61 556.46 
2455 556.01 541.00 556.46 
2456 556.02 541.83 556.46 
2457 556.25 542.22 556.46 
2458 556.26 542.83 556.46 
2459 555.76 542.06 556.46 
2460 556.19 542.05 556.46 
2461 551.73 542.35 556.46 
2462 556.17 542.27 556.46 
2463 549.31 542.71 556.46 
2464 556.59 542.63 556.46 
2465 556.47 542.17 556.59 
2466 556.07 541.70 556.59 
2467 556.29 541.80 556.59 
2468 556.36 541.67 556.59 
2469 556.20 541.48 556.59 
2470 556.03 541.49 556.59 
2471 556.18 542.00 556.59 
2472 554.85 541.88 556.59 
2473 555.65 542.86 556.59 
2474 556.01 542.56 556.59 
2475 556.02 542.60 556.59 
2476 556.44 542.68 556.59 
2477 556.30 541.47 556.59 
2478 556.39 542.01 556.59 
2479 556.25 542.29 556.59 
2480 556.48 542.50 556.59 
2481 556.42 542.97 556.59 
2482 556.52 543.03 556.59 
2483 556.54 543.27 556.59 
2484 551.90 542.27 556.59 
2485 556.34 542.82 556.59 
2486 556.24 542.38 556.59 
2487 556.58 542.70 556.59 
2488 549.11 543.15 556.59 
2489 556.38 543.58 556.59 
2490 556.25 543.12 556.59 
2491 556.32 542.69 556.59 
2492 556.03 543.21 556.59 
2493 556.56 543.36 556.59 
2494 556.46 543.47 556.59 
2495 549.99 543.38 556.59 
2496 556.49 544.12 556.59 
2497 556.78 543.87 556.59 
2498 548.20 544.18 556.78 
2499 556.62 544.24 556.78 
2500 556.40 543.51 556.78 
2501 556.43 543.10 556.78 
2502 556.42 543.49 556.78 
2503 556.59 543.63 556.78 
2504 556.37 543.17 556.78 
2505 556.68 542.83 556.78 
2506 549.85 542.61 556.78 
2507 556.82 542.86 556.78 
2508 556.79 543.51 556.82 
2509 556.53 542.87 556.82 
2510 556.54 542.98 556.82 
2511 556.94 542.86 556.82 
2512 556.76 542.85 556.94 
2513 556.73 543.05 556.94 
2514 556.63 543.73 556.94 
2515 556.60 543.74 556.94 
2516 556.41 544.39 556.94 
2517 556.42 544.20 556.94 
2518 556.62 544.24 556.94 
2519 556.72 544.33 556.94 
2520 556.89 544.28 556.94 
2521 556.89 544.54 556.94 
2522 556.87 544.44 556.94 
2523 556.67 544.75 556.94 
2524 549.64 544.73 556.94 
2525 556.47 544.79 556.94 
2526 556.56 545.17 556.94 
2527 549.63 544.20 556.94 
2528 556.34 545.22 556.94 
2529 556.60 545.38 556.94 
2530 556.74 545.16 556.94 
2531 550.38 545.61 556.94 
2532 556.83 544.96 556.94 
2533 556.63 545.00 556.94 
2534 556.52 545.58 556.94 
2535 556.50 545.46 556.94 
2536 556.70 544.75 556.94 
2537 549.58 545.05 556.94 
2538 556.61 545.49 556.94 
2539 556.76 545.04 556.94 
2540 550.76 544.94 556.94 
2541 556.82 545.04 556.94 
2542 556.57 544.95 556.94 
2543 557.08 544.83 556.94 
2544 556.77 544.88 557.08 
2545 556.48 545.57 557.08 
2546 556.61 545.85 557.08 
2547 556.86 545.77 557.08 
2548 556.82 545.69 557.08 
2549 557.17 545.91 557.08 
2550 556.79 545.32 557.17 
2551 556.97 545.29 557.17 
2552 556.64 544.94 557.17 
2553 556.68 545.47 557.17 
2554 556.75 546.04 557.17 
2555 556.88 545.43 557.17 
2556 557.18 544.07 557.17 
2557 557.31 544.47 557.18 
2558 557.04 544.67 557.31 
2559 557.05 544.75 557.31 
2560 557.03 544.81 557.31 
2561 556.82 544.22 557.31 
2562 557.01 545.01 557.31 
2563 556.83 545.19 557.31 
2564 549.91 544.62 557.31 
2565 557.06 545.15 557.31 
2566 557.04 545.38 557.31 
2567 556.98 545.08 557.31 
2568 557.23 545.27 557.31 
2569 557.34 544.71 557.31 
2570 556.96 544.58 557.34 
2571 557.11 544.64 557.34 
2572 557.30 544.81 557.34 
2573 557.19 544.89 557.34 
2574 557.28 544.43 557.34 
2575 557.02 545.98 557.34 
2576 557.17 544.35 557.34 
2577 557.25 543.44 557.34 
2578 557.10 544.78 557.34 
2579 557.15 545.17 557.34 
2580 557.17 544.51 557.34 
2581 557.20 543.84 557.34 
2582 557.18 543.89 557.34 
2583 554.93 543.82 557.34 
2584 556.96 544.23 557.34 
2585 557.32 544.26 557.34 
2586 557.18 543.69 557.34 
2587 556.84 542.98 557.34 
2588 557.08 543.79 557.34 
2589 557.27 543.90 557.34 
2590 556.99 544.48 557.34 
2591 557.09 544.20 557.34 
2592 557.16 543.76 557.34 
2593 557.13 544.55 557.34 
2594 557.49 543.87 557.34 
2595 557.24 543.58 557.49 
2596 557.18 542.48 557.49 
2597 557.14 542.81 557.49 
2598 557.02 543.45 557.49 
2599 557.28 543.42 557.49 
2600 557.56 543.57 557.49 
2601 557.31 544.20 557.56 
2602 557.51 543.64 557.56 
2603 557.40 544.33 557.56 
2604 557.52 544.66 557.56 
2605 557.29 544.34 557.56 
2606 550.93 544.97 557.56 
2607 557.49 544.70 557.56 
2608 554.05 545.01 557.56 
2609 557.49 544.85 557.56 
2610 557.50 543.68 557.56 
2611 557.35 544.56 557.56 
2612 557.25 543.82 557.56 
2613 557.39 543.76 557.56 
2614 557.52 544.57 557.56 
2615 557.45 544.94 557.56 
2616 557.72 545.54 557.56 
2617 557.68 546.15 557.72 
2618 557.56 546.23 557.72 
2619 557.67 545.65 557.72 
2620 557.51 545.37 557.72 
2621 557.05 546.04 557.72 
2622 557.70 545.68 557.72 
2623 557.82 545.95 557.72 
2624 557.50 545.64 557.82 
2625 557.72 546.19 557.82 
2626 557.87 546.46 557.82 
2627 556.94 545.52 557.87 
2628 557.48 546.38 557.87 
2629 557.75 546.18 557.87 
2630 557.67 546.58 557.87 
2631 557.71 546.08 557.87 
2632 557.77 546.58 557.87 
2633 557.87 547.07 557.87 
2634 557.73 547.46 557.87 
2635 557.81 547.09 557.87 
2636 557.85 547.22 557.87 
2637 557.94 547.78 557.87 
2638 558.12 548.79 557.94 
2639 557.99 548.83 558.12 
2640 558.08 548.85 558.12 
2641 558.01 548.96 558.12 
2642 558.05 549.17 558.12 
2643 558.08 549.39 558.12 
2644 558.21 549.32 558.12 
2645 551.36 549.39 558.21 
2646 558.29 550.49 558.21 
2647 557.87 550.70 558.29 
2648 558.03 551.02 558.29 
2649 557.86 551.42 558.29 
2650 557.72 551.66 558.29 
2651 558.17 550.61 558.29 
2652 558.03 550.30 558.29 
2653 557.98 551.24 558.29 
2654 557.97 551.04 558.29 
2655 558.15 550.82 558.29 
2656 557.99 550.93 558.29 
2657 558.13 551.30 558.29 
2658 558.32 551.62 558.29 
2659 558.11 551.59 558.32 
2660 558.18 552.49 558.32 
2661 558.00 552.75 558.32 
2662 558.02 552.34 558.32 
2663 557.96 552.70 558.32 
2664 558.28 553.30 558.32 
2665 558.14 553.10 558.32 
2666 558.17 552.34 558.32 
2667 558.32 551.77 558.32 
2668 558.22 551.05 558.32 
2669 558.33 550.83 558.32 
2670 558.00 551.73 558.33 
2671 558.19 551.78 558.33 
2672 551.45 551.47 558.33 
2673 558.13 551.58 558.33 
2674 558.06 550.83 558.33 
2675 557.96 550.77 558.33 
2676 558.27 550.84 558.33 
2677 558.09 549.65 558.33 
2678 558.31 550.45 558.33 
2679 558.11 550.21 558.33 
2680 558.15 550.76 558.33 
2681 558.03 551.11 558.33 
2682 558.16 550.52 558.33 
2683 558.14 550.92 558.33 
2684 558.18 550.58 558.33 
2685 558.13 550.86 558.33 
2686 558.01 550.79 558.33 
2687 558.28 551.07 558.33 
2688 558.17 551.39 558.33 
2689 553.28 551.57 558.33 
2690 558.16 551.17 558.33 
2691 558.18 550.48 558.33 
2692 558.15 550.47 558.33 
2693 558.23 549.74 558.33 
2694 558.00 549.49 558.33 
2695 557.92 549.87 558.33 
2696 558.00 549.27 558.33 
2697 558.02 549.24 558.33 
2698 557.74 549.87 558.33 
2699 557.96 549.98 558.33 
2700 558.00 550.40 558.33 
2701 557.95 549.69 558.33 
2702 557.41 549.66 558.33 
2703 558.01 549.58 558.33 
2704 558.09 548.97 558.33 
2705 558.04 549.39 558.33 
2706 557.98 550.94 558.33 
2707 557.98 550.99 558.33 
2708 558.23 551.75 558.33 
2709 558.10 552.20 558.33 
2710 557.99 551.50 558.33 
2711 558.20 552.03 558.33 
2712 558.34 552.35 558.33 
2713 558.25 551.50 558.34 
2714 558.35 551.91 558.34 
2715 558.23 551.62 558.35 
2716 558.01 551.55 558.35 
2717 558.23 551.43 558.35 
2718 557.87 551.23 558.35 
2719 558.08 551.47 558.35 
2720 558.24 552.27 558.35 
2721 558.05 551.94 558.35 
2722 558.26 552.10 558.35 
2723 558.15 552.19 558.35 
2724 558.22 552.47 558.35 
2725 558.23 552.61 558.35 
2726 558.29 552.61 558.35 
2727 558.35 553.01 558.35 
2728 558.44 553.06 558.35 
2729 558.43 552.44 558.44 
2730 558.38 552.18 558.44 
2731 558.56 552.53 558.44 
2732 558.51 553.58 558.56 
2733 558.63 552.57 558.56 
2734 558.43 553.27 558.63 
2735 558.30 552.17 558.63 
2736 558.34 552.09 558.63 
2737 551.51 552.25 558.63 
2738 558.23 551.76 558.63 
2739 558.26 551.86 558.63 
2740 558.28 552.25 558.63 
2741 551.24 551.75 558.63 
2742 558.45 552.19 558.63 
2743 558.58 552.07 558.63 
2744 558.30 552.07 558.63 
2745 558.33 551.93 558.63 
2746 558.29 552.25 558.63 
2747 558.42 551.90 558.63 
2748 558.48 552.46 558.63 
2749 558.53 552.66 558.63 
2750 558.28 552.57 558.63 
2751 558.42 553.18 558.63 
2752 558.38 553.05 558.63 
2753 558.28 552.70 558.63 
2754 558.52 553.27 558.63 
2755 558.43 552.73 558.63 
2756 558.38 552.33 558.63 
2757 558.45 551.99 558.63 
2758 558.45 551.87 558.63 
2759 558.54 551.94 558.63 
2760 558.45 552.47 558.63 
2761 558.23 552.03 558.63 
2762 558.55 551.96 558.63 
2763 558.39 551.54 558.63 
2764 558.53 551.91 558.63 
2765 558.56 552.05 558.63 
2766 558.71 552.39 558.63 
2767 558.51 552.63 558.71 
2768 558.50 552.78 558.71 
2769 558.67 552.88 558.71 
2770 558.29 552.52 558.71 
2771 558.41 551.76 558.71 
2772 558.60 551.80 558.71 
2773 558.33 552.38 558.71 
2774 558.31 552.03 558.71 
2775 558.41 551.14 558.71 
2776 558.58 551.08 558.71 
2777 558.83 551.13 558.71 
2778 558.52 550.61 558.83 
2779 558.62 551.00 558.83 
2780 558.56 550.92 558.83 
2781 558.82 550.83 558.83 
2782 558.68 550.24 558.83 
2783 551.23 550.58 558.83 
2784 558.58 551.09 558.83 
2785 558.58 551.06 558.83 
2786 558.55 550.82 558.83 
2787 558.53 550.75 558.83 
2788 558.44 550.61 558.83 
2789 558.45 551.42 558.83 
2790 558.60 551.94 558.83 
2791 558.63 551.09 558.83 
2792 558.86 551.76 558.83 
2793 558.55 551.08 558.86 
2794 551.63 550.81 558.86 
2795 558.53 550.40 558.86 
2796 558.58 550.99 558.86 
2797 558.45 551.21 558.86 
2798 558.45 551.38 558.86 
2799 558.55 551.50 558.86 
2800 558.54 550.95 558.86 
2801 558.61 551.18 558.86 
2802 558.42 551.66 558.86 
2803 558.61 552.18 558.86 
2804 558.50 552.07 558.86 
2805 558.41 551.82 558.86 
2806 558.62 552.20 558.86 
2807 558.54 551.31 558.86 
2808 558.73 551.62 558.86 
2809 558.58 552.33 558.86 
2810 558.58 552.75 558.86 
2811 558.61 553.77 558.86 
2812 558.47 552.57 558.86 
2813 558.55 553.09 558.86 
2814 558.60 553.55 558.86 
2815 558.56 552.85 558.86 
2816 558.63 552.66 558.86 
2817 558.72 552.46 558.86 
2818 558.55 552.59 558.86 
2819 558.44 551.74 558.86 
2820 558.36 551.84 558.86 
2821 558.62 551.90 558.86 
2822 558.67 551.30 558.86 
2823 558.59 552.06 558.86 
2824 558.71 552.67 558.86 
2825 558.77 553.06 558.86 
2826 551.43 553.58 558.86 
2827 558.46 553.52 558.86 
2828 558.62 552.88 558.86 
2829 558.53 552.03 558.86 
2830 558.53 552.44 558.86 
2831 558.78 552.09 558.86 
2832 558.71 553.07 558.86 
2833 544.86 552.36 558.86 
2834 558.61 552.59 558.86 
2835 558.75 551.99 558.86 
2836 558.71 552.03 558.86 
2837 558.42 552.36 558.86 
2838 558.66 552.88 558.86 
2839 558.74 552.69 558.86 
2840 558.32 552.89 558.86 
2841 558.61 553.53 558.86 
2842 558.58 554.25 558.86 
2843 558.60 553.27 558.86 
2844 551.63 554.01 558.86 
2845 551.65 553.14 558.86 
2846 558.59 553.50 558.86 
2847 558.76 552.57 558.86 
2848 558.67 552.59 558.86 
2849 558.44 553.44 558.86 
2850 558.58 553.45 558.86 
2851 558.43 553.68 558.86 
2852 558.63 553.35 558.86 
2853 558.42 553.16 558.86 
2854 558.24 553.21 558.86 
2855 558.57 552.82 558.86 
2856 551.43 552.94 558.86 
2857 558.48 552.78 558.86 
2858 558.47 552.62 558.86 
2859 552.06 552.60 558.86 
2860 558.32 552.85 558.86 
2861 558.58 552.80 558.86 
2862 558.59 552.85 558.86 
2863 558.51 552.12 558.86 
2864 558.40 552.20 558.86 
2865 558.33 551.84 558.86 
2866 558.34 551.74 558.86 
2867 558.47 551.08 558.86 
2868 558.24 551.17 558.86 
2869 558.33 550.99 558.86 
2870 558.08 551.07 558.86 
2871 554.33 550.69 558.86 
2872 558.35 550.65 558.86 
2873 558.35 550.71 558.86 
2874 558.16 550.81 558.86 
2875 558.23 551.11 558.86 
2876 558.39 550.30 558.86 
2877 558.27 550.31 558.86 
2878 558.21 550.54 558.86 
2879 558.34 550.93 558.86 
2880 558.32 550.79 558.86 
2881 558.35 550.35 558.86 
2882 558.27 551.14 558.86 
2883 558.37 551.75 558.86 
2884 558.35 552.10 558.86 
2885 558.64 552.40 558.86 
2886 558.54 552.26 558.86 
2887 558.61 552.17 558.86 
2888 558.57 552.37 558.86 
2889 558.43 552.59 558.86 
2890 558.36 552.19 558.86 
2891 558.52 552.51 558.86 
2892 558.75 553.06 558.86 
2893 558.63 553.24 558.86 
2894 558.64 553.68 558.86 
2895 558.67 553.76 558.86 
2896 558.69 553.63 558.86 
2897 558.73 553.25 558.86 
2898 558.68 553.36 558.86 
2899 558.52 553.49 558.86 
2900 558.88 553.42 558.86 
2901 558.69 553.46 558.88 
2902 558.64 553.86 558.88 
2903 558.63 552.79 558.88 
2904 558.78 552.72 558.88 
2905 558.77 553.08 558.88 
2906 558.65 552.90 558.88 
2907 558.74 552.78 558.88 
2908 558.67 553.04 558.88 
2909 553.55 553.37 558.88 
2910 551.56 553.52 558.88 
2911 558.82 553.72 558.88 
2912 558.73 553.69 558.88 
2913 558.74 553.16 558.88 
2914 558.78 553.49 558.88 
2915 558.68 553.64 558.88 
2916 558.60 553.84 558.88 
2917 558.86 553.23 558.88 
2918 558.76 553.42 558.88 
2919 558.71 553.42 558.88 
2920 558.69 553.03 558.88 
2921 558.72 552.95 558.88 
2922 558.84 553.45 558.88 
2923 558.78 553.34 558.88 
2924 558.62 552.89 558.88 
2925 558.78 552.33 558.88 
2926 558.51 552.89 558.88 
2927 552.27 552.73 558.88 
2928 558.74 553.01 558.88 
2929 558.82 553.53 558.88 
2930 558.98 553.27 558.88 
2931 558.80 554.08 558.98 
2932 558.64 553.68 558.98 
2933 558.89 553.65 558.98 
2934 558.73 553.07 558.98 
2935 558.64 553.85 558.98 
2936 558.94 553.69 558.98 
2937 558.86 554.00 558.98 
2938 558.57 553.97 558.98 
2939 558.63 554.88 558.98 
2940 558.69 554.04 558.98 
2941 558.60 553.84 558.98 
2942 558.53 553.80 558.98 
2943 558.54 553.84 558.98 
2944 558.66 554.18 558.98 
2945 558.63 554.53 558.98 
2946 558.74 554.06 558.98 
2947 558.70 555.07 558.98 
2948 558.76 555.36 558.98 
2949 558.71 553.96 558.98 
2950 558.61 554.05 558.98 
2951 558.78 553.65 558.98 
2952 558.96 553.47 558.98 
2953 558.86 553.88 558.98 
2954 558.96 555.24 558.98 
2955 558.95 554.26 558.98 
2956 558.80 554.57 558.98 
2957 558.76 554.99 558.98 
2958 558.80 554.74 558.98 
2959 558.55 555.07 558.98 
2960 558.82 553.88 558.98 
2961 558.80 554.45 558.98 
2962 558.83 554.68 558.98 
2963 558.49 554.49 558.98 
2964 558.78 554.80 558.98 
2965 558.80 555.74 558.98 
2966 558.73 554.61 558.98 
2967 552.25 555.36 558.98 
2968 558.79 554.87 558.98 
2969 551.47 554.92 558.98 
2970 552.07 555.21 558.98 
2971 558.72 554.83 558.98 
2972 558.78 554.61 558.98 
2973 558.77 554.24 558.98 
2974 558.63 554.61 558.98 
2975 558.65 554.70 558.98 
2976 558.78 553.57 558.98 
2977 558.53 553.29 558.98 
2978 558.72 554.50 558.98 
2979 558.66 554.30 558.98 
2980 558.74 554.20 558.98 
2981 558.77 553.27 558.98 
2982 558.58 553.21 558.98 
2983 558.73 553.39 558.98 
2984 558.57 553.32 558.98 
2985 558.66 553.83 558.98 
2986 558.66 553.39 558.98 
2987 558.94 553.90 558.98 
2988 558.64 554.26 558.98 
2989 558.77 553.64 558.98 
2990 558.50 553.79 558.98 
2991 558.99 554.31 558.98 
2992 558.78 554.01 558.99 
2993 558.78 554.23 558.99 
2994 558.85 554.48 558.99 
2995 551.91 554.39 558.99 
2996 552.01 554.25 558.99 
2997 558.69 553.94 558.99 
2998 558.56 554.54 558.99 
2999 558.80 555.05 558.99 
3000 558.90 555.04 558.99 
3001 558.84 554.09 558.99 
3002 558.82 554.58 558.99 
3003 558.77 554.71 558.99 
3004 558.71 555.15 558.99 
3005 558.74 554.32 558.99 
3006 559.00 554.11 558.99 
3007 558.92 553.57 559.00 
3008 558.98 554.02 559.00 
3009 558.65 554.37 559.00 
3010 558.98 554.78 559.00 
3011 558.90 554.60 559.00 
3012 559.03 554.33 559.00 
3013 558.80 554.79 559.03 
3014 558.97 554.51 559.03 
3015 558.89 553.95 559.03 
3016 558.93 554.28 559.03 
3017 559.00 554.71 559.03 
3018 559.00 554.54 559.03 
3019 559.12 554.76 559.03 
3020 558.83 555.01 559.12 
3021 559.01 555.06 559.12 
3022 559.05 554.92 559.12 
3023 559.03 555.32 559.12 
3024 558.98 555.89 559.12 
3025 559.14 555.41 559.12 
3026 559.19 555.91 559.14 
3027 559.06 555.40 559.19 
3028 559.11 556.39 559.19 
3029 559.10 556.87 559.19 
3030 559.04 556.71 559.19 
3031 558.96 556.55 559.19 
3032 559.04 555.74 559.19 
3033 559.00 556.54 559.19 
3034 559.15 556.73 559.19 
3035 559.14 556.91 559.19 
3036 559.24 557.34 559.19 
3037 552.47 556.63 559.24 
3038 559.19 556.83 559.24 
3039 558.96 557.07 559.24 
3040 559.18 556.63 559.24 
3041 559.10 556.75 559.24 
3042 558.96 555.90 559.24 
3043 559.11 555.98 559.24 
3044 558.92 556.88 559.24 
3045 559.11 556.35 559.24 
3046 558.63 556.56 559.24 
3047 558.87 556.29 559.24 
3048 558.99 557.16 559.24 
3049 559.23 556.62 559.24 
3050 559.07 556.41 559.24 
3051 558.99 555.77 559.24 
3052 552.05 555.30 559.24 
3053 558.88 555.21 559.24 
3054 558.83 554.60 559.24 
3055 558.88 554.87 559.24 
3056 559.05 555.27 559.24 
3057 559.11 554.66 559.24 
3058 558.85 554.34 559.24 
3059 559.00 553.96 559.24 
3060 558.91 554.60 559.24 
3061 559.10 555.44 559.24 
3062 559.20 554.93 559.24 
3063 559.10 555.39 559.24 
3064 559.02 554.78 559.24 
3065 559.11 554.51 559.24 
3066 558.81 554.61 559.24 
3067 558.93 554.94 559.24 
3068 559.17 554.69 559.24 
3069 559.05 554.59 559.24 
3070 559.15 554.71 559.24 
3071 559.00 555.16 559.24 
3072 559.22 554.90 559.24 
3073 558.95 554.90 559.24 
3074 559.23 555.19 559.24 
3075 559.14 555.54 559.24 
3076 559.26 555.05 559.24 
3077 559.15 554.88 559.26 
3078 559.23 553.80 559.26 
3079 559.20 553.54 559.26 
3080 559.08 553.60 559.26 
3081 559.17 553.51 559.26 
3082 559.11 554.44 559.26 
3083 558.84 553.57 559.26 
3084 558.97 553.51 559.26 
3085 559.02 553.24 559.26 
3086 551.82 553.80 559.26 
3087 559.06 553.31 559.26 
3088 559.05 552.91 559.26 
3089 559.16 552.75 559.26 
3090 559.10 552.71 559.26 
3091 559.34 552.56 559.26 
3092 558.98 552.62 559.34 
3093 559.07 551.95 559.34 
3094 559.32 553.09 559.34 
3095 559.15 552.47 559.34 
3096 559.01 553.18 559.34 
3097 559.08 552.52 559.34 
3098 559.04 552.81 559.34 
3099 559.09 552.70 559.34 
3100 559.23 553.43 559.34 
3101 559.04 554.00 559.34 
3102 559.27 553.86 559.34 
3103 559.19 554.50 559.34 
3104 559.16 554.52 559.34 
3105 558.99 554.44 559.34 
3106 559.19 555.18 559.34 
3107 558.98 554.92 559.34 
3108 559.28 554.86 559.34 
3109 559.09 555.36 559.34 
3110 559.12 555.63 559.34 
3111 559.23 555.12 559.34 
3112 559.27 555.75 559.34 
3113 558.98 555.11 559.34 
3114 559.20 554.62 559.34 
3115 559.23 554.55 559.34 
3116 559.21 555.44 559.34 
3117 559.17 555.38 559.34 
3118 559.16 555.90 559.34 
3119 559.04 556.15 559.34 
3120 559.27 555.56 559.34 
3121 559.09 555.41 559.34 
3122 559.09 554.94 559.34 
3123 559.25 555.40 559.34 
3124 559.05 555.47 559.34 
3125 559.00 555.47 559.34 
3126 559.14 555.46 559.34 
3127 559.22 555.33 559.34 
3128 559.15 555.09 559.34 
3129 559.14 555.09 559.34 
3130 558.91 555.29 559.34 
3131 559.09 554.98 559.34 
3132 559.14 554.91 559.34 
3133 559.11 554.80 559.34 
3134 559.26 554.30 559.34 
3135 559.14 553.93 559.34 
3136 559.02 554.26 559.34 
3137 559.06 554.89 559.34 
3138 558.85 555.13 559.34 
3139 559.15 555.13 559.34 
3140 558.96 554.99 559.34 
3141 558.91 555.12 559.34 
3142 559.18 555.24 559.34 
3143 559.10 554.75 559.34 
3144 559.23 555.20 559.34 
3145 559.12 555.68 559.34 
3146 559.24 555.66 559.34 
3147 559.11 555.39 559.34 
3148 559.26 555.31 559.34 
3149 559.20 555.31 559.34 
3150 558.91 554.96 559.34 
3151 551.76 554.62 559.34 
3152 558.91 554.84 559.34 
3153 559.08 554.63 559.34 
3154 559.06 554.73 559.34 
3155 559.13 554.94 559.34 
3156 559.13 554.22 559.34 
3157 559.16 554.22 559.34 
3158 559.23 553.59 559.34 
3159 558.88 553.22 559.34 
3160 559.17 553.58 559.34 
3161 558.83 554.31 559.34 
3162 559.19 554.69 559.34 
3163 559.21 555.22 559.34 
3164 559.15 554.96 559.34 
3165 559.12 554.48 559.34 
3166 559.22 553.96 559.34 
3167 559.00 553.93 559.34 
3168 559.27 555.27 559.34 
3169 559.39 555.78 559.34 
3170 559.15 555.29 559.39 
3171 559.23 554.98 559.39 
3172 559.35 554.65 559.39 
3173 559.39 554.78 559.39 
3174 559.35 555.08 559.39 
3175 559.33 555.33 559.39 
3176 559.34 555.43 559.39 
3177 559.06 555.36 559.39 
3178 559.09 555.16 559.39 
3179 559.13 555.26 559.39 
3180 559.13 555.15 559.39 
3181 559.16 555.48 559.39 
3182 559.15 555.83 559.39 
3183 559.31 556.18 559.39 
3184 559.43 556.32 559.39 
3185 559.23 556.42 559.43 
3186 559.32 555.82 559.43 
3187 559.29 555.34 559.43 
3188 559.23 555.78 559.43 
3189 559.29 555.72 559.43 
3190 552.32 555.80 559.43 
3191 559.17 555.83 559.43 
3192 559.24 555.36 559.43 
3193 559.17 555.57 559.43 
3194 559.30 555.81 559.43 
3195 559.05 554.93 559.43 
3196 559.10 555.03 559.43 
3197 559.16 554.72 559.43 
3198 559.29 554.46 559.43 
3199 559.11 554.76 559.43 
3200 559.38 555.44 559.43 
3201 559.30 554.58 559.43 
3202 559.29 554.58 559.43 
3203 559.22 554.87 559.43 
3204 559.27 554.60 559.43 
3205 559.24 554.86 559.43 
3206 559.23 554.09 559.43 
3207 559.29 555.13 559.43 
3208 559.32 555.00 559.43 
3209 559.32 555.49 559.43 
3210 559.50 554.69 559.43 
3211 559.37 555.31 559.50 
3212 559.26 555.53 559.50 
3213 559.27 554.86 559.50 
3214 559.47 555.93 559.50 
3215 559.28 555.39 559.50 
3216 559.42 554.66 559.50 
3217 559.53 554.76 559.50 
3218 559.29 554.39 559.53 
3219 559.20 554.69 559.53 
3220 559.35 554.92 559.53 
3221 559.34 554.48 559.53 
3222 559.36 554.15 559.53 
3223 559.41 554.19 559.53 
3224 559.47 553.89 559.53 
3225 559.48 553.98 559.53 
3226 559.22 554.51 559.53 
3227 559.28 554.19 559.53 
3228 559.43 554.50 559.53 
3229 559.17 554.30 559.53 
3230 559.37 554.83 559.53 
3231 559.31 555.61 559.53 
3232 559.32 555.95 559.53 
3233 559.50 555.53 559.53 
3234 559.45 555.26 559.53 
3235 559.43 555.66 559.53 
3236 559.43 555.12 559.53 
3237 559.63 555.83 559.53 
3238 559.41 555.06 559.63 
3239 559.47 555.42 559.63 
3240 559.46 555.27 559.63 
3241 559.30 555.45 559.63 
3242 559.49 555.76 559.63 
3243 559.51 555.42 559.63 
3244 559.38 555.72 559.63 
3245 559.56 555.82 559.63 
3246 559.54 555.87 559.63 
3247 559.46 556.01 559.63 
3248 559.33 556.06 559.63 
3249 559.47 556.13 559.63 
3250 559.53 556.16 559.63 
3251 559.57 556.24 559.63 
3252 559.57 556.04 559.63 
3253 559.47 556.30 559.63 
3254 559.57 556.53 559.63 
3255 559.69 555.88 559.63 
3256 559.66 556.22 559.69 
3257 559.60 556.41 559.69 
3258 559.75 556.83 559.69 
3259 559.53 556.54 559.75 
3260 559.56 556.34 559.75 
3261 559.39 556.54 559.75 
3262 559.46 556.60 559.75 
3263 559.60 556.65 559.75 
3264 559.62 556.42 559.75 
3265 559.68 556.84 559.75 
3266 559.62 556.21 559.75 
3267 559.59 556.42 559.75 
3268 559.46 556.39 559.75 
3269 559.47 556.57 559.75 
3270 559.52 556.97 559.75 
3271 559.58 556.98 559.75 
3272 559.52 556.65 559.75 
3273 559.59 556.51 559.75 
3274 559.27 556.92 559.75 
3275 559.60 556.87 559.75 
3276 559.50 556.88 559.75 
3277 559.60 557.13 559.75 
3278 559.65 556.54 559.75 
3279 559.60 556.27 559.75 
3280 559.37 556.29 559.75 
3281 559.66 557.09 559.75 
3282 559.52 557.27 559.75 
3283 559.47 557.00 559.75 
3284 559.43 556.75 559.75 
3285 559.69 556.42 559.75 
3286 559.56 556.90 559.75 
3287 559.50 556.48 559.75 
3288 559.38 556.14 559.75 
3289 559.56 555.56 559.75 
3290 559.63 556.42 559.75 
3291 559.53 555.28 559.75 
3292 559.66 555.01 559.75 
3293 559.54 554.93 559.75 
3294 553.12 555.23 559.75 
3295 559.72 555.55 559.75 
3296 559.25 554.86 559.75 
3297 552.24 555.01 559.75 
3298 559.51 554.97 559.75 
3299 559.55 554.70 559.75 
3300 559.55 554.73 559.75 
3301 559.49 554.25 559.75 
3302 559.47 554.98 559.75 
3303 559.34 555.02 559.75 
3304 559.50 554.90 559.75 
3305 559.60 554.87 559.75 
3306 552.53 555.08 559.75 
3307 559.34 555.57 559.75 
3308 559.22 555.12 559.75 
3309 559.33 554.27 559.75 
3310 559.44 554.70 559.75 
3311 559.67 554.49 559.75 
3312 559.49 554.88 559.75 
3313 559.55 554.78 559.75 
3314 559.54 554.40 559.75 
3315 559.46 554.77 559.75 
3316 559.39 555.06 559.75 
3317 559.41 554.68 559.75 
3318 559.50 554.94 559.75 
3319 559.53 554.87 559.75 
3320 559.53 555.03 559.75 
3321 559.49 554.56 559.75 
3322 559.62 554.05 559.75 
3323 559.43 554.39 559.75 
3324 559.60 554.25 559.75 
3325 559.41 554.82 559.75 
3326 559.63 554.47 559.75 
3327 559.62 553.71 559.75 
3328 559.64 554.41 559.75 
3329 559.58 553.83 559.75 
3330 559.39 554.16 559.75 
3331 559.64 553.82 559.75 
3332 559.46 553.52 559.75 
3333 559.47 554.03 559.75 
3334 559.55 554.08 559.75 
3335 559.63 554.39 559.75 
3336 559.45 554.15 559.75 
3337 559.52 554.77 559.75 
3338 559.69 554.78 559.75 
3339 559.54 555.14 559.75 
3340 559.46 555.35 559.75 
3341 559.51 555.59 559.75 
3342 559.73 555.50 559.75 
3343 559.57 555.16 559.75 
3344 559.61 555.25 559.75 
3345 559.65 556.04 559.75 
3346 552.37 556.18 559.75 
3347 559.71 556.00 559.75 
3348 559.63 555.60 559.75 
3349 559.79 555.64 559.75 
3350 559.56 554.85 559.79 
3351 559.67 554.13 559.79 
3352 559.63 554.57 559.79 
3353 559.64 554.28 559.79 
3354 559.59 553.68 559.79 
3355 559.47 553.72 559.79 
3356 559.42 554.95 559.79 
3357 559.54 555.13 559.79 
3358 559.64 554.67 559.79 
3359 559.50 554.93 559.79 
3360 559.52 554.85 559.79 
3361 559.62 555.04 559.79 
3362 559.63 555.26 559.79 
3363 559.53 555.48 559.79 
3364 559.74 555.24 559.79 
3365 559.63 554.53 559.79 
3366 559.35 553.88 559.79 
3367 559.67 553.99 559.79 
3368 559.46 554.55 559.79 
3369 559.50 554.20 559.79 
3370 559.53 554.46 559.79 
3371 559.45 555.37 559.79 
3372 559.50 555.12 559.79 
3373 559.64 555.31 559.79 
3374 559.46 555.13 559.79 
3375 559.69 554.76 559.79 
3376 559.67 554.38 559.79 
3377 559.68 554.21 559.79 
3378 559.62 554.92 559.79 
3379 559.68 554.62 559.79 
3380 559.56 554.41 559.79 
3381 559.67 554.92 559.79 
3382 559.72 554.80 559.79 
3383 559.76 554.56 559.79 
3384 559.72 554.70 559.79 
3385 559.61 555.28 559.79 
3386 559.73 554.62 559.79 
3387 559.74 555.36 559.79 
3388 559.83 555.71 559.79 
3389 559.57 555.44 559.83 
3390 559.77 555.06 559.83 
3391 559.63 554.96 559.83 
3392 559.54 555.03 559.83 
3393 559.55 555.18 559.83 
3394 559.70 555.69 559.83 
3395 559.66 555.80 559.83 
3396 559.56 555.27 559.83 
3397 559.69 556.01 559.83 
3398 559.73 555.25 559.83 
3399 559.61 555.26 559.83 
3400 559.74 555.63 559.83 
3401 559.73 555.45 559.83 
3402 559.56 555.19 559.83 
3403 559.60 555.42 559.83 
3404 559.70 555.15 559.83 
3405 559.68 555.79 559.83 
3406 559.63 555.21 559.83 
3407 559.62 555.69 559.83 
3408 559.74 556.09 559.83 
3409 559.78 555.49 559.83 
3410 559.50 555.93 559.83 
3411 559.54 555.67 559.83 
3412 559.81 555.54 559.83 
3413 559.66 555.54 559.83 
3414 559.76 555.78 559.83 
3415 559.79 555.81 559.83 
3416 559.88 555.74 559.83 
3417 559.58 555.86 559.88 
3418 559.67 555.82 559.88 
3419 559.85 555.62 559.88 
3420 559.82 555.39 559.88 
3421 559.83 554.87 559.88 
3422 559.67 555.67 559.88 
3423 559.71 555.48 559.88 
3424 559.77 555.71 559.88 
3425 559.77 556.14 559.88 
3426 559.60 556.06 559.88 
3427 559.72 556.33 559.88 
3428 559.77 556.02 559.88 
3429 559.74 556.24 559.88 
3430 559.71 556.18 559.88 
3431 559.94 556.27 559.88 
3432 559.92 555.54 559.94 
3433 559.84 556.61 559.94 
3434 559.84 556.13 559.94 
3435 559.55 556.02 559.94 
3436 559.76 555.51 559.94 
3437 559.88 556.17 559.94 
3438 559.87 556.06 559.94 
3439 559.55 555.29 559.94 
3440 559.55 555.51 559.94 
3441 559.86 555.54 559.94 
3442 559.75 555.69 559.94 
3443 559.85 555.83 559.94 
3444 559.79 555.31 559.94 
3445 559.88 555.06 559.94 
3446 559.71 554.92 559.94 
3447 559.97 555.61 559.94 
3448 559.82 555.78 559.97 
3449 559.87 555.50 559.97 
3450 559.94 556.14 559.97 
3451 559.89 555.52 559.97 
3452 559.88 555.67 559.97 
3453 559.88 555.25 559.97 
3454 559.93 555.51 559.97 
3455 559.86 555.51 559.97 
3456 559.80 555.54 559.97 
3457 559.96 555.69 559.97 
3458 559.78 556.15 559.97 
3459 559.78 556.34 559.97 
3460 559.84 556.46 559.97 
3461 559.99 556.38 559.97 
3462 559.88 556.76 559.99 
3463 559.85 556.87 559.99 
3464 559.84 557.03 559.99 
3465 559.79 556.28 559.99 
3466 559.83 556.45 559.99 
3467 559.89 556.53 559.99 
3468 559.91 556.44 559.99 
3469 559.96 556.66 559.99 
3470 559.95 556.39 559.99 
3471 559.99 556.73 559.99 
3472 559.82 556.51 559.99 
3473 560.00 556.47 559.99 
3474 559.92 556.58 560.00 
3475 559.95 556.45 560.00 
3476 559.99 557.17 560.00 
3477 559.96 557.33 560.00 
3478 559.91 557.16 560.00 
3479 560.02 556.62 560.00 
3480 559.85 557.00 560.02 
3481 559.91 556.79 560.02 
3482 559.87 556.95 560.02 
3483 560.06 556.64 560.02 
3484 559.91 556.72 560.06 
3485 559.94 556.88 560.06 
3486 560.17 556.91 560.06 
3487 560.07 556.54 560.17 
3488 560.01 556.87 560.17 
3489 559.81 556.61 560.17 
3490 559.99 556.78 560.17 
3491 560.11 556.84 560.17 
3492 559.88 556.81 560.17 
3493 559.94 556.82 560.17 
3494 559.98 557.17 560.17 
3495 560.11 557.19 560.17 
3496 560.04 557.35 560.17 
3497 560.10 556.98 560.17 
3498 559.85 557.28 560.17 
3499 559.77 557.14 560.17 
3500 560.03 556.62 560.17 
3501 560.06 557.28 560.17 
3502 560.06 556.60 560.17 
3503 560.02 556.68 560.17 
3504 559.93 557.08 560.17 
3505 560.08 556.96 560.17 
3506 559.99 557.25 560.17 
3507 560.06 556.83 560.17 
3508 560.06 556.82 560.17 
3509 560.13 556.97 560.17 
3510 560.00 556.99 560.17 
3511 560.03 556.92 560.17 
3512 560.01 556.78 560.17 
3513 560.01 556.92 560.17 
3514 559.94 556.36 560.17 
3515 560.12 556.30 560.17 
3516 560.07 556.55 560.17 
3517 560.08 556.59 560.17 
3518 560.09 557.08 560.17 
3519 559.87 557.19 560.17 
3520 560.07 557.51 560.17 
3521 559.92 557.50 560.17 
3522 559.83 557.59 560.17 
3523 560.08 557.52 560.17 
3524 559.99 556.85 560.17 
3525 560.08 557.02 560.17 
3526 560.00 557.19 560.17 
3527 560.06 557.25 560.17 
3528 560.11 557.09 560.17 
3529 560.17 557.12 560.17 
3530 560.10 557.49 560.17 
3531 559.91 557.50 560.17 
3532 560.05 557.27 560.17 
3533 560.08 557.35 560.17 
3534 560.02 557.10 560.17 
3535 560.05 557.07 560.17 
3536 560.01 556.98 560.17 
3537 559.91 556.70 560.17 
3538 559.94 556.95 560.17 
3539 559.90 556.97 560.17 
3540 559.96 557.03 560.17 
3541 560.07 557.17 560.17 
3542 560.03 557.27 560.17 
3543 559.80 556.72 560.17 
3544 559.91 556.90 560.17 
3545 560.05 556.28 560.17 
3546 559.96 556.41 560.17 
3547 560.07 556.90 560.17 
3548 559.99 556.80 560.17 
3549 559.87 556.91 560.17 
3550 559.78 557.07 560.17 
3551 560.00 556.61 560.17 
3552 559.95 556.71 560.17 
3553 559.99 557.19 560.17 
3554 559.96 557.11 560.17 
3555 559.88 557.17 560.17 
3556 560.00 557.01 560.17 
3557 559.99 556.50 560.17 
3558 560.13 557.00 560.17 
3559 559.90 556.97 560.17 
3560 560.11 557.28 560.17 
3561 559.90 557.66 560.17 
3562 560.00 557.35 560.17 
3563 560.09 557.42 560.17 
3564 560.02 557.46 560.17 
3565 560.07 557.68 560.17 
3566 559.99 557.89 560.17 
3567 560.06 557.86 560.17 
3568 560.06 558.29 560.17 
3569 559.90 557.96 560.17 
3570 559.93 557.13 560.17 
3571 560.00 557.56 560.17 
3572 559.94 557.28 560.17 
3573 559.90 557.46 560.17 
3574 560.01 557.11 560.17 
3575 559.97 557.07 560.17 
3576 559.98 556.70 560.17 
3577 560.08 556.36 560.17 
3578 560.08 556.92 560.17 
3579 559.98 557.29 560.17 
3580 559.92 556.90 560.17 
3581 560.13 556.74 560.17 
3582 560.06 557.08 560.17 
3583 559.99 556.91 560.17 
3584 560.03 557.01 560.17 
3585 560.00 556.78 560.17 
3586 560.15 557.07 560.17 
3587 559.96 557.19 560.17 
3588 559.89 557.17 560.17 
3589 559.97 556.98 560.17 
3590 559.93 557.17 560.17 
3591 560.09 557.23 560.17 
3592 559.96 557.36 560.17 
3593 560.11 557.44 560.17 
3594 559.94 557.17 560.17 
3595 560.03 557.50 560.17 
3596 560.03 557.66 560.17 
3597 560.30 557.92 560.17 
3598 560.06 557.88 560.30 
3599 560.04 557.42 560.30 
3600 560.03 557.36 560.30 
3601 560.09 557.47 560.30 
3602 560.18 557.43 560.30 
3603 560.18 557.42 560.30 
3604 560.17 557.34 560.30 
3605 560.10 557.48 560.30 
3606 560.06 557.64 560.30 
3607 560.18 557.60 560.30 
3608 560.24 557.38 560.30 
3609 560.19 557.26 560.30 
3610 560.23 557.38 560.30 
3611 560.19 557.31 560.30 
3612 560.14 557.44 560.30 
3613 560.20 557.65 560.30 
3614 560.15 557.69 560.30 
3615 560.21 557.64 560.30 
3616 560.23 557.70 560.30 
3617 560.18 557.63 560.30 
3618 560.10 557.05 560.30 
3619 560.10 557.38 560.30 
3620 560.14 557.79 560.30 
3621 560.17 557.74 560.30 
3622 560.10 557.65 560.30 
3623 560.01 557.36 560.30 
3624 560.00 557.01 560.30 
3625 560.17 557.26 560.30 
3626 560.10 557.70 560.30 
3627 559.95 557.61 560.30 
3628 560.08 557.24 560.30 
3629 560.13 557.14 560.30 
3630 560.05 557.17 560.30 
3631 560.30 557.19 560.30 
3632 560.09 557.43 560.30 
3633 560.11 557.11 560.30 
3634 560.12 556.75 560.30 
3635 560.13 556.83 560.30 
3636 560.21 557.24 560.30 
3637 560.25 557.28 560.30 
3638 560.15 557.88 560.30 
3639 560.10 557.77 560.30 
3640 560.13 557.63 560.30 
3641 560.10 557.37 560.30 
3642 560.19 557.68 560.30 
3643 560.14 556.72 560.30 
3644 560.25 557.50 560.30 
3645 559.93 557.70 560.30 
3646 560.14 558.00 560.30 
3647 560.25 557.37 560.30 
3648 560.24 557.94 560.30 
3649 560.23 558.20 560.30 
3650 560.02 557.79 560.30 
3651 560.34 557.78 560.30 
3652 560.20 557.76 560.34 
3653 560.04 557.98 560.34 
3654 560.22 557.91 560.34 
3655 560.25 558.05 560.34 
3656 560.10 557.78 560.34 
3657 560.18 557.29 560.34 
3658 560.25 557.09 560.34 
3659 560.19 557.55 560.34 
3660 560.24 557.84 560.34 
3661 560.17 557.79 560.34 
3662 560.28 557.71 560.34 
3663 560.32 557.50 560.34 
3664 560.24 558.03 560.34 
3665 560.18 557.89 560.34 
3666 560.23 558.06 560.34 
3667 560.23 557.91 560.34 
3668 560.16 557.85 560.34 
3669 560.30 557.74 560.34 
3670 560.21 557.58 560.34 
3671 560.23 557.77 560.34 
3672 560.27 558.31 560.34 
3673 560.24 558.51 560.34 
3674 560.12 558.03 560.34 
3675 560.08 557.67 560.34 
3676 560.15 557.64 560.34 
3677 560.31 557.80 560.34 
3678 560.15 557.80 560.34 
3679 560.28 557.97 560.34 
3680 560.31 558.00 560.34 
3681 560.20 557.75 560.34 
3682 560.22 557.47 560.34 
3683 560.17 557.62 560.34 
3684 560.21 557.71 560.34 
3685 560.15 557.88 560.34 
3686 560.27 557.77 560.34 
3687 560.16 557.80 560.34 
3688 560.21 557.87 560.34 
3689 560.27 557.63 560.34 
3690 560.18 557.51 560.34 
3691 560.30 557.75 560.34 
3692 560.23 557.83 560.34 
3693 560.18 557.63 560.34 
3694 560.21 557.63 560.34 
3695 560.16 557.42 560.34 
3696 560.20 557.26 560.34 
3697 560.17 557.32 560.34 
3698 560.24 557.77 560.34 
3699 560.30 557.94 560.34 
3700 560.18 557.68 560.34 
3701 560.16 557.46 560.34 
3702 560.12 557.61 560.34 
3703 560.31 557.41 560.34 
3704 560.23 557.48 560.34 
3705 560.17 557.65 560.34 
3706 553.18 557.48 560.34 
3707 560.32 557.46 560.34 
3708 560.22 557.33 560.34 
3709 560.15 557.24 560.34 
3710 554.19 557.36 560.34 
3711 560.07 557.33 560.34 
3712 560.05 557.53 560.34 
3713 560.26 557.32 560.34 
3714 560.28 557.43 560.34 
3715 560.20 557.55 560.34 
3716 560.35 557.93 560.34 
3717 560.19 557.62 560.35 
3718 560.15 557.69 560.35 
3719 560.30 557.46 560.35 
3720 560.30 557.22 560.35 
3721 560.20 557.48 560.35 
3722 560.25 557.13 560.35 
3723 560.16 556.91 560.35 
3724 560.22 557.50 560.35 
3725 560.29 557.16 560.35 
3726 560.10 557.03 560.35 
3727 560.33 556.80 560.35 
3728 560.16 556.85 560.35 
3729 560.22 557.08 560.35 
3730 560.29 557.27 560.35 
3731 560.11 557.20 560.35 
3732 560.19 557.42 560.35 
3733 560.29 557.86 560.35 
3734 560.43 557.85 560.35 
3735 560.33 557.48 560.43 
3736 560.25 557.13 560.43 
3737 560.37 557.35 560.43 
3738 560.26 557.44 560.43 
3739 560.27 557.76 560.43 
3740 560.29 557.44 560.43 
3741 560.28 557.68 560.43 
3742 560.23 557.55 560.43 
3743 560.32 557.58 560.43 
3744 560.24 557.41 560.43 
3745 560.37 557.57 560.43 
3746 560.37 557.58 560.43 
3747 560.30 557.61 560.43 
3748 560.23 557.39 560.43 
3749 560.29 557.58 560.43 
3750 560.38 557.67 560.43 
3751 560.35 557.74 560.43 
3752 560.28 557.82 560.43 
3753 560.27 557.77 560.43 
3754 560.36 558.25 560.43 
3755 560.41 558.24 560.43 
3756 560.37 558.25 560.43 
3757 560.32 558.07 560.43 
3758 560.29 558.13 560.43 
3759 560.25 557.98 560.43 
3760 560.37 557.55 560.43 
3761 560.42 557.94 560.43 
3762 560.31 557.96 560.43 
3763 560.22 558.14 560.43 
3764 560.38 558.32 560.43 
3765 560.38 558.72 560.43 
3766 560.37 558.39 560.43 
3767 560.41 558.22 560.43 
3768 560.32 558.27 560.43 
3769 560.16 558.17 560.43 
3770 560.23 558.46 560.43 
3771 560.44 558.38 560.43 
3772 560.37 558.60 560.44 
3773 560.36 558.28 560.44 
3774 560.35 558.33 560.44 
3775 560.30 558.39 560.44 
3776 560.25 558.74 560.44 
3777 560.37 558.51 560.44 
3778 560.33 558.80 560.44 
3779 560.23 558.73 560.44 
3780 560.22 558.51 560.44 
3781 560.33 558.65 560.44 
3782 560.35 558.55 560.44 
3783 560.20 558.37 560.44 
3784 560.35 558.39 560.44 
3785 560.29 558.58 560.44 
3786 560.30 558.37 560.44 
3787 560.42 558.16 560.44 
3788 560.38 558.33 560.44 
3789 560.44 558.13 560.44 
3790 560.44 557.82 560.44 
3791 560.44 558.16 560.44 
3792 560.39 558.20 560.44 
3793 560.43 558.27 560.44 
3794 560.33 558.30 560.44 
3795 560.32 558.05 560.44 
3796 560.48 558.05 560.44 
3797 560.39 558.03 560.48 
3798 560.38 558.30 560.48 
3799 560.42 558.22 560.48 
3800 560.33 558.31 560.48 
3801 560.22 558.41 560.48 
3802 560.38 558.18 560.48 
3803 560.30 558.28 560.48 
3804 553.46 558.06 560.48 
3805 560.30 558.42 560.48 
3806 560.25 558.74 560.48 
3807 560.24 558.71 560.48 
3808 560.24 558.83 560.48 
3809 560.32 558.60 560.48 
3810 560.37 559.24 560.48 
3811 553.24 558.69 560.48 
3812 560.20 558.81 560.48 
3813 553.28 558.84 560.48 
3814 560.29 558.73 560.48 
3815 560.26 558.46 560.48 
3816 560.16 558.59 560.48 
3817 560.31 558.32 560.48 
3818 560.31 558.35 560.48 
3819 560.28 558.51 560.48 
3820 560.32 558.72 560.48 
3821 560.31 558.60 560.48 
3822 560.14 558.23 560.48 
3823 560.18 558.25 560.48 
3824 560.28 558.16 560.48 
3825 560.25 558.29 560.48 
3826 560.46 557.96 560.48 
3827 560.30 558.06 560.48 
3828 560.30 558.01 560.48 
3829 560.39 558.20 560.48 
3830 560.10 558.40 560.48 
3831 560.24 558.00 560.48 
3832 560.20 558.07 560.48 
3833 560.34 557.78 560.48 
3834 560.21 557.24 560.48 
3835 560.23 557.33 560.48 
3836 560.25 557.52 560.48 
3837 560.28 557.66 560.48 
3838 560.22 557.78 560.48 
3839 560.38 557.98 560.48 
3840 560.29 557.96 560.48 
3841 560.28 557.46 560.48 
3842 560.39 557.42 560.48 
3843 560.40 557.31 560.48 
3844 560.42 557.20 560.48 
3845 560.34 557.38 560.48 
3846 560.43 557.36 560.48 
3847 560.38 557.63 560.48 
3848 560.37 557.69 560.48 
3849 560.49 557.77 560.48 
3850 560.34 557.72 560.49 
3851 560.46 557.53 560.49 
3852 560.29 557.39 560.49 
3853 560.25 557.56 560.49 
3854 560.39 557.86 560.49 
3855 560.35 557.49 560.49 
3856 560.34 557.68 560.49 
3857 560.41 558.40 560.49 
3858 560.40 558.09 560.49 
3859 560.34 557.72 560.49 
3860 560.43 557.57 560.49 
3861 560.38 557.55 560.49 
3862 560.50 557.59 560.49 
3863 560.33 557.93 560.50 
3864 560.42 558.10 560.50 
3865 560.30 558.18 560.50 
3866 560.44 558.00 560.50 
3867 560.46 557.86 560.50 
3868 560.48 557.90 560.50 
3869 560.49 558.06 560.50 
3870 560.50 558.40 560.50 
3871 560.51 558.45 560.50 
3872 560.51 558.69 560.51 
3873 560.51 558.46 560.51 
3874 560.42 558.67 560.51 
3875 560.47 558.25 560.51 
3876 560.36 558.39 560.51 
3877 560.46 558.38 560.51 
3878 560.50 558.54 560.51 
3879 560.41 558.60 560.51 
3880 560.46 558.74 560.51 
3881 560.34 558.80 560.51 
3882 560.41 558.67 560.51 
3883 560.31 558.71 560.51 
3884 560.34 558.81 560.51 
3885 560.36 558.89 560.51 
3886 560.49 558.53 560.51 
3887 560.35 558.38 560.51 
3888 560.37 558.44 560.51 
3889 560.33 558.34 560.51 
3890 560.38 558.51 560.51 
3891 560.40 558.43 560.51 
3892 560.30 558.82 560.51 
3893 560.41 559.10 560.51 
3894 560.37 559.07 560.51 
3895 560.37 558.73 560.51 
3896 560.38 558.94 560.51 
3897 560.43 559.02 560.51 
3898 560.43 558.78 560.51 
3899 560.35 558.99 560.51 
3900 560.36 558.98 560.51 
3901 560.38 559.16 560.51 
3902 560.50 559.09 560.51 
3903 560.44 558.99 560.51 
3904 560.48 558.57 560.51 
3905 560.38 558.55 560.51 
3906 560.43 558.68 560.51 
3907 560.38 558.71 560.51 
3908 560.37 558.65 560.51 
3909 560.38 558.76 560.51 
3910 560.44 559.04 560.51 
3911 560.38 558.94 560.51 
3912 560.39 558.89 560.51 
3913 560.31 558.57 560.51 
3914 560.46 558.87 560.51 
3915 560.38 558.77 560.51 
3916 560.43 558.84 560.51 
3917 560.47 558.88 560.51 
3918 560.44 558.88 560.51 
3919 560.45 558.71 560.51 
3920 560.29 558.59 560.51 
3921 560.49 558.71 560.51 
3922 560.43 558.95 560.51 
3923 560.46 559.04 560.51 
3924 560.45 559.22 560.51 
3925 560.46 559.18 560.51 
3926 560.43 558.98 560.51 
3927 560.52 558.97 560.51 
3928 560.48 559.28 560.52 
3929 560.33 559.28 560.52 
3930 560.50 559.43 560.52 
3931 560.43 559.38 560.52 
3932 560.54 559.69 560.52 
3933 560.48 559.61 560.54 
3934 560.43 559.56 560.54 
3935 560.46 559.44 560.54 
3936 560.41 559.44 560.54 
3937 560.55 559.63 560.54 
3938 560.54 559.32 560.55 
3939 560.44 559.33 560.55 
3940 560.52 559.25 560.55 
3941 560.44 559.10 560.55 
3942 553.98 559.02 560.55 
3943 560.41 558.98 560.55 
3944 560.32 559.08 560.55 
3945 560.39 559.09 560.55 
3946 560.40 558.80 560.55 
3947 560.25 558.50 560.55 
3948 560.35 558.47 560.55 
3949 560.26 558.46 560.55 
3950 560.20 558.32 560.55 
3951 560.28 558.53 560.55 
3952 560.37 558.66 560.55 
3953 560.28 558.87 560.55 
3954 560.47 558.73 560.55 
3955 560.38 558.62 560.55 
3956 560.53 558.73 560.55 
3957 560.42 558.82 560.55 
3958 560.34 558.83 560.55 
3959 560.49 558.61 560.55 
3960 560.48 558.62 560.55 
3961 560.41 558.73 560.55 
3962 560.46 558.64 560.55 
3963 560.34 558.49 560.55 
3964 560.36 558.45 560.55 
3965 560.36 558.42 560.55 
3966 560.50 558.15 560.55 
3967 560.42 558.14 560.55 
3968 560.42 558.23 560.55 
3969 560.48 558.46 560.55 
3970 560.39 558.50 560.55 
3971 560.40 558.50 560.55 
3972 560.33 558.63 560.55 
3973 560.27 558.67 560.55 
3974 560.48 558.31 560.55 
3975 560.51 558.44 560.55 
3976 560.38 558.62 560.55 
3977 560.48 559.06 560.55 
3978 560.48 559.22 560.55 
3979 560.40 559.45 560.55 
3980 560.45 559.11 560.55 
3981 560.46 559.07 560.55 
3982 560.51 559.14 560.55 
3983 560.56 559.00 560.55 
3984 560.44 559.00 560.56 
3985 560.43 558.85 560.56 
3986 560.47 558.65 560.56 
3987 560.46 558.85 560.56 
3988 560.51 558.91 560.56 
3989 560.46 558.99 560.56 
3990 560.54 559.22 560.56 
3991 560.44 559.14 560.56 
3992 560.39 559.16 560.56 
3993 560.54 559.10 560.56 
3994 560.34 559.14 560.56 
3995 560.56 559.03 560.56 
3996 560.58 559.06 560.56 
3997 560.58 558.70 560.58 
3998 560.53 558.90 560.58 
3999 560.50 558.81 560.58 
4000 560.43 558.67 560.58 
4001 560.58 559.03 560.58 
4002 560.61 559.06 560.58 
4003 560.54 559.05 560.61 
4004 560.58 558.74 560.61 
4005 560.47 558.91 560.61 
4006 560.53 558.99 560.61 
4007 560.58 559.10 560.61 
4008 560.55 559.04 560.61 
4009 560.60 559.11 560.61 
4010 560.52 559.31 560.61 
4011 560.53 559.41 560.61 
4012 560.59 559.46 560.61 
4013 560.54 559.51 560.61 
4014 560.34 559.58 560.61 
4015 560.55 559.50 560.61 
4016 560.42 559.37 560.61 
4017 560.54 559.48 560.61 
4018 560.54 559.33 560.61 
4019 560.45 559.15 560.61 
4020 560.50 559.30 560.61 
4021 560.55 559.34 560.61 
4022 560.58 559.39 560.61 
4023 560.58 559.17 560.61 
4024 560.59 559.08 560.61 
4025 560.57 559.08 560.61 
4026 560.54 558.99 560.61 
4027 560.51 558.86 560.61 
4028 560.51 559.16 560.61 
4029 560.51 559.26 560.61 
4030 560.43 559.43 560.61 
4031 560.48 559.37 560.61 
4032 560.53 559.40 560.61 
4033 560.56 559.57 560.61 
4034 560.53 559.46 560.61 
4035 560.63 559.54 560.61 
4036 560.57 559.42 560.63 
4037 560.58 559.51 560.63 
4038 560.53 559.50 560.63 
4039 560.54 559.47 560.63 
4040 560.52 559.03 560.63 
4041 560.56 559.15 560.63 
4042 560.60 559.48 560.63 
4043 560.59 559.39 560.63 
4044 560.57 559.58 560.63 
4045 560.51 559.49 560.63 
4046 560.49 559.35 560.63 
4047 560.49 559.33 560.63 
4048 560.48 559.13 560.63 
4049 560.38 558.85 560.63 
4050 560.64 558.53 560.63 
4051 560.59 558.89 560.64 
4052 560.54 558.99 560.64 
4053 560.50 559.21 560.64 
4054 560.56 558.91 560.64 
4055 560.50 559.19 560.64 
4056 560.60 558.75 560.64 
4057 560.53 559.02 560.64 
4058 560.61 558.87 560.64 
4059 560.54 558.95 560.64 
4060 560.53 559.12 560.64 
4061 560.62 559.10 560.64 
4062 560.71 559.12 560.64 
4063 560.60 559.27 560.71 
4064 560.54 559.18 560.71 
4065 560.56 559.19 560.71 
4066 560.58 559.39 560.71 
4067 560.59 559.36 560.71 
4068 560.63 559.14 560.71 
4069 560.55 559.20 560.71 
4070 560.57 559.16 560.71 
4071 560.59 558.99 560.71 
4072 560.53 559.03 560.71 
4073 560.62 559.28 560.71 
4074 560.61 559.37 560.71 
4075 560.62 559.50 560.71 
4076 560.60 559.44 560.71 
4077 560.53 559.42 560.71 
4078 560.65 559.14 560.71 
4079 560.65 559.00 560.71 
4080 560.60 559.14 560.71 
4081 560.63 559.42 560.71 
4082 560.65 559.21 560.71 
4083 560.60 559.11 560.71 
4084 560.60 558.90 560.71 
4085 560.59 558.83 560.71 
4086 560.57 558.69 560.71 
4087 560.56 558.76 560.71 
4088 560.55 558.46 560.71 
4089 560.54 558.69 560.71 
4090 560.60 558.88 560.71 
4091 560.61 559.08 560.71 
4092 560.53 559.15 560.71 
4093 560.56 559.32 560.71 
4094 560.63 559.28 560.71 
4095 560.58 559.60 560.71 
4096 560.65 559.43 560.71 
4097 560.57 559.25 560.71 
4098 560.57 559.37 560.71 
4099 560.76 559.68 560.71 
4100 560.59 559.53 560.76 
4101 560.67 559.53 560.76 
4102 560.64 559.60 560.76 
4103 560.61 559.50 560.76 
4104 560.62 559.44 560.76 
4105 560.68 559.10 560.76 
4106 560.70 559.20 560.76 
4107 560.56 559.17 560.76 
4108 560.61 559.12 560.76 
4109 560.64 559.36 560.76 
4110 560.65 559.34 560.76 
4111 560.65 559.31 560.76 
4112 560.69 559.19 560.76 
4113 560.67 559.04 560.76 
4114 560.69 558.83 560.76 
4115 560.65 558.58 560.76 
4116 560.64 558.86 560.76 
4117 560.65 559.08 560.76 
4118 560.59 559.16 560.76 
4119 560.68 559.04 560.76 
4120 560.60 559.19 560.76 
4121 560.71 558.77 560.76 
4122 560.76 558.80 560.76 
4123 560.61 558.84 560.76 
4124 560.62 558.81 560.76 
4125 560.67 559.03 560.76 
4126 560.65 559.03 560.76 
4127 560.59 558.95 560.76 
4128 560.68 558.89 560.76 
4129 560.56 559.25 560.76 
4130 560.66 559.34 560.76 
4131 560.67 559.42 560.76 
4132 560.66 559.44 560.76 
4133 560.64 559.21 560.76 
4134 560.74 559.26 560.76 
4135 560.61 559.17 560.76 
4136 560.64 559.23 560.76 
4137 560.64 559.27 560.76 
4138 560.67 559.30 560.76 
4139 560.69 559.41 560.76 
4140 560.70 559.34 560.76 
4141 560.70 559.43 560.76 
4142 560.71 559.43 560.76 
4143 560.73 559.00 560.76 
4144 560.63 559.02 560.76 
4145 560.63 559.26 560.76 
4146 560.67 559.26 560.76 
4147 560.70 559.25 560.76 
4148 560.75 559.02 560.76 
4149 560.58 558.80 560.76 
4150 560.71 558.89 560.76 
4151 560.75 558.91 560.76 
4152 560.63 558.65 560.76 
4153 560.76 558.76 560.76 
4154 560.77 558.68 560.76 
4155 560.64 558.97 560.77 
4156 560.73 558.88 560.77 
4157 560.80 558.68 560.77 
4158 560.74 558.86 560.80 
4159 560.70 559.01 560.80 
4160 560.75 558.72 560.80 
4161 560.71 559.08 560.80 
4162 560.72 558.94 560.80 
4163 560.71 558.81 560.80 
4164 560.70 558.88 560.80 
4165 560.66 559.01 560.80 
4166 560.67 559.15 560.80 
4167 560.61 559.25 560.80 
4168 560.67 559.28 560.80 
4169 560.74 559.31 560.80 
4170 560.71 559.23 560.80 
4171 560.75 559.35 560.80 
4172 560.76 559.39 560.80 
4173 560.71 559.37 560.80 
4174 560.67 559.26 560.80 
4175 560.68 559.21 560.80 
4176 560.70 558.96 560.80 
4177 560.68 559.07 560.80 
4178 560.68 558.96 560.80 
4179 560.67 558.89 560.80 
4180 560.65 558.88 560.80 
4181 560.72 559.34 560.80 
4182 560.67 558.90 560.80 
4183 560.67 558.84 560.80 
4184 560.75 558.78 560.80 
4185 560.70 559.08 560.80 
4186 560.74 559.20 560.80 
4187 560.77 559.40 560.80 
4188 560.70 559.19 560.80 
4189 560.71 559.33 560.80 
4190 560.73 559.42 560.80 
4191 560.68 559.58 560.80 
4192 560.74 559.67 560.80 
4193 560.72 559.75 560.80 
4194 560.79 559.78 560.80 
4195 560.68 559.80 560.80 
4196 560.63 559.65 560.80 
4197 560.66 559.68 560.80 
4198 560.68 559.43 560.80 
4199 560.70 559.29 560.80 
4200 560.62 559.47 560.80 
4201 560.78 559.58 560.80 
4202 560.70 559.68 560.80 
4203 560.67 559.21 560.80 
4204 560.70 559.21 560.80 
4205 560.78 559.20 560.80 
4206 560.72 559.14 560.80 
4207 560.64 558.90 560.80 
4208 560.78 559.15 560.80 
4209 560.77 559.13 560.80 
4210 560.82 559.15 560.80 
4211 560.78 559.17 560.82 
4212 560.79 559.19 560.82 
4213 560.71 559.36 560.82 
4214 560.69 559.37 560.82 
4215 560.80 559.51 560.82 
4216 560.71 559.60 560.82 
4217 560.75 559.62 560.82 
4218 560.73 559.52 560.82 
4219 560.77 559.53 560.82 
4220 560.77 559.35 560.82 
4221 560.73 559.56 560.82 
4222 560.70 559.26 560.82 
4223 560.74 559.53 560.82 
4224 560.61 559.35 560.82 
4225 560.74 559.28 560.82 
4226 560.62 559.27 560.82 
4227 560.63 559.10 560.82 
4228 560.74 559.30 560.82 
4229 560.74 559.28 560.82 
4230 560.78 559.09 560.82 
4231 560.77 558.93 560.82 
4232 560.65 558.96 560.82 
4233 560.66 559.12 560.82 
4234 560.68 559.02 560.82 
4235 560.67 559.08 560.82 
4236 560.73 558.90 560.82 
4237 560.68 559.01 560.82 
4238 560.77 558.84 560.82 
4239 560.75 558.87 560.82 
4240 560.72 558.92 560.82 
4241 560.80 558.50 560.82 
4242 560.61 559.07 560.82 
4243 560.72 559.00 560.82 
4244 560.70 558.73 560.82 
4245 560.69 558.78 560.82 
4246 560.68 558.92 560.82 
4247 560.68 558.90 560.82 
4248 560.67 558.73 560.82 
4249 560.73 558.79 560.82 
4250 560.69 558.89 560.82 
4251 560.64 559.07 560.82 
4252 560.72 558.68 560.82 
4253 560.68 558.93 560.82 
4254 560.69 559.12 560.82 
4255 560.73 558.89 560.82 
4256 560.71 558.83 560.82 
4257 560.64 559.37 560.82 
4258 560.73 559.47 560.82 
4259 560.79 559.12 560.82 
4260 560.71 558.82 560.82 
4261 560.74 558.84 560.82 
4262 560.76 558.77 560.82 
4263 560.72 558.99 560.82 
4264 560.71 558.69 560.82 
4265 560.67 558.73 560.82 
4266 560.71 558.82 560.82 
4267 560.72 558.75 560.82 
4268 560.81 558.83 560.82 
4269 560.67 558.76 560.82 
4270 560.76 558.85 560.82 
4271 560.63 558.50 560.82 
4272 560.73 559.05 560.82 
4273 560.72 559.02 560.82 
4274 560.65 559.41 560.82 
4275 560.76 559.18 560.82 
4276 560.66 559.38 560.82 
4277 560.67 559.28 560.82 
4278 560.65 559.05 560.82 
4279 560.65 558.92 560.82 
4280 560.68 559.00 560.82 
4281 560.55 558.50 560.82 
4282 560.62 558.69 560.82 
4283 560.62 558.99 560.82 
4284 560.68 559.16 560.82 
4285 560.72 558.82 560.82 
4286 560.70 558.96 560.82 
4287 560.59 558.97 560.82 
4288 560.62 558.79 560.82 
4289 560.75 558.79 560.82 
4290 560.63 558.56 560.82 
4291 560.71 558.34 560.82 
4292 560.82 558.51 560.82 
4293 560.66 558.31 560.82 
4294 560.71 558.48 560.82 
4295 560.73 558.83 560.82 
4296 560.70 558.55 560.82 
4297 560.74 558.75 560.82 
4298 560.69 558.35 560.82 
4299 560.73 558.35 560.82 
4300 560.70 558.77 560.82 
4301 560.67 558.76 560.82 
4302 560.68 558.84 560.82 
4303 560.77 559.05 560.82 
4304 560.78 559.02 560.82 
4305 560.80 559.01 560.82 
4306 560.56 559.10 560.82 
4307 560.73 559.02 560.82 
4308 560.64 559.08 560.82 
4309 560.78 559.26 560.82 
4310 560.79 559.07 560.82 
4311 560.74 558.72 560.82 
4312 560.77 559.05 560.82 
4313 560.71 559.12 560.82 
4314 560.78 558.92 560.82 
4315 560.79 558.87 560.82 
4316 560.80 558.62 560.82 
4317 560.78 558.34 560.82 
4318 560.72 558.47 560.82 
4319 560.80 558.39 560.82 
4320 560.74 558.62 560.82 
4321 560.70 558.73 560.82 
4322 560.75 558.72 560.82 
4323 560.77 558.80 560.82 
4324 560.73 558.83 560.82 
4325 560.75 558.63 560.82 
4326 560.72 558.33 560.82 
4327 560.70 558.86 560.82 
4328 560.76 558.59 560.82 
4329 560.74 558.78 560.82 
4330 560.77 558.74 560.82 
4331 560.70 558.64 560.82 
4332 560.73 558.75 560.82 
4333 560.68 558.71 560.82 
4334 560.70 558.69 560.82 
4335 560.75 558.92 560.82 
4336 560.85 558.83 560.82 
4337 560.75 559.03 560.85 
4338 560.80 558.87 560.85 
4339 560.74 559.01 560.85 
4340 560.78 559.02 560.85 
4341 560.75 559.06 560.85 
4342 560.86 559.09 560.85 
4343 560.76 558.96 560.86 
4344 560.68 559.19 560.86 
4345 560.74 559.06 560.86 
4346 560.77 558.68 560.86 
4347 560.85 559.01 560.86 
4348 560.78 559.16 560.86 
4349 560.71 559.22 560.86 
4350 560.73 558.90 560.86 
4351 560.73 559.03 560.86 
4352 560.80 558.95 560.86 
4353 560.87 559.21 560.86 
4354 560.81 559.12 560.87 
4355 560.82 559.19 560.87 
4356 560.74 559.10 560.87 
4357 560.70 559.21 560.87 
4358 560.79 559.25 560.87 
4359 560.78 559.16 560.87 
4360 560.76 559.24 560.87 
4361 560.45 559.32 560.87 
4362 560.86 559.20 560.87 
4363 560.89 559.46 560.87 
4364 560.80 559.25 560.89 
4365 560.82 559.00 560.89 
4366 560.82 559.16 560.89 
4367 560.80 559.32 560.89 
4368 560.76 559.31 560.89 
4369 560.75 559.40 560.89 
4370 560.81 559.47 560.89 
4371 560.75 559.60 560.89 
4372 560.74 559.65 560.89 
4373 560.85 560.65 560.89 
4374 560.79 559.53 560.89 
4375 560.75 559.64 560.89 
4376 560.77 559.57 560.89 
4377 560.80 559.41 560.89 
4378 560.80 559.26 560.89 
4379 560.75 559.33 560.89 
4380 560.80 559.37 560.89 
4381 560.80 559.29 560.89 
4382 560.85 559.30 560.89 
4383 560.82 559.41 560.89 
4384 560.91 559.25 560.89 
4385 560.83 559.32 560.91 
4386 560.72 559.45 560.91 
4387 560.81 559.39 560.91 
4388 560.89 559.55 560.91 
4389 560.89 559.39 560.91 
4390 560.77 559.45 560.91 
4391 560.88 559.33 560.91 
4392 560.81 559.51 560.91 
4393 560.91 559.50 560.91 
4394 560.82 559.57 560.91 
4395 560.86 559.50 560.91 
4396 560.79 559.30 560.91 
4397 560.86 559.29 560.91 
4398 560.80 559.52 560.91 
4399 560.90 559.66 560.91 
4400 560.85 559.63 560.91 
4401 560.82 559.54 560.91 
4402 560.83 559.55 560.91 
4403 560.79 559.79 560.91 
4404 560.86 559.75 560.91 
4405 560.76 559.80 560.91 
4406 560.88 559.78 560.91 
4407 560.81 559.74 560.91 
4408 560.87 559.76 560.91 
4409 560.88 559.65 560.91 
4410 560.83 559.93 560.91 
4411 560.78 559.94 560.91 
4412 560.79 559.86 560.91 
4413 560.84 559.58 560.91 
4414 560.80 559.69 560.91 
4415 560.71 559.51 560.91 
4416 560.78 559.72 560.91 
4417 560.76 559.71 560.91 
4418 560.85 560.09 560.91 
4419 560.83 559.80 560.91 
4420 560.78 559.60 560.91 
4421 560.75 559.40 560.91 
4422 560.93 559.31 560.91 
4423 560.73 559.54 560.93 
4424 560.85 559.39 560.93 
4425 560.78 559.65 560.93 
4426 560.85 559.99 560.93 
4427 560.81 560.05 560.93 
4428 560.87 560.17 560.93 
4429 560.87 559.82 560.93 
4430 560.82 559.87 560.93 
4431 560.81 559.68 560.93 
4432 560.85 559.64 560.93 
4433 560.86 559.90 560.93 
