Iter | Sampling Pol | Evaluation Pol | Best (Sampled) 
   0 -21.33 -15.70 -100000000.00 
   1 -4.85 -15.54 -21.33 
   2  4.59 -11.50 -4.85 
   3 15.43 -6.11  4.59 
   4 16.97 -6.43 15.43 
   5 45.74 -6.48 16.97 
   6 69.41 -6.18 45.74 
   7 87.85 -5.80 69.41 
   8 126.07 -5.18 87.85 
   9 178.30  4.31 126.07 
  10 237.57 369.57 178.30 
  11 305.74 406.09 237.57 
  12 377.77 738.31 305.74 
  13 436.24 742.56 377.77 
  14 490.31 746.70 436.24 
  15 527.34 746.83 490.31 
  16 567.32 750.96 527.34 
  17 595.39 747.01 567.32 
  18 625.31 751.10 595.39 
  19 643.28 755.18 625.31 
  20 656.92 755.12 643.28 
  21 669.01 759.19 656.92 
  22 680.13 755.24 669.01 
  23 685.98 759.27 680.13 
  24 686.03 759.27 685.98 
  25 692.05 759.24 686.03 
  26 697.78 759.22 692.05 
  27 697.12 755.20 697.78 
  28 702.31 759.15 697.78 
  29 706.19 755.17 702.31 
  30 707.65 759.16 706.19 
  31 712.38 759.17 707.65 
  32 712.18 759.19 712.38 
  33 713.23 759.19 712.38 
  34 714.57 755.19 713.23 
  35 717.96 755.19 714.57 
  36 718.00 755.15 717.96 
  37 721.35 755.14 718.00 
  38 721.60 759.14 721.35 
  39 722.40 759.11 721.60 
  40 722.18 759.07 722.40 
  41 720.76 759.09 722.40 
  42 725.48 759.13 722.40 
  43 724.37 755.15 725.48 
  44 725.42 759.13 725.48 
  45 726.79 759.10 725.48 
  46 725.29 755.06 726.79 
  47 728.79 759.10 726.79 
  48 731.14 759.11 728.79 
  49 731.80 755.09 731.14 
  50 729.93 759.12 731.80 
  51 733.98 755.10 731.80 
  52 733.48 759.14 733.98 
  53 730.44 759.13 733.98 
  54 735.73 759.11 733.98 
  55 734.02 759.06 735.73 
  56 733.15 755.07 735.73 
  57 734.69 759.09 735.73 
  58 734.16 759.05 735.73 
  59 734.74 759.08 735.73 
  60 735.45 759.09 735.73 
  61 736.33 759.04 735.73 
  62 734.61 755.07 736.33 
  63 737.11 759.11 736.33 
  64 737.83 759.11 737.11 
  65 736.96 759.16 737.83 
  66 736.84 759.19 737.83 
  67 739.69 759.19 737.83 
  68 740.82 755.20 739.69 
  69 740.95 759.22 740.82 
  70 741.71 755.23 740.95 
  71 741.75 755.24 741.71 
  72 743.39 759.27 741.75 
  73 740.76 759.25 743.39 
  74 741.80 759.25 743.39 
  75 742.76 759.27 743.39 
  76 743.41 759.28 743.39 
  77 745.07 759.25 743.41 
  78 745.46 759.32 745.07 
  79 745.95 759.29 745.46 
  80 745.32 759.29 745.95 
  81 743.86 759.28 745.95 
  82 746.12 759.29 745.95 
  83 746.83 759.28 746.12 
  84 746.75 759.30 746.83 
  85 747.21 759.30 746.83 
  86 746.63 759.29 747.21 
  87 746.84 759.29 747.21 
  88 747.43 755.29 747.21 
  89 748.15 759.30 747.43 
  90 748.71 755.36 748.15 
  91 750.98 763.37 748.71 
  92 750.41 759.39 750.98 
  93 752.61 759.38 750.98 
  94 751.16 763.40 752.61 
  95 751.08 763.39 752.61 
  96 751.46 763.39 752.61 
  97 753.35 763.36 752.61 
  98 754.36 763.38 753.35 
  99 754.45 763.35 754.36 
 100 753.56 763.33 754.45 
 101 753.99 763.34 754.45 
 102 754.20 763.34 754.45 
 103 754.95 763.35 754.45 
 104 754.91 767.36 754.95 
 105 755.75 763.37 754.95 
 106 756.37 763.34 755.75 
 107 755.67 763.33 756.37 
 108 756.30 763.34 756.37 
 109 755.38 767.32 756.37 
 110 756.93 767.35 756.37 
 111 757.13 763.34 756.93 
 112 756.72 763.35 757.13 
 113 756.85 763.33 757.13 
 114 757.85 763.31 757.13 
 115 758.61 759.35 757.85 
 116 757.73 767.36 758.61 
 117 758.31 759.35 758.61 
 118 758.36 767.37 758.61 
 119 758.15 767.35 758.61 
 120 756.52 767.38 758.61 
 121 757.98 767.35 758.61 
 122 759.90 767.35 758.61 
 123 758.43 763.37 759.90 
 124 758.35 763.35 759.90 
 125 759.02 767.35 759.90 
 126 758.81 767.34 759.90 
 127 758.99 767.36 759.90 
 128 758.94 763.32 759.90 
 129 758.27 767.34 759.90 
 130 758.65 767.34 759.90 
 131 758.81 767.35 759.90 
 132 759.82 767.36 759.90 
 133 760.70 767.37 759.90 
 134 759.87 767.35 760.70 
 135 760.46 767.32 760.70 
 136 759.41 767.33 760.70 
 137 759.74 767.31 760.70 
 138 760.33 767.31 760.70 
 139 760.03 767.33 760.70 
 140 759.95 767.31 760.70 
 141 760.37 767.35 760.70 
 142 759.32 767.33 760.70 
 143 760.40 767.33 760.70 
 144 760.15 767.34 760.70 
 145 759.65 767.32 760.70 
 146 759.99 767.33 760.70 
 147 759.50 767.28 760.70 
 148 759.86 767.34 760.70 
 149 760.78 767.35 760.70 
 150 761.20 763.32 760.78 
 151 760.66 767.34 761.20 
 152 761.20 767.34 761.20 
 153 761.28 767.33 761.20 
 154 761.83 767.35 761.28 
 155 761.76 767.33 761.83 
 156 761.58 767.33 761.83 
 157 761.04 767.32 761.83 
 158 762.08 767.34 761.83 
 159 761.04 767.35 762.08 
 160 761.83 767.34 762.08 
 161 761.91 767.32 762.08 
 162 761.58 763.28 762.08 
 163 760.58 767.34 762.08 
 164 760.63 767.34 762.08 
 165 760.91 767.31 762.08 
 166 761.00 767.32 762.08 
 167 760.96 763.32 762.08 
 168 761.08 763.36 762.08 
 169 760.58 767.32 762.08 
 170 761.42 767.31 762.08 
 171 761.59 767.35 762.08 
 172 761.54 767.36 762.08 
 173 761.92 767.33 762.08 
 174 760.71 767.32 762.08 
 175 761.50 767.32 762.08 
 176 761.25 767.33 762.08 
 177 760.13 767.35 762.08 
 178 762.17 767.34 762.08 
 179 762.01 767.33 762.17 
 180 762.26 767.36 762.17 
 181 761.21 767.30 762.26 
 182 761.96 767.31 762.26 
 183 761.66 763.30 762.26 
 184 761.08 767.30 762.26 
 185 761.58 767.30 762.26 
 186 761.74 767.35 762.26 
 187 761.79 767.31 762.26 
 188 761.50 767.33 762.26 
 189 762.79 767.31 762.26 
 190 762.30 763.29 762.79 
 191 761.59 767.35 762.79 
 192 761.71 759.32 762.79 
 193 760.79 767.28 762.79 
 194 762.34 767.32 762.79 
 195 762.87 767.26 762.79 
 196 762.54 767.29 762.87 
 197 762.33 767.29 762.87 
 198 762.29 767.30 762.87 
 199 763.38 767.35 762.87 
 200 762.92 767.31 763.38 
 201 763.00 767.34 763.38 
 202 762.09 767.30 763.38 
 203 764.17 767.31 763.38 
 204 763.25 763.30 764.17 
 205 763.25 767.32 764.17 
 206 762.75 767.29 764.17 
 207 763.72 767.29 764.17 
 208 763.62 767.31 764.17 
 209 763.46 767.30 764.17 
 210 763.75 767.31 764.17 
 211 764.25 767.29 764.17 
 212 763.79 767.28 764.25 
 213 764.33 767.27 764.25 
 214 763.29 767.29 764.33 
 215 764.00 767.28 764.33 
 216 763.38 767.26 764.33 
 217 764.34 767.28 764.33 
 218 764.21 767.29 764.34 
 219 762.87 767.32 764.34 
 220 764.42 767.31 764.34 
 221 762.24 767.31 764.42 
 222 764.09 767.29 764.42 
 223 764.34 767.32 764.42 
 224 763.96 767.29 764.42 
 225 764.42 767.29 764.42 
 226 764.09 767.31 764.42 
 227 763.63 767.36 764.42 
 228 764.59 767.32 764.42 
 229 763.38 767.31 764.59 
 230 764.30 767.29 764.59 
 231 763.88 767.31 764.59 
 232 763.47 767.31 764.59 
 233 763.87 767.35 764.59 
 234 763.83 767.30 764.59 
 235 763.59 763.28 764.59 
 236 763.88 767.30 764.59 
 237 763.46 767.32 764.59 
 238 764.55 767.36 764.59 
 239 763.63 767.33 764.59 
 240 763.67 767.30 764.59 
 241 764.04 767.32 764.59 
 242 763.87 763.28 764.59 
 243 763.96 767.31 764.59 
 244 763.70 767.27 764.59 
 245 763.88 767.33 764.59 
 246 764.33 767.28 764.59 
 247 763.20 767.31 764.59 
 248 764.05 767.30 764.59 
 249 764.26 767.26 764.59 
 250 764.21 767.31 764.59 
 251 764.08 767.28 764.59 
 252 764.12 767.29 764.59 
 253 763.75 767.27 764.59 
 254 764.13 767.30 764.59 
 255 764.00 767.28 764.59 
 256 764.33 767.32 764.59 
 257 764.00 767.31 764.59 
 258 763.38 767.33 764.59 
 259 764.42 767.32 764.59 
 260 764.21 767.26 764.59 
 261 764.80 767.31 764.59 
 262 764.76 767.30 764.80 
 263 764.21 767.31 764.80 
 264 765.09 767.28 764.80 
 265 762.67 763.24 765.09 
 266 764.09 767.34 765.09 
 267 764.67 767.34 765.09 
 268 764.01 767.31 765.09 
 269 764.88 767.32 765.09 
 270 763.63 767.33 765.09 
 271 764.59 767.31 765.09 
 272 764.88 767.36 765.09 
 273 764.18 767.33 765.09 
 274 764.05 767.35 765.09 
 275 764.34 767.32 765.09 
 276 764.63 767.34 765.09 
 277 764.34 767.33 765.09 
 278 764.30 767.33 765.09 
 279 764.51 767.33 765.09 
 280 764.47 767.33 765.09 
 281 764.60 767.33 765.09 
 282 764.64 767.33 765.09 
 283 764.09 767.34 765.09 
 284 764.26 767.30 765.09 
 285 764.63 767.36 765.09 
 286 764.09 767.32 765.09 
 287 764.56 767.29 765.09 
 288 764.47 767.33 765.09 
 289 764.76 767.32 765.09 
 290 764.59 767.30 765.09 
 291 764.23 767.33 765.09 
 292 763.85 767.33 765.09 
 293 764.43 767.32 765.09 
 294 765.05 767.28 765.09 
 295 763.84 767.34 765.09 
 296 764.68 767.30 765.09 
 297 764.01 767.34 765.09 
 298 764.30 767.30 765.09 
 299 763.84 767.34 765.09 
 300 764.30 767.31 765.09 
 301 764.93 767.36 765.09 
 302 764.34 767.31 765.09 
 303 764.30 767.33 765.09 
 304 764.88 767.32 765.09 
 305 763.51 767.28 765.09 
 306 764.55 767.30 765.09 
 307 765.26 767.38 765.09 
 308 764.22 767.32 765.26 
 309 764.51 767.36 765.26 
 310 765.35 767.31 765.26 
 311 765.05 767.30 765.35 
 312 764.55 767.29 765.35 
 313 765.09 767.33 765.35 
 314 764.96 767.27 765.35 
 315 764.63 767.31 765.35 
 316 764.84 767.33 765.35 
 317 765.13 767.35 765.35 
 318 764.71 767.31 765.35 
 319 764.09 767.32 765.35 
 320 764.68 767.32 765.35 
 321 764.80 767.33 765.35 
 322 764.59 767.31 765.35 
 323 764.43 767.31 765.35 
 324 764.56 767.32 765.35 
 325 765.09 767.31 765.35 
 326 765.10 767.31 765.35 
 327 765.26 767.32 765.35 
 328 764.68 767.31 765.35 
 329 764.80 763.30 765.35 
 330 765.01 767.33 765.35 
 331 764.81 767.30 765.35 
 332 765.14 767.33 765.35 
 333 764.14 767.32 765.35 
 334 764.93 767.31 765.35 
 335 765.10 767.29 765.35 
 336 764.51 767.29 765.35 
 337 764.64 767.27 765.35 
 338 765.09 763.28 765.35 
 339 765.35 767.26 765.35 
 340 764.72 767.25 765.35 
 341 764.85 767.26 765.35 
 342 765.51 767.31 765.35 
 343 764.97 767.26 765.51 
 344 764.93 767.27 765.51 
 345 765.35 767.26 765.51 
 346 765.47 767.32 765.51 
 347 765.06 767.31 765.51 
 348 765.52 767.29 765.51 
 349 765.14 767.33 765.52 
 350 765.35 767.31 765.52 
 351 765.27 767.31 765.52 
 352 765.01 767.28 765.52 
 353 765.34 767.30 765.52 
 354 765.14 767.31 765.52 
 355 764.89 767.31 765.52 
 356 765.30 767.31 765.52 
 357 765.22 767.30 765.52 
 358 765.27 767.30 765.52 
 359 765.43 767.29 765.52 
 360 765.10 767.34 765.52 
 361 765.31 767.29 765.52 
 362 765.64 767.32 765.52 
 363 764.89 767.31 765.64 
 364 765.14 767.30 765.64 
 365 764.98 767.29 765.64 
 366 764.68 767.32 765.64 
 367 764.98 767.36 765.64 
 368 765.35 767.33 765.64 
 369 765.44 767.31 765.64 
 370 765.47 767.33 765.64 
 371 765.15 767.30 765.64 
 372 765.02 767.32 765.64 
 373 765.44 767.31 765.64 
 374 765.48 767.31 765.64 
 375 764.85 767.32 765.64 
 376 765.39 767.29 765.64 
 377 764.89 767.30 765.64 
 378 764.97 767.32 765.64 
 379 765.86 767.29 765.64 
 380 765.51 767.29 765.86 
 381 765.48 767.30 765.86 
 382 764.89 767.29 765.86 
 383 765.48 767.31 765.86 
 384 766.06 767.30 765.86 
 385 764.97 767.31 766.06 
 386 764.89 767.29 766.06 
 387 765.65 767.32 766.06 
 388 766.07 767.32 766.06 
 389 765.06 767.32 766.07 
 390 764.77 767.31 766.07 
 391 765.73 767.33 766.07 
 392 765.18 767.31 766.07 
 393 765.18 767.33 766.07 
 394 765.35 767.33 766.07 
 395 765.48 767.32 766.07 
 396 765.31 767.33 766.07 
 397 765.81 767.34 766.07 
 398 765.48 767.32 766.07 
 399 765.82 767.32 766.07 
 400 765.31 767.31 766.07 
 401 765.82 767.29 766.07 
 402 765.44 767.32 766.07 
 403 765.23 767.32 766.07 
 404 765.94 767.29 766.07 
 405 765.77 767.33 766.07 
 406 765.32 767.34 766.07 
 407 765.65 767.31 766.07 
 408 765.77 767.33 766.07 
 409 765.40 767.31 766.07 
 410 765.90 767.30 766.07 
 411 765.69 767.30 766.07 
 412 765.31 767.33 766.07 
 413 765.60 767.31 766.07 
 414 765.52 767.34 766.07 
 415 766.06 767.33 766.07 
 416 765.43 767.28 766.07 
 417 765.47 767.30 766.07 
 418 766.14 767.32 766.07 
 419 766.06 767.29 766.14 
 420 765.72 767.31 766.14 
 421 765.94 767.33 766.14 
 422 765.56 767.28 766.14 
 423 766.15 767.28 766.14 
 424 765.68 767.26 766.15 
 425 765.89 767.29 766.15 
 426 765.31 767.28 766.15 
 427 766.06 767.30 766.15 
 428 765.77 767.32 766.15 
 429 765.94 767.32 766.15 
 430 765.85 767.33 766.15 
 431 765.40 767.32 766.15 
 432 765.86 767.34 766.15 
 433 765.61 767.30 766.15 
 434 766.06 767.33 766.15 
 435 765.52 763.28 766.15 
 436 765.61 767.29 766.15 
 437 766.03 767.30 766.15 
 438 765.07 767.31 766.15 
 439 765.24 767.32 766.15 
 440 765.52 767.29 766.15 
 441 765.61 767.29 766.15 
 442 765.56 767.29 766.15 
 443 765.48 767.27 766.15 
 444 765.64 767.29 766.15 
 445 765.94 767.28 766.15 
 446 765.23 767.30 766.15 
 447 765.85 767.29 766.15 
 448 765.44 767.31 766.15 
 449 765.78 767.32 766.15 
 450 765.44 767.31 766.15 
 451 765.69 767.31 766.15 
 452 765.69 767.32 766.15 
 453 765.28 767.31 766.15 
 454 765.95 767.31 766.15 
 455 765.61 767.30 766.15 
 456 765.53 767.34 766.15 
 457 766.03 767.32 766.15 
 458 766.03 767.31 766.15 
 459 765.86 767.30 766.15 
 460 765.48 767.29 766.15 
 461 765.23 767.30 766.15 
 462 765.48 767.28 766.15 
 463 765.90 767.33 766.15 
 464 765.65 767.32 766.15 
 465 765.36 767.31 766.15 
 466 765.73 767.28 766.15 
 467 765.48 767.28 766.15 
 468 765.72 767.29 766.15 
 469 765.23 767.29 766.15 
 470 765.27 767.29 766.15 
 471 765.44 767.30 766.15 
 472 766.10 767.31 766.15 
 473 766.06 767.31 766.15 
 474 765.60 767.30 766.15 
 475 765.73 767.28 766.15 
 476 765.85 767.27 766.15 
 477 765.48 767.31 766.15 
 478 765.19 767.27 766.15 
 479 765.64 767.28 766.15 
 480 764.60 767.32 766.15 
 481 765.35 767.28 766.15 
 482 765.61 767.29 766.15 
 483 766.03 767.33 766.15 
 484 765.69 767.30 766.15 
 485 765.15 767.30 766.15 
 486 765.90 767.28 766.15 
 487 765.98 767.26 766.15 
 488 765.40 767.27 766.15 
 489 764.94 767.29 766.15 
 490 765.77 767.30 766.15 
 491 765.14 767.25 766.15 
 492 765.86 767.29 766.15 
 493 765.52 767.28 766.15 
 494 765.73 767.31 766.15 
 495 765.23 767.29 766.15 
 496 765.44 767.26 766.15 
 497 766.11 767.28 766.15 
 498 765.40 767.32 766.15 
 499 765.98 767.32 766.15 
 500 766.24 767.32 766.15 
 501 765.48 767.30 766.24 
 502 765.70 767.26 766.24 
 503 766.03 767.32 766.24 
 504 765.99 767.29 766.24 
 505 765.95 767.30 766.24 
 506 766.28 767.29 766.24 
 507 765.78 767.29 766.28 
 508 765.60 767.30 766.28 
 509 765.69 767.30 766.28 
 510 765.94 767.28 766.28 
 511 765.82 767.30 766.28 
 512 765.81 767.31 766.28 
 513 765.40 767.27 766.28 
 514 765.98 767.29 766.28 
 515 765.69 767.26 766.28 
 516 765.65 767.29 766.28 
 517 766.19 767.27 766.28 
 518 765.69 767.27 766.28 
 519 765.39 767.24 766.28 
 520 766.15 767.24 766.28 
 521 765.81 767.26 766.28 
 522 766.19 767.27 766.28 
 523 765.85 767.29 766.28 
 524 765.81 767.30 766.28 
 525 766.27 767.25 766.28 
 526 766.15 767.29 766.28 
 527 766.28 767.29 766.28 
 528 766.11 767.32 766.28 
 529 766.02 767.28 766.28 
 530 765.98 767.29 766.28 
 531 765.73 767.28 766.28 
 532 765.85 767.28 766.28 
 533 766.06 767.29 766.28 
 534 766.02 767.30 766.28 
 535 766.23 767.27 766.28 
 536 765.93 767.27 766.28 
 537 766.31 767.28 766.28 
 538 765.60 767.25 766.31 
 539 765.64 767.25 766.31 
 540 765.22 767.24 766.31 
 541 766.27 767.24 766.31 
 542 766.18 767.23 766.31 
 543 765.93 767.28 766.31 
 544 765.73 767.29 766.31 
 545 765.56 767.28 766.31 
 546 765.77 767.25 766.31 
 547 765.14 767.29 766.31 
 548 765.73 767.28 766.31 
 549 765.06 767.29 766.31 
 550 765.51 767.27 766.31 
 551 765.72 767.30 766.31 
 552 765.51 767.28 766.31 
 553 766.06 767.27 766.31 
 554 766.15 767.28 766.31 
 555 766.02 767.28 766.31 
 556 766.06 767.30 766.31 
 557 765.52 767.27 766.31 
 558 765.56 767.28 766.31 
 559 765.94 767.27 766.31 
 560 765.44 767.28 766.31 
 561 765.77 767.27 766.31 
 562 765.73 767.29 766.31 
 563 766.10 767.29 766.31 
 564 765.60 767.30 766.31 
 565 765.98 767.29 766.31 
 566 765.77 767.27 766.31 
 567 765.85 767.27 766.31 
 568 765.60 767.30 766.31 
 569 765.77 767.24 766.31 
 570 765.90 767.31 766.31 
 571 765.44 767.30 766.31 
 572 765.81 767.29 766.31 
 573 765.94 767.28 766.31 
 574 765.89 767.32 766.31 
 575 766.06 767.32 766.31 
 576 765.77 767.28 766.31 
 577 766.40 767.28 766.31 
 578 765.64 767.27 766.40 
 579 766.10 767.24 766.40 
 580 765.51 767.27 766.40 
 581 765.94 767.28 766.40 
 582 765.98 763.25 766.40 
 583 766.14 767.28 766.40 
 584 765.81 767.25 766.40 
 585 765.56 767.28 766.40 
 586 766.10 767.30 766.40 
 587 765.93 767.23 766.40 
 588 766.44 767.27 766.40 
 589 766.40 767.26 766.44 
 590 766.19 767.24 766.44 
 591 766.10 767.27 766.44 
 592 765.72 767.27 766.44 
 593 766.23 767.31 766.44 
 594 766.35 767.26 766.44 
 595 765.89 767.31 766.44 
 596 765.82 767.29 766.44 
 597 766.14 767.29 766.44 
 598 765.85 767.28 766.44 
 599 765.85 767.28 766.44 
 600 765.89 767.28 766.44 
 601 766.19 767.31 766.44 
 602 765.90 767.28 766.44 
 603 765.94 767.29 766.44 
 604 765.94 767.28 766.44 
 605 766.02 767.28 766.44 
 606 766.11 767.28 766.44 
 607 765.89 767.27 766.44 
 608 766.22 767.22 766.44 
 609 766.06 767.29 766.44 
 610 765.85 767.30 766.44 
 611 765.64 767.26 766.44 
 612 765.89 767.26 766.44 
 613 766.19 767.29 766.44 
 614 766.31 767.26 766.44 
 615 765.77 767.27 766.44 
 616 766.40 767.25 766.44 
 617 766.40 767.28 766.44 
 618 765.81 767.25 766.44 
 619 765.97 767.30 766.44 
 620 765.93 767.29 766.44 
 621 765.73 767.28 766.44 
 622 766.19 767.27 766.44 
 623 765.60 767.28 766.44 
 624 766.15 767.28 766.44 
 625 766.65 767.29 766.44 
 626 766.18 767.26 766.65 
 627 766.06 767.27 766.65 
 628 766.35 767.24 766.65 
 629 766.23 767.30 766.65 
 630 765.94 767.29 766.65 
 631 766.23 767.26 766.65 
 632 766.26 767.29 766.65 
 633 765.93 767.27 766.65 
 634 765.73 767.25 766.65 
 635 765.94 767.25 766.65 
 636 766.15 767.23 766.65 
 637 766.11 767.27 766.65 
 638 765.77 767.26 766.65 
 639 766.10 767.22 766.65 
 640 766.48 767.29 766.65 
 641 766.10 767.28 766.65 
 642 765.93 767.28 766.65 
 643 765.98 767.30 766.65 
 644 765.97 767.27 766.65 
 645 765.97 767.25 766.65 
 646 766.10 767.28 766.65 
 647 765.98 767.28 766.65 
 648 765.90 767.29 766.65 
 649 765.64 767.25 766.65 
 650 766.02 767.23 766.65 
 651 766.18 767.28 766.65 
 652 765.97 767.25 766.65 
 653 766.05 767.27 766.65 
 654 765.81 767.24 766.65 
 655 765.81 767.25 766.65 
 656 766.23 767.25 766.65 
 657 765.60 763.25 766.65 
 658 766.01 767.25 766.65 
 659 765.88 767.23 766.65 
 660 766.26 767.20 766.65 
 661 765.89 767.23 766.65 
 662 765.34 767.30 766.65 
 663 765.97 767.24 766.65 
 664 765.89 767.28 766.65 
 665 765.68 767.27 766.65 
 666 766.30 767.24 766.65 
 667 765.88 767.28 766.65 
 668 765.88 767.26 766.65 
 669 765.76 767.23 766.65 
 670 765.76 767.29 766.65 
 671 766.22 767.25 766.65 
 672 766.22 767.27 766.65 
 673 766.22 767.27 766.65 
 674 766.22 767.26 766.65 
 675 766.10 767.25 766.65 
 676 765.80 767.27 766.65 
 677 766.27 767.28 766.65 
 678 765.22 767.27 766.65 
 679 765.76 767.24 766.65 
 680 766.23 767.24 766.65 
 681 765.81 767.25 766.65 
 682 766.52 767.24 766.65 
 683 766.35 767.25 766.65 
 684 766.10 767.25 766.65 
 685 766.57 767.26 766.65 
 686 765.89 767.23 766.65 
 687 766.39 767.26 766.65 
 688 766.22 767.29 766.65 
 689 765.93 767.26 766.65 
 690 766.19 767.27 766.65 
 691 765.56 767.28 766.65 
 692 765.90 767.27 766.65 
 693 766.15 767.26 766.65 
 694 765.77 767.30 766.65 
 695 766.32 767.28 766.65 
 696 766.02 767.31 766.65 
 697 765.86 767.28 766.65 
 698 766.19 767.28 766.65 
 699 765.98 767.27 766.65 
 700 766.06 767.28 766.65 
 701 765.98 767.27 766.65 
 702 766.32 767.29 766.65 
 703 766.40 767.30 766.65 
 704 766.32 767.29 766.65 
 705 766.11 767.28 766.65 
 706 765.94 767.28 766.65 
 707 766.23 767.26 766.65 
 708 766.15 767.26 766.65 
 709 766.19 767.29 766.65 
 710 766.36 767.27 766.65 
 711 766.07 767.27 766.65 
 712 765.81 767.27 766.65 
 713 766.14 767.25 766.65 
 714 766.06 767.26 766.65 
 715 766.06 767.27 766.65 
 716 766.19 767.25 766.65 
 717 766.06 767.23 766.65 
 718 766.23 767.25 766.65 
 719 766.65 767.27 766.65 
 720 766.49 767.28 766.65 
 721 766.11 767.25 766.65 
 722 766.28 767.28 766.65 
 723 766.20 767.27 766.65 
 724 766.24 767.26 766.65 
 725 766.36 767.24 766.65 
 726 765.86 767.27 766.65 
 727 765.81 763.21 766.65 
 728 766.24 767.29 766.65 
 729 766.36 767.27 766.65 
 730 766.24 767.27 766.65 
 731 765.73 767.27 766.65 
 732 766.31 767.26 766.65 
 733 766.53 767.27 766.65 
 734 766.28 767.27 766.65 
 735 766.02 767.28 766.65 
 736 766.53 767.29 766.65 
 737 766.20 767.28 766.65 
 738 765.94 767.29 766.65 
 739 766.44 767.27 766.65 
 740 766.69 767.26 766.65 
 741 766.66 767.25 766.69 
 742 766.65 767.30 766.69 
 743 766.40 767.28 766.69 
 744 766.36 767.27 766.69 
 745 766.24 767.28 766.69 
 746 766.11 767.25 766.69 
 747 766.44 767.28 766.69 
 748 766.11 767.28 766.69 
 749 766.40 767.27 766.69 
 750 766.36 767.29 766.69 
 751 766.19 767.28 766.69 
 752 766.69 767.26 766.69 
 753 766.23 767.30 766.69 
 754 766.36 767.25 766.69 
 755 766.36 767.28 766.69 
 756 766.36 767.26 766.69 
 757 766.14 767.27 766.69 
 758 766.44 767.25 766.69 
 759 766.40 767.24 766.69 
 760 766.10 767.28 766.69 
 761 765.98 767.25 766.69 
 762 766.15 767.24 766.69 
 763 766.19 767.24 766.69 
 764 766.31 767.25 766.69 
 765 765.86 767.27 766.69 
 766 766.23 767.29 766.69 
 767 766.69 767.25 766.69 
 768 766.35 767.27 766.69 
 769 766.44 767.28 766.69 
 770 766.77 767.24 766.69 
 771 766.64 767.27 766.77 
 772 766.19 767.29 766.77 
 773 766.15 767.25 766.77 
 774 766.14 767.28 766.77 
 775 766.40 767.29 766.77 
 776 766.39 767.25 766.77 
 777 766.31 767.26 766.77 
 778 766.10 767.25 766.77 
 779 766.61 767.25 766.77 
 780 766.27 767.26 766.77 
 781 766.90 767.28 766.77 
 782 765.98 767.30 766.90 
 783 766.23 767.27 766.90 
 784 766.06 767.28 766.90 
 785 765.90 767.26 766.90 
 786 766.24 767.27 766.90 
 787 766.57 767.26 766.90 
 788 766.57 763.26 766.90 
 789 766.18 767.25 766.90 
 790 766.24 767.28 766.90 
 791 766.45 763.26 766.90 
 792 766.36 767.31 766.90 
 793 766.45 767.28 766.90 
 794 766.36 767.28 766.90 
 795 766.40 767.27 766.90 
 796 766.15 763.26 766.90 
 797 766.23 767.24 766.90 
 798 766.48 767.27 766.90 
 799 765.94 767.27 766.90 
 800 766.36 763.23 766.90 
 801 765.90 767.21 766.90 
 802 766.15 767.27 766.90 
 803 766.51 767.21 766.90 
 804 766.27 767.28 766.90 
 805 766.06 767.22 766.90 
 806 766.48 767.22 766.90 
 807 766.52 767.23 766.90 
 808 766.14 763.22 766.90 
 809 766.52 767.25 766.90 
 810 766.65 767.25 766.90 
 811 766.39 767.27 766.90 
 812 766.49 767.25 766.90 
 813 766.52 767.25 766.90 
 814 766.44 767.26 766.90 
 815 766.70 767.26 766.90 
 816 766.19 767.29 766.90 
 817 766.32 767.23 766.90 
 818 765.99 763.26 766.90 
 819 766.19 767.28 766.90 
 820 766.15 767.26 766.90 
 821 766.56 767.26 766.90 
 822 766.03 767.29 766.90 
 823 766.52 767.26 766.90 
 824 766.07 767.26 766.90 
 825 766.36 767.25 766.90 
 826 766.40 767.24 766.90 
 827 766.35 767.28 766.90 
 828 766.15 767.24 766.90 
 829 765.77 767.27 766.90 
 830 766.52 767.27 766.90 
 831 766.44 767.27 766.90 
 832 766.60 767.27 766.90 
 833 766.06 767.25 766.90 
 834 766.31 767.25 766.90 
 835 766.44 767.28 766.90 
 836 766.65 767.29 766.90 
 837 766.10 767.27 766.90 
 838 766.06 767.27 766.90 
 839 766.14 767.28 766.90 
 840 766.35 767.27 766.90 
 841 766.56 767.26 766.90 
 842 766.60 767.27 766.90 
 843 766.60 767.25 766.90 
 844 766.36 767.25 766.90 
 845 766.02 767.22 766.90 
 846 766.19 767.26 766.90 
 847 766.39 767.27 766.90 
 848 766.35 767.26 766.90 
 849 765.98 767.23 766.90 
 850 766.31 767.27 766.90 
 851 766.27 767.25 766.90 
 852 766.48 767.24 766.90 
 853 765.97 767.24 766.90 
 854 765.88 767.25 766.90 
 855 766.39 767.25 766.90 
 856 766.47 767.26 766.90 
 857 766.51 767.25 766.90 
 858 766.68 767.28 766.90 
 859 766.39 767.25 766.90 
 860 766.52 767.23 766.90 
 861 766.47 767.25 766.90 
 862 766.23 767.25 766.90 
 863 766.27 767.23 766.90 
 864 766.38 767.25 766.90 
 865 766.17 767.23 766.90 
 866 766.55 767.23 766.90 
 867 766.10 767.28 766.90 
 868 766.26 767.27 766.90 
 869 766.48 767.26 766.90 
 870 766.31 767.25 766.90 
 871 766.48 767.24 766.90 
 872 766.06 767.25 766.90 
 873 766.27 767.26 766.90 
 874 766.10 767.23 766.90 
 875 766.48 767.25 766.90 
 876 766.27 767.24 766.90 
 877 766.39 767.25 766.90 
 878 766.35 767.24 766.90 
 879 766.10 767.24 766.90 
 880 765.68 763.23 766.90 
 881 766.05 767.23 766.90 
 882 766.56 767.23 766.90 
 883 766.76 767.25 766.90 
 884 766.13 767.23 766.90 
 885 766.18 767.24 766.90 
 886 766.47 767.23 766.90 
 887 766.39 767.26 766.90 
 888 766.47 767.22 766.90 
 889 766.64 767.25 766.90 
 890 766.56 767.25 766.90 
 891 766.46 767.25 766.90 
 892 766.18 767.23 766.90 
 893 766.39 767.24 766.90 
 894 766.35 767.26 766.90 
 895 766.47 767.25 766.90 
 896 766.44 767.24 766.90 
 897 766.39 767.26 766.90 
 898 766.55 767.27 766.90 
 899 766.60 767.23 766.90 
 900 766.51 767.21 766.90 
 901 766.30 767.16 766.90 
 902 766.09 767.25 766.90 
 903 766.26 767.26 766.90 
 904 766.31 767.26 766.90 
 905 766.56 767.24 766.90 
 906 766.43 767.26 766.90 
 907 766.26 767.25 766.90 
 908 766.56 767.26 766.90 
 909 766.05 767.25 766.90 
 910 766.64 767.26 766.90 
 911 766.56 767.22 766.90 
 912 766.73 767.24 766.90 
 913 766.23 767.26 766.90 
 914 766.31 767.23 766.90 
 915 766.35 767.25 766.90 
 916 766.40 767.27 766.90 
 917 766.43 767.25 766.90 
 918 766.10 767.23 766.90 
 919 766.18 767.26 766.90 
 920 766.06 767.26 766.90 
 921 766.18 767.28 766.90 
 922 766.77 767.25 766.90 
 923 766.47 767.25 766.90 
 924 765.93 767.26 766.90 
 925 766.55 767.27 766.90 
 926 766.30 767.25 766.90 
 927 766.00 767.20 766.90 
 928 766.17 767.26 766.90 
 929 766.13 767.21 766.90 
 930 765.96 767.24 766.90 
 931 766.09 767.25 766.90 
 932 766.30 767.27 766.90 
 933 766.46 767.21 766.90 
 934 766.58 767.26 766.90 
 935 766.17 767.26 766.90 
 936 766.26 767.24 766.90 
 937 766.14 767.25 766.90 
 938 766.38 767.25 766.90 
 939 766.05 767.25 766.90 
 940 766.35 767.25 766.90 
 941 765.97 767.29 766.90 
 942 766.06 767.26 766.90 
 943 766.39 767.27 766.90 
 944 766.06 767.26 766.90 
 945 766.31 767.27 766.90 
 946 766.55 767.23 766.90 
 947 766.35 767.25 766.90 
 948 766.39 767.27 766.90 
 949 766.10 767.26 766.90 
 950 766.01 767.24 766.90 
 951 765.81 767.27 766.90 
 952 765.97 767.26 766.90 
 953 766.14 767.26 766.90 
 954 766.22 767.25 766.90 
 955 766.39 767.23 766.90 
 956 766.36 767.25 766.90 
 957 766.52 767.25 766.90 
 958 766.39 767.29 766.90 
 959 766.18 767.25 766.90 
 960 766.18 767.26 766.90 
 961 765.93 767.27 766.90 
 962 766.14 767.26 766.90 
 963 766.31 767.27 766.90 
 964 766.56 767.30 766.90 
 965 766.78 767.28 766.90 
 966 766.48 767.31 766.90 
 967 766.31 763.25 766.90 
 968 766.64 767.24 766.90 
 969 765.86 767.25 766.90 
 970 766.69 767.25 766.90 
 971 766.27 767.26 766.90 
 972 766.35 767.26 766.90 
 973 766.07 767.28 766.90 
 974 766.44 767.24 766.90 
 975 766.10 767.25 766.90 
 976 766.06 767.27 766.90 
 977 766.18 767.27 766.90 
 978 766.73 767.24 766.90 
 979 766.35 767.25 766.90 
 980 766.18 767.28 766.90 
 981 766.06 767.26 766.90 
 982 766.35 767.27 766.90 
 983 766.31 767.26 766.90 
 984 766.47 767.25 766.90 
 985 766.52 767.28 766.90 
 986 766.39 767.26 766.90 
 987 766.27 767.28 766.90 
 988 766.14 767.28 766.90 
 989 766.60 767.28 766.90 
 990 766.78 767.28 766.90 
 991 766.60 767.24 766.90 
 992 766.27 767.26 766.90 
 993 766.47 767.27 766.90 
 994 766.14 767.23 766.90 
 995 766.06 767.25 766.90 
 996 766.01 767.23 766.90 
 997 766.35 767.26 766.90 
 998 766.01 767.26 766.90 
 999 766.30 767.24 766.90 
1000 766.18 767.29 766.90 
1001 766.64 767.25 766.90 
1002 766.64 767.28 766.90 
1003 766.48 767.28 766.90 
1004 766.18 767.25 766.90 
1005 766.51 767.26 766.90 
1006 766.26 767.26 766.90 
1007 766.14 767.27 766.90 
1008 766.14 767.26 766.90 
1009 766.31 767.26 766.90 
1010 766.30 767.27 766.90 
1011 766.43 767.25 766.90 
1012 766.64 767.24 766.90 
1013 766.60 767.26 766.90 
1014 766.18 767.23 766.90 
1015 766.64 767.26 766.90 
1016 766.39 767.27 766.90 
1017 766.22 767.25 766.90 
1018 766.40 767.26 766.90 
1019 766.56 767.24 766.90 
1020 766.14 767.24 766.90 
1021 766.52 767.26 766.90 
1022 766.27 767.28 766.90 
1023 766.44 767.27 766.90 
1024 766.56 767.27 766.90 
1025 766.64 767.23 766.90 
1026 766.60 767.27 766.90 
1027 766.56 767.28 766.90 
1028 766.69 767.28 766.90 
1029 766.56 767.27 766.90 
1030 766.73 767.22 766.90 
1031 766.35 767.27 766.90 
1032 766.77 767.25 766.90 
1033 766.68 767.26 766.90 
1034 766.35 767.25 766.90 
1035 766.35 767.27 766.90 
1036 765.93 767.26 766.90 
1037 766.47 767.25 766.90 
1038 766.85 767.24 766.90 
1039 766.69 767.25 766.90 
1040 766.52 767.26 766.90 
1041 766.48 767.27 766.90 
1042 766.52 767.26 766.90 
1043 766.60 767.29 766.90 
1044 766.65 767.27 766.90 
1045 766.69 767.29 766.90 
1046 766.23 767.26 766.90 
1047 766.48 763.27 766.90 
1048 766.52 767.26 766.90 
1049 766.81 767.22 766.90 
1050 766.49 767.26 766.90 
1051 766.57 767.27 766.90 
1052 766.40 767.28 766.90 
1053 766.19 767.26 766.90 
1054 766.57 767.24 766.90 
1055 766.52 767.27 766.90 
1056 766.61 767.27 766.90 
1057 766.40 767.27 766.90 
1058 766.53 767.28 766.90 
1059 766.56 767.26 766.90 
1060 766.56 767.24 766.90 
1061 766.65 767.27 766.90 
1062 766.57 767.25 766.90 
1063 766.69 767.28 766.90 
1064 766.48 767.26 766.90 
1065 766.57 767.26 766.90 
1066 766.86 767.28 766.90 
1067 766.07 767.28 766.90 
1068 766.65 767.29 766.90 
1069 766.36 767.24 766.90 
1070 766.48 767.26 766.90 
1071 766.64 767.23 766.90 
1072 766.65 767.29 766.90 
1073 766.48 767.23 766.90 
1074 766.81 767.25 766.90 
1075 766.35 767.26 766.90 
1076 766.19 767.24 766.90 
1077 766.11 767.25 766.90 
1078 766.56 767.29 766.90 
1079 766.06 767.24 766.90 
1080 766.23 767.24 766.90 
1081 766.57 767.27 766.90 
1082 766.61 767.24 766.90 
1083 766.61 763.23 766.90 
1084 766.48 767.22 766.90 
1085 766.31 767.27 766.90 
1086 766.40 767.26 766.90 
1087 766.15 767.24 766.90 
1088 766.44 767.24 766.90 
1089 766.36 767.28 766.90 
1090 766.65 767.25 766.90 
1091 766.19 767.24 766.90 
1092 766.69 767.25 766.90 
1093 766.65 767.26 766.90 
1094 766.27 767.26 766.90 
1095 766.53 767.25 766.90 
1096 766.69 767.27 766.90 
1097 766.27 767.24 766.90 
1098 766.81 767.26 766.90 
1099 765.98 767.25 766.90 
1100 766.10 767.26 766.90 
1101 766.44 767.24 766.90 
1102 766.31 767.24 766.90 
1103 766.78 767.26 766.90 
1104 766.53 767.25 766.90 
1105 766.56 767.24 766.90 
1106 766.19 767.27 766.90 
1107 766.07 767.27 766.90 
1108 766.44 767.27 766.90 
1109 766.14 767.27 766.90 
1110 766.56 767.26 766.90 
1111 766.57 767.24 766.90 
1112 766.69 767.27 766.90 
1113 766.36 767.26 766.90 
1114 766.77 767.26 766.90 
1115 766.23 767.25 766.90 
1116 766.56 767.23 766.90 
1117 766.27 767.25 766.90 
1118 766.60 767.28 766.90 
1119 766.43 767.24 766.90 
1120 766.52 767.29 766.90 
1121 766.56 767.26 766.90 
1122 766.73 767.26 766.90 
1123 766.40 767.23 766.90 
1124 766.57 767.27 766.90 
1125 766.15 767.27 766.90 
1126 766.61 767.27 766.90 
1127 766.52 767.25 766.90 
1128 766.56 767.25 766.90 
1129 766.52 767.24 766.90 
1130 765.93 767.24 766.90 
1131 766.09 767.24 766.90 
1132 766.60 767.24 766.90 
1133 766.35 767.24 766.90 
1134 765.89 767.26 766.90 
1135 766.68 767.24 766.90 
1136 766.27 767.25 766.90 
1137 766.39 767.27 766.90 
1138 766.73 767.24 766.90 
1139 766.36 767.25 766.90 
1140 766.73 763.25 766.90 
1141 766.31 767.25 766.90 
1142 766.19 767.28 766.90 
1143 766.65 767.23 766.90 
1144 766.48 767.25 766.90 
1145 766.39 767.26 766.90 
1146 766.68 767.24 766.90 
1147 766.60 767.23 766.90 
1148 766.43 767.23 766.90 
1149 766.44 767.23 766.90 
1150 766.39 767.25 766.90 
1151 766.47 767.25 766.90 
1152 766.60 767.26 766.90 
1153 766.11 767.28 766.90 
1154 766.15 767.25 766.90 
1155 766.48 767.26 766.90 
1156 766.36 767.25 766.90 
1157 766.56 767.25 766.90 
1158 766.56 767.25 766.90 
1159 766.77 767.24 766.90 
1160 765.89 767.24 766.90 
1161 766.35 767.24 766.90 
1162 766.55 763.23 766.90 
1163 766.77 767.27 766.90 
1164 766.76 767.24 766.90 
1165 766.06 767.27 766.90 
1166 766.56 767.26 766.90 
1167 766.77 767.27 766.90 
1168 766.40 767.25 766.90 
1169 766.56 767.26 766.90 
1170 766.22 767.24 766.90 
1171 766.77 767.26 766.90 
1172 766.44 767.25 766.90 
1173 766.60 767.28 766.90 
1174 766.27 767.28 766.90 
1175 766.31 767.29 766.90 
1176 766.64 767.27 766.90 
1177 766.69 767.24 766.90 
1178 766.23 763.26 766.90 
1179 766.60 767.27 766.90 
1180 766.27 767.25 766.90 
1181 766.56 767.27 766.90 
1182 766.73 767.25 766.90 
1183 766.51 767.25 766.90 
1184 766.31 767.27 766.90 
1185 766.60 767.26 766.90 
1186 766.68 767.29 766.90 
1187 766.56 767.26 766.90 
1188 766.47 767.25 766.90 
1189 766.52 767.23 766.90 
1190 766.52 767.25 766.90 
1191 766.35 767.24 766.90 
1192 766.77 767.24 766.90 
1193 766.56 767.27 766.90 
1194 766.35 767.27 766.90 
1195 766.55 767.25 766.90 
1196 766.22 767.24 766.90 
1197 766.48 767.25 766.90 
1198 766.18 767.22 766.90 
1199 766.52 767.25 766.90 
1200 766.43 767.23 766.90 
1201 766.43 767.21 766.90 
1202 766.38 767.26 766.90 
1203 766.59 767.21 766.90 
1204 765.96 767.22 766.90 
1205 766.46 767.27 766.90 
1206 766.34 767.26 766.90 
1207 766.30 767.23 766.90 
1208 766.05 767.24 766.90 
1209 766.68 767.23 766.90 
1210 766.05 767.26 766.90 
1211 766.43 767.23 766.90 
1212 765.72 767.25 766.90 
1213 766.30 767.27 766.90 
1214 766.43 767.25 766.90 
1215 766.34 767.24 766.90 
1216 766.43 767.22 766.90 
1217 766.01 767.26 766.90 
1218 766.51 767.26 766.90 
1219 766.51 767.27 766.90 
1220 766.43 767.27 766.90 
1221 766.64 767.26 766.90 
1222 766.35 767.26 766.90 
1223 766.27 767.25 766.90 
1224 766.27 767.24 766.90 
1225 766.68 767.26 766.90 
1226 766.14 767.26 766.90 
1227 766.60 767.30 766.90 
1228 766.60 767.25 766.90 
1229 766.60 767.22 766.90 
1230 766.81 767.25 766.90 
1231 766.35 767.24 766.90 
1232 766.64 767.25 766.90 
1233 766.43 767.24 766.90 
1234 766.56 767.26 766.90 
1235 766.86 767.27 766.90 
1236 766.56 767.28 766.90 
1237 766.02 767.28 766.90 
1238 766.43 767.27 766.90 
1239 766.40 767.26 766.90 
1240 766.89 767.24 766.90 
1241 766.43 767.27 766.90 
1242 766.48 767.26 766.90 
1243 766.52 767.26 766.90 
1244 766.69 767.28 766.90 
1245 766.61 767.30 766.90 
1246 766.39 767.28 766.90 
1247 766.44 767.26 766.90 
1248 766.73 767.25 766.90 
1249 766.14 767.29 766.90 
1250 766.31 767.25 766.90 
1251 766.81 767.28 766.90 
1252 766.44 767.25 766.90 
1253 766.36 767.26 766.90 
1254 766.28 767.25 766.90 
1255 766.35 767.26 766.90 
1256 765.90 767.28 766.90 
1257 766.57 767.27 766.90 
1258 766.65 767.23 766.90 
1259 766.56 767.25 766.90 
1260 766.61 767.25 766.90 
1261 766.77 767.29 766.90 
1262 765.93 767.28 766.90 
1263 766.65 767.26 766.90 
1264 766.44 767.26 766.90 
1265 766.48 767.23 766.90 
1266 766.61 767.24 766.90 
1267 766.31 767.24 766.90 
1268 766.35 767.27 766.90 
1269 766.60 767.27 766.90 
1270 766.65 767.28 766.90 
1271 766.81 767.25 766.90 
1272 766.27 767.29 766.90 
1273 766.69 767.27 766.90 
1274 766.23 767.26 766.90 
1275 766.44 767.26 766.90 
1276 766.14 767.26 766.90 
1277 766.64 767.23 766.90 
1278 766.10 767.30 766.90 
1279 766.23 767.26 766.90 
1280 766.35 767.27 766.90 
1281 766.56 767.28 766.90 
1282 766.77 767.24 766.90 
1283 766.39 767.23 766.90 
1284 766.52 767.25 766.90 
1285 766.39 767.27 766.90 
1286 766.69 767.25 766.90 
1287 766.43 767.24 766.90 
1288 766.35 767.21 766.90 
1289 766.52 767.25 766.90 
1290 766.68 767.24 766.90 
1291 766.10 767.26 766.90 
1292 766.18 767.24 766.90 
1293 766.52 767.27 766.90 
1294 766.52 767.25 766.90 
1295 766.48 763.24 766.90 
1296 766.23 767.25 766.90 
1297 766.65 767.24 766.90 
1298 766.06 767.25 766.90 
1299 766.14 767.24 766.90 
1300 766.26 767.26 766.90 
1301 766.39 767.23 766.90 
1302 766.35 767.25 766.90 
1303 766.51 767.23 766.90 
1304 766.56 767.26 766.90 
1305 766.34 767.25 766.90 
1306 766.47 767.24 766.90 
1307 766.22 767.22 766.90 
1308 766.39 767.24 766.90 
1309 766.94 767.27 766.90 
1310 766.39 767.24 766.94 
1311 766.02 767.23 766.94 
1312 766.72 767.24 766.94 
1313 766.18 767.24 766.94 
1314 766.43 767.27 766.94 
1315 766.47 767.26 766.94 
1316 766.02 767.24 766.94 
1317 766.31 767.24 766.94 
1318 766.43 767.23 766.94 
1319 766.68 767.27 766.94 
1320 766.18 767.26 766.94 
1321 766.34 767.24 766.94 
1322 766.26 767.25 766.94 
1323 765.97 767.26 766.94 
1324 766.43 767.24 766.94 
1325 766.27 767.24 766.94 
1326 766.35 767.26 766.94 
1327 766.43 767.27 766.94 
1328 766.39 767.26 766.94 
1329 766.60 767.26 766.94 
1330 766.19 767.25 766.94 
1331 766.48 767.25 766.94 
1332 766.56 767.23 766.94 
1333 766.14 767.24 766.94 
1334 766.43 767.28 766.94 
1335 766.39 767.26 766.94 
1336 766.14 767.24 766.94 
1337 766.47 767.27 766.94 
1338 766.44 767.23 766.94 
1339 766.65 767.28 766.94 
1340 766.52 767.28 766.94 
1341 766.65 767.26 766.94 
1342 766.36 767.28 766.94 
1343 766.73 767.28 766.94 
1344 766.31 767.26 766.94 
1345 766.57 767.26 766.94 
1346 766.31 767.26 766.94 
1347 766.36 767.25 766.94 
1348 766.60 763.22 766.94 
1349 766.22 767.24 766.94 
1350 766.35 767.25 766.94 
1351 766.64 767.25 766.94 
1352 766.53 767.24 766.94 
1353 766.48 767.27 766.94 
1354 766.39 767.27 766.94 
1355 766.53 767.25 766.94 
1356 766.60 767.26 766.94 
1357 766.15 767.26 766.94 
1358 766.23 767.26 766.94 
1359 766.65 767.22 766.94 
1360 766.27 767.26 766.94 
1361 766.19 767.26 766.94 
1362 766.69 767.27 766.94 
1363 766.40 767.26 766.94 
1364 766.31 767.24 766.94 
1365 765.98 767.25 766.94 
1366 766.56 767.28 766.94 
1367 766.56 767.24 766.94 
1368 766.39 767.25 766.94 
1369 766.64 767.26 766.94 
1370 766.56 767.27 766.94 
1371 766.52 767.27 766.94 
1372 766.26 767.24 766.94 
1373 766.60 767.25 766.94 
1374 766.10 767.23 766.94 
1375 766.52 767.25 766.94 
1376 766.68 767.26 766.94 
1377 766.60 767.23 766.94 
1378 766.27 767.27 766.94 
1379 766.23 767.29 766.94 
1380 766.34 767.27 766.94 
1381 766.23 767.25 766.94 
1382 766.60 767.26 766.94 
1383 766.51 767.25 766.94 
1384 766.22 767.26 766.94 
1385 766.38 767.25 766.94 
1386 766.47 767.25 766.94 
1387 766.14 767.24 766.94 
1388 766.44 767.25 766.94 
1389 766.56 767.24 766.94 
1390 766.73 767.27 766.94 
1391 766.22 767.24 766.94 
1392 766.64 767.27 766.94 
1393 766.60 767.27 766.94 
1394 766.31 767.26 766.94 
1395 766.14 767.25 766.94 
1396 766.64 767.26 766.94 
1397 766.56 767.26 766.94 
1398 766.56 767.26 766.94 
1399 766.44 767.21 766.94 
1400 766.48 767.24 766.94 
1401 766.64 767.24 766.94 
1402 766.68 767.23 766.94 
1403 766.35 767.21 766.94 
1404 766.55 767.23 766.94 
1405 766.72 767.22 766.94 
1406 766.64 767.25 766.94 
1407 766.68 767.23 766.94 
1408 766.39 767.25 766.94 
1409 766.72 767.25 766.94 
1410 766.47 763.20 766.94 
1411 766.80 767.22 766.94 
1412 766.55 767.21 766.94 
1413 766.22 767.23 766.94 
1414 766.68 767.22 766.94 
1415 766.64 767.26 766.94 
1416 766.77 767.23 766.94 
1417 766.59 767.25 766.94 
1418 766.35 767.26 766.94 
1419 766.39 767.23 766.94 
1420 766.60 767.26 766.94 
1421 766.56 767.29 766.94 
1422 766.68 767.25 766.94 
1423 766.56 767.22 766.94 
1424 766.85 767.27 766.94 
1425 766.85 767.26 766.94 
1426 766.39 767.25 766.94 
1427 766.85 767.26 766.94 
1428 766.61 767.28 766.94 
1429 766.52 767.27 766.94 
1430 766.23 767.29 766.94 
1431 766.82 767.25 766.94 
1432 766.73 767.25 766.94 
1433 766.64 767.24 766.94 
1434 766.52 767.24 766.94 
1435 766.40 767.26 766.94 
1436 766.44 767.28 766.94 
1437 766.48 767.28 766.94 
1438 766.64 767.27 766.94 
1439 766.60 767.23 766.94 
1440 766.18 767.26 766.94 
1441 766.31 767.24 766.94 
1442 766.43 767.24 766.94 
1443 766.56 767.24 766.94 
1444 766.60 767.25 766.94 
1445 766.51 767.24 766.94 
1446 766.56 767.22 766.94 
1447 766.77 767.23 766.94 
1448 766.39 767.22 766.94 
1449 766.52 767.20 766.94 
1450 766.35 767.22 766.94 
1451 766.47 767.26 766.94 
1452 766.27 767.26 766.94 
1453 766.22 767.25 766.94 
1454 766.64 767.25 766.94 
1455 766.39 767.24 766.94 
1456 766.55 767.25 766.94 
1457 766.47 767.28 766.94 
1458 766.81 767.23 766.94 
1459 766.18 767.24 766.94 
1460 766.14 767.23 766.94 
1461 766.48 767.24 766.94 
1462 766.48 767.24 766.94 
1463 766.77 767.26 766.94 
1464 766.14 767.23 766.94 
1465 766.56 767.28 766.94 
1466 766.60 767.25 766.94 
1467 766.19 767.22 766.94 
1468 766.68 767.25 766.94 
1469 766.36 767.23 766.94 
1470 766.31 767.27 766.94 
1471 766.48 767.22 766.94 
1472 766.06 767.23 766.94 
1473 766.56 767.23 766.94 
1474 766.47 767.28 766.94 
1475 766.48 767.25 766.94 
1476 766.35 767.27 766.94 
1477 766.56 767.28 766.94 
1478 766.27 767.25 766.94 
1479 766.56 767.26 766.94 
1480 766.47 767.26 766.94 
1481 766.27 767.22 766.94 
1482 766.48 767.23 766.94 
1483 766.60 767.28 766.94 
1484 766.43 767.28 766.94 
1485 766.39 767.25 766.94 
1486 766.39 767.22 766.94 
1487 766.15 767.25 766.94 
1488 766.48 767.24 766.94 
1489 766.69 767.25 766.94 
1490 766.27 767.27 766.94 
1491 766.94 767.26 766.94 
1492 765.89 767.26 766.94 
1493 766.48 767.26 766.94 
1494 766.69 767.26 766.94 
1495 766.60 767.28 766.94 
1496 766.77 767.22 766.94 
1497 766.52 767.27 766.94 
1498 766.56 767.28 766.94 
1499 766.52 767.27 766.94 
1500 766.35 767.26 766.94 
1501 766.27 767.26 766.94 
1502 766.94 767.25 766.94 
1503 766.65 767.24 766.94 
1504 766.64 767.27 766.94 
1505 766.43 767.27 766.94 
1506 766.56 767.25 766.94 
1507 766.06 767.26 766.94 
1508 766.90 767.25 766.94 
1509 766.27 767.26 766.94 
1510 766.35 767.25 766.94 
1511 766.27 767.27 766.94 
1512 766.31 767.25 766.94 
1513 766.19 767.25 766.94 
1514 766.32 767.24 766.94 
1515 766.31 767.27 766.94 
1516 766.73 767.26 766.94 
1517 766.27 767.25 766.94 
1518 766.40 767.26 766.94 
1519 766.31 767.26 766.94 
1520 766.60 767.24 766.94 
1521 766.44 767.26 766.94 
1522 766.44 767.28 766.94 
1523 766.52 767.23 766.94 
1524 766.43 767.26 766.94 
1525 766.35 763.25 766.94 
1526 766.51 767.26 766.94 
1527 766.47 767.23 766.94 
1528 766.55 767.24 766.94 
1529 766.38 767.23 766.94 
1530 766.05 767.23 766.94 
1531 766.09 767.23 766.94 
1532 766.43 767.23 766.94 
1533 766.46 767.25 766.94 
1534 766.18 767.25 766.94 
1535 766.48 767.23 766.94 
1536 766.47 767.27 766.94 
1537 766.68 767.27 766.94 
1538 766.64 767.23 766.94 
1539 766.77 767.27 766.94 
1540 766.68 767.26 766.94 
1541 766.26 767.27 766.94 
1542 766.43 767.26 766.94 
1543 766.39 767.24 766.94 
1544 766.43 767.28 766.94 
1545 766.48 767.25 766.94 
1546 766.68 767.24 766.94 
1547 766.56 767.25 766.94 
1548 766.81 767.23 766.94 
1549 766.31 767.25 766.94 
1550 766.31 767.27 766.94 
1551 766.81 767.26 766.94 
1552 766.27 767.27 766.94 
1553 766.23 767.26 766.94 
1554 766.44 767.26 766.94 
1555 766.48 767.30 766.94 
1556 766.23 767.29 766.94 
1557 766.14 767.29 766.94 
1558 766.27 767.26 766.94 
1559 766.40 767.27 766.94 
1560 766.48 767.25 766.94 
1561 766.69 767.29 766.94 
1562 766.23 767.26 766.94 
1563 766.19 767.24 766.94 
1564 766.48 767.28 766.94 
1565 766.48 767.27 766.94 
1566 765.99 767.27 766.94 
1567 766.44 767.26 766.94 
1568 766.65 767.27 766.94 
1569 766.44 767.28 766.94 
1570 766.31 767.25 766.94 
1571 766.73 767.26 766.94 
1572 766.49 767.26 766.94 
1573 766.57 767.26 766.94 
1574 766.36 767.27 766.94 
1575 766.48 767.26 766.94 
1576 766.52 763.24 766.94 
1577 766.65 767.26 766.94 
1578 766.77 767.28 766.94 
1579 766.60 767.26 766.94 
1580 766.48 767.28 766.94 
1581 766.52 767.29 766.94 
1582 766.69 767.25 766.94 
1583 766.65 767.27 766.94 
1584 766.73 767.27 766.94 
1585 766.55 767.26 766.94 
1586 766.77 767.25 766.94 
1587 766.77 767.23 766.94 
1588 766.52 767.26 766.94 
1589 766.23 767.26 766.94 
1590 766.40 767.25 766.94 
1591 766.52 767.28 766.94 
1592 766.57 767.27 766.94 
1593 766.94 767.26 766.94 
1594 766.60 767.24 766.94 
1595 766.43 767.26 766.94 
1596 766.43 767.23 766.94 
1597 766.61 767.25 766.94 
1598 766.85 767.26 766.94 
1599 766.39 767.25 766.94 
1600 766.90 767.24 766.94 
1601 766.73 767.26 766.94 
1602 766.73 767.27 766.94 
1603 766.90 767.26 766.94 
1604 766.69 767.25 766.94 
1605 766.73 767.25 766.94 
1606 766.39 767.25 766.94 
1607 766.76 767.25 766.94 
1608 766.64 767.24 766.94 
1609 766.35 767.22 766.94 
1610 766.81 767.25 766.94 
1611 766.47 767.25 766.94 
1612 766.60 767.26 766.94 
1613 766.35 767.25 766.94 
1614 766.52 767.21 766.94 
1615 766.47 767.22 766.94 
1616 766.43 767.24 766.94 
1617 766.73 767.23 766.94 
1618 766.52 767.22 766.94 
1619 766.43 767.26 766.94 
1620 766.68 767.24 766.94 
1621 766.69 767.26 766.94 
1622 766.64 767.28 766.94 
1623 766.26 767.25 766.94 
1624 766.69 767.23 766.94 
1625 766.77 767.25 766.94 
1626 766.52 767.23 766.94 
1627 766.85 767.24 766.94 
1628 766.39 767.29 766.94 
1629 766.56 767.24 766.94 
1630 766.94 767.24 766.94 
1631 766.56 767.28 766.94 
1632 766.52 767.24 766.94 
1633 766.35 767.23 766.94 
1634 766.43 767.24 766.94 
1635 766.52 767.26 766.94 
1636 766.77 763.22 766.94 
1637 766.73 767.27 766.94 
1638 766.35 767.25 766.94 
1639 766.65 767.22 766.94 
1640 766.81 767.22 766.94 
1641 766.52 767.24 766.94 
1642 766.64 767.22 766.94 
1643 766.43 767.24 766.94 
1644 766.52 767.24 766.94 
1645 766.60 767.27 766.94 
1646 766.69 767.25 766.94 
1647 766.40 767.27 766.94 
1648 766.56 767.26 766.94 
1649 766.56 767.27 766.94 
1650 766.65 767.26 766.94 
1651 766.44 767.26 766.94 
1652 766.48 767.27 766.94 
1653 766.35 767.24 766.94 
1654 766.77 767.25 766.94 
1655 766.69 767.29 766.94 
1656 766.32 767.25 766.94 
1657 766.69 767.26 766.94 
1658 766.82 767.27 766.94 
1659 766.48 767.26 766.94 
1660 766.61 767.26 766.94 
1661 766.61 767.23 766.94 
1662 766.35 767.26 766.94 
1663 766.56 767.27 766.94 
1664 766.31 767.26 766.94 
1665 766.48 767.27 766.94 
1666 766.56 767.27 766.94 
1667 766.64 767.26 766.94 
1668 766.15 767.25 766.94 
1669 766.69 767.26 766.94 
1670 766.82 767.28 766.94 
1671 766.40 767.25 766.94 
1672 766.73 767.28 766.94 
1673 766.61 767.28 766.94 
1674 766.52 767.27 766.94 
1675 766.77 767.26 766.94 
1676 766.61 767.26 766.94 
1677 766.77 767.26 766.94 
1678 766.48 767.23 766.94 
1679 766.56 767.25 766.94 
1680 766.48 767.25 766.94 
1681 766.48 767.22 766.94 
1682 766.52 767.20 766.94 
1683 766.44 767.27 766.94 
1684 766.56 767.24 766.94 
1685 766.56 767.25 766.94 
1686 766.69 767.27 766.94 
1687 766.65 767.24 766.94 
1688 766.64 767.25 766.94 
1689 766.14 767.25 766.94 
1690 766.18 767.27 766.94 
1691 766.77 767.24 766.94 
1692 766.73 767.25 766.94 
1693 766.69 767.27 766.94 
1694 766.11 767.27 766.94 
1695 766.82 767.28 766.94 
1696 765.98 767.24 766.94 
1697 766.48 767.24 766.94 
1698 766.82 767.24 766.94 
1699 766.69 767.26 766.94 
1700 766.15 763.24 766.94 
1701 766.77 767.30 766.94 
1702 766.73 767.25 766.94 
1703 766.48 767.26 766.94 
1704 766.14 767.27 766.94 
1705 766.85 767.26 766.94 
1706 766.31 767.25 766.94 
1707 766.35 767.27 766.94 
1708 766.81 767.24 766.94 
1709 766.44 767.25 766.94 
1710 766.73 767.25 766.94 
1711 766.39 767.25 766.94 
1712 766.48 767.23 766.94 
1713 766.44 767.27 766.94 
1714 766.56 767.27 766.94 
1715 766.65 767.28 766.94 
1716 767.02 767.26 766.94 
1717 766.69 767.27 767.02 
1718 766.48 767.28 767.02 
1719 766.69 767.28 767.02 
1720 766.65 767.25 767.02 
1721 766.69 767.28 767.02 
1722 766.53 767.28 767.02 
1723 766.44 767.27 767.02 
1724 766.57 767.25 767.02 
1725 766.52 767.24 767.02 
1726 766.73 767.27 767.02 
1727 766.77 767.25 767.02 
1728 766.40 767.28 767.02 
1729 766.69 767.27 767.02 
1730 766.77 767.20 767.02 
1731 766.52 767.24 767.02 
1732 766.44 767.24 767.02 
1733 766.52 767.21 767.02 
1734 766.77 767.22 767.02 
1735 766.47 767.25 767.02 
1736 766.43 767.26 767.02 
1737 766.47 767.24 767.02 
1738 766.85 767.24 767.02 
1739 766.52 767.23 767.02 
1740 766.43 767.25 767.02 
1741 766.60 767.26 767.02 
1742 766.77 767.24 767.02 
1743 766.43 767.23 767.02 
1744 766.43 767.22 767.02 
1745 766.69 767.25 767.02 
1746 766.60 767.25 767.02 
1747 766.52 767.25 767.02 
1748 766.73 767.25 767.02 
1749 766.35 767.27 767.02 
1750 766.48 767.26 767.02 
1751 766.51 767.27 767.02 
1752 766.35 767.25 767.02 
1753 766.77 767.27 767.02 
1754 766.69 767.24 767.02 
1755 766.31 767.28 767.02 
1756 766.35 767.23 767.02 
1757 766.52 767.25 767.02 
1758 766.39 767.24 767.02 
1759 766.64 767.27 767.02 
1760 766.64 767.27 767.02 
1761 766.35 767.26 767.02 
1762 766.73 767.25 767.02 
1763 766.31 767.28 767.02 
1764 766.77 767.26 767.02 
1765 766.48 767.27 767.02 
1766 766.81 767.29 767.02 
1767 766.44 767.25 767.02 
1768 766.73 767.25 767.02 
1769 766.40 767.24 767.02 
1770 766.69 767.25 767.02 
1771 766.69 767.28 767.02 
1772 766.90 767.27 767.02 
1773 766.86 767.27 767.02 
1774 766.73 767.26 767.02 
1775 766.57 767.28 767.02 
1776 766.69 767.26 767.02 
1777 766.86 767.28 767.02 
1778 766.85 767.27 767.02 
1779 766.57 767.26 767.02 
1780 766.77 767.26 767.02 
1781 766.77 767.26 767.02 
1782 766.78 767.27 767.02 
1783 766.36 767.27 767.02 
1784 766.82 767.26 767.02 
1785 766.52 767.26 767.02 
1786 766.61 767.24 767.02 
1787 766.52 767.27 767.02 
1788 766.36 767.24 767.02 
1789 766.48 767.25 767.02 
1790 766.73 767.25 767.02 
1791 766.69 767.29 767.02 
1792 766.69 767.25 767.02 
1793 766.65 767.24 767.02 
1794 766.85 767.25 767.02 
1795 766.77 767.25 767.02 
1796 766.56 767.24 767.02 
1797 766.81 767.27 767.02 
1798 766.65 767.26 767.02 
1799 766.52 767.26 767.02 
1800 766.65 767.24 767.02 
1801 766.77 767.24 767.02 
1802 766.36 767.27 767.02 
1803 766.73 767.27 767.02 
1804 766.48 767.26 767.02 
1805 766.78 767.25 767.02 
1806 766.73 767.28 767.02 
1807 766.90 767.23 767.02 
1808 766.95 767.23 767.02 
1809 766.77 767.26 767.02 
1810 766.82 767.25 767.02 
1811 766.78 767.28 767.02 
1812 766.48 767.26 767.02 
1813 766.74 767.27 767.02 
1814 766.49 767.27 767.02 
1815 766.61 767.25 767.02 
1816 766.53 767.25 767.02 
1817 766.52 767.27 767.02 
1818 766.78 767.28 767.02 
1819 766.78 767.28 767.02 
1820 766.66 767.27 767.02 
1821 766.69 767.28 767.02 
1822 766.40 767.28 767.02 
1823 766.78 767.28 767.02 
1824 766.36 767.27 767.02 
1825 766.86 767.27 767.02 
1826 766.74 767.25 767.02 
1827 766.65 767.25 767.02 
1828 766.81 767.26 767.02 
1829 766.69 767.28 767.02 
1830 766.82 767.26 767.02 
1831 766.36 767.27 767.02 
1832 766.49 767.26 767.02 
1833 766.70 767.27 767.02 
1834 766.44 767.25 767.02 
1835 766.57 767.26 767.02 
1836 766.65 767.26 767.02 
1837 766.82 767.26 767.02 
1838 766.65 767.22 767.02 
1839 766.99 767.27 767.02 
1840 766.57 767.28 767.02 
1841 766.70 763.23 767.02 
1842 766.74 767.28 767.02 
1843 766.52 767.27 767.02 
1844 766.90 767.26 767.02 
1845 766.10 767.25 767.02 
1846 766.78 767.25 767.02 
1847 766.69 767.24 767.02 
1848 766.82 767.28 767.02 
1849 766.74 767.29 767.02 
1850 766.65 767.26 767.02 
1851 766.66 767.26 767.02 
1852 766.32 767.27 767.02 
1853 766.78 767.26 767.02 
1854 766.53 767.29 767.02 
1855 766.66 767.28 767.02 
1856 766.70 767.28 767.02 
1857 766.69 767.27 767.02 
1858 766.24 767.28 767.02 
1859 766.70 767.27 767.02 
1860 766.69 767.27 767.02 
1861 766.36 767.30 767.02 
1862 766.53 767.29 767.02 
1863 766.69 767.28 767.02 
1864 766.65 767.28 767.02 
1865 766.69 767.25 767.02 
1866 766.66 767.26 767.02 
1867 766.70 767.27 767.02 
1868 766.45 767.26 767.02 
1869 766.62 767.27 767.02 
1870 766.57 767.28 767.02 
1871 766.86 767.29 767.02 
1872 766.57 767.23 767.02 
1873 766.57 767.27 767.02 
1874 766.57 767.27 767.02 
1875 766.90 767.27 767.02 
1876 766.65 767.27 767.02 
1877 766.61 763.27 767.02 
1878 766.74 767.28 767.02 
1879 766.61 767.27 767.02 
1880 766.86 767.28 767.02 
1881 766.74 767.28 767.02 
1882 766.78 767.28 767.02 
1883 766.82 767.27 767.02 
1884 766.78 767.26 767.02 
1885 766.74 767.27 767.02 
1886 766.52 767.27 767.02 
1887 766.45 767.28 767.02 
1888 766.74 767.26 767.02 
1889 766.48 767.26 767.02 
1890 766.77 767.27 767.02 
1891 766.65 767.26 767.02 
1892 766.73 767.24 767.02 
1893 766.78 767.26 767.02 
1894 766.48 767.29 767.02 
1895 766.53 767.27 767.02 
1896 766.57 767.27 767.02 
1897 766.82 767.25 767.02 
1898 766.57 767.27 767.02 
1899 766.82 767.24 767.02 
1900 766.70 767.28 767.02 
1901 766.45 767.27 767.02 
1902 766.86 767.24 767.02 
1903 766.73 767.26 767.02 
1904 766.39 767.28 767.02 
1905 766.02 767.26 767.02 
1906 766.52 767.29 767.02 
1907 766.61 767.29 767.02 
1908 766.23 767.29 767.02 
1909 766.48 767.28 767.02 
1910 766.40 767.27 767.02 
1911 766.69 767.28 767.02 
1912 766.82 767.28 767.02 
1913 766.48 767.28 767.02 
1914 766.65 767.24 767.02 
1915 766.53 767.29 767.02 
1916 766.56 767.29 767.02 
1917 766.32 767.29 767.02 
1918 766.61 767.24 767.02 
1919 766.52 767.25 767.02 
1920 766.53 767.26 767.02 
1921 766.40 767.25 767.02 
1922 766.61 767.25 767.02 
1923 766.61 767.29 767.02 
1924 766.36 767.25 767.02 
1925 766.44 767.28 767.02 
1926 766.40 767.28 767.02 
1927 766.73 767.27 767.02 
1928 766.65 767.26 767.02 
1929 766.52 767.24 767.02 
1930 766.73 767.25 767.02 
1931 766.61 763.27 767.02 
1932 766.57 767.25 767.02 
1933 766.48 767.27 767.02 
1934 766.40 767.27 767.02 
1935 766.81 767.24 767.02 
1936 766.57 767.27 767.02 
1937 766.31 767.26 767.02 
1938 766.56 767.25 767.02 
1939 766.65 767.26 767.02 
1940 766.65 767.28 767.02 
1941 766.36 767.25 767.02 
1942 766.40 767.22 767.02 
1943 766.61 767.29 767.02 
1944 766.69 767.28 767.02 
1945 766.24 767.27 767.02 
1946 766.27 767.27 767.02 
1947 766.44 767.28 767.02 
1948 766.40 767.26 767.02 
1949 766.49 767.22 767.02 
1950 766.35 767.27 767.02 
1951 766.65 767.29 767.02 
1952 766.48 767.27 767.02 
1953 766.65 767.27 767.02 
1954 766.23 767.26 767.02 
1955 766.19 767.25 767.02 
1956 766.78 767.25 767.02 
1957 766.69 767.26 767.02 
1958 766.49 767.26 767.02 
1959 766.70 767.26 767.02 
1960 766.49 767.28 767.02 
1961 766.61 767.28 767.02 
1962 766.28 767.28 767.02 
1963 766.65 767.26 767.02 
1964 766.65 767.26 767.02 
1965 766.32 767.30 767.02 
1966 766.40 767.28 767.02 
1967 766.31 767.28 767.02 
1968 766.40 767.28 767.02 
1969 766.28 767.26 767.02 
1970 766.44 767.26 767.02 
1971 766.82 767.28 767.02 
1972 766.69 767.26 767.02 
1973 766.82 767.28 767.02 
1974 766.53 767.26 767.02 
1975 766.78 767.26 767.02 
1976 766.73 767.26 767.02 
1977 766.69 767.27 767.02 
1978 766.61 767.25 767.02 
1979 766.77 767.27 767.02 
1980 766.52 767.24 767.02 
1981 766.81 767.26 767.02 
1982 766.44 767.27 767.02 
1983 766.44 767.26 767.02 
1984 766.73 767.24 767.02 
1985 766.61 767.26 767.02 
1986 766.36 767.28 767.02 
1987 766.73 767.28 767.02 
1988 766.61 767.26 767.02 
1989 766.65 767.26 767.02 
1990 766.77 767.27 767.02 
1991 766.56 767.27 767.02 
1992 766.57 767.26 767.02 
1993 766.61 767.27 767.02 
1994 766.61 767.25 767.02 
1995 766.69 767.26 767.02 
1996 766.53 767.29 767.02 
1997 766.56 767.28 767.02 
1998 766.52 767.26 767.02 
1999 766.69 767.26 767.02 
2000 766.56 767.28 767.02 
2001 766.90 767.25 767.02 
2002 766.44 767.22 767.02 
2003 766.73 767.27 767.02 
2004 766.36 767.27 767.02 
2005 766.61 767.28 767.02 
2006 766.69 767.28 767.02 
2007 766.53 767.27 767.02 
2008 766.11 767.24 767.02 
2009 766.74 767.25 767.02 
2010 766.74 767.23 767.02 
2011 766.44 767.28 767.02 
2012 766.48 767.24 767.02 
2013 766.28 767.27 767.02 
2014 766.40 767.27 767.02 
2015 766.61 763.27 767.02 
2016 766.23 767.26 767.02 
2017 765.94 767.28 767.02 
2018 766.61 767.27 767.02 
2019 766.66 767.24 767.02 
2020 766.82 767.27 767.02 
2021 766.57 767.25 767.02 
2022 766.69 767.26 767.02 
2023 766.44 767.27 767.02 
2024 766.61 767.28 767.02 
2025 766.61 767.25 767.02 
2026 766.70 767.26 767.02 
2027 766.44 767.27 767.02 
2028 766.40 767.26 767.02 
2029 766.69 767.26 767.02 
2030 766.73 767.26 767.02 
2031 766.90 767.27 767.02 
2032 766.81 767.26 767.02 
2033 766.57 767.26 767.02 
2034 766.36 767.27 767.02 
2035 766.82 767.28 767.02 
2036 766.65 767.26 767.02 
2037 766.65 767.21 767.02 
2038 766.73 767.25 767.02 
2039 766.57 767.24 767.02 
2040 766.61 767.23 767.02 
2041 766.69 767.25 767.02 
2042 766.90 767.26 767.02 
2043 766.61 767.27 767.02 
2044 766.73 767.29 767.02 
2045 766.82 767.24 767.02 
2046 766.48 767.24 767.02 
2047 766.43 767.26 767.02 
2048 766.56 767.28 767.02 
2049 766.82 767.27 767.02 
2050 766.48 767.24 767.02 
2051 766.73 767.29 767.02 
2052 766.73 767.29 767.02 
2053 766.86 767.23 767.02 
2054 766.52 767.27 767.02 
2055 766.73 767.25 767.02 
2056 766.77 767.24 767.02 
2057 766.69 767.28 767.02 
2058 766.82 767.28 767.02 
2059 766.86 767.27 767.02 
2060 766.77 767.26 767.02 
2061 766.69 767.24 767.02 
2062 766.78 767.29 767.02 
2063 766.90 767.24 767.02 
2064 766.57 767.26 767.02 
2065 766.77 767.27 767.02 
2066 766.77 767.27 767.02 
2067 766.35 767.26 767.02 
2068 766.94 767.26 767.02 
2069 766.81 767.27 767.02 
2070 767.06 767.25 767.02 
2071 766.57 767.22 767.06 
2072 766.81 767.26 767.06 
2073 766.65 767.25 767.06 
2074 766.98 767.26 767.06 
2075 766.61 767.24 767.06 
2076 766.65 767.27 767.06 
2077 766.81 767.27 767.06 
2078 766.48 767.26 767.06 
2079 766.65 767.30 767.06 
2080 766.48 767.24 767.06 
2081 766.65 767.30 767.06 
2082 766.57 767.26 767.06 
2083 766.65 767.28 767.06 
2084 766.86 767.29 767.06 
2085 766.40 767.28 767.06 
2086 766.81 767.27 767.06 
2087 766.60 767.25 767.06 
2088 766.81 767.26 767.06 
2089 766.86 767.25 767.06 
2090 766.77 767.23 767.06 
2091 766.77 767.28 767.06 
2092 766.60 767.25 767.06 
2093 767.06 767.25 767.06 
2094 766.65 767.26 767.06 
2095 766.60 767.27 767.06 
2096 766.90 767.27 767.06 
2097 766.64 767.26 767.06 
2098 766.40 767.28 767.06 
2099 766.40 767.29 767.06 
2100 766.57 767.29 767.06 
2101 766.73 767.27 767.06 
2102 766.94 767.27 767.06 
2103 766.81 767.27 767.06 
2104 766.65 767.27 767.06 
2105 766.65 767.25 767.06 
2106 766.61 767.29 767.06 
2107 766.69 767.26 767.06 
2108 766.64 763.23 767.06 
2109 766.73 767.27 767.06 
2110 766.73 767.28 767.06 
2111 766.56 767.26 767.06 
2112 766.65 767.24 767.06 
2113 766.52 767.26 767.06 
2114 766.64 767.24 767.06 
2115 766.47 767.26 767.06 
2116 766.39 763.24 767.06 
2117 766.34 767.29 767.06 
2118 766.27 763.21 767.06 
2119 766.65 767.28 767.06 
2120 766.60 767.24 767.06 
2121 766.30 767.24 767.06 
2122 766.30 767.23 767.06 
2123 766.34 767.22 767.06 
2124 766.27 767.24 767.06 
2125 766.55 763.21 767.06 
2126 766.26 767.23 767.06 
2127 766.51 767.25 767.06 
2128 766.39 767.25 767.06 
2129 766.22 767.25 767.06 
2130 766.56 767.23 767.06 
2131 766.39 767.24 767.06 
2132 766.51 767.29 767.06 
2133 766.56 767.27 767.06 
2134 766.65 767.25 767.06 
2135 766.94 767.26 767.06 
2136 766.52 767.24 767.06 
2137 766.65 767.23 767.06 
2138 766.73 767.20 767.06 
2139 766.64 767.24 767.06 
2140 766.81 767.24 767.06 
2141 766.47 767.22 767.06 
2142 766.85 767.24 767.06 
2143 766.44 767.24 767.06 
2144 766.39 767.27 767.06 
2145 766.85 767.28 767.06 
2146 766.77 767.26 767.06 
2147 766.81 767.24 767.06 
2148 766.64 767.26 767.06 
2149 766.61 767.24 767.06 
2150 766.77 767.24 767.06 
2151 766.40 767.21 767.06 
2152 766.56 767.22 767.06 
2153 766.60 767.25 767.06 
2154 766.44 767.25 767.06 
2155 766.48 763.26 767.06 
2156 766.44 767.28 767.06 
2157 766.65 767.26 767.06 
2158 766.56 767.26 767.06 
2159 766.77 767.26 767.06 
2160 766.56 767.22 767.06 
2161 766.77 767.25 767.06 
2162 766.65 767.28 767.06 
2163 766.57 767.26 767.06 
2164 766.52 767.26 767.06 
2165 766.73 767.26 767.06 
2166 766.56 767.25 767.06 
2167 766.57 767.27 767.06 
2168 766.81 767.23 767.06 
2169 766.39 767.28 767.06 
2170 766.89 767.24 767.06 
2171 766.56 767.25 767.06 
2172 766.43 767.28 767.06 
2173 766.64 767.27 767.06 
2174 766.77 767.28 767.06 
2175 766.77 767.26 767.06 
2176 766.73 767.27 767.06 
2177 766.77 767.28 767.06 
2178 766.94 767.24 767.06 
2179 766.69 767.24 767.06 
2180 766.64 767.27 767.06 
2181 766.77 767.23 767.06 
2182 766.69 767.26 767.06 
2183 766.68 767.28 767.06 
2184 766.73 767.23 767.06 
2185 766.81 767.26 767.06 
2186 767.11 767.23 767.06 
2187 766.98 767.25 767.11 
2188 766.77 767.24 767.11 
2189 766.69 767.26 767.11 
2190 766.48 767.30 767.11 
2191 766.73 767.26 767.11 
2192 766.65 767.26 767.11 
2193 766.73 767.24 767.11 
2194 766.82 767.28 767.11 
2195 766.65 767.29 767.11 
2196 766.57 767.27 767.11 
2197 766.48 767.25 767.11 
2198 766.36 767.27 767.11 
2199 766.74 767.26 767.11 
2200 766.69 767.28 767.11 
2201 767.07 767.28 767.11 
2202 766.78 767.24 767.11 
2203 766.57 767.26 767.11 
2204 766.74 767.26 767.11 
2205 766.57 767.24 767.11 
2206 766.57 767.25 767.11 
2207 766.57 767.26 767.11 
2208 766.78 767.29 767.11 
2209 766.48 767.27 767.11 
2210 766.73 767.25 767.11 
2211 766.39 767.26 767.11 
2212 766.61 767.26 767.11 
2213 766.82 767.27 767.11 
2214 766.77 767.27 767.11 
2215 766.82 767.26 767.11 
2216 766.65 767.24 767.11 
2217 766.35 767.27 767.11 
2218 766.56 767.28 767.11 
2219 766.57 767.26 767.11 
2220 766.61 767.27 767.11 
2221 766.31 767.25 767.11 
2222 766.73 767.23 767.11 
2223 766.65 767.27 767.11 
2224 766.65 767.26 767.11 
2225 766.56 767.23 767.11 
2226 766.31 767.20 767.11 
2227 766.73 767.26 767.11 
2228 766.72 767.26 767.11 
2229 766.81 767.25 767.11 
2230 766.60 767.22 767.11 
2231 766.60 767.27 767.11 
2232 766.85 767.24 767.11 
2233 766.73 767.25 767.11 
2234 766.56 767.24 767.11 
2235 766.39 767.24 767.11 
2236 766.39 767.27 767.11 
2237 766.77 767.26 767.11 
2238 766.78 767.28 767.11 
2239 766.35 767.26 767.11 
2240 766.56 767.25 767.11 
2241 766.27 767.27 767.11 
2242 766.35 767.22 767.11 
2243 766.31 767.26 767.11 
2244 766.52 767.25 767.11 
2245 766.68 767.25 767.11 
2246 766.43 767.29 767.11 
2247 766.52 767.27 767.11 
2248 766.35 767.27 767.11 
2249 766.72 767.26 767.11 
2250 766.60 767.27 767.11 
2251 766.51 767.26 767.11 
2252 766.56 767.23 767.11 
2253 766.48 767.24 767.11 
2254 766.31 767.28 767.11 
2255 766.31 767.24 767.11 
2256 766.56 767.24 767.11 
2257 766.77 767.28 767.11 
2258 766.81 767.25 767.11 
2259 766.64 767.27 767.11 
2260 766.72 763.23 767.11 
2261 766.34 767.23 767.11 
2262 766.68 767.25 767.11 
2263 766.81 767.31 767.11 
2264 766.65 767.23 767.11 
2265 766.23 767.26 767.11 
2266 766.22 767.26 767.11 
2267 766.69 767.27 767.11 
2268 766.44 767.23 767.11 
2269 766.35 767.24 767.11 
2270 766.65 767.25 767.11 
2271 766.77 763.23 767.11 
2272 766.44 767.25 767.11 
2273 766.61 767.25 767.11 
2274 766.73 767.28 767.11 
2275 766.86 767.27 767.11 
2276 766.65 767.24 767.11 
2277 766.73 767.27 767.11 
2278 766.74 767.25 767.11 
2279 766.98 767.23 767.11 
2280 766.78 767.30 767.11 
2281 766.65 767.29 767.11 
2282 766.99 767.25 767.11 
2283 766.70 767.26 767.11 
2284 766.69 767.28 767.11 
2285 766.85 767.25 767.11 
2286 767.11 767.27 767.11 
2287 766.77 767.27 767.11 
2288 766.69 767.28 767.11 
2289 766.69 767.26 767.11 
2290 766.86 767.28 767.11 
2291 766.78 767.27 767.11 
2292 766.78 767.27 767.11 
2293 766.48 767.29 767.11 
2294 766.74 767.28 767.11 
2295 766.40 767.29 767.11 
2296 766.69 767.26 767.11 
2297 766.73 767.28 767.11 
2298 766.73 767.26 767.11 
2299 766.69 767.29 767.11 
2300 766.56 767.28 767.11 
2301 766.64 767.31 767.11 
2302 766.90 767.25 767.11 
2303 766.23 767.28 767.11 
2304 766.44 767.27 767.11 
2305 766.61 767.27 767.11 
2306 766.40 767.27 767.11 
2307 766.73 767.28 767.11 
2308 766.69 767.28 767.11 
2309 766.78 767.29 767.11 
2310 766.69 767.28 767.11 
2311 766.61 767.25 767.11 
2312 766.19 767.27 767.11 
2313 766.65 767.26 767.11 
2314 766.82 767.28 767.11 
2315 766.65 767.26 767.11 
2316 766.73 767.25 767.11 
2317 766.65 767.27 767.11 
2318 766.90 767.27 767.11 
2319 766.36 767.26 767.11 
2320 766.60 767.26 767.11 
2321 766.94 767.26 767.11 
2322 766.86 767.24 767.11 
2323 766.82 767.25 767.11 
2324 766.90 767.26 767.11 
2325 766.35 767.24 767.11 
2326 767.03 767.26 767.11 
2327 766.65 767.27 767.11 
2328 766.94 767.28 767.11 
2329 767.02 767.28 767.11 
2330 766.48 767.21 767.11 
2331 766.82 767.27 767.11 
2332 766.90 767.28 767.11 
2333 766.52 767.23 767.11 
2334 766.57 767.28 767.11 
2335 766.44 767.27 767.11 
2336 766.86 767.26 767.11 
2337 766.61 767.28 767.11 
2338 766.52 767.26 767.11 
2339 766.78 767.27 767.11 
2340 766.65 767.26 767.11 
2341 766.90 767.24 767.11 
2342 766.77 767.25 767.11 
2343 766.90 767.28 767.11 
2344 766.81 767.24 767.11 
2345 766.73 767.28 767.11 
2346 766.94 767.25 767.11 
2347 766.61 767.27 767.11 
2348 766.82 767.25 767.11 
2349 766.64 767.24 767.11 
2350 766.69 767.26 767.11 
2351 766.65 767.29 767.11 
2352 766.65 767.27 767.11 
2353 766.48 767.28 767.11 
2354 766.40 767.27 767.11 
2355 766.65 767.24 767.11 
2356 766.86 767.29 767.11 
2357 766.69 767.28 767.11 
2358 766.57 767.28 767.11 
2359 766.74 767.26 767.11 
2360 766.90 767.28 767.11 
2361 766.61 767.28 767.11 
2362 766.45 763.26 767.11 
2363 766.65 767.29 767.11 
2364 766.69 767.29 767.11 
2365 766.78 767.28 767.11 
2366 766.78 767.25 767.11 
2367 766.82 767.26 767.11 
2368 766.44 767.24 767.11 
2369 766.78 767.25 767.11 
2370 766.73 767.24 767.11 
2371 766.73 767.21 767.11 
2372 766.64 767.22 767.11 
2373 766.73 767.24 767.11 
2374 766.89 767.27 767.11 
2375 766.77 767.23 767.11 
2376 766.86 767.22 767.11 
2377 766.60 767.24 767.11 
2378 766.76 767.23 767.11 
2379 766.63 767.25 767.11 
2380 766.89 767.28 767.11 
2381 766.64 767.26 767.11 
2382 766.56 767.27 767.11 
2383 766.85 767.26 767.11 
2384 766.47 767.24 767.11 
2385 766.55 767.24 767.11 
2386 766.76 767.25 767.11 
2387 766.81 767.23 767.11 
2388 766.85 767.24 767.11 
2389 766.56 767.24 767.11 
2390 766.61 767.27 767.11 
2391 766.69 767.27 767.11 
2392 766.77 767.25 767.11 
2393 766.86 767.22 767.11 
2394 766.73 767.26 767.11 
2395 766.98 767.27 767.11 
2396 766.77 767.27 767.11 
2397 766.48 767.25 767.11 
2398 766.89 767.25 767.11 
2399 766.36 767.28 767.11 
2400 766.73 767.27 767.11 
2401 766.73 767.26 767.11 
2402 766.77 767.27 767.11 
2403 766.52 767.27 767.11 
2404 766.82 767.29 767.11 
2405 766.64 767.24 767.11 
2406 766.40 767.28 767.11 
2407 766.69 767.28 767.11 
2408 766.56 767.27 767.11 
2409 766.36 767.26 767.11 
2410 766.73 767.28 767.11 
2411 766.65 767.26 767.11 
2412 766.73 767.27 767.11 
2413 766.69 767.28 767.11 
2414 766.35 767.24 767.11 
2415 766.48 767.27 767.11 
2416 766.35 767.27 767.11 
2417 766.69 767.28 767.11 
2418 766.73 767.29 767.11 
2419 766.43 767.29 767.11 
2420 766.44 767.26 767.11 
2421 766.35 767.25 767.11 
2422 766.39 767.24 767.11 
2423 766.69 767.27 767.11 
2424 766.77 767.26 767.11 
2425 766.65 767.25 767.11 
2426 766.98 767.27 767.11 
2427 766.35 767.25 767.11 
2428 766.56 767.26 767.11 
2429 766.57 767.27 767.11 
2430 766.65 767.28 767.11 
2431 766.48 767.26 767.11 
2432 766.78 767.27 767.11 
2433 766.94 767.26 767.11 
2434 766.23 767.27 767.11 
2435 766.48 767.26 767.11 
2436 766.69 767.27 767.11 
2437 766.52 767.26 767.11 
2438 766.61 767.28 767.11 
2439 766.77 767.22 767.11 
2440 766.52 767.24 767.11 
2441 766.52 767.26 767.11 
2442 766.77 767.26 767.11 
2443 766.53 767.27 767.11 
2444 766.78 767.26 767.11 
2445 766.61 767.26 767.11 
2446 766.77 767.27 767.11 
2447 766.27 767.26 767.11 
2448 766.52 767.29 767.11 
2449 766.40 767.25 767.11 
2450 766.65 767.26 767.11 
2451 766.61 767.29 767.11 
2452 766.48 767.26 767.11 
2453 766.27 767.25 767.11 
2454 766.52 767.24 767.11 
2455 766.89 767.26 767.11 
2456 766.82 767.26 767.11 
2457 766.56 767.28 767.11 
2458 766.90 767.28 767.11 
2459 766.73 767.26 767.11 
2460 766.52 767.26 767.11 
2461 766.43 767.24 767.11 
2462 766.51 767.27 767.11 
2463 766.64 767.24 767.11 
2464 766.39 767.26 767.11 
2465 766.35 767.25 767.11 
2466 766.77 767.28 767.11 
2467 766.48 767.24 767.11 
2468 766.73 763.25 767.11 
2469 766.73 767.26 767.11 
2470 766.27 767.23 767.11 
2471 766.81 767.25 767.11 
2472 766.39 767.24 767.11 
2473 766.35 767.23 767.11 
2474 766.77 767.26 767.11 
2475 766.65 767.26 767.11 
2476 766.52 767.27 767.11 
2477 766.56 767.25 767.11 
2478 766.77 767.25 767.11 
2479 766.81 767.25 767.11 
2480 766.86 767.25 767.11 
2481 766.60 767.27 767.11 
2482 766.81 767.26 767.11 
2483 766.56 767.27 767.11 
2484 766.56 767.25 767.11 
2485 766.31 767.25 767.11 
2486 766.73 767.25 767.11 
2487 766.73 767.29 767.11 
2488 766.48 767.27 767.11 
2489 766.57 767.26 767.11 
2490 766.36 767.28 767.11 
2491 766.69 767.24 767.11 
2492 766.52 767.27 767.11 
2493 766.69 767.27 767.11 
2494 766.94 767.30 767.11 
2495 766.52 767.26 767.11 
2496 766.36 767.29 767.11 
2497 766.19 767.28 767.11 
2498 765.98 767.27 767.11 
2499 766.40 767.28 767.11 
2500 766.02 767.27 767.11 
2501 766.14 767.26 767.11 
2502 766.23 767.25 767.11 
2503 766.44 767.28 767.11 
2504 766.77 767.28 767.11 
2505 766.77 767.26 767.11 
2506 766.53 767.25 767.11 
2507 766.44 767.25 767.11 
2508 766.36 767.26 767.11 
2509 766.36 767.26 767.11 
2510 766.65 767.26 767.11 
2511 766.64 767.25 767.11 
2512 766.39 767.24 767.11 
2513 766.61 767.26 767.11 
2514 766.44 767.26 767.11 
2515 766.53 767.29 767.11 
2516 766.98 767.27 767.11 
2517 766.65 767.26 767.11 
2518 766.52 767.27 767.11 
2519 766.19 767.26 767.11 
2520 766.65 767.23 767.11 
2521 766.48 767.25 767.11 
2522 766.56 767.24 767.11 
2523 766.60 767.25 767.11 
2524 766.48 767.27 767.11 
2525 766.52 767.27 767.11 
2526 766.52 767.26 767.11 
2527 766.99 767.28 767.11 
2528 766.56 767.26 767.11 
2529 766.65 767.24 767.11 
2530 767.06 767.28 767.11 
2531 766.56 767.27 767.11 
2532 766.53 767.27 767.11 
2533 766.61 767.28 767.11 
2534 766.52 763.19 767.11 
2535 766.86 767.27 767.11 
2536 766.99 767.26 767.11 
2537 766.69 767.28 767.11 
2538 766.73 767.25 767.11 
2539 766.40 767.28 767.11 
2540 766.73 767.25 767.11 
2541 766.52 767.26 767.11 
2542 766.82 767.28 767.11 
2543 766.81 767.28 767.11 
2544 766.82 767.26 767.11 
2545 766.57 767.21 767.11 
2546 766.86 767.23 767.11 
2547 766.86 767.23 767.11 
2548 766.44 767.26 767.11 
2549 766.90 767.22 767.11 
2550 766.65 767.26 767.11 
2551 766.81 767.22 767.11 
2552 766.43 767.26 767.11 
2553 766.81 767.23 767.11 
2554 766.85 767.24 767.11 
2555 766.90 767.23 767.11 
2556 766.61 767.23 767.11 
2557 766.85 767.25 767.11 
2558 766.81 767.25 767.11 
2559 766.81 767.24 767.11 
2560 766.77 767.24 767.11 
2561 766.60 767.25 767.11 
2562 766.77 767.24 767.11 
2563 766.90 767.24 767.11 
2564 766.77 767.24 767.11 
2565 766.64 767.23 767.11 
2566 766.44 767.24 767.11 
2567 766.94 767.25 767.11 
2568 766.73 767.20 767.11 
2569 766.81 767.25 767.11 
2570 766.73 767.27 767.11 
2571 766.48 767.26 767.11 
2572 766.77 767.27 767.11 
2573 766.73 767.26 767.11 
2574 766.81 767.26 767.11 
2575 766.57 767.26 767.11 
2576 766.69 767.27 767.11 
2577 766.78 767.27 767.11 
2578 766.82 767.24 767.11 
2579 766.53 767.25 767.11 
2580 766.61 767.28 767.11 
2581 766.61 767.27 767.11 
2582 766.66 767.27 767.11 
2583 766.57 767.26 767.11 
2584 766.61 767.30 767.11 
2585 766.32 767.28 767.11 
2586 766.78 763.25 767.11 
2587 766.86 767.25 767.11 
2588 766.65 767.24 767.11 
2589 766.82 767.24 767.11 
2590 766.60 767.28 767.11 
2591 766.56 767.25 767.11 
2592 766.65 767.22 767.11 
2593 766.56 767.23 767.11 
2594 766.69 767.27 767.11 
2595 766.64 767.27 767.11 
2596 766.86 767.26 767.11 
2597 766.77 767.27 767.11 
2598 766.64 767.22 767.11 
2599 766.39 767.29 767.11 
2600 766.72 767.27 767.11 
2601 766.81 767.25 767.11 
2602 766.56 763.23 767.11 
2603 766.68 767.27 767.11 
2604 766.56 767.25 767.11 
2605 766.68 763.26 767.11 
2606 766.35 767.27 767.11 
2607 766.68 767.27 767.11 
2608 766.52 767.27 767.11 
2609 766.39 767.25 767.11 
2610 766.73 767.24 767.11 
2611 766.89 767.26 767.11 
2612 766.86 763.22 767.11 
2613 766.52 767.27 767.11 
2614 766.01 767.28 767.11 
2615 766.73 767.27 767.11 
2616 766.64 767.28 767.11 
2617 766.94 767.26 767.11 
2618 766.56 767.28 767.11 
2619 766.56 767.28 767.11 
2620 766.73 767.24 767.11 
2621 766.31 767.25 767.11 
2622 766.27 767.26 767.11 
2623 766.69 767.26 767.11 
2624 766.65 767.25 767.11 
2625 766.32 767.29 767.11 
2626 766.31 767.29 767.11 
2627 766.65 767.26 767.11 
2628 766.48 767.24 767.11 
2629 766.19 767.28 767.11 
2630 766.56 767.27 767.11 
2631 766.82 767.26 767.11 
2632 766.53 767.30 767.11 
2633 766.40 767.29 767.11 
2634 766.36 767.27 767.11 
2635 766.78 767.28 767.11 
2636 766.69 767.24 767.11 
2637 766.61 767.29 767.11 
2638 766.65 767.28 767.11 
2639 766.41 767.28 767.11 
2640 766.49 767.27 767.11 
2641 766.73 767.27 767.11 
2642 766.57 767.27 767.11 
2643 766.78 767.27 767.11 
2644 766.90 767.28 767.11 
2645 766.60 767.25 767.11 
2646 767.03 767.27 767.11 
2647 766.56 767.25 767.11 
2648 766.61 767.26 767.11 
2649 766.73 767.27 767.11 
2650 766.53 767.27 767.11 
2651 766.65 767.26 767.11 
2652 766.78 767.25 767.11 
2653 766.78 767.26 767.11 
2654 766.99 767.26 767.11 
2655 766.99 767.26 767.11 
2656 766.78 763.27 767.11 
2657 766.74 767.26 767.11 
2658 766.65 767.27 767.11 
2659 766.61 767.26 767.11 
2660 766.53 767.26 767.11 
2661 766.61 767.25 767.11 
2662 766.78 767.24 767.11 
2663 766.66 767.27 767.11 
2664 766.90 767.27 767.11 
2665 766.69 767.28 767.11 
2666 766.49 767.27 767.11 
2667 766.90 767.27 767.11 
2668 766.69 767.30 767.11 
2669 766.52 767.27 767.11 
2670 766.82 767.30 767.11 
2671 766.53 767.26 767.11 
2672 766.69 767.25 767.11 
2673 766.57 767.26 767.11 
2674 766.82 767.25 767.11 
2675 766.69 767.25 767.11 
2676 766.69 767.26 767.11 
2677 766.82 767.27 767.11 
2678 766.56 767.28 767.11 
2679 766.99 767.27 767.11 
2680 767.03 767.23 767.11 
2681 766.90 767.25 767.11 
2682 766.85 767.26 767.11 
2683 766.69 767.24 767.11 
2684 766.72 767.24 767.11 
2685 766.72 767.25 767.11 
2686 766.64 767.24 767.11 
2687 766.59 767.27 767.11 
2688 766.90 767.21 767.11 
2689 766.85 767.24 767.11 
2690 766.76 767.25 767.11 
2691 766.68 767.24 767.11 
2692 766.89 767.24 767.11 
2693 766.64 767.25 767.11 
2694 766.72 767.27 767.11 
2695 766.72 767.22 767.11 
2696 767.01 767.23 767.11 
2697 766.97 767.22 767.11 
2698 766.81 767.19 767.11 
2699 766.93 767.21 767.11 
2700 766.81 767.24 767.11 
2701 766.68 767.23 767.11 
2702 766.72 767.28 767.11 
2703 766.81 767.22 767.11 
2704 766.75 763.21 767.11 
2705 766.71 767.22 767.11 
2706 766.59 767.22 767.11 
2707 766.72 767.25 767.11 
2708 766.67 767.23 767.11 
2709 766.59 767.23 767.11 
2710 766.80 767.24 767.11 
2711 766.55 767.24 767.11 
2712 766.88 767.23 767.11 
2713 766.59 767.25 767.11 
2714 766.34 767.27 767.11 
2715 766.39 767.24 767.11 
2716 766.64 767.22 767.11 
2717 766.68 767.23 767.11 
2718 766.72 767.23 767.11 
2719 766.63 767.25 767.11 
2720 766.35 767.23 767.11 
2721 766.51 767.24 767.11 
2722 766.55 767.24 767.11 
2723 766.81 767.25 767.11 
2724 766.68 767.26 767.11 
2725 766.69 763.25 767.11 
2726 766.35 767.26 767.11 
2727 766.60 767.24 767.11 
2728 766.60 767.24 767.11 
2729 766.48 767.26 767.11 
2730 766.81 767.24 767.11 
2731 766.76 767.23 767.11 
2732 766.06 767.21 767.11 
2733 766.56 767.25 767.11 
2734 766.81 767.25 767.11 
2735 766.68 767.25 767.11 
2736 766.35 767.23 767.11 
2737 766.60 767.24 767.11 
2738 767.02 767.23 767.11 
2739 766.51 763.21 767.11 
2740 766.76 767.23 767.11 
2741 766.80 767.22 767.11 
2742 766.51 767.24 767.11 
2743 767.05 767.26 767.11 
2744 766.88 767.26 767.11 
2745 766.93 767.24 767.11 
2746 766.97 767.21 767.11 
2747 766.52 767.23 767.11 
2748 766.77 767.25 767.11 
2749 766.89 767.23 767.11 
2750 766.89 767.24 767.11 
2751 766.93 767.26 767.11 
2752 766.76 767.24 767.11 
2753 766.93 767.24 767.11 
2754 766.72 767.22 767.11 
2755 766.76 767.25 767.11 
2756 766.93 767.25 767.11 
2757 766.38 767.28 767.11 
2758 766.59 767.25 767.11 
2759 766.55 767.23 767.11 
2760 766.81 767.24 767.11 
2761 766.60 767.21 767.11 
2762 767.10 767.27 767.11 
2763 766.77 767.22 767.11 
2764 766.98 767.23 767.11 
2765 766.72 767.24 767.11 
2766 766.98 767.26 767.11 
2767 767.11 767.26 767.11 
2768 766.93 767.27 767.11 
2769 766.94 767.24 767.11 
2770 766.85 767.22 767.11 
2771 766.98 767.23 767.11 
2772 766.51 767.26 767.11 
2773 766.68 767.20 767.11 
2774 766.85 767.27 767.11 
2775 766.68 767.23 767.11 
2776 766.93 767.24 767.11 
2777 766.97 767.26 767.11 
2778 766.68 767.24 767.11 
2779 766.97 767.23 767.11 
2780 766.51 767.26 767.11 
2781 766.51 767.23 767.11 
2782 766.84 767.24 767.11 
2783 766.59 767.23 767.11 
2784 766.89 767.28 767.11 
2785 766.80 767.21 767.11 
2786 766.84 767.24 767.11 
2787 766.55 767.22 767.11 
2788 766.76 767.28 767.11 
2789 766.72 767.25 767.11 
2790 766.76 767.26 767.11 
2791 766.64 767.29 767.11 
2792 766.98 767.24 767.11 
2793 766.97 767.23 767.11 
2794 766.68 767.25 767.11 
2795 766.68 767.27 767.11 
2796 766.60 767.27 767.11 
2797 766.93 767.25 767.11 
2798 766.68 767.25 767.11 
2799 766.77 767.25 767.11 
2800 766.93 767.26 767.11 
2801 766.81 767.25 767.11 
2802 766.72 767.27 767.11 
2803 766.93 767.29 767.11 
2804 766.72 767.27 767.11 
2805 766.85 767.27 767.11 
2806 766.64 767.28 767.11 
2807 766.68 767.29 767.11 
2808 766.68 767.29 767.11 
2809 766.89 767.24 767.11 
2810 766.76 767.26 767.11 
2811 766.56 767.27 767.11 
2812 766.86 767.24 767.11 
2813 766.77 767.23 767.11 
2814 766.81 767.28 767.11 
2815 766.77 767.27 767.11 
2816 766.68 767.25 767.11 
2817 766.73 767.23 767.11 
2818 766.64 767.26 767.11 
2819 766.68 767.27 767.11 
2820 766.14 767.27 767.11 
2821 766.72 767.22 767.11 
2822 766.51 767.25 767.11 
2823 766.93 767.24 767.11 
2824 766.68 767.24 767.11 
2825 766.93 767.23 767.11 
2826 766.51 767.25 767.11 
2827 766.68 767.24 767.11 
2828 766.60 767.25 767.11 
2829 766.72 767.24 767.11 
2830 766.34 767.25 767.11 
2831 766.89 767.24 767.11 
2832 766.47 767.28 767.11 
2833 766.42 767.21 767.11 
2834 766.59 767.21 767.11 
2835 766.72 767.20 767.11 
2836 766.80 763.21 767.11 
2837 766.59 767.23 767.11 
2838 766.33 767.23 767.11 
2839 766.63 767.22 767.11 
2840 766.75 767.26 767.11 
2841 766.79 767.23 767.11 
2842 766.55 763.21 767.11 
2843 766.59 767.26 767.11 
2844 766.63 767.24 767.11 
2845 766.68 767.27 767.11 
2846 766.68 767.29 767.11 
2847 766.52 767.24 767.11 
2848 766.35 767.28 767.11 
2849 766.64 767.25 767.11 
2850 766.59 767.25 767.11 
2851 766.43 767.25 767.11 
2852 766.72 767.25 767.11 
2853 766.38 767.21 767.11 
2854 766.55 767.23 767.11 
2855 766.64 767.29 767.11 
2856 766.51 767.25 767.11 
2857 766.81 767.25 767.11 
2858 766.64 767.25 767.11 
2859 766.76 767.27 767.11 
2860 766.63 763.23 767.11 
2861 766.68 767.25 767.11 
2862 767.09 767.24 767.11 
2863 766.80 767.26 767.11 
2864 766.47 767.23 767.11 
2865 766.89 767.25 767.11 
2866 766.51 767.26 767.11 
2867 766.56 767.27 767.11 
2868 766.60 767.28 767.11 
2869 766.89 767.25 767.11 
2870 766.85 767.27 767.11 
2871 766.69 767.27 767.11 
2872 766.52 767.28 767.11 
2873 766.81 767.25 767.11 
2874 766.60 767.24 767.11 
2875 766.31 767.28 767.11 
2876 766.23 767.25 767.11 
2877 766.85 767.25 767.11 
2878 766.60 767.23 767.11 
2879 766.68 767.24 767.11 
2880 766.81 767.24 767.11 
2881 766.52 767.27 767.11 
2882 766.64 767.24 767.11 
2883 766.77 767.24 767.11 
2884 766.73 767.26 767.11 
2885 766.64 767.26 767.11 
2886 766.77 767.25 767.11 
2887 766.65 767.24 767.11 
2888 766.82 767.25 767.11 
2889 766.56 767.27 767.11 
2890 766.40 767.28 767.11 
2891 766.86 767.24 767.11 
2892 766.69 767.26 767.11 
2893 766.69 767.24 767.11 
2894 766.68 767.28 767.11 
2895 766.44 767.27 767.11 
2896 766.90 767.27 767.11 
2897 766.77 767.25 767.11 
2898 766.77 767.25 767.11 
2899 766.56 767.24 767.11 
2900 766.69 767.23 767.11 
2901 766.89 767.26 767.11 
2902 766.90 767.24 767.11 
2903 766.98 767.24 767.11 
2904 766.85 767.25 767.11 
2905 766.52 767.27 767.11 
2906 766.64 767.27 767.11 
2907 766.64 767.27 767.11 
2908 766.90 767.26 767.11 
2909 766.77 767.27 767.11 
2910 766.48 767.27 767.11 
2911 766.52 767.25 767.11 
2912 766.64 767.28 767.11 
2913 766.86 767.26 767.11 
2914 766.64 767.26 767.11 
2915 766.85 767.24 767.11 
2916 766.44 767.25 767.11 
2917 766.64 767.27 767.11 
2918 766.64 767.27 767.11 
2919 766.56 767.21 767.11 
2920 766.52 767.24 767.11 
2921 766.89 767.27 767.11 
2922 766.72 767.27 767.11 
2923 766.48 767.26 767.11 
2924 766.51 767.29 767.11 
2925 766.72 767.23 767.11 
2926 766.73 767.25 767.11 
2927 766.93 767.22 767.11 
2928 766.64 767.26 767.11 
2929 766.93 767.27 767.11 
2930 766.68 767.27 767.11 
2931 766.85 767.26 767.11 
2932 766.64 767.24 767.11 
2933 766.47 767.28 767.11 
2934 766.34 767.30 767.11 
2935 766.93 767.27 767.11 
2936 766.60 767.28 767.11 
2937 766.60 767.25 767.11 
2938 766.14 767.30 767.11 
2939 766.43 767.24 767.11 
2940 766.55 767.24 767.11 
2941 766.47 767.28 767.11 
2942 766.77 767.24 767.11 
2943 766.39 767.26 767.11 
2944 766.26 767.25 767.11 
2945 766.85 767.24 767.11 
2946 766.39 767.24 767.11 
2947 766.52 767.26 767.11 
2948 766.43 767.24 767.11 
2949 766.60 759.24 767.11 
2950 766.73 767.26 767.11 
2951 766.78 767.27 767.11 
2952 766.73 767.28 767.11 
2953 766.56 767.26 767.11 
2954 766.73 767.27 767.11 
2955 766.27 767.29 767.11 
2956 766.60 767.26 767.11 
2957 766.23 767.29 767.11 
2958 767.07 767.28 767.11 
2959 766.81 767.30 767.11 
2960 766.68 767.27 767.11 
2961 766.73 767.27 767.11 
2962 766.73 767.22 767.11 
2963 766.56 767.26 767.11 
2964 766.77 767.25 767.11 
2965 766.81 767.21 767.11 
2966 766.81 767.27 767.11 
2967 766.60 767.26 767.11 
2968 766.94 763.24 767.11 
2969 766.89 767.26 767.11 
2970 766.73 767.24 767.11 
2971 766.98 767.23 767.11 
2972 766.77 767.25 767.11 
2973 767.14 767.24 767.11 
2974 766.56 767.24 767.14 
2975 766.84 767.25 767.14 
2976 766.72 767.28 767.14 
2977 766.68 767.25 767.14 
2978 766.60 767.25 767.14 
2979 766.81 767.28 767.14 
2980 766.56 767.26 767.14 
2981 766.69 767.27 767.14 
2982 766.77 767.25 767.14 
2983 766.81 767.26 767.14 
2984 766.64 767.27 767.14 
2985 766.93 767.21 767.14 
2986 766.68 767.26 767.14 
2987 766.68 767.27 767.14 
2988 766.85 767.25 767.14 
2989 766.26 767.23 767.14 
2990 766.43 767.23 767.14 
2991 765.93 767.25 767.14 
2992 766.77 767.23 767.14 
2993 766.76 767.23 767.14 
2994 766.80 767.25 767.14 
2995 766.67 767.27 767.14 
2996 766.76 767.25 767.14 
2997 766.72 767.26 767.14 
2998 766.67 767.26 767.14 
2999 766.52 767.28 767.14 
3000 766.68 767.26 767.14 
3001 766.85 767.27 767.14 
3002 766.68 767.24 767.14 
3003 766.68 767.23 767.14 
3004 766.85 767.23 767.14 
3005 766.64 767.27 767.14 
3006 766.81 767.25 767.14 
3007 766.64 767.25 767.14 
3008 766.81 767.25 767.14 
3009 766.80 767.24 767.14 
3010 766.77 767.23 767.14 
3011 766.47 767.23 767.14 
3012 766.59 767.25 767.14 
3013 766.80 767.26 767.14 
3014 766.89 767.26 767.14 
3015 766.84 767.24 767.14 
3016 766.68 767.23 767.14 
3017 766.77 767.25 767.14 
3018 766.55 767.21 767.14 
3019 766.72 767.25 767.14 
3020 766.81 767.24 767.14 
3021 766.93 767.25 767.14 
3022 766.55 767.23 767.14 
3023 766.85 767.23 767.14 
3024 766.38 767.24 767.14 
3025 766.93 767.23 767.14 
3026 766.39 767.24 767.14 
3027 766.79 767.26 767.14 
3028 766.76 767.26 767.14 
3029 766.47 767.29 767.14 
3030 766.76 767.26 767.14 
3031 766.77 767.24 767.14 
3032 766.77 767.26 767.14 
3033 766.72 767.27 767.14 
3034 766.77 767.24 767.14 
3035 766.68 767.27 767.14 
3036 766.85 767.26 767.14 
3037 766.64 763.26 767.14 
3038 766.56 767.27 767.14 
3039 766.89 767.28 767.14 
3040 766.77 767.23 767.14 
3041 766.60 767.23 767.14 
3042 766.85 767.21 767.14 
3043 766.81 767.26 767.14 
3044 766.60 767.27 767.14 
3045 766.85 767.29 767.14 
3046 766.77 767.25 767.14 
3047 766.81 767.27 767.14 
3048 766.94 767.26 767.14 
3049 766.85 767.27 767.14 
3050 766.48 767.27 767.14 
3051 766.56 767.26 767.14 
3052 766.77 767.25 767.14 
3053 766.52 767.25 767.14 
3054 766.85 767.27 767.14 
3055 766.69 767.28 767.14 
3056 766.69 767.25 767.14 
3057 766.47 767.22 767.14 
3058 766.77 763.24 767.14 
3059 766.48 767.24 767.14 
3060 766.48 767.27 767.14 
3061 766.82 767.28 767.14 
3062 766.48 767.24 767.14 
3063 766.81 767.26 767.14 
3064 766.64 767.25 767.14 
3065 766.43 767.25 767.14 
3066 766.69 767.26 767.14 
3067 766.77 767.23 767.14 
3068 766.93 767.26 767.14 
3069 766.77 767.25 767.14 
3070 766.48 767.26 767.14 
3071 766.94 767.23 767.14 
3072 766.77 767.25 767.14 
3073 766.65 767.24 767.14 
3074 766.85 767.27 767.14 
3075 766.73 767.26 767.14 
3076 766.98 767.25 767.14 
3077 766.81 767.26 767.14 
3078 766.73 767.25 767.14 
3079 766.73 767.28 767.14 
3080 766.94 767.24 767.14 
3081 766.86 767.29 767.14 
3082 767.06 767.26 767.14 
3083 766.81 767.25 767.14 
3084 766.73 767.27 767.14 
3085 766.56 767.26 767.14 
3086 767.15 767.25 767.14 
3087 766.77 767.24 767.15 
3088 766.61 767.28 767.15 
3089 766.65 767.23 767.15 
3090 766.90 767.27 767.15 
3091 766.73 767.26 767.15 
3092 767.10 767.23 767.15 
3093 766.68 767.25 767.15 
3094 766.60 767.24 767.15 
3095 766.72 767.24 767.15 
3096 766.73 767.24 767.15 
3097 766.97 767.24 767.15 
3098 766.77 767.28 767.15 
3099 767.05 767.29 767.15 
3100 766.93 767.25 767.15 
3101 766.85 767.23 767.15 
3102 766.93 767.23 767.15 
3103 766.72 767.25 767.15 
3104 766.86 767.25 767.15 
3105 766.98 767.25 767.15 
3106 766.98 767.23 767.15 
3107 766.60 767.25 767.15 
3108 766.77 767.25 767.15 
3109 766.64 767.26 767.15 
3110 766.89 767.24 767.15 
3111 766.69 767.24 767.15 
3112 766.97 767.26 767.15 
3113 766.73 767.27 767.15 
3114 766.81 767.25 767.15 
3115 766.89 767.25 767.15 
3116 766.81 767.26 767.15 
3117 766.81 767.24 767.15 
3118 766.81 767.26 767.15 
3119 766.89 767.25 767.15 
3120 766.56 767.24 767.15 
3121 766.94 767.24 767.15 
3122 766.68 767.25 767.15 
3123 766.73 767.23 767.15 
3124 766.89 763.26 767.15 
3125 766.85 767.26 767.15 
3126 766.89 767.25 767.15 
3127 766.81 767.22 767.15 
3128 766.47 767.25 767.15 
3129 766.76 767.27 767.15 
3130 766.73 767.24 767.15 
3131 766.64 767.26 767.15 
3132 766.60 763.23 767.15 
3133 766.73 767.27 767.15 
3134 766.77 767.24 767.15 
3135 766.47 767.26 767.15 
3136 766.97 767.25 767.15 
3137 766.81 767.23 767.15 
3138 766.93 767.25 767.15 
3139 766.72 767.23 767.15 
3140 766.94 767.25 767.15 
3141 766.35 767.26 767.15 
3142 766.39 767.25 767.15 
3143 766.77 767.25 767.15 
3144 766.86 767.26 767.15 
3145 766.90 767.22 767.15 
3146 766.89 767.26 767.15 
3147 766.81 767.27 767.15 
3148 766.81 767.24 767.15 
3149 766.55 767.21 767.15 
3150 766.55 767.23 767.15 
3151 766.60 767.26 767.15 
3152 766.72 767.25 767.15 
3153 766.81 767.23 767.15 
3154 766.97 767.25 767.15 
3155 766.92 767.26 767.15 
3156 766.72 767.25 767.15 
3157 766.72 767.22 767.15 
3158 766.88 767.26 767.15 
3159 766.84 767.26 767.15 
3160 766.51 767.23 767.15 
3161 766.59 767.24 767.15 
3162 766.68 767.26 767.15 
3163 766.72 767.25 767.15 
3164 766.47 767.25 767.15 
3165 766.64 767.27 767.15 
3166 766.89 767.24 767.15 
3167 766.43 767.24 767.15 
3168 766.94 763.26 767.15 
3169 766.72 767.27 767.15 
3170 766.81 767.27 767.15 
3171 766.77 767.23 767.15 
3172 766.35 759.24 767.15 
3173 766.48 767.24 767.15 
3174 766.60 767.24 767.15 
3175 766.85 767.23 767.15 
3176 766.85 767.23 767.15 
3177 766.60 763.22 767.15 
3178 766.94 767.23 767.15 
3179 766.69 767.24 767.15 
3180 766.31 767.26 767.15 
3181 766.94 767.24 767.15 
3182 766.77 767.23 767.15 
3183 766.81 767.24 767.15 
3184 766.64 767.24 767.15 
3185 766.90 767.26 767.15 
3186 766.77 767.22 767.15 
3187 766.86 767.27 767.15 
3188 766.69 767.27 767.15 
3189 766.73 767.24 767.15 
3190 766.65 767.25 767.15 
3191 766.77 767.27 767.15 
3192 766.14 767.25 767.15 
3193 766.64 767.26 767.15 
3194 766.56 767.29 767.15 
3195 766.69 767.25 767.15 
3196 766.94 767.28 767.15 
3197 766.90 767.28 767.15 
3198 766.69 767.27 767.15 
3199 767.10 767.27 767.15 
3200 766.81 767.28 767.15 
3201 766.73 767.26 767.15 
3202 766.19 767.26 767.15 
3203 766.93 767.25 767.15 
3204 766.26 767.26 767.15 
3205 766.72 767.24 767.15 
3206 766.73 767.22 767.15 
3207 766.89 767.25 767.15 
3208 766.40 767.26 767.15 
3209 767.07 767.22 767.15 
3210 766.69 767.28 767.15 
3211 766.27 767.25 767.15 
3212 766.48 767.26 767.15 
3213 766.40 767.25 767.15 
3214 766.27 767.26 767.15 
3215 766.73 767.25 767.15 
3216 766.64 767.22 767.15 
3217 766.89 767.21 767.15 
3218 766.77 767.27 767.15 
3219 766.81 767.24 767.15 
3220 766.81 767.25 767.15 
3221 766.89 767.24 767.15 
3222 766.65 767.24 767.15 
3223 766.39 767.23 767.15 
3224 766.65 767.24 767.15 
3225 766.77 767.26 767.15 
3226 766.86 767.22 767.15 
3227 766.77 767.27 767.15 
3228 766.56 767.27 767.15 
3229 766.65 767.25 767.15 
3230 766.73 767.23 767.15 
3231 766.56 767.24 767.15 
3232 766.90 767.22 767.15 
3233 766.82 767.24 767.15 
3234 766.72 767.23 767.15 
3235 766.94 767.25 767.15 
3236 766.81 767.24 767.15 
3237 766.64 767.27 767.15 
3238 766.81 767.26 767.15 
3239 766.85 767.27 767.15 
3240 766.56 767.26 767.15 
3241 766.68 767.21 767.15 
3242 766.55 767.22 767.15 
3243 766.92 767.23 767.15 
3244 766.72 767.23 767.15 
3245 766.89 767.20 767.15 
3246 766.72 767.23 767.15 
3247 766.64 763.20 767.15 
3248 766.22 767.21 767.15 
3249 766.97 767.25 767.15 
3250 766.51 767.24 767.15 
3251 766.93 767.25 767.15 
3252 766.69 767.20 767.15 
3253 766.56 767.20 767.15 
3254 766.72 767.26 767.15 
3255 766.89 767.27 767.15 
3256 766.80 767.23 767.15 
3257 766.85 767.28 767.15 
3258 766.81 767.24 767.15 
3259 766.94 767.26 767.15 
3260 766.94 767.26 767.15 
3261 766.77 767.22 767.15 
3262 766.73 767.25 767.15 
3263 766.69 767.27 767.15 
3264 766.69 767.26 767.15 
3265 766.73 763.24 767.15 
3266 766.69 767.26 767.15 
3267 766.69 767.28 767.15 
3268 766.65 767.25 767.15 
3269 766.69 767.28 767.15 
3270 766.78 767.26 767.15 
3271 766.27 767.24 767.15 
3272 766.65 767.27 767.15 
3273 766.98 767.29 767.15 
3274 766.52 767.26 767.15 
3275 766.82 767.24 767.15 
3276 766.52 767.28 767.15 
3277 766.85 767.28 767.15 
3278 766.77 767.27 767.15 
3279 766.90 767.26 767.15 
3280 766.65 767.25 767.15 
3281 766.90 767.27 767.15 
3282 766.93 767.22 767.15 
3283 766.94 767.26 767.15 
3284 766.77 767.24 767.15 
3285 766.85 767.24 767.15 
3286 766.64 767.24 767.15 
3287 767.06 767.23 767.15 
3288 766.89 767.24 767.15 
3289 766.81 767.27 767.15 
3290 766.82 767.23 767.15 
3291 767.02 767.24 767.15 
3292 766.81 767.25 767.15 
3293 766.73 767.27 767.15 
3294 766.73 767.26 767.15 
3295 766.77 767.25 767.15 
3296 766.81 767.26 767.15 
3297 766.77 767.25 767.15 
3298 766.90 767.28 767.15 
3299 766.73 767.25 767.15 
3300 766.68 767.26 767.15 
3301 766.89 767.25 767.15 
3302 766.43 767.24 767.15 
3303 766.72 767.27 767.15 
3304 766.80 767.24 767.15 
3305 766.68 767.27 767.15 
3306 766.60 767.30 767.15 
3307 766.60 767.25 767.15 
3308 766.69 767.29 767.15 
3309 766.93 767.28 767.15 
3310 766.89 767.24 767.15 
3311 767.02 767.27 767.15 
3312 766.80 767.22 767.15 
3313 766.72 767.24 767.15 
3314 766.93 767.22 767.15 
3315 766.55 767.26 767.15 
3316 766.84 767.24 767.15 
3317 766.80 767.25 767.15 
3318 766.63 767.23 767.15 
3319 766.62 767.24 767.15 
3320 766.59 767.25 767.15 
3321 766.80 767.24 767.15 
3322 766.63 767.24 767.15 
3323 766.63 767.25 767.15 
3324 766.59 767.24 767.15 
3325 766.64 767.28 767.15 
3326 766.68 767.27 767.15 
3327 766.76 767.27 767.15 
3328 766.93 763.25 767.15 
3329 766.88 767.23 767.15 
3330 766.89 767.22 767.15 
3331 766.71 767.25 767.15 
3332 766.80 767.22 767.15 
3333 766.76 767.27 767.15 
3334 766.84 767.27 767.15 
3335 766.81 767.26 767.15 
3336 766.80 767.25 767.15 
3337 766.84 767.25 767.15 
3338 766.68 767.25 767.15 
3339 766.97 767.25 767.15 
3340 766.67 767.29 767.15 
3341 766.76 767.23 767.15 
3342 766.93 767.26 767.15 
3343 766.81 767.28 767.15 
3344 766.97 767.26 767.15 
3345 766.97 767.25 767.15 
3346 766.72 767.25 767.15 
3347 766.43 767.25 767.15 
3348 766.77 767.24 767.15 
3349 766.93 767.26 767.15 
3350 766.51 763.22 767.15 
3351 766.60 767.26 767.15 
3352 766.81 767.28 767.15 
3353 766.55 767.26 767.15 
3354 766.51 767.25 767.15 
3355 766.80 767.29 767.15 
3356 766.97 767.24 767.15 
3357 766.85 767.30 767.15 
3358 766.81 767.28 767.15 
3359 766.76 767.25 767.15 
3360 766.93 767.26 767.15 
3361 766.84 767.25 767.15 
3362 766.68 767.25 767.15 
3363 766.97 767.28 767.15 
3364 766.85 767.23 767.15 
3365 766.72 767.24 767.15 
3366 766.76 767.26 767.15 
3367 766.31 767.25 767.15 
3368 766.64 767.27 767.15 
3369 766.68 767.27 767.15 
3370 766.68 767.27 767.15 
3371 767.06 767.25 767.15 
3372 766.81 767.24 767.15 
3373 766.68 767.24 767.15 
3374 766.72 767.25 767.15 
3375 766.77 767.29 767.15 
3376 766.81 767.25 767.15 
3377 766.94 767.26 767.15 
3378 766.73 767.26 767.15 
3379 766.81 767.25 767.15 
3380 766.64 767.25 767.15 
3381 766.39 767.26 767.15 
3382 766.68 767.28 767.15 
3383 766.52 767.23 767.15 
3384 766.68 767.27 767.15 
3385 766.60 767.25 767.15 
3386 766.90 767.27 767.15 
3387 766.64 767.22 767.15 
3388 766.93 767.25 767.15 
3389 766.72 767.22 767.15 
3390 766.59 767.26 767.15 
3391 767.10 767.27 767.15 
3392 766.77 767.24 767.15 
3393 766.85 767.28 767.15 
3394 766.77 767.27 767.15 
3395 766.76 767.24 767.15 
3396 766.81 767.25 767.15 
3397 766.81 767.27 767.15 
3398 766.72 767.27 767.15 
3399 767.02 767.26 767.15 
3400 766.68 767.25 767.15 
3401 766.89 767.25 767.15 
3402 766.73 767.26 767.15 
3403 766.64 767.26 767.15 
3404 766.81 767.24 767.15 
3405 767.02 767.25 767.15 
3406 766.85 767.24 767.15 
3407 766.98 767.23 767.15 
3408 766.77 767.24 767.15 
3409 766.52 767.28 767.15 
3410 766.81 767.22 767.15 
3411 766.99 767.27 767.15 
3412 766.98 767.27 767.15 
3413 766.77 767.29 767.15 
3414 766.69 767.26 767.15 
3415 766.77 767.25 767.15 
3416 766.90 767.26 767.15 
3417 766.86 767.22 767.15 
3418 766.69 767.25 767.15 
3419 766.73 767.22 767.15 
3420 766.77 767.24 767.15 
3421 766.77 767.26 767.15 
3422 766.90 767.25 767.15 
3423 766.65 767.26 767.15 
3424 766.77 767.25 767.15 
3425 766.94 767.26 767.15 
3426 766.64 767.25 767.15 
3427 766.90 767.24 767.15 
3428 766.78 767.26 767.15 
3429 766.90 767.26 767.15 
3430 766.77 767.27 767.15 
3431 766.65 767.27 767.15 
3432 766.77 767.26 767.15 
3433 766.94 767.25 767.15 
3434 766.81 767.25 767.15 
3435 766.44 767.25 767.15 
3436 766.65 767.24 767.15 
3437 766.86 767.27 767.15 
3438 766.64 767.26 767.15 
3439 767.02 767.26 767.15 
3440 766.82 767.24 767.15 
3441 766.35 767.23 767.15 
3442 766.52 767.27 767.15 
3443 766.60 767.23 767.15 
3444 766.56 763.23 767.15 
3445 766.40 767.28 767.15 
3446 766.81 767.24 767.15 
3447 766.98 767.25 767.15 
3448 766.69 767.24 767.15 
3449 766.77 767.23 767.15 
3450 766.98 767.24 767.15 
3451 766.73 767.24 767.15 
3452 767.06 767.26 767.15 
3453 766.81 767.25 767.15 
3454 766.77 767.26 767.15 
3455 766.56 767.23 767.15 
3456 766.65 767.25 767.15 
3457 766.31 763.22 767.15 
3458 766.47 767.24 767.15 
3459 766.39 767.22 767.15 
3460 766.60 767.25 767.15 
3461 766.64 767.25 767.15 
3462 766.98 767.26 767.15 
3463 766.73 767.27 767.15 
3464 766.61 767.26 767.15 
3465 766.52 767.25 767.15 
3466 766.65 767.26 767.15 
3467 766.73 767.27 767.15 
3468 766.82 767.25 767.15 
3469 766.90 767.26 767.15 
3470 767.11 767.24 767.15 
3471 766.82 767.26 767.15 
3472 766.85 767.25 767.15 
3473 766.94 767.27 767.15 
3474 766.23 767.23 767.15 
3475 766.90 767.27 767.15 
3476 766.60 767.27 767.15 
3477 766.74 767.25 767.15 
3478 766.78 767.26 767.15 
3479 766.35 767.26 767.15 
3480 766.74 767.27 767.15 
3481 766.65 767.24 767.15 
3482 766.82 767.27 767.15 
3483 766.90 767.23 767.15 
3484 766.73 767.23 767.15 
3485 766.65 767.27 767.15 
3486 766.77 767.25 767.15 
3487 766.94 767.25 767.15 
3488 766.73 767.26 767.15 
3489 767.02 767.25 767.15 
3490 766.89 767.23 767.15 
3491 766.93 767.27 767.15 
3492 766.69 767.26 767.15 
3493 766.64 767.28 767.15 
3494 766.98 767.27 767.15 
3495 766.73 767.27 767.15 
3496 766.69 767.26 767.15 
3497 766.90 767.25 767.15 
3498 766.44 767.23 767.15 
3499 766.73 767.25 767.15 
3500 766.86 767.24 767.15 
3501 766.73 767.27 767.15 
3502 766.86 767.27 767.15 
3503 766.69 767.25 767.15 
3504 766.69 767.24 767.15 
3505 766.90 767.21 767.15 
3506 766.81 767.25 767.15 
3507 766.60 767.27 767.15 
3508 766.85 767.26 767.15 
3509 766.72 767.25 767.15 
3510 766.64 767.23 767.15 
3511 766.56 767.23 767.15 
3512 766.60 767.25 767.15 
3513 767.06 767.21 767.15 
3514 766.81 767.25 767.15 
3515 766.64 767.23 767.15 
3516 766.85 767.25 767.15 
3517 766.68 767.23 767.15 
3518 767.02 767.25 767.15 
3519 766.85 767.25 767.15 
3520 766.73 767.26 767.15 
3521 766.93 767.23 767.15 
3522 766.64 767.25 767.15 
3523 766.90 767.24 767.15 
3524 766.85 767.27 767.15 
3525 766.94 767.24 767.15 
3526 766.68 767.27 767.15 
3527 766.93 767.24 767.15 
3528 766.89 767.23 767.15 
3529 766.94 767.27 767.15 
3530 766.85 767.25 767.15 
3531 766.98 767.24 767.15 
3532 766.85 767.26 767.15 
3533 766.89 767.26 767.15 
3534 766.98 767.24 767.15 
3535 766.93 767.26 767.15 
3536 766.73 767.24 767.15 
3537 766.89 767.23 767.15 
3538 766.89 767.23 767.15 
3539 766.90 767.24 767.15 
3540 766.85 767.27 767.15 
3541 766.89 767.26 767.15 
3542 766.73 767.27 767.15 
3543 766.89 767.27 767.15 
3544 766.81 767.25 767.15 
3545 766.81 767.24 767.15 
3546 766.89 767.27 767.15 
3547 766.60 767.27 767.15 
3548 767.02 767.22 767.15 
3549 766.56 767.23 767.15 
3550 766.81 767.24 767.15 
3551 766.85 767.26 767.15 
3552 766.85 767.28 767.15 
3553 766.89 767.25 767.15 
3554 766.77 767.27 767.15 
3555 766.72 767.26 767.15 
3556 766.77 767.28 767.15 
3557 766.64 767.24 767.15 
3558 766.56 767.26 767.15 
3559 766.97 767.29 767.15 
3560 766.98 767.25 767.15 
3561 766.86 767.25 767.15 
3562 766.94 767.25 767.15 
3563 766.82 767.28 767.15 
3564 766.85 767.26 767.15 
3565 766.86 767.24 767.15 
3566 766.85 767.27 767.15 
3567 766.73 767.25 767.15 
3568 766.94 767.27 767.15 
3569 766.94 767.26 767.15 
3570 766.64 767.28 767.15 
3571 766.76 767.24 767.15 
3572 766.38 767.23 767.15 
3573 766.64 767.26 767.15 
3574 766.60 767.25 767.15 
3575 766.68 767.25 767.15 
3576 766.89 767.22 767.15 
3577 766.72 767.27 767.15 
3578 767.01 767.24 767.15 
3579 766.51 767.24 767.15 
3580 766.52 767.26 767.15 
3581 766.26 767.25 767.15 
3582 766.64 767.22 767.15 
3583 766.47 767.25 767.15 
3584 766.72 767.25 767.15 
3585 766.80 767.26 767.15 
3586 766.72 767.25 767.15 
3587 766.89 767.21 767.15 
3588 766.92 767.25 767.15 
3589 766.46 767.26 767.15 
3590 766.47 767.26 767.15 
3591 766.30 767.23 767.15 
3592 766.47 767.27 767.15 
3593 766.26 767.25 767.15 
3594 766.81 767.26 767.15 
3595 766.55 767.24 767.15 
3596 766.76 767.26 767.15 
3597 766.80 767.28 767.15 
3598 766.68 767.21 767.15 
3599 766.72 763.24 767.15 
3600 766.63 767.21 767.15 
3601 766.42 767.27 767.15 
3602 766.71 767.24 767.15 
3603 766.76 767.26 767.15 
3604 766.51 767.27 767.15 
3605 767.06 767.27 767.15 
3606 766.76 767.22 767.15 
3607 766.64 767.20 767.15 
3608 766.67 767.25 767.15 
3609 766.76 767.26 767.15 
3610 767.10 767.25 767.15 
3611 766.93 767.22 767.15 
3612 766.81 767.28 767.15 
3613 766.51 767.28 767.15 
3614 766.42 767.24 767.15 
3615 766.85 767.21 767.15 
3616 766.72 767.24 767.15 
3617 766.80 767.24 767.15 
3618 766.68 767.27 767.15 
3619 766.68 767.26 767.15 
3620 766.93 767.24 767.15 
3621 766.72 767.21 767.15 
3622 766.81 767.24 767.15 
3623 766.64 767.25 767.15 
3624 766.93 767.26 767.15 
3625 766.76 767.24 767.15 
3626 766.51 767.23 767.15 
3627 766.80 767.28 767.15 
3628 766.59 767.26 767.15 
3629 766.97 767.24 767.15 
3630 766.60 767.23 767.15 
3631 766.64 767.26 767.15 
3632 766.72 767.26 767.15 
3633 766.85 767.23 767.15 
3634 766.80 767.25 767.15 
3635 766.81 767.25 767.15 
3636 766.68 767.27 767.15 
3637 766.72 767.24 767.15 
3638 766.93 767.23 767.15 
3639 766.76 767.24 767.15 
3640 766.84 767.21 767.15 
3641 767.05 767.25 767.15 
3642 766.93 767.26 767.15 
3643 766.51 767.21 767.15 
3644 766.97 767.23 767.15 
3645 766.76 767.25 767.15 
3646 766.80 767.25 767.15 
3647 766.76 767.26 767.15 
3648 766.89 767.22 767.15 
3649 766.93 767.25 767.15 
3650 766.80 767.26 767.15 
3651 766.55 767.24 767.15 
3652 766.81 767.26 767.15 
3653 766.51 767.27 767.15 
3654 766.81 767.26 767.15 
3655 766.94 767.24 767.15 
3656 766.73 767.26 767.15 
3657 766.90 767.24 767.15 
3658 766.72 767.27 767.15 
3659 766.64 767.27 767.15 
3660 766.86 767.23 767.15 
3661 766.77 767.25 767.15 
3662 766.64 767.24 767.15 
3663 766.89 767.25 767.15 
3664 766.56 767.28 767.15 
3665 766.64 767.24 767.15 
3666 766.72 767.23 767.15 
3667 766.72 767.24 767.15 
3668 766.93 767.23 767.15 
3669 766.42 767.23 767.15 
3670 766.93 767.24 767.15 
3671 766.88 767.24 767.15 
3672 766.81 767.24 767.15 
3673 766.84 767.25 767.15 
3674 766.39 767.25 767.15 
3675 766.93 767.25 767.15 
3676 766.93 767.25 767.15 
3677 766.80 767.25 767.15 
3678 766.72 767.23 767.15 
3679 766.68 767.27 767.15 
3680 766.97 767.26 767.15 
3681 766.98 767.25 767.15 
3682 766.85 767.25 767.15 
3683 766.60 767.27 767.15 
3684 766.89 767.26 767.15 
3685 767.02 767.26 767.15 
3686 766.73 767.24 767.15 
3687 766.94 767.27 767.15 
3688 766.73 767.23 767.15 
3689 766.82 767.24 767.15 
3690 767.10 767.23 767.15 
3691 766.60 767.26 767.15 
3692 766.90 767.22 767.15 
3693 766.68 767.25 767.15 
3694 766.64 767.26 767.15 
3695 766.81 767.25 767.15 
3696 766.77 767.25 767.15 
3697 766.93 767.23 767.15 
3698 766.76 767.24 767.15 
3699 766.55 767.25 767.15 
3700 766.89 767.25 767.15 
3701 766.89 767.25 767.15 
3702 766.68 767.24 767.15 
3703 766.64 767.25 767.15 
3704 766.89 767.27 767.15 
3705 766.93 767.24 767.15 
3706 766.81 767.25 767.15 
3707 766.89 767.26 767.15 
3708 766.93 767.26 767.15 
3709 767.10 767.25 767.15 
3710 767.01 767.24 767.15 
3711 766.89 767.26 767.15 
3712 766.68 767.25 767.15 
3713 766.81 767.21 767.15 
3714 766.30 767.25 767.15 
3715 766.71 767.26 767.15 
3716 766.55 767.26 767.15 
3717 766.89 767.25 767.15 
3718 766.72 767.26 767.15 
3719 766.51 767.27 767.15 
3720 766.27 767.25 767.15 
3721 766.80 767.26 767.15 
3722 766.60 767.25 767.15 
3723 766.94 767.26 767.15 
3724 766.89 767.25 767.15 
3725 766.85 759.22 767.15 
3726 766.64 767.24 767.15 
3727 766.90 767.25 767.15 
3728 766.85 767.25 767.15 
3729 766.73 767.27 767.15 
3730 766.39 767.26 767.15 
3731 766.73 767.26 767.15 
3732 767.06 767.24 767.15 
3733 766.60 767.23 767.15 
3734 766.89 767.24 767.15 
3735 766.81 763.24 767.15 
3736 766.68 767.26 767.15 
3737 766.97 767.26 767.15 
3738 766.84 767.24 767.15 
3739 766.72 767.26 767.15 
3740 766.93 767.26 767.15 
3741 766.89 767.23 767.15 
3742 766.39 767.27 767.15 
3743 766.94 767.26 767.15 
3744 767.02 767.24 767.15 
3745 766.85 767.28 767.15 
3746 766.68 767.24 767.15 
3747 766.90 767.28 767.15 
3748 766.89 767.24 767.15 
3749 766.93 767.26 767.15 
3750 766.68 767.25 767.15 
3751 766.93 767.23 767.15 
3752 766.76 767.23 767.15 
3753 766.97 767.26 767.15 
3754 766.89 767.24 767.15 
3755 767.01 767.25 767.15 
3756 766.89 767.24 767.15 
3757 766.76 767.22 767.15 
3758 766.80 767.21 767.15 
3759 766.85 767.27 767.15 
3760 767.05 767.25 767.15 
3761 766.76 767.24 767.15 
3762 766.89 763.24 767.15 
3763 766.38 767.27 767.15 
3764 766.72 767.26 767.15 
3765 766.93 767.24 767.15 
3766 766.43 767.22 767.15 
3767 766.76 767.23 767.15 
3768 766.59 767.23 767.15 
3769 766.76 767.23 767.15 
3770 766.85 767.25 767.15 
3771 766.59 767.24 767.15 
3772 766.76 767.22 767.15 
3773 766.59 767.22 767.15 
3774 766.93 767.25 767.15 
3775 766.89 767.22 767.15 
3776 767.02 767.25 767.15 
3777 766.64 767.22 767.15 
3778 766.68 767.22 767.15 
3779 766.94 767.25 767.15 
3780 766.77 767.22 767.15 
3781 766.89 767.24 767.15 
3782 766.39 767.24 767.15 
3783 766.90 767.23 767.15 
3784 766.81 767.25 767.15 
3785 766.69 767.25 767.15 
3786 767.06 767.26 767.15 
3787 766.85 767.24 767.15 
3788 766.69 767.26 767.15 
3789 766.69 767.26 767.15 
3790 766.77 767.23 767.15 
3791 766.89 767.22 767.15 
3792 766.56 767.23 767.15 
3793 766.98 767.24 767.15 
3794 766.77 767.27 767.15 
3795 766.56 767.24 767.15 
3796 766.85 767.26 767.15 
3797 766.73 767.24 767.15 
3798 766.52 767.24 767.15 
3799 766.94 767.25 767.15 
3800 766.81 767.26 767.15 
3801 766.73 767.26 767.15 
3802 766.69 767.26 767.15 
3803 766.69 767.26 767.15 
3804 766.48 767.28 767.15 
3805 766.73 767.25 767.15 
3806 766.64 767.24 767.15 
3807 766.89 767.25 767.15 
3808 766.73 767.23 767.15 
3809 766.64 767.22 767.15 
3810 766.89 767.25 767.15 
3811 766.86 767.25 767.15 
3812 766.94 767.23 767.15 
3813 766.77 767.26 767.15 
3814 766.85 767.25 767.15 
3815 766.73 767.25 767.15 
3816 766.73 767.25 767.15 
3817 766.65 767.24 767.15 
3818 766.70 767.25 767.15 
3819 766.90 767.27 767.15 
3820 766.73 767.26 767.15 
3821 766.94 767.25 767.15 
3822 766.73 767.26 767.15 
3823 766.81 767.26 767.15 
3824 766.65 767.27 767.15 
3825 766.90 767.29 767.15 
3826 766.73 767.26 767.15 
3827 766.60 767.25 767.15 
3828 766.77 767.24 767.15 
3829 766.60 767.24 767.15 
3830 766.81 767.26 767.15 
3831 766.89 763.26 767.15 
3832 767.06 767.28 767.15 
3833 766.81 767.26 767.15 
3834 766.81 767.26 767.15 
3835 766.56 767.25 767.15 
3836 766.93 767.23 767.15 
3837 767.02 767.24 767.15 
3838 766.85 767.27 767.15 
3839 766.89 767.23 767.15 
3840 766.85 767.24 767.15 
3841 766.89 767.24 767.15 
3842 766.89 767.27 767.15 
3843 766.81 767.26 767.15 
3844 766.73 767.21 767.15 
3845 766.85 767.22 767.15 
3846 766.68 767.24 767.15 
3847 766.81 767.23 767.15 
3848 766.93 767.20 767.15 
3849 766.85 767.21 767.15 
3850 766.80 767.23 767.15 
3851 766.81 767.24 767.15 
3852 766.73 767.25 767.15 
3853 766.81 767.26 767.15 
3854 766.68 767.25 767.15 
3855 766.81 767.22 767.15 
3856 766.93 767.23 767.15 
3857 766.81 767.23 767.15 
3858 766.77 767.20 767.15 
3859 766.77 767.21 767.15 
3860 767.02 767.24 767.15 
3861 766.89 767.25 767.15 
3862 766.64 767.26 767.15 
3863 766.98 767.25 767.15 
3864 766.77 767.25 767.15 
3865 766.56 767.27 767.15 
3866 766.77 767.21 767.15 
3867 766.77 767.25 767.15 
3868 767.02 767.26 767.15 
3869 766.94 767.27 767.15 
3870 766.98 767.24 767.15 
3871 766.81 767.26 767.15 
3872 766.94 767.25 767.15 
3873 766.73 767.24 767.15 
3874 767.01 767.26 767.15 
3875 766.64 767.25 767.15 
3876 767.02 767.26 767.15 
3877 766.77 767.25 767.15 
3878 766.65 767.23 767.15 
3879 766.98 767.23 767.15 
3880 767.11 767.24 767.15 
3881 766.77 767.20 767.15 
3882 766.73 767.25 767.15 
3883 766.77 767.23 767.15 
3884 766.94 767.22 767.15 
3885 766.81 767.23 767.15 
3886 766.94 767.24 767.15 
3887 766.97 767.27 767.15 
3888 766.65 767.24 767.15 
3889 766.69 767.22 767.15 
3890 766.85 767.20 767.15 
3891 767.02 767.23 767.15 
3892 767.06 767.26 767.15 
3893 766.85 767.25 767.15 
3894 766.81 767.26 767.15 
3895 766.77 767.26 767.15 
3896 766.69 767.22 767.15 
3897 766.77 767.25 767.15 
3898 766.98 767.23 767.15 
3899 766.98 767.25 767.15 
3900 766.89 767.22 767.15 
3901 766.81 767.24 767.15 
3902 766.85 767.23 767.15 
3903 766.84 767.24 767.15 
3904 766.89 767.23 767.15 
3905 766.97 767.24 767.15 
3906 767.10 767.25 767.15 
3907 766.73 767.25 767.15 
3908 766.98 767.24 767.15 
3909 766.90 767.27 767.15 
3910 766.94 767.22 767.15 
3911 766.98 767.23 767.15 
3912 766.94 767.23 767.15 
3913 766.73 767.25 767.15 
3914 766.94 767.25 767.15 
3915 767.02 767.24 767.15 
3916 766.77 767.22 767.15 
3917 766.73 767.26 767.15 
3918 766.94 767.21 767.15 
3919 766.85 767.27 767.15 
3920 766.81 767.23 767.15 
3921 766.81 767.24 767.15 
3922 766.73 767.25 767.15 
3923 766.98 767.23 767.15 
3924 766.64 767.26 767.15 
3925 766.72 767.22 767.15 
3926 766.72 767.24 767.15 
3927 766.89 767.23 767.15 
3928 767.02 767.25 767.15 
3929 766.98 767.29 767.15 
3930 766.77 767.26 767.15 
3931 767.02 767.26 767.15 
3932 766.85 767.26 767.15 
3933 767.14 767.24 767.15 
3934 766.94 767.25 767.15 
3935 766.85 767.26 767.15 
3936 766.77 767.23 767.15 
3937 766.77 767.23 767.15 
3938 767.02 767.25 767.15 
3939 766.85 767.28 767.15 
3940 766.77 767.26 767.15 
3941 766.60 767.23 767.15 
3942 766.60 767.23 767.15 
3943 766.90 767.25 767.15 
3944 767.02 767.24 767.15 
3945 766.97 767.24 767.15 
3946 766.73 767.25 767.15 
3947 767.02 767.26 767.15 
3948 766.98 767.25 767.15 
3949 767.06 767.22 767.15 
3950 766.97 767.22 767.15 
3951 766.97 767.28 767.15 
3952 766.73 767.23 767.15 
3953 766.85 767.25 767.15 
3954 766.85 767.25 767.15 
3955 766.93 767.27 767.15 
3956 766.72 767.24 767.15 
3957 766.51 767.25 767.15 
3958 767.01 767.24 767.15 
3959 766.80 767.23 767.15 
3960 766.76 767.25 767.15 
3961 766.89 767.22 767.15 
3962 766.68 767.23 767.15 
3963 767.01 767.24 767.15 
3964 766.80 767.25 767.15 
3965 766.84 767.23 767.15 
3966 766.80 767.24 767.15 
3967 766.68 767.23 767.15 
3968 766.68 767.24 767.15 
3969 766.76 767.21 767.15 
3970 766.88 767.23 767.15 
3971 767.05 767.24 767.15 
3972 766.84 767.24 767.15 
3973 767.01 767.25 767.15 
3974 767.05 767.22 767.15 
3975 766.89 767.24 767.15 
3976 766.76 767.23 767.15 
3977 766.92 767.23 767.15 
3978 766.67 767.23 767.15 
3979 766.63 767.23 767.15 
3980 767.01 767.22 767.15 
3981 766.92 767.22 767.15 
3982 766.55 767.22 767.15 
3983 766.84 767.24 767.15 
3984 767.01 767.24 767.15 
3985 766.72 767.24 767.15 
3986 766.72 767.23 767.15 
3987 766.75 767.23 767.15 
3988 766.93 767.21 767.15 
3989 766.64 767.24 767.15 
3990 767.05 767.24 767.15 
3991 766.93 767.22 767.15 
3992 766.97 767.24 767.15 
3993 767.01 767.26 767.15 
3994 766.80 767.19 767.15 
3995 766.76 767.23 767.15 
3996 766.84 767.23 767.15 
3997 766.87 767.23 767.15 
3998 766.84 767.24 767.15 
3999 766.50 767.25 767.15 
4000 766.84 767.25 767.15 
4001 766.63 767.21 767.15 
4002 766.92 767.25 767.15 
4003 766.80 767.24 767.15 
4004 766.84 767.24 767.15 
4005 767.01 767.23 767.15 
4006 766.71 767.20 767.15 
4007 766.83 767.24 767.15 
4008 766.42 767.26 767.15 
4009 766.67 767.23 767.15 
4010 766.75 767.25 767.15 
4011 766.96 767.23 767.15 
4012 766.76 767.24 767.15 
4013 766.92 767.27 767.15 
4014 766.96 767.23 767.15 
4015 766.92 767.23 767.15 
4016 766.92 767.22 767.15 
4017 766.87 767.19 767.15 
4018 766.79 767.19 767.15 
4019 766.83 767.21 767.15 
4020 766.92 767.21 767.15 
4021 766.67 767.21 767.15 
4022 766.92 767.22 767.15 
4023 766.92 767.24 767.15 
4024 766.67 767.25 767.15 
4025 766.72 767.22 767.15 
4026 766.76 767.22 767.15 
4027 766.80 767.26 767.15 
4028 766.89 767.23 767.15 
4029 766.93 767.27 767.15 
4030 766.55 767.24 767.15 
4031 766.63 767.24 767.15 
4032 766.84 767.20 767.15 
4033 766.59 767.22 767.15 
4034 766.85 767.22 767.15 
4035 766.93 767.26 767.15 
4036 766.68 767.22 767.15 
4037 766.72 767.24 767.15 
4038 766.76 767.25 767.15 
4039 767.01 767.24 767.15 
4040 766.76 767.22 767.15 
4041 766.84 767.23 767.15 
4042 766.72 767.26 767.15 
4043 766.63 767.24 767.15 
4044 766.76 767.23 767.15 
4045 766.84 767.23 767.15 
4046 766.80 767.23 767.15 
4047 766.89 767.23 767.15 
4048 766.72 767.22 767.15 
4049 766.51 767.22 767.15 
4050 766.89 767.21 767.15 
4051 767.14 767.22 767.15 
4052 766.84 767.22 767.15 
4053 766.72 767.22 767.15 
4054 766.72 767.25 767.15 
4055 766.93 767.24 767.15 
4056 766.76 767.22 767.15 
4057 766.97 767.20 767.15 
4058 766.64 767.25 767.15 
4059 766.76 767.27 767.15 
4060 766.88 767.26 767.15 
4061 766.88 767.25 767.15 
4062 766.89 767.24 767.15 
4063 766.76 767.26 767.15 
4064 766.72 767.23 767.15 
4065 766.85 767.25 767.15 
4066 766.89 767.23 767.15 
4067 766.85 767.22 767.15 
4068 766.84 767.24 767.15 
4069 766.72 767.22 767.15 
4070 766.80 767.25 767.15 
4071 766.97 767.27 767.15 
4072 766.76 767.25 767.15 
4073 766.55 763.23 767.15 
4074 766.51 767.25 767.15 
4075 766.84 767.27 767.15 
4076 766.67 767.22 767.15 
4077 766.75 767.22 767.15 
4078 766.59 767.22 767.15 
4079 766.79 767.21 767.15 
4080 766.67 767.24 767.15 
4081 766.83 767.23 767.15 
4082 767.01 767.26 767.15 
4083 766.84 767.23 767.15 
4084 766.71 767.22 767.15 
4085 766.67 767.25 767.15 
4086 766.93 767.23 767.15 
4087 766.97 767.23 767.15 
4088 766.88 767.24 767.15 
4089 766.72 767.24 767.15 
4090 766.84 767.25 767.15 
4091 766.80 767.24 767.15 
4092 766.64 767.24 767.15 
4093 767.09 767.25 767.15 
4094 766.80 767.22 767.15 
4095 766.93 767.23 767.15 
4096 766.72 767.25 767.15 
4097 766.63 767.26 767.15 
4098 767.05 767.26 767.15 
4099 767.01 767.25 767.15 
4100 767.00 767.23 767.15 
4101 767.09 767.24 767.15 
4102 766.80 767.24 767.15 
4103 766.92 767.22 767.15 
4104 766.89 767.20 767.15 
4105 766.79 767.25 767.15 
4106 766.96 767.21 767.15 
4107 766.38 767.24 767.15 
4108 766.84 767.21 767.15 
4109 766.92 767.22 767.15 
4110 766.76 767.23 767.15 
4111 766.72 767.25 767.15 
4112 766.88 767.21 767.15 
4113 766.92 767.22 767.15 
4114 766.80 767.23 767.15 
4115 766.68 767.22 767.15 
4116 766.76 767.26 767.15 
4117 766.80 767.21 767.15 
4118 766.84 767.22 767.15 
4119 766.72 767.25 767.15 
4120 766.96 763.21 767.15 
4121 766.96 767.22 767.15 
4122 766.92 767.23 767.15 
4123 766.71 767.23 767.15 
4124 766.88 767.22 767.15 
4125 766.71 767.22 767.15 
4126 766.58 767.19 767.15 
4127 766.88 767.20 767.15 
4128 767.00 767.23 767.15 
4129 766.84 767.17 767.15 
4130 766.78 767.20 767.15 
4131 766.70 767.21 767.15 
4132 766.87 767.20 767.15 
4133 766.88 767.20 767.15 
4134 766.50 767.24 767.15 
4135 767.08 767.24 767.15 
4136 767.00 767.22 767.15 
4137 766.71 767.23 767.15 
4138 766.75 767.23 767.15 
4139 766.79 767.21 767.15 
4140 767.00 767.23 767.15 
4141 767.00 767.22 767.15 
4142 766.87 767.21 767.15 
4143 766.75 767.23 767.15 
4144 766.88 767.22 767.15 
4145 767.17 767.24 767.15 
4146 766.83 767.20 767.17 
4147 767.05 767.22 767.17 
4148 766.84 767.23 767.17 
4149 766.92 767.20 767.17 
4150 766.97 767.23 767.17 
4151 766.59 767.22 767.17 
4152 766.63 767.22 767.17 
4153 766.68 767.22 767.17 
4154 766.59 767.22 767.17 
4155 766.96 767.20 767.17 
4156 766.67 767.23 767.17 
4157 766.67 767.22 767.17 
4158 766.80 767.22 767.17 
4159 766.72 767.21 767.17 
4160 766.93 767.21 767.17 
4161 766.50 767.21 767.17 
4162 766.97 767.22 767.17 
4163 766.63 767.24 767.17 
4164 766.68 767.24 767.17 
4165 766.80 767.26 767.17 
4166 766.93 767.25 767.17 
4167 766.89 767.24 767.17 
4168 767.01 767.22 767.17 
4169 766.93 767.26 767.17 
4170 766.68 767.23 767.17 
4171 766.80 767.23 767.17 
4172 766.97 767.23 767.17 
4173 766.97 767.25 767.17 
4174 766.85 767.20 767.17 
4175 766.93 767.23 767.17 
4176 766.89 767.23 767.17 
4177 766.89 767.24 767.17 
4178 766.85 767.25 767.17 
4179 766.97 767.25 767.17 
4180 766.76 767.24 767.17 
4181 766.93 767.23 767.17 
4182 766.71 767.22 767.17 
4183 766.84 763.26 767.17 
4184 766.93 767.25 767.17 
4185 766.84 767.27 767.17 
4186 766.59 767.24 767.17 
4187 766.71 767.24 767.17 
4188 766.88 767.25 767.17 
4189 766.80 767.24 767.17 
4190 766.88 767.26 767.17 
4191 766.59 763.26 767.17 
4192 766.63 767.22 767.17 
4193 766.59 767.28 767.17 
4194 766.88 767.28 767.17 
4195 766.42 767.27 767.17 
4196 766.84 767.23 767.17 
4197 766.87 767.22 767.17 
4198 766.71 767.23 767.17 
4199 766.75 767.23 767.17 
4200 766.67 767.22 767.17 
4201 766.38 767.26 767.17 
4202 766.75 767.23 767.17 
4203 766.72 767.21 767.17 
4204 766.63 763.20 767.17 
4205 766.84 767.26 767.17 
4206 766.75 767.24 767.17 
4207 766.50 767.23 767.17 
4208 766.88 767.24 767.17 
4209 767.01 767.21 767.17 
4210 766.79 767.26 767.17 
4211 766.76 767.24 767.17 
4212 766.88 767.25 767.17 
4213 766.71 767.23 767.17 
4214 766.59 767.22 767.17 
4215 766.96 767.22 767.17 
4216 766.76 767.23 767.17 
4217 766.88 767.23 767.17 
4218 767.05 767.25 767.17 
4219 766.51 767.26 767.17 
4220 766.46 767.24 767.17 
4221 766.87 767.16 767.17 
4222 766.87 767.24 767.17 
4223 766.54 767.25 767.17 
4224 767.00 767.22 767.17 
4225 766.75 767.26 767.17 
4226 766.67 767.23 767.17 
4227 766.96 767.23 767.17 
4228 767.00 767.22 767.17 
4229 766.87 767.22 767.17 
4230 766.83 767.23 767.17 
4231 766.87 767.23 767.17 
4232 766.54 763.21 767.17 
4233 766.80 767.21 767.17 
4234 766.79 767.23 767.17 
4235 766.88 767.21 767.17 
4236 766.92 767.19 767.17 
4237 766.75 767.22 767.17 
4238 766.92 767.23 767.17 
4239 766.75 767.24 767.17 
4240 766.79 767.18 767.17 
4241 766.66 767.21 767.17 
4242 766.83 767.21 767.17 
4243 766.79 767.23 767.17 
4244 766.92 767.21 767.17 
4245 766.84 767.21 767.17 
4246 766.71 767.23 767.17 
4247 766.92 767.22 767.17 
4248 766.88 767.21 767.17 
4249 766.96 767.23 767.17 
4250 766.88 767.22 767.17 
4251 766.75 767.25 767.17 
4252 766.84 767.20 767.17 
4253 766.84 767.21 767.17 
4254 767.05 767.25 767.17 
4255 766.46 767.22 767.17 
4256 766.83 767.21 767.17 
4257 767.09 767.20 767.17 
4258 766.71 767.23 767.17 
4259 767.09 767.24 767.17 
4260 766.84 767.24 767.17 
4261 766.84 767.25 767.17 
4262 766.92 767.22 767.17 
4263 766.63 767.23 767.17 
4264 766.97 767.24 767.17 
4265 766.84 767.21 767.17 
4266 766.79 767.21 767.17 
4267 766.71 767.22 767.17 
4268 766.83 767.25 767.17 
4269 767.04 767.20 767.17 
4270 766.70 767.23 767.17 
4271 767.00 767.25 767.17 
4272 767.00 767.22 767.17 
4273 766.79 767.24 767.17 
4274 767.05 767.22 767.17 
4275 767.04 767.23 767.17 
4276 766.71 767.23 767.17 
4277 766.63 767.23 767.17 
4278 766.50 767.22 767.17 
4279 767.00 767.21 767.17 
4280 766.88 767.25 767.17 
4281 767.00 767.24 767.17 
4282 766.97 767.25 767.17 
4283 767.09 767.22 767.17 
4284 766.48 767.24 767.17 
4285 766.85 767.24 767.17 
4286 766.76 767.20 767.17 
4287 766.72 767.27 767.17 
4288 766.84 767.25 767.17 
4289 766.64 767.25 767.17 
4290 766.84 767.26 767.17 
4291 766.68 767.25 767.17 
4292 766.76 767.24 767.17 
4293 767.22 767.23 767.17 
4294 766.64 767.26 767.22 
4295 766.73 767.23 767.22 
4296 766.97 767.26 767.22 
4297 766.89 767.23 767.22 
4298 767.02 767.25 767.22 
4299 767.01 767.23 767.22 
4300 766.97 767.22 767.22 
4301 766.72 767.24 767.22 
4302 767.10 767.23 767.22 
4303 766.89 767.23 767.22 
4304 766.93 767.25 767.22 
4305 766.89 767.23 767.22 
4306 766.93 767.23 767.22 
4307 767.14 767.25 767.22 
4308 766.93 767.25 767.22 
4309 767.06 767.21 767.22 
4310 767.01 767.21 767.22 
4311 767.10 767.21 767.22 
4312 766.72 767.23 767.22 
4313 766.97 767.23 767.22 
4314 766.93 767.24 767.22 
4315 766.88 767.24 767.22 
4316 766.88 767.21 767.22 
4317 767.09 767.22 767.22 
4318 767.01 767.22 767.22 
4319 766.85 767.23 767.22 
4320 766.88 767.24 767.22 
4321 767.05 767.22 767.22 
4322 766.76 767.23 767.22 
4323 766.97 767.24 767.22 
4324 766.97 767.26 767.22 
4325 766.80 767.25 767.22 
4326 766.97 767.20 767.22 
4327 767.10 767.23 767.22 
4328 766.97 767.23 767.22 
4329 767.10 767.24 767.22 
4330 766.98 767.25 767.22 
4331 766.93 767.25 767.22 
4332 766.94 767.26 767.22 
4333 766.89 767.22 767.22 
4334 767.02 767.22 767.22 
4335 766.85 767.21 767.22 
4336 766.93 767.25 767.22 
4337 766.64 767.23 767.22 
4338 766.93 767.22 767.22 
4339 767.01 767.23 767.22 
4340 766.67 767.23 767.22 
4341 767.18 767.22 767.22 
4342 766.72 767.22 767.22 
4343 766.84 767.21 767.22 
4344 766.72 767.24 767.22 
4345 766.68 767.21 767.22 
4346 766.89 763.24 767.22 
4347 766.76 767.23 767.22 
4348 766.89 767.24 767.22 
4349 766.97 767.24 767.22 
4350 766.93 763.20 767.22 
4351 766.76 767.24 767.22 
4352 767.01 767.25 767.22 
4353 766.97 767.22 767.22 
4354 767.10 767.20 767.22 
4355 766.97 767.22 767.22 
4356 766.68 767.24 767.22 
4357 767.01 767.23 767.22 
4358 766.96 767.23 767.22 
4359 766.59 767.22 767.22 
4360 766.92 767.20 767.22 
4361 766.64 767.26 767.22 
4362 767.01 767.24 767.22 
4363 766.97 767.21 767.22 
4364 766.72 767.26 767.22 
4365 767.05 767.25 767.22 
4366 766.80 767.25 767.22 
4367 766.93 767.22 767.22 
4368 766.96 767.24 767.22 
4369 766.68 767.22 767.22 
4370 766.63 767.24 767.22 
4371 767.01 767.23 767.22 
4372 766.93 767.24 767.22 
4373 766.84 767.22 767.22 
4374 767.05 767.26 767.22 
4375 766.80 767.22 767.22 
4376 767.01 767.25 767.22 
4377 766.59 767.25 767.22 
4378 766.84 767.24 767.22 
4379 766.76 767.20 767.22 
4380 766.84 767.27 767.22 
4381 766.72 767.23 767.22 
4382 766.97 767.21 767.22 
4383 766.84 767.21 767.22 
4384 766.76 767.26 767.22 
4385 766.89 767.23 767.22 
4386 766.76 767.23 767.22 
4387 766.88 767.22 767.22 
4388 766.92 767.23 767.22 
4389 767.01 767.25 767.22 
4390 766.54 767.26 767.22 
4391 767.01 767.22 767.22 
4392 766.88 767.21 767.22 
4393 766.88 767.19 767.22 
4394 766.80 767.22 767.22 
4395 766.97 767.23 767.22 
4396 767.01 767.23 767.22 
4397 766.92 767.22 767.22 
4398 766.97 767.24 767.22 
4399 766.72 767.25 767.22 
4400 766.72 767.25 767.22 
4401 767.10 767.24 767.22 
4402 766.76 767.24 767.22 
4403 766.88 767.21 767.22 
4404 767.05 767.26 767.22 
4405 766.97 767.21 767.22 
4406 766.84 767.20 767.22 
4407 766.97 767.26 767.22 
4408 766.93 767.23 767.22 
4409 766.80 767.24 767.22 
4410 767.01 767.25 767.22 
4411 766.80 767.24 767.22 
4412 766.71 767.21 767.22 
4413 766.84 767.23 767.22 
4414 766.75 767.24 767.22 
4415 766.96 767.22 767.22 
4416 767.09 767.22 767.22 
4417 766.80 767.24 767.22 
4418 767.09 767.21 767.22 
4419 766.84 767.25 767.22 
4420 766.84 767.25 767.22 
4421 767.01 767.23 767.22 
4422 766.80 767.23 767.22 
4423 766.92 767.23 767.22 
4424 766.84 767.23 767.22 
4425 767.05 767.25 767.22 
4426 766.89 767.25 767.22 
4427 766.92 767.22 767.22 
4428 767.04 767.18 767.22 
4429 766.92 767.22 767.22 
4430 766.79 767.23 767.22 
4431 766.88 767.26 767.22 
4432 766.95 767.27 767.22 
4433 766.75 767.22 767.22 
4434 766.71 767.20 767.22 
4435 766.83 767.25 767.22 
4436 766.84 767.21 767.22 
4437 766.84 767.20 767.22 
4438 767.05 767.26 767.22 
4439 766.88 767.25 767.22 
4440 767.08 767.23 767.22 
4441 767.00 767.23 767.22 
