Iter | Sampling Pol | Evaluation Pol | Best (Sampled) 
   0 -12.83  2.74 -100000000.00 
   1 -13.24  3.97 -12.83 
   2 -13.00  2.66 -12.83 
   3 -12.82  3.17 -12.83 
   4 -9.77  2.99 -12.82 
   5 -12.56  2.90 -9.77 
   6 -12.19  6.33 -9.77 
   7 -10.22  7.91 -9.77 
   8 -6.38  5.63 -9.77 
   9 -11.46  6.42 -6.38 
  10 -8.74  6.05 -6.38 
  11 -8.74  9.23 -6.38 
  12 -9.87  8.23 -6.38 
  13 -10.60  8.18 -6.38 
  14 -10.14  7.71 -6.38 
  15 -0.67  7.48 -6.38 
  16 -8.02  7.26 -0.67 
  17 -7.46  6.97 -0.67 
  18 -3.91  7.83 -0.67 
  19 -8.32  7.16 -0.67 
  20 -7.72  7.17 -0.67 
  21 -9.89  8.09 -0.67 
  22 -4.53  8.18 -0.67 
  23 -6.73  7.85 -0.67 
  24 -4.87  9.05 -0.67 
  25 -8.14  9.05 -0.67 
  26 -4.98  8.80 -0.67 
  27 -5.27  9.17 -0.67 
  28 -5.96 10.92 -0.67 
  29 -0.64 11.51 -0.67 
  30  1.23 11.51 -0.64 
  31 -5.90 10.17  1.23 
  32 -2.82  8.82  1.23 
  33 -0.72  9.41  1.23 
  34 -5.51 10.15  1.23 
  35 -4.95 11.37  1.23 
  36 -3.31  9.39  1.23 
  37  3.86 14.75  1.23 
  38 -1.01 15.34  3.86 
  39 -2.59  8.74  3.86 
  40 -0.78  7.59  3.86 
  41 -0.61  8.73  3.86 
  42 -1.78  8.60  3.86 
  43 -2.77 12.62  3.86 
  44 -5.07 11.46  3.86 
  45 -3.53 12.35  3.86 
  46 -3.41 11.42  3.86 
  47 -2.32 14.06  3.86 
  48 -6.97 12.81  3.86 
  49 -2.66 14.02  3.86 
  50  4.02 11.93  3.86 
  51  8.06  7.60  4.02 
  52 -4.84 11.31  8.06 
  53 20.56  8.07  8.06 
  54 -3.09  7.63 20.56 
  55 16.54  7.80 20.56 
  56 19.84  9.00 20.56 
  57 -2.22  8.48 20.56 
  58  2.88  9.84 20.56 
  59  5.36  9.21 20.56 
  60 12.54  9.62 20.56 
  61 13.07  8.71 20.56 
  62 -3.95  9.57 20.56 
  63 24.08 11.45 20.56 
  64 -2.56 13.21 24.08 
  65 10.38 12.48 24.08 
  66 14.31 15.21 24.08 
  67 20.49 14.47 24.08 
  68  9.37 14.36 24.08 
  69 32.55 13.24 24.08 
  70 76.48 11.74 32.55 
  71 13.89 13.95 76.48 
  72 48.92 12.36 76.48 
  73 13.05 13.01 76.48 
  74  2.22 12.43 76.48 
  75 21.66 13.42 76.48 
  76 38.71 11.54 76.48 
  77 23.58 11.42 76.48 
  78 13.59 10.08 76.48 
  79 85.02  9.27 76.48 
  80 -8.48 13.14 85.02 
  81 28.12 13.07 85.02 
  82 62.24 10.30 85.02 
  83 52.40  9.74 85.02 
  84 17.65 13.28 85.02 
  85 60.45  9.68 85.02 
  86 31.65 13.03 85.02 
  87 51.87 13.21 85.02 
  88 48.93 12.42 85.02 
  89 64.67 12.81 85.02 
  90 41.20  9.05 85.02 
  91 61.33  8.93 85.02 
  92 43.58 10.06 85.02 
  93 25.39 12.41 85.02 
  94 23.54 12.44 85.02 
  95 78.86 12.48 85.02 
  96 39.57 13.03 85.02 
  97 24.56 13.08 85.02 
  98 56.02 13.13 85.02 
  99 14.74 13.21 85.02 
 100 24.56 13.75 85.02 
 101 82.08 13.64 85.02 
 102  7.77 13.06 85.02 
 103 22.16 13.00 85.02 
 104 56.50 13.71 85.02 
 105  1.62 12.58 85.02 
 106 54.84 12.54 85.02 
 107  4.60 13.70 85.02 
 108 109.37 12.32 85.02 
 109 59.32 12.22 109.37 
 110 30.96 12.16 109.37 
 111 31.26 12.10 109.37 
 112 24.13 12.20 109.37 
 113 21.85 12.26 109.37 
 114 30.61 12.21 109.37 
 115 22.20 12.17 109.37 
 116 43.76 10.82 109.37 
 117 41.90 10.71 109.37 
 118 14.87 10.65 109.37 
 119 38.22 16.68 109.37 
 120 36.07 16.81 109.37 
 121 67.96 20.83 109.37 
 122 34.58 17.69 109.37 
 123 48.90 22.10 109.37 
 124 66.38 21.98 109.37 
 125 59.19 21.30 109.37 
 126 66.77  9.91 109.37 
 127 70.92 24.24 109.37 
 128 51.87 23.60 109.37 
 129 63.45 21.16 109.37 
 130 87.98 24.17 109.37 
 131 35.35 21.13 109.37 
 132 78.08 24.09 109.37 
 133 43.43 24.16 109.37 
 134 39.12 27.24 109.37 
 135 37.19 24.71 109.37 
 136 37.29 24.15 109.37 
 137 89.42 34.08 109.37 
 138 71.25 19.51 109.37 
 139 57.01 23.20 109.37 
 140 74.43 23.32 109.37 
 141 95.47 23.98 109.37 
 142 42.35 20.18 109.37 
 143 59.18 20.28 109.37 
 144 66.09 23.93 109.37 
 145 134.22 28.38 109.37 
 146 118.72 32.30 134.22 
 147 161.39 39.18 134.22 
 148 94.91 38.58 161.39 
 149 70.43 32.26 161.39 
 150 116.17 38.50 161.39 
 151 164.27 42.31 161.39 
 152 155.28 42.14 164.27 
 153 191.47 46.04 164.27 
 154 132.85 46.73 191.47 
 155 86.95 43.06 191.47 
 156 87.78 36.91 191.47 
 157 94.46 43.80 191.47 
 158 107.94 43.71 191.47 
 159 71.13 44.42 191.47 
 160 163.18 48.96 191.47 
 161 120.27 48.23 191.47 
 162 56.94 43.88 191.47 
 163 103.75 44.74 191.47 
 164 100.59 42.10 191.47 
 165 78.41 31.41 191.47 
 166 140.71 37.68 191.47 
 167 176.28 44.67 191.47 
 168 120.69 49.78 191.47 
 169 123.95 45.36 191.47 
 170 87.31 42.59 191.47 
 171 88.74 36.28 191.47 
 172 131.99 46.96 191.47 
 173 58.85 36.36 191.47 
 174 129.63 36.32 191.47 
 175 250.21 36.30 191.47 
 176 201.89 43.80 250.21 
 177 205.09 39.98 250.21 
 178 174.17 40.75 250.21 
 179 231.03 40.09 250.21 
 180 221.58 64.53 250.21 
 181 106.13 36.24 250.21 
 182 282.27 39.32 250.21 
 183 238.99 68.81 282.27 
 184 153.03 68.32 282.27 
 185 114.00 199.90 282.27 
 186 231.92 223.96 282.27 
 187 100.48 283.52 282.27 
 188 214.51 268.52 282.27 
 189 163.33 261.15 282.27 
 190 204.64 252.35 282.27 
 191 125.30 213.48 282.27 
 192 122.39 193.42 282.27 
 193 114.53 82.32 282.27 
 194 107.10 35.91 282.27 
 195 175.45 27.80 282.27 
 196 158.97 171.95 282.27 
 197 118.91 63.75 282.27 
 198 89.66 29.65 282.27 
 199 194.70 56.26 282.27 
 200 242.44 31.48 282.27 
 201 226.54 18.83 282.27 
 202 133.52 39.77 282.27 
 203 182.57 69.72 282.27 
 204 226.91 84.95 282.27 
 205 184.33 212.73 282.27 
 206 184.05 214.66 282.27 
 207 287.29 256.12 282.27 
 208 216.30 269.84 287.29 
 209 213.43 226.35 287.29 
 210 144.23 234.44 287.29 
 211 262.30 227.57 287.29 
 212 183.55 104.80 287.29 
 213 203.23 89.12 287.29 
 214 312.02 229.32 287.29 
 215 261.05 216.93 312.02 
 216 319.11 236.87 312.02 
 217 327.21 239.43 319.11 
 218 264.45 226.27 327.21 
 219 194.02 235.02 327.21 
 220 265.44 218.34 327.21 
 221 312.52 106.73 327.21 
 222 241.73 237.68 327.21 
 223 282.43 247.78 327.21 
 224 237.53 243.97 327.21 
 225 184.71 298.61 327.21 
 226 111.48 316.33 327.21 
 227 165.51 303.79 327.21 
 228 359.14 297.91 327.21 
 229 289.31 247.24 359.14 
 230 193.31 280.03 359.14 
 231 266.73 269.53 359.14 
 232 245.99 243.67 359.14 
 233 194.91 274.80 359.14 
 234 421.64 235.37 359.14 
 235 350.17 256.24 421.64 
 236 272.91 274.84 421.64 
 237 264.83 284.24 421.64 
 238 361.01 284.08 421.64 
 239 163.71 309.31 421.64 
 240 347.77 294.71 421.64 
 241 413.21 321.34 421.64 
 242 342.13 332.18 421.64 
 243 362.13 329.11 421.64 
 244 385.24 319.85 421.64 
 245 373.95 313.44 421.64 
 246 369.36 317.32 421.64 
 247 289.42 305.15 421.64 
 248 300.79 326.67 421.64 
 249 366.36 322.73 421.64 
 250 282.14 332.35 421.64 
 251 453.43 319.19 421.64 
 252 468.80 340.71 453.43 
 253 432.01 373.43 468.80 
 254 349.12 359.62 468.80 
 255 226.95 364.68 468.80 
 256 239.49 442.45 468.80 
 257 374.97 370.92 468.80 
 258 250.95 357.04 468.80 
 259 298.81 359.58 468.80 
 260 282.19 368.34 468.80 
 261 273.53 359.68 468.80 
 262 367.61 364.66 468.80 
 263 306.37 381.63 468.80 
 264 363.89 447.49 468.80 
 265 373.31 462.70 468.80 
 266 307.66 520.73 468.80 
 267 421.58 478.31 468.80 
 268 314.35 510.14 468.80 
 269 390.40 524.43 468.80 
 270 427.18 417.02 468.80 
 271 360.31 388.67 468.80 
 272 303.01 371.88 468.80 
 273 386.97 366.39 468.80 
 274 382.19 374.63 468.80 
 275 381.53 375.12 468.80 
 276 160.77 370.62 468.80 
 277 386.83 378.27 468.80 
 278 302.82 386.26 468.80 
 279 422.29 385.17 468.80 
 280 336.74 389.77 468.80 
 281 333.75 394.67 468.80 
 282 192.15 384.34 468.80 
 283 249.23 404.50 468.80 
 284 470.81 407.09 468.80 
 285 537.49 398.23 470.81 
 286 467.01 495.90 537.49 
 287 178.47 559.80 537.49 
 288 219.01 619.51 537.49 
 289 674.42 649.90 537.49 
 290 273.93 749.03 674.42 
 291 478.34 789.19 674.42 
 292 377.79 686.06 674.42 
 293 436.88 678.70 674.42 
 294 329.46 685.24 674.42 
 295 585.54 777.76 674.42 
 296 378.05 695.53 674.42 
 297 314.72 652.47 674.42 
 298 428.51 671.60 674.42 
 299 467.91 668.44 674.42 
 300 553.18 718.30 674.42 
 301 508.04 712.11 674.42 
 302 461.27 746.03 674.42 
 303 320.84 754.32 674.42 
 304 392.47 793.57 674.42 
 305 426.17 848.77 674.42 
 306 412.30 826.57 674.42 
 307 487.82 703.32 674.42 
 308 403.36 692.80 674.42 
 309 468.72 780.83 674.42 
 310 264.63 754.12 674.42 
 311 388.88 759.76 674.42 
 312 332.50 771.81 674.42 
 313 266.77 794.09 674.42 
 314 430.22 797.78 674.42 
 315 325.31 699.90 674.42 
 316 359.16 659.67 674.42 
 317 409.88 652.37 674.42 
 318 321.81 671.39 674.42 
 319 331.77 657.54 674.42 
 320 546.77 646.94 674.42 
 321 467.89 662.68 674.42 
 322 310.98 690.45 674.42 
 323 273.51 646.91 674.42 
 324 360.90 516.64 674.42 
 325 389.28 637.34 674.42 
 326 522.82 569.53 674.42 
 327 574.44 717.73 674.42 
 328 466.56 721.49 674.42 
 329 553.79 747.44 674.42 
 330 398.36 865.12 674.42 
 331 449.62 868.28 674.42 
 332 638.15 882.78 674.42 
 333 393.20 802.60 674.42 
 334 299.29 860.44 674.42 
 335 377.19 826.95 674.42 
 336 446.81 846.36 674.42 
 337 535.10 891.67 674.42 
 338 396.13 889.94 674.42 
 339 433.55 893.33 674.42 
 340 509.71 900.54 674.42 
 341 476.05 912.78 674.42 
 342 398.30 915.25 674.42 
 343 646.45 914.69 674.42 
 344 539.54 892.09 674.42 
 345 413.71 899.70 674.42 
 346 453.36 928.21 674.42 
 347 574.61 920.59 674.42 
 348 450.22 900.93 674.42 
 349 460.43 921.57 674.42 
 350 460.55 920.97 674.42 
 351 487.98 915.99 674.42 
 352 360.77 905.97 674.42 
 353 424.16 887.72 674.42 
 354 534.21 900.21 674.42 
 355 579.07 906.54 674.42 
 356 358.12 917.70 674.42 
 357 342.76 912.73 674.42 
 358 542.02 916.85 674.42 
 359 386.74 890.31 674.42 
 360 559.43 909.96 674.42 
 361 613.84 876.09 674.42 
 362 462.91 760.05 674.42 
 363 593.84 647.33 674.42 
 364 511.37 640.91 674.42 
 365 387.21 738.92 674.42 
 366 482.08 694.53 674.42 
 367 514.81 600.02 674.42 
 368 494.07 680.60 674.42 
 369 381.30 785.43 674.42 
 370 650.28 762.89 674.42 
 371 470.66 840.79 674.42 
 372 397.15 768.18 674.42 
 373 602.84 841.43 674.42 
 374 677.15 830.42 674.42 
 375 510.46 766.75 677.15 
 376 605.40 775.80 677.15 
 377 412.27 745.80 677.15 
 378 364.67 760.05 677.15 
 379 552.01 812.96 677.15 
 380 557.13 847.95 677.15 
 381 646.48 866.22 677.15 
 382 560.15 863.75 677.15 
 383 483.52 873.32 677.15 
 384 690.76 881.56 677.15 
 385 570.11 885.92 690.76 
 386 653.76 903.22 690.76 
 387 364.77 921.91 690.76 
 388 532.21 924.08 690.76 
 389 541.74 947.40 690.76 
 390 685.69 946.39 690.76 
 391 506.65 948.79 690.76 
 392 445.66 965.21 690.76 
 393 508.25 983.17 690.76 
 394 442.61 911.66 690.76 
 395 756.60 902.45 690.76 
 396 595.72 857.33 756.60 
 397 540.39 904.00 756.60 
 398 461.15 916.07 756.60 
 399 564.76 916.60 756.60 
 400 599.17 934.59 756.60 
 401 626.58 961.30 756.60 
 402 605.45 959.00 756.60 
 403 742.38 965.51 756.60 
 404 486.23 962.87 756.60 
 405 340.72 978.11 756.60 
 406 535.66 981.94 756.60 
 407 659.55 977.05 756.60 
 408 744.80 948.21 756.60 
 409 380.41 913.03 756.60 
 410 536.92 914.96 756.60 
 411 626.50 932.40 756.60 
 412 479.11 918.03 756.60 
 413 674.89 934.88 756.60 
 414 472.34 971.38 756.60 
 415 505.87 958.55 756.60 
 416 451.43 977.47 756.60 
 417 712.34 987.34 756.60 
 418 689.31 990.00 756.60 
 419 476.71 1031.37 756.60 
 420 535.30 1009.38 756.60 
 421 687.27 1074.18 756.60 
 422 635.50 1082.09 756.60 
 423 702.81 1065.06 756.60 
 424 671.84 1044.93 756.60 
 425 524.50 1025.82 756.60 
 426 542.77 1042.27 756.60 
 427 555.53 1034.10 756.60 
 428 668.34 1094.44 756.60 
 429 638.05 1086.55 756.60 
 430 535.36 1094.96 756.60 
 431 758.44 1104.34 756.60 
 432 465.64 1084.35 758.44 
 433 599.43 1132.06 758.44 
 434 489.98 1086.30 758.44 
 435 676.81 1117.91 758.44 
 436 649.20 1049.96 758.44 
 437 480.68 1046.32 758.44 
 438 629.98 1038.66 758.44 
 439 533.55 1034.21 758.44 
 440 626.74 1021.48 758.44 
 441 630.68 1029.85 758.44 
 442 701.91 1047.12 758.44 
 443 632.08 1041.66 758.44 
 444 764.29 1068.64 758.44 
 445 437.24 1115.92 764.29 
 446 563.47 1099.69 764.29 
 447 696.05 1084.86 764.29 
 448 728.92 1058.31 764.29 
 449 488.38 1013.72 764.29 
 450 462.54 1075.35 764.29 
 451 812.79 1108.18 764.29 
 452 513.18 1042.72 812.79 
 453 446.02 1038.49 812.79 
 454 437.40 1064.91 812.79 
 455 717.71 1078.50 812.79 
 456 598.08 1087.63 812.79 
 457 761.48 1030.87 812.79 
 458 493.84 1053.50 812.79 
 459 384.37 1036.68 812.79 
 460 742.40 1097.70 812.79 
 461 548.11 1114.10 812.79 
 462 752.09 1115.93 812.79 
 463 464.92 1085.37 812.79 
 464 673.44 1062.10 812.79 
 465 619.58 1052.93 812.79 
 466 598.80 1074.05 812.79 
 467 807.20 1059.41 812.79 
 468 747.73 1072.85 812.79 
 469 727.67 1056.48 812.79 
 470 723.94 1066.85 812.79 
 471 607.96 1083.37 812.79 
 472 454.34 1098.56 812.79 
 473 641.72 1126.02 812.79 
 474 807.74 1119.82 812.79 
 475 797.30 1115.77 812.79 
 476 805.91 1098.88 812.79 
 477 612.18 1095.03 812.79 
 478 740.50 1074.20 812.79 
 479 703.46 1074.18 812.79 
 480 594.15 1057.58 812.79 
 481 519.05 1041.53 812.79 
 482 525.16 1007.22 812.79 
 483 518.22 959.95 812.79 
 484 601.49 962.17 812.79 
 485 715.77 1027.86 812.79 
 486 733.26 1035.31 812.79 
 487 633.89 1050.96 812.79 
 488 688.66 1028.71 812.79 
 489 596.21 1036.32 812.79 
 490 725.31 1024.89 812.79 
 491 750.45 1021.66 812.79 
 492 641.98 1048.42 812.79 
 493 726.42 1016.65 812.79 
 494 539.64 1056.86 812.79 
 495 569.92 1065.91 812.79 
 496 655.94 1120.05 812.79 
 497 806.31 1131.19 812.79 
 498 545.30 1152.27 812.79 
 499 551.93 1132.45 812.79 
 500 730.73 1129.30 812.79 
 501 707.24 1210.59 812.79 
 502 550.17 1204.18 812.79 
 503 735.00 1170.63 812.79 
 504 691.81 1142.02 812.79 
 505 607.71 1169.45 812.79 
 506 676.30 1114.36 812.79 
 507 608.82 1133.31 812.79 
 508 754.33 1139.74 812.79 
 509 526.96 1201.36 812.79 
 510 637.29 1158.63 812.79 
 511 731.62 1199.71 812.79 
 512 647.41 1213.27 812.79 
 513 537.35 1204.96 812.79 
 514 728.88 1276.19 812.79 
 515 539.92 1273.17 812.79 
 516 727.29 1237.21 812.79 
 517 557.59 1211.85 812.79 
 518 732.58 1213.37 812.79 
 519 651.13 1209.08 812.79 
 520 769.25 1219.35 812.79 
 521 676.38 1206.76 812.79 
 522 694.55 1121.05 812.79 
 523 707.39 1103.97 812.79 
 524 527.40 1118.24 812.79 
 525 649.20 1147.02 812.79 
 526 856.13 1098.78 812.79 
 527 706.82 1081.85 856.13 
 528 660.30 1075.12 856.13 
 529 602.04 1076.97 856.13 
 530 680.47 1143.06 856.13 
 531 553.83 1180.27 856.13 
 532 788.02 1209.60 856.13 
 533 675.43 1251.71 856.13 
 534 668.96 1268.77 856.13 
 535 587.70 1266.66 856.13 
 536 535.62 1234.68 856.13 
 537 717.41 1215.30 856.13 
 538 684.35 1238.72 856.13 
 539 895.20 1247.51 856.13 
 540 795.64 1275.60 895.20 
 541 740.08 1211.97 895.20 
 542 643.67 1234.96 895.20 
 543 891.85 1227.33 895.20 
 544 767.36 1264.24 895.20 
 545 831.00 1271.74 895.20 
 546 780.75 1221.84 895.20 
 547 773.37 1276.06 895.20 
 548 887.22 1279.05 895.20 
 549 545.74 1259.26 895.20 
 550 766.62 1247.95 895.20 
 551 833.13 1256.10 895.20 
 552 826.64 1247.94 895.20 
 553 759.99 1258.86 895.20 
 554 794.35 1272.12 895.20 
 555 709.60 1270.60 895.20 
 556 848.02 1327.60 895.20 
 557 773.36 1333.90 895.20 
 558 912.83 1302.04 895.20 
 559 687.76 1287.06 912.83 
 560 625.91 1285.39 912.83 
 561 400.58 1265.11 912.83 
 562 849.47 1303.47 912.83 
 563 710.03 1298.58 912.83 
 564 752.35 1279.65 912.83 
 565 974.29 1312.38 912.83 
 566 945.40 1288.76 974.29 
 567 651.42 1309.60 974.29 
 568 745.81 1270.68 974.29 
 569 623.18 1228.68 974.29 
 570 741.83 1257.47 974.29 
 571 895.07 1267.63 974.29 
 572 544.79 1267.10 974.29 
 573 700.34 1238.35 974.29 
 574 791.27 1250.70 974.29 
 575 856.76 1259.09 974.29 
 576 609.14 1269.76 974.29 
 577 648.44 1250.26 974.29 
 578 581.27 1272.74 974.29 
 579 684.89 1276.57 974.29 
 580 735.74 1305.84 974.29 
 581 688.79 1343.57 974.29 
 582 692.70 1352.96 974.29 
 583 608.85 1361.78 974.29 
 584 997.67 1365.22 974.29 
 585 833.07 1333.30 997.67 
 586 738.99 1352.04 997.67 
 587 691.13 1323.39 997.67 
 588 739.00 1295.86 997.67 
 589 741.98 1302.69 997.67 
 590 869.61 1290.75 997.67 
 591 735.61 1288.37 997.67 
 592 802.06 1302.58 997.67 
 593 837.17 1299.02 997.67 
 594 853.20 1311.07 997.67 
 595 733.63 1292.40 997.67 
 596 781.71 1299.50 997.67 
 597 722.87 1228.55 997.67 
 598 880.84 1311.63 997.67 
 599 702.32 1286.45 997.67 
 600 988.57 1292.92 997.67 
 601 648.53 1269.01 997.67 
 602 686.70 1288.91 997.67 
 603 992.59 1309.66 997.67 
 604 799.60 1311.64 997.67 
 605 712.21 1326.69 997.67 
 606 776.59 1335.48 997.67 
 607 641.20 1332.92 997.67 
 608 981.22 1357.19 997.67 
 609 775.93 1373.47 997.67 
 610 835.48 1361.89 997.67 
 611 601.03 1279.24 997.67 
 612 746.48 1262.32 997.67 
 613 947.79 1235.50 997.67 
 614 608.02 1234.88 997.67 
 615 871.66 1254.26 997.67 
 616 852.02 1254.68 997.67 
 617 901.47 1266.64 997.67 
 618 1039.25 1306.36 997.67 
 619 937.20 1278.49 1039.25 
 620 760.48 1293.97 1039.25 
 621 671.29 1291.75 1039.25 
 622 700.81 1281.84 1039.25 
 623 676.82 1270.12 1039.25 
 624 760.31 1280.32 1039.25 
 625 908.99 1248.59 1039.25 
 626 998.47 1269.44 1039.25 
 627 990.81 1282.73 1039.25 
 628 877.54 1270.24 1039.25 
 629 860.37 1279.48 1039.25 
 630 737.40 1287.49 1039.25 
 631 783.01 1244.70 1039.25 
 632 846.01 1259.98 1039.25 
 633 831.96 1241.55 1039.25 
 634 791.77 1261.59 1039.25 
 635 783.13 1271.62 1039.25 
 636 865.47 1267.30 1039.25 
 637 703.62 1241.09 1039.25 
 638 931.49 1194.98 1039.25 
 639 1014.27 1202.27 1039.25 
 640 905.82 1198.62 1039.25 
 641 887.72 1197.88 1039.25 
 642 895.55 1205.36 1039.25 
 643 829.82 1206.70 1039.25 
 644 809.94 1216.92 1039.25 
 645 803.85 1229.80 1039.25 
 646 722.02 1206.28 1039.25 
 647 935.10 1229.93 1039.25 
 648 942.31 1234.29 1039.25 
 649 816.23 1243.70 1039.25 
 650 622.37 1241.98 1039.25 
 651 899.85 1230.68 1039.25 
 652 766.40 1221.73 1039.25 
 653 725.10 1180.39 1039.25 
 654 815.52 1214.42 1039.25 
 655 781.95 1211.29 1039.25 
 656 901.73 1205.01 1039.25 
 657 951.86 1218.11 1039.25 
 658 923.39 1259.69 1039.25 
 659 728.91 1256.49 1039.25 
 660 742.45 1251.53 1039.25 
 661 873.26 1250.88 1039.25 
 662 672.48 1242.12 1039.25 
 663 986.22 1242.44 1039.25 
 664 660.41 1203.77 1039.25 
 665 843.95 1202.10 1039.25 
 666 815.75 1226.71 1039.25 
 667 907.89 1250.11 1039.25 
 668 957.93 1285.25 1039.25 
 669 686.43 1334.61 1039.25 
 670 779.36 1327.70 1039.25 
 671 874.18 1298.26 1039.25 
 672 856.20 1305.45 1039.25 
 673 1143.30 1324.00 1039.25 
 674 911.75 1330.73 1143.30 
 675 953.54 1303.66 1143.30 
 676 554.21 1279.90 1143.30 
 677 805.21 1317.10 1143.30 
 678 763.59 1295.99 1143.30 
 679 775.87 1265.91 1143.30 
 680 943.21 1268.47 1143.30 
 681 849.02 1284.43 1143.30 
 682 766.19 1297.54 1143.30 
 683 703.11 1290.04 1143.30 
 684 820.79 1269.08 1143.30 
 685 827.46 1256.29 1143.30 
 686 690.01 1279.38 1143.30 
 687 911.19 1274.30 1143.30 
 688 918.13 1265.79 1143.30 
 689 843.79 1262.03 1143.30 
 690 863.85 1231.05 1143.30 
 691 891.89 1227.28 1143.30 
 692 982.66 1236.07 1143.30 
 693 798.71 1238.92 1143.30 
 694 1008.51 1251.10 1143.30 
 695 915.84 1235.34 1143.30 
 696 783.96 1245.98 1143.30 
 697 917.29 1235.89 1143.30 
 698 860.05 1218.88 1143.30 
 699 888.59 1207.58 1143.30 
 700 921.37 1237.51 1143.30 
 701 943.34 1215.76 1143.30 
 702 837.21 1253.66 1143.30 
 703 814.63 1225.78 1143.30 
 704 1035.45 1183.79 1143.30 
 705 879.50 1209.45 1143.30 
 706 845.04 1206.38 1143.30 
 707 776.15 1215.76 1143.30 
 708 854.82 1179.43 1143.30 
 709 726.81 1205.00 1143.30 
 710 857.61 1153.08 1143.30 
 711 890.44 1161.82 1143.30 
 712 811.83 1162.21 1143.30 
 713 760.08 1175.92 1143.30 
 714 907.49 1204.29 1143.30 
 715 685.69 1217.48 1143.30 
 716 816.43 1218.72 1143.30 
 717 642.33 1224.38 1143.30 
 718 918.48 1213.15 1143.30 
 719 816.94 1235.10 1143.30 
 720 842.10 1280.88 1143.30 
 721 736.31 1280.93 1143.30 
 722 939.79 1289.65 1143.30 
 723 656.34 1283.92 1143.30 
 724 910.13 1267.55 1143.30 
 725 951.92 1291.57 1143.30 
 726 637.36 1280.25 1143.30 
 727 767.23 1267.73 1143.30 
 728 654.47 1245.71 1143.30 
 729 737.49 1223.91 1143.30 
 730 799.96 1200.00 1143.30 
 731 720.19 1277.76 1143.30 
 732 747.42 1243.38 1143.30 
 733 602.94 1217.24 1143.30 
 734 870.67 1222.82 1143.30 
 735 899.94 1232.68 1143.30 
 736 819.71 1205.18 1143.30 
 737 910.58 1248.37 1143.30 
 738 931.53 1223.30 1143.30 
 739 784.59 1221.48 1143.30 
 740 877.61 1225.39 1143.30 
 741 947.41 1189.12 1143.30 
 742 747.86 1172.87 1143.30 
 743 750.28 1159.10 1143.30 
 744 925.62 1167.89 1143.30 
 745 747.78 1176.04 1143.30 
 746 1096.28 1199.51 1143.30 
 747 984.83 1216.43 1143.30 
 748 849.80 1169.81 1143.30 
 749 808.26 1225.44 1143.30 
 750 1046.26 1207.87 1143.30 
 751 798.69 1240.57 1143.30 
 752 874.52 1272.23 1143.30 
 753 765.48 1264.75 1143.30 
 754 719.75 1283.51 1143.30 
 755 1086.86 1292.89 1143.30 
 756 962.43 1315.02 1143.30 
 757 894.02 1329.41 1143.30 
 758 658.78 1336.13 1143.30 
 759 915.15 1344.39 1143.30 
 760 1060.85 1344.37 1143.30 
 761 777.08 1329.37 1143.30 
 762 871.18 1361.20 1143.30 
 763 1065.22 1353.82 1143.30 
 764 1055.96 1346.89 1143.30 
 765 829.05 1360.97 1143.30 
 766 1023.01 1335.77 1143.30 
 767 762.30 1359.53 1143.30 
 768 1037.03 1350.80 1143.30 
 769 848.51 1353.82 1143.30 
 770 936.80 1325.69 1143.30 
 771 788.22 1316.91 1143.30 
 772 757.24 1338.14 1143.30 
 773 932.65 1366.92 1143.30 
 774 1041.93 1346.94 1143.30 
 775 847.09 1331.35 1143.30 
 776 973.60 1322.66 1143.30 
 777 750.62 1312.62 1143.30 
 778 916.18 1291.40 1143.30 
 779 820.08 1285.19 1143.30 
 780 817.82 1295.17 1143.30 
 781 818.70 1311.38 1143.30 
 782 890.92 1307.60 1143.30 
 783 882.84 1307.89 1143.30 
 784 1190.00 1297.52 1143.30 
 785 629.53 1300.00 1190.00 
 786 1080.95 1286.79 1190.00 
 787 855.30 1321.84 1190.00 
 788 864.63 1330.36 1190.00 
 789 703.49 1374.69 1190.00 
 790 929.78 1347.15 1190.00 
 791 1035.43 1322.17 1190.00 
 792 904.92 1318.44 1190.00 
 793 969.16 1300.86 1190.00 
 794 940.15 1292.83 1190.00 
 795 946.20 1284.42 1190.00 
 796 985.88 1277.24 1190.00 
 797 958.21 1297.18 1190.00 
 798 991.13 1334.16 1190.00 
 799 689.55 1363.35 1190.00 
 800 770.49 1334.60 1190.00 
 801 882.58 1325.20 1190.00 
 802 965.99 1337.69 1190.00 
 803 953.88 1335.74 1190.00 
 804 895.88 1349.55 1190.00 
 805 1009.73 1338.27 1190.00 
 806 1203.95 1337.55 1190.00 
 807 1007.96 1318.79 1203.95 
 808 859.01 1332.60 1203.95 
 809 1016.06 1339.58 1203.95 
 810 836.26 1330.93 1203.95 
 811 807.62 1325.65 1203.95 
 812 973.10 1336.28 1203.95 
 813 885.64 1342.55 1203.95 
 814 996.92 1336.35 1203.95 
 815 880.89 1353.28 1203.95 
 816 956.49 1352.84 1203.95 
 817 606.32 1337.88 1203.95 
 818 991.07 1334.03 1203.95 
 819 904.76 1343.42 1203.95 
 820 915.48 1347.78 1203.95 
 821 901.98 1377.08 1203.95 
 822 898.74 1385.78 1203.95 
 823 827.81 1409.04 1203.95 
 824 800.66 1367.24 1203.95 
 825 902.04 1372.19 1203.95 
 826 842.68 1368.51 1203.95 
 827 732.30 1390.48 1203.95 
 828 1050.31 1389.27 1203.95 
 829 926.78 1392.73 1203.95 
 830 1000.95 1411.52 1203.95 
 831 1063.11 1418.08 1203.95 
 832 946.79 1425.00 1203.95 
 833 961.59 1426.86 1203.95 
 834 748.17 1434.13 1203.95 
 835 838.66 1417.52 1203.95 
 836 946.27 1430.11 1203.95 
 837 1035.79 1429.40 1203.95 
 838 845.05 1442.13 1203.95 
 839 713.94 1417.25 1203.95 
 840 871.63 1446.21 1203.95 
 841 744.22 1415.02 1203.95 
 842 895.70 1426.71 1203.95 
 843 829.41 1433.58 1203.95 
 844 911.80 1412.93 1203.95 
 845 850.75 1384.77 1203.95 
 846 772.79 1367.21 1203.95 
 847 1021.73 1369.10 1203.95 
 848 832.75 1331.73 1203.95 
 849 764.06 1352.79 1203.95 
 850 711.96 1382.67 1203.95 
 851 987.14 1383.63 1203.95 
 852 1195.35 1391.58 1203.95 
 853 989.62 1377.77 1203.95 
 854 781.96 1356.51 1203.95 
 855 916.62 1355.86 1203.95 
 856 856.66 1353.93 1203.95 
 857 1009.72 1356.27 1203.95 
 858 921.23 1373.77 1203.95 
 859 1110.63 1351.20 1203.95 
 860 790.34 1348.04 1203.95 
 861 883.67 1368.59 1203.95 
 862 1007.63 1356.00 1203.95 
 863 803.84 1378.49 1203.95 
 864 935.35 1384.67 1203.95 
 865 1024.36 1382.80 1203.95 
 866 750.72 1376.63 1203.95 
 867 953.84 1370.99 1203.95 
 868 1115.21 1386.52 1203.95 
 869 902.33 1377.27 1203.95 
 870 1127.65 1376.51 1203.95 
 871 835.34 1360.23 1203.95 
 872 974.16 1381.55 1203.95 
 873 1002.75 1384.65 1203.95 
 874 920.89 1391.60 1203.95 
 875 1109.73 1382.19 1203.95 
 876 872.95 1395.37 1203.95 
 877 1014.69 1379.29 1203.95 
 878 1048.43 1369.24 1203.95 
 879 899.14 1374.99 1203.95 
 880 770.56 1364.12 1203.95 
 881 996.97 1367.78 1203.95 
 882 976.15 1328.03 1203.95 
 883 757.58 1342.80 1203.95 
 884 1102.50 1342.45 1203.95 
 885 1045.62 1337.60 1203.95 
 886 845.25 1345.45 1203.95 
 887 699.68 1332.20 1203.95 
 888 806.34 1330.24 1203.95 
 889 915.96 1322.19 1203.95 
 890 967.84 1325.91 1203.95 
 891 1033.15 1334.25 1203.95 
 892 846.31 1354.23 1203.95 
 893 1064.20 1350.89 1203.95 
 894 895.74 1348.69 1203.95 
 895 838.89 1338.74 1203.95 
 896 1043.29 1323.62 1203.95 
 897 961.09 1345.56 1203.95 
 898 879.25 1341.18 1203.95 
 899 957.08 1361.80 1203.95 
 900 751.82 1386.83 1203.95 
 901 827.82 1391.88 1203.95 
 902 848.36 1394.99 1203.95 
 903 885.86 1391.28 1203.95 
 904 1072.24 1406.28 1203.95 
 905 1001.15 1399.45 1203.95 
 906 1133.30 1386.31 1203.95 
 907 886.23 1391.90 1203.95 
 908 894.62 1398.10 1203.95 
 909 971.03 1394.23 1203.95 
 910 977.88 1403.49 1203.95 
 911 936.33 1397.03 1203.95 
 912 1179.67 1384.75 1203.95 
 913 1078.05 1399.05 1203.95 
 914 1013.35 1402.79 1203.95 
 915 1000.20 1391.34 1203.95 
 916 1021.01 1385.14 1203.95 
 917 1097.75 1398.54 1203.95 
 918 1106.33 1394.26 1203.95 
 919 932.82 1410.55 1203.95 
 920 1051.97 1399.87 1203.95 
 921 855.98 1403.50 1203.95 
 922 816.60 1396.06 1203.95 
 923 1067.56 1387.28 1203.95 
 924 843.00 1400.08 1203.95 
 925 1091.42 1401.57 1203.95 
 926 953.98 1395.96 1203.95 
 927 998.16 1409.24 1203.95 
 928 987.24 1411.76 1203.95 
 929 795.69 1412.07 1203.95 
 930 1134.18 1415.76 1203.95 
 931 954.75 1413.35 1203.95 
 932 927.58 1415.24 1203.95 
 933 847.30 1417.56 1203.95 
 934 703.77 1418.77 1203.95 
 935 1051.19 1423.22 1203.95 
 936 862.66 1416.77 1203.95 
 937 813.98 1412.18 1203.95 
 938 878.90 1417.21 1203.95 
 939 996.65 1417.44 1203.95 
 940 909.13 1420.63 1203.95 
 941 1198.71 1423.76 1203.95 
 942 1147.49 1424.87 1203.95 
 943 1021.67 1435.70 1203.95 
 944 1032.10 1430.96 1203.95 
 945 937.11 1440.39 1203.95 
 946 965.71 1434.42 1203.95 
 947 717.43 1436.44 1203.95 
 948 987.47 1430.88 1203.95 
 949 915.09 1427.46 1203.95 
 950 889.60 1433.26 1203.95 
 951 867.56 1429.87 1203.95 
 952 737.16 1417.01 1203.95 
 953 891.77 1408.20 1203.95 
 954 1118.70 1407.36 1203.95 
 955 1055.89 1401.60 1203.95 
 956 1069.47 1399.71 1203.95 
 957 1044.64 1408.13 1203.95 
 958 841.37 1401.45 1203.95 
 959 901.44 1414.36 1203.95 
 960 859.62 1420.62 1203.95 
 961 1083.83 1419.59 1203.95 
 962 990.65 1416.94 1203.95 
 963 885.18 1410.57 1203.95 
 964 1025.62 1411.34 1203.95 
 965 1111.32 1417.28 1203.95 
 966 1005.53 1415.79 1203.95 
 967 1039.82 1409.67 1203.95 
 968 1016.59 1394.34 1203.95 
 969 873.52 1383.93 1203.95 
 970 966.05 1365.48 1203.95 
 971 766.82 1397.75 1203.95 
 972 785.27 1378.42 1203.95 
 973 994.13 1372.21 1203.95 
 974 1005.44 1372.21 1203.95 
 975 877.29 1347.23 1203.95 
 976 879.74 1375.34 1203.95 
 977 984.34 1350.94 1203.95 
 978 1149.03 1367.28 1203.95 
 979 885.03 1351.62 1203.95 
 980 873.94 1363.99 1203.95 
 981 979.61 1363.90 1203.95 
 982 903.29 1356.86 1203.95 
 983 966.14 1366.47 1203.95 
 984 969.93 1356.92 1203.95 
 985 840.92 1373.44 1203.95 
 986 897.49 1366.13 1203.95 
 987 884.55 1353.76 1203.95 
 988 1006.83 1357.88 1203.95 
 989 1007.79 1360.46 1203.95 
 990 1128.24 1346.60 1203.95 
 991 935.53 1350.74 1203.95 
 992 1139.65 1358.34 1203.95 
 993 821.12 1348.45 1203.95 
 994 906.34 1346.90 1203.95 
 995 1091.06 1349.77 1203.95 
 996 975.94 1339.04 1203.95 
 997 1275.11 1349.50 1203.95 
 998 974.68 1364.84 1275.11 
 999 932.65 1344.80 1275.11 
1000 957.51 1337.97 1275.11 
1001 1145.86 1344.19 1275.11 
1002 886.65 1342.63 1275.11 
1003 827.07 1362.75 1275.11 
1004 892.31 1334.74 1275.11 
1005 748.56 1339.34 1275.11 
1006 1176.32 1339.93 1275.11 
1007 1025.94 1335.81 1275.11 
1008 1026.53 1346.75 1275.11 
1009 1004.64 1346.23 1275.11 
1010 874.61 1342.86 1275.11 
1011 867.72 1362.53 1275.11 
1012 1160.86 1357.79 1275.11 
1013 758.35 1341.71 1275.11 
1014 821.99 1365.79 1275.11 
1015 1073.90 1397.06 1275.11 
1016 1024.76 1418.98 1275.11 
1017 983.47 1421.12 1275.11 
1018 1108.87 1399.89 1275.11 
1019 882.72 1399.79 1275.11 
1020 1105.85 1429.91 1275.11 
1021 973.91 1424.90 1275.11 
1022 950.00 1417.01 1275.11 
1023 988.43 1423.54 1275.11 
1024 919.37 1423.21 1275.11 
1025 993.99 1428.64 1275.11 
1026 1004.48 1429.39 1275.11 
1027 993.28 1420.07 1275.11 
1028 919.55 1426.53 1275.11 
1029 1082.27 1428.05 1275.11 
1030 913.82 1424.84 1275.11 
1031 1002.61 1426.17 1275.11 
1032 964.47 1388.08 1275.11 
1033 986.91 1428.05 1275.11 
1034 1138.61 1425.24 1275.11 
1035 932.87 1426.33 1275.11 
1036 961.11 1442.44 1275.11 
1037 961.19 1445.90 1275.11 
1038 808.46 1436.85 1275.11 
1039 1063.28 1428.06 1275.11 
1040 798.92 1431.44 1275.11 
1041 1124.29 1434.86 1275.11 
1042 875.75 1414.06 1275.11 
1043 1025.83 1392.72 1275.11 
1044 954.70 1429.99 1275.11 
1045 1118.66 1428.51 1275.11 
1046 929.00 1436.07 1275.11 
1047 946.83 1422.37 1275.11 
1048 1063.68 1416.79 1275.11 
1049 806.73 1419.94 1275.11 
1050 1042.15 1446.95 1275.11 
1051 957.63 1459.92 1275.11 
1052 963.31 1453.13 1275.11 
1053 879.17 1433.27 1275.11 
1054 954.77 1447.11 1275.11 
1055 1091.31 1434.54 1275.11 
1056 998.40 1435.98 1275.11 
1057 1141.59 1433.95 1275.11 
1058 912.17 1429.64 1275.11 
1059 980.37 1415.43 1275.11 
1060 1021.95 1418.94 1275.11 
1061 997.45 1432.14 1275.11 
1062 1149.67 1411.17 1275.11 
1063 1042.85 1433.77 1275.11 
1064 1069.24 1428.65 1275.11 
1065 846.62 1429.07 1275.11 
1066 1185.15 1433.70 1275.11 
1067 958.35 1421.44 1275.11 
1068 1051.38 1415.28 1275.11 
1069 970.13 1418.52 1275.11 
1070 911.48 1433.54 1275.11 
1071 1070.87 1427.91 1275.11 
1072 1254.11 1426.27 1275.11 
1073 864.61 1419.33 1275.11 
1074 973.66 1412.21 1275.11 
1075 1098.59 1412.06 1275.11 
1076 1128.59 1414.06 1275.11 
1077 1042.62 1423.84 1275.11 
1078 860.45 1423.38 1275.11 
1079 986.85 1433.47 1275.11 
1080 935.27 1423.47 1275.11 
1081 1072.99 1426.55 1275.11 
1082 1021.23 1419.80 1275.11 
1083 1123.75 1430.77 1275.11 
1084 1192.36 1410.09 1275.11 
1085 934.26 1415.00 1275.11 
1086 884.63 1417.77 1275.11 
1087 862.58 1411.06 1275.11 
1088 978.73 1424.87 1275.11 
1089 947.86 1414.91 1275.11 
1090 977.44 1395.70 1275.11 
1091 960.51 1386.66 1275.11 
1092 760.88 1390.75 1275.11 
1093 974.99 1395.34 1275.11 
1094 826.01 1371.98 1275.11 
1095 943.95 1347.04 1275.11 
1096 1163.43 1380.71 1275.11 
1097 946.94 1344.33 1275.11 
1098 822.08 1320.22 1275.11 
1099 950.59 1341.93 1275.11 
1100 924.27 1314.24 1275.11 
1101 919.52 1284.04 1275.11 
1102 842.45 1284.05 1275.11 
1103 974.19 1303.84 1275.11 
1104 892.04 1286.81 1275.11 
1105 954.84 1285.05 1275.11 
1106 1133.68 1297.22 1275.11 
1107 959.64 1311.74 1275.11 
1108 965.52 1318.59 1275.11 
1109 1177.13 1337.46 1275.11 
1110 1093.39 1368.04 1275.11 
1111 903.72 1358.74 1275.11 
1112 980.99 1337.96 1275.11 
1113 1081.19 1376.65 1275.11 
1114 797.02 1385.29 1275.11 
1115 982.95 1396.08 1275.11 
1116 1038.44 1360.23 1275.11 
1117 863.17 1382.61 1275.11 
1118 839.50 1380.52 1275.11 
1119 940.19 1395.07 1275.11 
1120 976.41 1403.85 1275.11 
1121 1050.57 1374.94 1275.11 
1122 1084.68 1399.43 1275.11 
1123 1078.01 1377.86 1275.11 
1124 1005.49 1366.73 1275.11 
1125 1206.82 1400.64 1275.11 
1126 996.62 1394.50 1275.11 
1127 996.10 1399.95 1275.11 
1128 829.04 1406.34 1275.11 
1129 848.83 1409.38 1275.11 
1130 1031.40 1396.97 1275.11 
1131 918.45 1400.71 1275.11 
1132 1040.38 1398.23 1275.11 
1133 953.81 1396.98 1275.11 
1134 967.83 1398.36 1275.11 
1135 956.79 1396.43 1275.11 
1136 923.95 1415.73 1275.11 
1137 972.88 1438.97 1275.11 
1138 963.45 1428.97 1275.11 
1139 831.16 1463.34 1275.11 
1140 1120.75 1438.37 1275.11 
1141 931.02 1438.24 1275.11 
1142 894.84 1428.22 1275.11 
1143 1077.52 1437.44 1275.11 
1144 913.74 1411.73 1275.11 
1145 1019.08 1399.25 1275.11 
1146 1004.66 1401.71 1275.11 
1147 893.82 1393.01 1275.11 
1148 861.10 1389.98 1275.11 
1149 1010.61 1410.70 1275.11 
1150 997.28 1442.06 1275.11 
1151 967.27 1446.71 1275.11 
1152 1008.55 1454.43 1275.11 
1153 981.86 1457.60 1275.11 
1154 1045.78 1454.34 1275.11 
1155 1121.49 1429.28 1275.11 
1156 1047.03 1417.39 1275.11 
1157 1007.92 1456.75 1275.11 
1158 944.10 1454.81 1275.11 
1159 894.40 1417.98 1275.11 
1160 844.94 1428.04 1275.11 
1161 1168.18 1424.82 1275.11 
1162 1029.48 1439.74 1275.11 
1163 746.48 1467.80 1275.11 
1164 1077.57 1464.28 1275.11 
1165 910.98 1461.75 1275.11 
1166 959.43 1467.56 1275.11 
1167 1142.87 1463.74 1275.11 
1168 746.27 1456.65 1275.11 
1169 964.32 1468.04 1275.11 
1170 842.61 1476.74 1275.11 
1171 1222.59 1476.03 1275.11 
1172 966.03 1443.13 1275.11 
1173 900.88 1463.64 1275.11 
1174 1209.58 1468.05 1275.11 
1175 913.58 1464.88 1275.11 
1176 1255.04 1476.81 1275.11 
1177 1068.79 1467.56 1275.11 
1178 992.99 1440.66 1275.11 
1179 1085.84 1472.63 1275.11 
1180 924.47 1470.07 1275.11 
1181 1043.22 1466.25 1275.11 
1182 929.11 1443.69 1275.11 
1183 805.71 1446.75 1275.11 
1184 980.01 1449.63 1275.11 
1185 997.07 1456.22 1275.11 
1186 955.15 1431.40 1275.11 
1187 975.54 1406.18 1275.11 
1188 1137.26 1398.42 1275.11 
1189 805.96 1392.80 1275.11 
1190 934.59 1296.37 1275.11 
1191 990.15 1359.37 1275.11 
1192 999.53 1379.37 1275.11 
1193 1224.03 1371.84 1275.11 
1194 1081.84 1311.53 1275.11 
1195 840.35 1378.65 1275.11 
1196 995.34 1391.95 1275.11 
1197 952.03 1402.11 1275.11 
1198 858.92 1398.57 1275.11 
1199 1040.42 1418.73 1275.11 
1200 752.67 1445.74 1275.11 
1201 866.89 1420.44 1275.11 
1202 1034.82 1417.94 1275.11 
1203 908.49 1414.12 1275.11 
1204 1088.14 1412.33 1275.11 
1205 846.79 1431.14 1275.11 
1206 1065.32 1428.24 1275.11 
1207 896.73 1440.78 1275.11 
1208 935.03 1458.21 1275.11 
1209 998.71 1416.89 1275.11 
1210 940.54 1438.98 1275.11 
1211 1227.81 1432.06 1275.11 
1212 827.11 1403.52 1275.11 
1213 980.93 1399.35 1275.11 
1214 968.35 1415.62 1275.11 
1215 957.14 1432.84 1275.11 
1216 1010.47 1470.23 1275.11 
1217 866.78 1470.83 1275.11 
1218 1203.94 1464.53 1275.11 
1219 978.26 1470.85 1275.11 
1220 929.69 1474.52 1275.11 
1221 1007.42 1457.53 1275.11 
1222 973.99 1462.04 1275.11 
1223 951.57 1455.16 1275.11 
1224 1096.77 1450.20 1275.11 
1225 905.15 1426.41 1275.11 
1226 969.70 1421.42 1275.11 
1227 1119.61 1435.22 1275.11 
1228 970.64 1403.99 1275.11 
1229 1069.97 1370.82 1275.11 
1230 1236.46 1378.94 1275.11 
1231 1022.21 1394.66 1275.11 
1232 881.84 1419.63 1275.11 
1233 1151.84 1420.90 1275.11 
1234 1205.48 1422.70 1275.11 
1235 956.95 1442.69 1275.11 
1236 821.37 1446.49 1275.11 
1237 1127.96 1463.94 1275.11 
1238 1153.30 1468.46 1275.11 
1239 868.55 1471.44 1275.11 
1240 922.83 1466.42 1275.11 
1241 1041.57 1450.73 1275.11 
1242 895.57 1463.24 1275.11 
1243 847.78 1470.14 1275.11 
1244 859.24 1467.03 1275.11 
1245 840.90 1470.09 1275.11 
1246 912.42 1461.82 1275.11 
1247 1190.35 1460.17 1275.11 
1248 1179.03 1471.81 1275.11 
1249 1135.79 1476.28 1275.11 
1250 1017.23 1461.27 1275.11 
1251 932.68 1454.96 1275.11 
1252 832.95 1441.16 1275.11 
1253 1102.19 1441.17 1275.11 
1254 1102.39 1434.85 1275.11 
1255 845.17 1447.32 1275.11 
1256 931.32 1434.79 1275.11 
1257 975.54 1437.26 1275.11 
1258 900.33 1454.83 1275.11 
1259 1041.69 1456.71 1275.11 
1260 1048.33 1457.37 1275.11 
1261 1177.61 1460.52 1275.11 
1262 933.11 1468.64 1275.11 
1263 993.62 1463.00 1275.11 
1264 846.09 1436.65 1275.11 
1265 984.65 1441.07 1275.11 
1266 998.38 1454.12 1275.11 
1267 1012.54 1451.20 1275.11 
1268 1059.33 1462.91 1275.11 
1269 671.66 1452.59 1275.11 
1270 802.89 1445.04 1275.11 
1271 1108.33 1441.34 1275.11 
1272 974.83 1422.58 1275.11 
1273 967.34 1425.70 1275.11 
1274 846.65 1415.63 1275.11 
1275 913.67 1411.84 1275.11 
1276 1091.59 1409.82 1275.11 
1277 1113.96 1401.02 1275.11 
1278 985.37 1409.28 1275.11 
1279 1027.17 1408.63 1275.11 
1280 1028.40 1410.24 1275.11 
1281 975.06 1411.49 1275.11 
1282 1116.48 1422.24 1275.11 
1283 1112.13 1423.75 1275.11 
1284 885.06 1446.28 1275.11 
1285 999.74 1422.60 1275.11 
1286 909.13 1425.09 1275.11 
1287 1118.81 1421.97 1275.11 
1288 966.17 1416.62 1275.11 
1289 834.16 1415.97 1275.11 
1290 1116.79 1408.07 1275.11 
1291 1033.77 1409.86 1275.11 
1292 1007.26 1413.75 1275.11 
1293 1002.88 1389.71 1275.11 
1294 1119.25 1401.10 1275.11 
1295 1108.21 1405.95 1275.11 
1296 763.87 1399.86 1275.11 
1297 882.74 1401.23 1275.11 
1298 831.41 1395.38 1275.11 
1299 1064.28 1410.11 1275.11 
1300 1069.58 1421.56 1275.11 
1301 996.03 1419.74 1275.11 
1302 690.11 1414.18 1275.11 
1303 1065.41 1395.61 1275.11 
1304 1154.62 1391.76 1275.11 
1305 1033.12 1398.01 1275.11 
1306 802.88 1398.03 1275.11 
1307 1212.94 1374.25 1275.11 
1308 935.76 1378.19 1275.11 
1309 1003.80 1402.57 1275.11 
1310 984.73 1402.57 1275.11 
1311 1133.16 1394.33 1275.11 
1312 959.03 1398.66 1275.11 
1313 942.83 1413.47 1275.11 
1314 969.20 1415.99 1275.11 
1315 900.42 1418.49 1275.11 
1316 948.29 1413.43 1275.11 
1317 1088.53 1416.65 1275.11 
1318 833.42 1425.45 1275.11 
1319 909.50 1426.04 1275.11 
1320 1210.04 1403.92 1275.11 
1321 1046.73 1398.77 1275.11 
1322 1016.20 1410.23 1275.11 
1323 1046.59 1408.32 1275.11 
1324 1013.23 1421.68 1275.11 
1325 992.23 1422.22 1275.11 
1326 923.14 1417.91 1275.11 
1327 879.98 1404.50 1275.11 
1328 1067.12 1412.39 1275.11 
1329 1140.21 1412.00 1275.11 
1330 945.60 1419.14 1275.11 
1331 1072.53 1414.00 1275.11 
1332 1057.20 1406.97 1275.11 
1333 1156.01 1395.72 1275.11 
1334 874.25 1417.13 1275.11 
1335 956.54 1391.08 1275.11 
1336 1125.37 1398.56 1275.11 
1337 986.49 1399.52 1275.11 
1338 754.64 1393.81 1275.11 
1339 1012.57 1401.30 1275.11 
1340 990.31 1408.18 1275.11 
1341 1033.16 1394.04 1275.11 
1342 905.18 1386.47 1275.11 
1343 1026.82 1372.41 1275.11 
1344 982.47 1382.35 1275.11 
1345 946.86 1399.88 1275.11 
1346 815.17 1398.59 1275.11 
1347 1091.36 1408.05 1275.11 
1348 1212.37 1384.23 1275.11 
1349 1074.92 1407.41 1275.11 
1350 874.77 1401.13 1275.11 
1351 959.77 1486.66 1275.11 
1352 887.15 1498.48 1275.11 
1353 979.99 1498.44 1275.11 
1354 983.33 1480.85 1275.11 
1355 1110.81 1485.87 1275.11 
1356 988.47 1475.25 1275.11 
1357 973.37 1475.24 1275.11 
1358 1042.04 1474.60 1275.11 
1359 1084.48 1480.75 1275.11 
1360 1103.96 1475.81 1275.11 
1361 1056.08 1505.94 1275.11 
1362 1006.03 1486.51 1275.11 
1363 1005.92 1498.38 1275.11 
1364 1007.89 1497.70 1275.11 
1365 883.87 1421.74 1275.11 
1366 1122.06 1480.94 1275.11 
1367 1080.43 1473.35 1275.11 
1368 1091.78 1460.84 1275.11 
1369 935.82 1461.52 1275.11 
1370 950.67 1463.35 1275.11 
1371 1268.36 1452.68 1275.11 
1372 1248.50 1443.30 1275.11 
1373 898.58 1448.89 1275.11 
1374 1059.01 1452.71 1275.11 
1375 925.33 1452.09 1275.11 
1376 942.75 1452.00 1275.11 
1377 979.70 1463.29 1275.11 
1378 849.90 1458.21 1275.11 
1379 1159.57 1455.43 1275.11 
1380 990.14 1466.75 1275.11 
1381 1040.63 1466.10 1275.11 
1382 852.31 1405.09 1275.11 
1383 1035.14 1482.12 1275.11 
1384 910.04 1457.21 1275.11 
1385 1182.57 1451.65 1275.11 
1386 882.49 1435.97 1275.11 
1387 1129.21 1444.42 1275.11 
1388 989.69 1467.60 1275.11 
1389 1047.68 1463.78 1275.11 
1390 1017.86 1471.13 1275.11 
1391 893.22 1476.18 1275.11 
1392 1070.61 1472.92 1275.11 
1393 1086.32 1476.77 1275.11 
1394 935.38 1482.04 1275.11 
1395 1014.67 1476.06 1275.11 
1396 926.75 1470.31 1275.11 
1397 1161.10 1465.68 1275.11 
1398 1077.75 1469.43 1275.11 
1399 1142.48 1380.87 1275.11 
1400 924.30 1398.69 1275.11 
1401 1063.93 1408.10 1275.11 
1402 976.30 1390.61 1275.11 
1403 1154.91 1508.46 1275.11 
1404 1159.48 1500.66 1275.11 
1405 998.27 1498.48 1275.11 
1406 889.42 1481.01 1275.11 
1407 1237.57 1470.39 1275.11 
1408 1086.83 1472.90 1275.11 
1409 1021.62 1456.69 1275.11 
1410 1136.34 1473.93 1275.11 
1411 1156.91 1476.85 1275.11 
1412 1276.66 1474.67 1275.11 
1413 974.79 1488.66 1276.66 
1414 1157.97 1487.40 1276.66 
1415 807.44 1481.14 1276.66 
1416 1086.21 1489.88 1276.66 
1417 1013.90 1480.15 1276.66 
1418 975.77 1508.32 1276.66 
1419 917.00 1514.64 1276.66 
1420 1133.07 1507.42 1276.66 
1421 916.68 1516.82 1276.66 
1422 1032.82 1456.88 1276.66 
1423 981.94 1473.33 1276.66 
1424 1005.21 1492.19 1276.66 
1425 1042.12 1566.28 1276.66 
1426 1109.70 1480.80 1276.66 
1427 862.39 1487.77 1276.66 
1428 1084.78 1455.80 1276.66 
1429 984.13 1462.08 1276.66 
1430 1004.69 1458.64 1276.66 
1431 1035.74 1459.00 1276.66 
1432 1104.30 1448.00 1276.66 
1433 1194.25 1444.48 1276.66 
1434 1008.88 1430.78 1276.66 
1435 1051.54 1419.97 1276.66 
1436 965.01 1430.96 1276.66 
1437 1090.62 1439.08 1276.66 
1438 988.58 1440.05 1276.66 
1439 1005.37 1439.51 1276.66 
1440 889.75 1446.66 1276.66 
1441 882.86 1456.47 1276.66 
1442 860.08 1447.92 1276.66 
1443 886.41 1458.96 1276.66 
1444 938.82 1455.85 1276.66 
1445 1164.97 1445.81 1276.66 
1446 907.88 1459.02 1276.66 
1447 1097.73 1458.99 1276.66 
1448 1029.05 1468.11 1276.66 
1449 1044.39 1467.25 1276.66 
1450 1028.85 1452.78 1276.66 
1451 965.60 1455.92 1276.66 
1452 980.40 1452.80 1276.66 
1453 1090.87 1446.49 1276.66 
1454 943.92 1448.36 1276.66 
1455 972.24 1450.24 1276.66 
1456 1032.96 1452.14 1276.66 
1457 1284.68 1445.86 1276.66 
1458 963.77 1442.68 1284.68 
1459 1007.18 1439.52 1284.68 
1460 1384.09 1452.02 1284.68 
1461 1110.70 1457.78 1384.09 
1462 1080.68 1454.62 1384.09 
1463 1080.83 1451.44 1384.09 
1464 1181.40 1463.93 1384.09 
1465 1121.52 1457.72 1384.09 
1466 1168.96 1459.55 1384.09 
1467 1214.29 1450.80 1384.09 
1468 760.59 1461.16 1384.09 
1469 1117.91 1452.51 1384.09 
1470 988.62 1458.73 1384.09 
1471 1096.47 1462.20 1384.09 
1472 899.92 1474.36 1384.09 
1473 796.99 1463.07 1384.09 
1474 1034.94 1448.32 1384.09 
1475 1176.95 1466.79 1384.09 
1476 1029.08 1456.82 1384.09 
1477 872.93 1466.21 1384.09 
1478 811.47 1472.44 1384.09 
1479 1171.43 1466.23 1384.09 
1480 901.80 1472.48 1384.09 
1481 947.17 1459.92 1384.09 
1482 1039.00 1463.78 1384.09 
1483 979.64 1460.66 1384.09 
1484 1113.60 1457.47 1384.09 
1485 1195.07 1459.29 1384.09 
1486 1262.93 1447.50 1384.09 
1487 1104.77 1455.60 1384.09 
1488 1240.34 1460.58 1384.09 
1489 1238.13 1458.72 1384.09 
1490 889.30 1466.34 1384.09 
1491 1072.48 1459.96 1384.09 
1492 828.78 1465.60 1384.09 
1493 995.86 1545.97 1384.09 
1494 1239.59 1459.26 1384.09 
1495 1263.05 1471.80 1384.09 
1496 994.46 1468.51 1384.09 
1497 1154.94 1548.34 1384.09 
1498 1076.96 1552.65 1384.09 
1499 1236.20 1562.61 1384.09 
1500 885.87 1562.01 1384.09 
1501 926.17 1573.32 1384.09 
1502 1013.48 1489.12 1384.09 
1503 913.63 1493.53 1384.09 
1504 1152.66 1494.07 1384.09 
1505 986.68 1489.01 1384.09 
1506 1014.25 1479.71 1384.09 
1507 919.10 1472.17 1384.09 
1508 897.49 1474.02 1384.09 
1509 1062.01 1479.11 1384.09 
1510 1074.85 1486.64 1384.09 
1511 1187.92 1563.30 1384.09 
1512 1007.68 1565.72 1384.09 
1513 971.93 1569.59 1384.09 
1514 883.24 1569.59 1384.09 
1515 1065.21 1559.00 1384.09 
1516 1119.15 1556.44 1384.09 
1517 1108.24 1548.35 1384.09 
1518 1249.32 1555.85 1384.09 
1519 1146.56 1551.40 1384.09 
1520 919.87 1543.83 1384.09 
1521 1265.25 1543.23 1384.09 
1522 1103.90 1529.53 1384.09 
1523 1061.23 1540.13 1384.09 
1524 1084.99 1467.26 1384.09 
1525 1030.87 1527.96 1384.09 
1526 933.63 1445.07 1384.09 
1527 987.42 1453.18 1384.09 
1528 1007.77 1428.62 1384.09 
1529 995.85 1441.64 1384.09 
1530 878.97 1451.74 1384.09 
1531 1056.87 1452.72 1384.09 
1532 987.81 1534.10 1384.09 
1533 1266.98 1541.07 1384.09 
1534 1354.30 1549.48 1384.09 
1535 1214.36 1540.98 1384.09 
1536 990.40 1528.70 1384.09 
1537 1232.99 1522.53 1384.09 
1538 1100.91 1521.75 1384.09 
1539 988.44 1523.89 1384.09 
1540 1260.79 1520.71 1384.09 
1541 1062.72 1525.38 1384.09 
1542 1037.95 1528.11 1384.09 
1543 1033.49 1535.78 1384.09 
1544 1220.20 1543.45 1384.09 
1545 1022.87 1540.26 1384.09 
1546 1017.31 1540.87 1384.09 
1547 1064.74 1536.52 1384.09 
1548 1181.90 1537.35 1384.09 
1549 1139.47 1534.28 1384.09 
1550 1179.01 1530.76 1384.09 
1551 1009.87 1520.52 1384.09 
1552 1032.64 1529.61 1384.09 
1553 1054.42 1520.24 1384.09 
1554 1073.22 1521.19 1384.09 
1555 1163.61 1507.34 1384.09 
1556 1063.55 1504.02 1384.09 
1557 908.73 1499.35 1384.09 
1558 1066.96 1488.63 1384.09 
1559 1083.73 1468.22 1384.09 
1560 1041.28 1464.95 1384.09 
1561 971.30 1455.52 1384.09 
1562 1037.40 1399.27 1384.09 
1563 1137.71 1392.77 1384.09 
1564 1022.97 1412.18 1384.09 
1565 1180.88 1407.08 1384.09 
1566 1276.72 1417.72 1384.09 
1567 1029.23 1429.08 1384.09 
1568 957.51 1456.77 1384.09 
1569 1105.42 1479.97 1384.09 
1570 953.57 1485.17 1384.09 
1571 1138.06 1491.86 1384.09 
1572 1164.95 1499.52 1384.09 
1573 980.29 1527.96 1384.09 
1574 985.62 1539.92 1384.09 
1575 1132.13 1541.73 1384.09 
1576 1099.87 1528.76 1384.09 
1577 1050.73 1528.17 1384.09 
1578 1110.48 1519.83 1384.09 
1579 1091.70 1520.44 1384.09 
1580 1133.84 1534.13 1384.09 
1581 1122.86 1531.05 1384.09 
1582 1085.34 1532.35 1384.09 
1583 1292.77 1539.16 1384.09 
1584 1098.44 1543.92 1384.09 
1585 1061.11 1540.25 1384.09 
1586 1077.43 1544.01 1384.09 
1587 1115.72 1544.06 1384.09 
1588 1157.16 1555.02 1384.09 
1589 1174.53 1561.67 1384.09 
1590 1124.24 1569.65 1384.09 
1591 1225.85 1569.03 1384.09 
1592 1023.29 1562.48 1384.09 
1593 1112.16 1564.90 1384.09 
1594 955.48 1556.50 1384.09 
1595 1065.74 1550.53 1384.09 
1596 1046.09 1541.47 1384.09 
1597 1189.16 1542.74 1384.09 
1598 1104.60 1537.32 1384.09 
1599 1140.48 1541.75 1384.09 
1600 1029.86 1534.84 1384.09 
1601 1063.60 1537.84 1384.09 
1602 1304.84 1541.06 1384.09 
1603 1107.71 1534.52 1384.09 
1604 1014.69 1536.99 1384.09 
1605 1054.34 1556.60 1384.09 
1606 1045.27 1550.32 1384.09 
1607 1191.93 1550.19 1384.09 
1608 1142.12 1548.37 1384.09 
1609 930.60 1555.08 1384.09 
1610 1230.57 1559.83 1384.09 
1611 870.58 1555.85 1384.09 
1612 1210.12 1565.41 1384.09 
1613 1139.90 1545.70 1384.09 
1614 1097.82 1535.93 1384.09 
1615 985.43 1539.11 1384.09 
1616 990.41 1534.56 1384.09 
1617 1273.75 1545.95 1384.09 
1618 1155.78 1540.89 1384.09 
1619 863.77 1539.78 1384.09 
1620 1043.62 1524.86 1384.09 
1621 1164.82 1531.46 1384.09 
1622 897.11 1527.99 1384.09 
1623 1080.92 1529.84 1384.09 
1624 988.74 1522.75 1384.09 
1625 1004.91 1526.02 1384.09 
1626 1005.56 1514.88 1384.09 
1627 1074.14 1526.17 1384.09 
1628 1174.79 1538.05 1384.09 
1629 1083.35 1534.99 1384.09 
1630 1111.67 1524.95 1384.09 
1631 1154.68 1527.52 1384.09 
1632 1252.45 1521.13 1384.09 
1633 1210.27 1519.30 1384.09 
1634 1107.95 1517.60 1384.09 
1635 1226.41 1546.01 1384.09 
1636 1137.24 1537.52 1384.09 
1637 1153.20 1535.96 1384.09 
1638 1035.18 1546.30 1384.09 
1639 925.88 1547.50 1384.09 
1640 921.52 1523.72 1384.09 
1641 1233.34 1532.86 1384.09 
1642 1143.79 1522.81 1384.09 
1643 1001.62 1531.02 1384.09 
1644 1091.24 1532.22 1384.09 
1645 1221.79 1533.22 1384.09 
1646 1036.17 1534.43 1384.09 
1647 1208.33 1547.41 1384.09 
1648 991.79 1526.78 1384.09 
1649 1130.64 1532.38 1384.09 
1650 1035.03 1529.50 1384.09 
1651 1212.55 1513.87 1384.09 
1652 1029.19 1520.25 1384.09 
1653 868.91 1524.00 1384.09 
1654 1095.21 1514.51 1384.09 
1655 1127.59 1508.53 1384.09 
1656 1123.56 1521.07 1384.09 
1657 953.03 1509.85 1384.09 
1658 1097.81 1536.75 1384.09 
1659 1144.22 1543.06 1384.09 
1660 1004.34 1536.68 1384.09 
1661 997.67 1534.34 1384.09 
1662 1170.85 1531.74 1384.09 
1663 1209.80 1548.02 1384.09 
1664 870.62 1541.02 1384.09 
1665 1060.93 1541.69 1384.09 
1666 1051.50 1546.55 1384.09 
1667 951.64 1551.64 1384.09 
1668 997.05 1561.68 1384.09 
1669 1057.55 1558.32 1384.09 
1670 1151.17 1557.77 1384.09 
1671 1033.07 1563.96 1384.09 
1672 1039.30 1563.60 1384.09 
1673 1324.22 1566.73 1384.09 
1674 1078.65 1581.23 1384.09 
1675 1257.56 1486.29 1384.09 
1676 1188.96 1480.60 1384.09 
1677 1054.10 1570.52 1384.09 
1678 1137.35 1482.65 1384.09 
1679 1148.48 1484.90 1384.09 
1680 1146.20 1481.78 1384.09 
1681 1186.42 1477.80 1384.09 
1682 1022.16 1479.22 1384.09 
1683 1214.95 1482.08 1384.09 
1684 936.32 1508.02 1384.09 
1685 949.58 1486.10 1384.09 
1686 1222.13 1486.78 1384.09 
1687 729.59 1483.09 1384.09 
1688 1106.95 1489.70 1384.09 
1689 1131.30 1496.89 1384.09 
1690 952.17 1483.73 1384.09 
1691 1006.09 1487.48 1384.09 
1692 1304.77 1490.68 1384.09 
1693 1127.60 1476.95 1384.09 
1694 1300.97 1490.65 1384.09 
1695 1050.83 1488.16 1384.09 
1696 887.91 1476.37 1384.09 
1697 1166.81 1473.90 1384.09 
1698 1135.26 1484.46 1384.09 
1699 1031.87 1489.66 1384.09 
1700 950.72 1486.62 1384.09 
1701 1003.37 1483.74 1384.09 
1702 988.52 1486.59 1384.09 
1703 971.19 1484.79 1384.09 
1704 1347.00 1468.70 1384.09 
1705 1094.11 1471.58 1384.09 
1706 1172.81 1485.23 1384.09 
1707 1188.49 1577.96 1384.09 
1708 996.64 1564.99 1384.09 
1709 1030.50 1486.30 1384.09 
1710 1085.71 1488.50 1384.09 
1711 1032.32 1481.33 1384.09 
1712 1020.91 1490.00 1384.09 
1713 1038.70 1499.95 1384.09 
1714 1168.72 1569.89 1384.09 
1715 1097.04 1485.74 1384.09 
1716 1185.85 1499.00 1384.09 
1717 1118.87 1506.60 1384.09 
1718 1168.17 1497.93 1384.09 
1719 1035.21 1506.07 1384.09 
1720 1171.31 1573.99 1384.09 
1721 964.89 1483.63 1384.09 
1722 1065.05 1496.72 1384.09 
1723 957.18 1579.68 1384.09 
1724 1212.43 1577.15 1384.09 
1725 1112.20 1574.09 1384.09 
1726 1105.64 1494.91 1384.09 
1727 1166.46 1583.52 1384.09 
1728 1087.08 1577.30 1384.09 
1729 1197.14 1493.66 1384.09 
1730 1206.87 1500.55 1384.09 
1731 997.32 1501.13 1384.09 
1732 1100.30 1500.47 1384.09 
1733 1382.62 1496.06 1384.09 
1734 1125.46 1503.53 1384.09 
1735 1125.73 1507.96 1384.09 
1736 1107.94 1516.99 1384.09 
1737 1085.01 1522.66 1384.09 
1738 1201.91 1505.46 1384.09 
1739 1225.87 1511.00 1384.09 
1740 974.95 1524.83 1384.09 
1741 1102.33 1521.00 1384.09 
1742 1048.31 1526.63 1384.09 
1743 1080.86 1506.81 1384.09 
1744 1176.20 1515.00 1384.09 
1745 1236.01 1509.90 1384.09 
1746 955.31 1508.63 1384.09 
1747 1114.35 1507.36 1384.09 
1748 946.95 1503.58 1384.09 
1749 1207.62 1509.59 1384.09 
1750 1188.43 1497.60 1384.09 
1751 1041.08 1511.52 1384.09 
1752 1113.63 1510.18 1384.09 
1753 1170.65 1504.33 1384.09 
1754 996.60 1509.38 1384.09 
1755 1072.65 1513.80 1384.09 
1756 1137.85 1508.33 1384.09 
1757 1037.42 1505.97 1384.09 
1758 1094.50 1493.33 1384.09 
1759 1114.33 1506.19 1384.09 
1760 1142.51 1502.18 1384.09 
1761 926.20 1491.10 1384.09 
1762 867.32 1498.79 1384.09 
1763 1018.54 1512.75 1384.09 
1764 1168.04 1501.64 1384.09 
1765 1173.19 1507.49 1384.09 
1766 1070.45 1514.58 1384.09 
1767 1197.91 1507.08 1384.09 
1768 1134.79 1494.60 1384.09 
1769 1049.33 1498.69 1384.09 
1770 1166.34 1498.69 1384.09 
1771 1055.74 1504.69 1384.09 
1772 1077.04 1498.51 1384.09 
1773 1054.30 1494.82 1384.09 
1774 1011.49 1499.63 1384.09 
1775 977.43 1491.62 1384.09 
1776 1213.12 1490.05 1384.09 
1777 1013.94 1492.94 1384.09 
1778 1240.86 1499.77 1384.09 
1779 1205.03 1500.56 1384.09 
1780 1194.04 1494.38 1384.09 
1781 1080.35 1497.06 1384.09 
1782 1220.74 1442.03 1384.09 
1783 1242.35 1422.12 1384.09 
1784 1282.71 1423.49 1384.09 
1785 1074.41 1420.05 1384.09 
1786 1075.69 1409.76 1384.09 
1787 1184.45 1415.49 1384.09 
1788 1178.21 1413.59 1384.09 
1789 1131.23 1404.68 1384.09 
1790 973.24 1413.15 1384.09 
1791 1209.84 1416.48 1384.09 
1792 1298.07 1418.44 1384.09 
1793 1009.23 1428.10 1384.09 
1794 1178.18 1505.09 1384.09 
1795 1237.43 1513.48 1384.09 
1796 1220.01 1506.90 1384.09 
1797 1129.66 1520.07 1384.09 
1798 1057.30 1509.20 1384.09 
1799 1289.78 1527.13 1384.09 
1800 1360.88 1513.38 1384.09 
1801 1278.39 1506.80 1384.09 
1802 964.18 1452.44 1384.09 
1803 1143.42 1520.41 1384.09 
1804 1124.23 1515.99 1384.09 
1805 1068.88 1521.11 1384.09 
1806 1087.18 1530.31 1384.09 
1807 1147.13 1512.79 1384.09 
1808 855.26 1512.65 1384.09 
1809 1211.53 1513.94 1384.09 
1810 1267.54 1513.54 1384.09 
1811 1004.87 1547.45 1384.09 
1812 888.36 1524.37 1384.09 
1813 849.54 1523.66 1384.09 
1814 922.55 1520.51 1384.09 
1815 933.63 1504.77 1384.09 
1816 1154.05 1522.21 1384.09 
1817 1141.38 1514.14 1384.09 
1818 973.02 1521.51 1384.09 
1819 1185.00 1527.15 1384.09 
1820 1232.65 1512.37 1384.09 
1821 1121.99 1507.91 1384.09 
1822 1158.64 1495.41 1384.09 
1823 1029.32 1491.05 1384.09 
1824 1102.63 1488.55 1384.09 
1825 995.62 1486.99 1384.09 
1826 1107.82 1520.34 1384.09 
1827 1224.07 1495.33 1384.09 
1828 1072.24 1610.65 1384.09 
1829 1297.66 1533.16 1384.09 
1830 1196.38 1511.67 1384.09 
1831 1316.16 1539.80 1384.09 
1832 922.39 1549.66 1384.09 
1833 1004.94 1554.97 1384.09 
1834 1006.09 1556.60 1384.09 
1835 988.34 1548.43 1384.09 
1836 1019.29 1543.45 1384.09 
1837 1091.88 1540.54 1384.09 
1838 1283.79 1520.69 1384.09 
1839 1100.94 1521.06 1384.09 
1840 901.33 1506.91 1384.09 
1841 1056.80 1499.50 1384.09 
1842 1012.69 1518.95 1384.09 
1843 1118.74 1509.72 1384.09 
1844 1126.32 1532.24 1384.09 
1845 1008.89 1517.91 1384.09 
1846 1129.77 1510.41 1384.09 
1847 1258.88 1516.60 1384.09 
1848 956.71 1504.94 1384.09 
1849 1208.14 1524.34 1384.09 
1850 1081.56 1533.58 1384.09 
1851 1065.31 1532.39 1384.09 
1852 1201.84 1543.76 1384.09 
1853 999.55 1536.48 1384.09 
1854 1196.09 1530.08 1384.09 
1855 1112.17 1552.37 1384.09 
1856 1070.72 1549.64 1384.09 
1857 1213.33 1551.52 1384.09 
1858 1041.46 1552.32 1384.09 
1859 1007.74 1545.87 1384.09 
1860 1407.93 1613.23 1384.09 
1861 1127.10 1556.67 1407.93 
1862 1025.72 1606.87 1407.93 
1863 1207.32 1628.14 1407.93 
1864 1088.00 1620.68 1407.93 
1865 1069.71 1620.79 1407.93 
1866 1181.92 1613.72 1407.93 
1867 1072.43 1628.09 1407.93 
1868 1113.44 1622.43 1407.93 
1869 1095.44 1614.28 1407.93 
1870 949.43 1604.69 1407.93 
1871 1150.21 1607.24 1407.93 
1872 1013.45 1618.84 1407.93 
1873 1142.18 1623.25 1407.93 
1874 983.43 1609.39 1407.93 
1875 1170.26 1608.76 1407.93 
1876 1092.28 1605.11 1407.93 
1877 1179.11 1574.75 1407.93 
1878 1142.13 1577.12 1407.93 
1879 1009.34 1574.51 1407.93 
1880 1197.00 1573.82 1407.93 
1881 1173.95 1556.44 1407.93 
1882 1027.72 1545.79 1407.93 
1883 1328.85 1553.56 1407.93 
1884 1207.92 1545.28 1407.93 
1885 1362.29 1492.97 1407.93 
1886 1236.32 1467.57 1407.93 
1887 1066.31 1506.84 1407.93 
1888 1059.33 1506.62 1407.93 
1889 1114.06 1519.67 1407.93 
1890 1209.22 1561.41 1407.93 
1891 1112.23 1592.98 1407.93 
1892 1169.08 1593.89 1407.93 
1893 1038.34 1600.71 1407.93 
1894 1059.98 1604.16 1407.93 
1895 1195.20 1607.30 1407.93 
1896 1082.84 1606.31 1407.93 
1897 1230.76 1607.99 1407.93 
1898 1272.32 1617.30 1407.93 
1899 1202.20 1585.39 1407.93 
1900 1075.09 1607.55 1407.93 
1901 1228.47 1614.68 1407.93 
1902 1050.52 1612.29 1407.93 
1903 1037.68 1609.10 1407.93 
1904 1222.42 1612.24 1407.93 
1905 1181.21 1604.72 1407.93 
1906 1102.69 1614.86 1407.93 
1907 1203.72 1615.45 1407.93 
1908 1003.78 1621.81 1407.93 
1909 1157.49 1621.79 1407.93 
1910 1125.24 1620.44 1407.93 
1911 1241.81 1636.30 1407.93 
1912 1210.18 1635.77 1407.93 
1913 1142.34 1636.96 1407.93 
1914 1095.92 1646.24 1407.93 
1915 1190.12 1639.27 1407.93 
1916 1130.51 1628.43 1407.93 
1917 1112.03 1637.08 1407.93 
1918 999.56 1638.53 1407.93 
1919 1151.16 1628.61 1407.93 
1920 1126.81 1636.12 1407.93 
1921 1055.88 1650.05 1407.93 
1922 1206.84 1647.11 1407.93 
1923 1004.37 1643.79 1407.93 
1924 1326.33 1643.71 1407.93 
1925 1186.10 1630.56 1407.93 
1926 1112.91 1633.11 1407.93 
1927 1029.09 1643.88 1407.93 
1928 1189.17 1628.55 1407.93 
1929 1251.45 1656.91 1407.93 
1930 1061.01 1642.22 1407.93 
1931 926.40 1641.00 1407.93 
1932 1085.71 1648.68 1407.93 
1933 1126.71 1658.70 1407.93 
1934 1068.59 1658.68 1407.93 
1935 917.23 1651.69 1407.93 
1936 987.20 1654.68 1407.93 
1937 1142.83 1668.93 1407.93 
1938 1347.15 1657.86 1407.93 
1939 1080.76 1663.20 1407.93 
1940 1023.74 1655.09 1407.93 
1941 1094.61 1641.89 1407.93 
1942 1172.94 1660.12 1407.93 
1943 1049.84 1650.78 1407.93 
1944 1098.82 1660.33 1407.93 
1945 1200.51 1649.82 1407.93 
1946 1019.74 1646.91 1407.93 
1947 1168.79 1661.91 1407.93 
1948 1173.19 1659.44 1407.93 
1949 1150.89 1668.29 1407.93 
1950 1050.82 1664.09 1407.93 
1951 1150.19 1670.77 1407.93 
1952 1050.89 1659.55 1407.93 
1953 1047.89 1665.32 1407.93 
1954 1066.92 1641.12 1407.93 
1955 1064.40 1661.49 1407.93 
1956 1069.62 1648.11 1407.93 
1957 1187.04 1650.65 1407.93 
1958 1229.61 1652.55 1407.93 
1959 1368.11 1629.07 1407.93 
1960 903.55 1632.93 1407.93 
1961 1257.92 1650.79 1407.93 
1962 1235.82 1647.68 1407.93 
1963 1292.28 1650.87 1407.93 
1964 1243.61 1647.55 1407.93 
1965 1175.09 1653.93 1407.93 
1966 1081.77 1633.79 1407.93 
1967 1101.53 1664.75 1407.93 
1968 1178.08 1659.17 1407.93 
1969 988.60 1657.99 1407.93 
1970 999.79 1672.64 1407.93 
1971 1008.94 1672.72 1407.93 
1972 1245.16 1682.65 1407.93 
1973 1124.40 1672.63 1407.93 
1974 1116.96 1672.08 1407.93 
1975 1130.91 1668.06 1407.93 
1976 1309.96 1664.97 1407.93 
1977 1150.03 1661.18 1407.93 
1978 1131.45 1663.73 1407.93 
1979 1234.42 1664.98 1407.93 
1980 1135.12 1657.17 1407.93 
1981 1016.90 1667.20 1407.93 
1982 1044.72 1671.08 1407.93 
1983 1077.45 1670.85 1407.93 
1984 1004.41 1672.44 1407.93 
1985 1150.63 1663.31 1407.93 
1986 1220.94 1672.10 1407.93 
1987 1087.48 1681.85 1407.93 
1988 1149.00 1673.18 1407.93 
1989 1217.20 1669.41 1407.93 
1990 991.94 1662.29 1407.93 
1991 1150.86 1665.43 1407.93 
1992 998.41 1669.83 1407.93 
1993 1171.86 1677.12 1407.93 
1994 1104.92 1673.13 1407.93 
1995 974.24 1673.94 1407.93 
1996 1170.48 1677.12 1407.93 
1997 1096.17 1667.30 1407.93 
1998 1219.49 1677.92 1407.93 
1999 1022.89 1681.24 1407.93 
2000 1122.99 1680.83 1407.93 
2001 1130.02 1681.63 1407.93 
2002 1186.73 1674.69 1407.93 
2003 1004.03 1676.60 1407.93 
2004 1034.09 1675.22 1407.93 
2005 1271.69 1663.84 1407.93 
2006 1135.71 1663.23 1407.93 
2007 1107.80 1663.52 1407.93 
2008 1185.47 1644.66 1407.93 
2009 1118.50 1664.20 1407.93 
2010 1029.50 1654.08 1407.93 
2011 1166.06 1654.90 1407.93 
2012 886.90 1665.07 1407.93 
2013 1006.37 1665.16 1407.93 
2014 1125.27 1662.38 1407.93 
2015 1334.26 1641.81 1407.93 
2016 1224.97 1653.97 1407.93 
2017 1049.39 1652.05 1407.93 
2018 1199.44 1663.88 1407.93 
2019 1347.72 1657.28 1407.93 
2020 1278.89 1665.03 1407.93 
2021 1237.62 1659.00 1407.93 
2022 1219.52 1662.63 1407.93 
2023 1333.17 1654.82 1407.93 
2024 941.08 1673.54 1407.93 
2025 1082.37 1680.41 1407.93 
2026 1130.55 1677.42 1407.93 
2027 1126.69 1669.28 1407.93 
2028 1126.27 1670.27 1407.93 
2029 1133.60 1673.44 1407.93 
2030 1126.25 1686.39 1407.93 
2031 1221.11 1688.05 1407.93 
2032 1069.08 1691.14 1407.93 
2033 1134.70 1686.11 1407.93 
2034 1150.54 1686.08 1407.93 
2035 1181.08 1680.55 1407.93 
2036 1188.38 1674.86 1407.93 
2037 1049.51 1697.52 1407.93 
2038 1194.09 1691.86 1407.93 
2039 1317.05 1693.68 1407.93 
2040 1027.52 1692.27 1407.93 
2041 1194.95 1697.40 1407.93 
2042 1227.37 1687.29 1407.93 
2043 1114.85 1677.26 1407.93 
2044 1166.41 1683.51 1407.93 
2045 1178.16 1682.90 1407.93 
2046 1147.28 1683.60 1407.93 
2047 1264.70 1687.93 1407.93 
2048 1371.43 1697.35 1407.93 
2049 1307.37 1690.31 1407.93 
2050 1087.20 1694.21 1407.93 
2051 1021.50 1687.43 1407.93 
2052 1293.86 1686.25 1407.93 
2053 1157.57 1679.31 1407.93 
2054 1263.97 1691.76 1407.93 
2055 1102.95 1689.39 1407.93 
2056 1278.58 1678.79 1407.93 
2057 1240.53 1680.06 1407.93 
2058 1196.18 1671.99 1407.93 
2059 1156.40 1684.88 1407.93 
2060 1229.99 1672.94 1407.93 
2061 1027.57 1680.17 1407.93 
2062 1215.95 1693.29 1407.93 
2063 1221.62 1691.24 1407.93 
2064 1319.27 1686.08 1407.93 
2065 1140.34 1676.23 1407.93 
2066 1042.30 1671.77 1407.93 
2067 1273.69 1671.00 1407.93 
2068 1087.47 1678.04 1407.93 
2069 1031.86 1671.84 1407.93 
2070 1072.20 1658.69 1407.93 
2071 1314.80 1676.42 1407.93 
2072 1179.98 1678.14 1407.93 
2073 1230.91 1685.10 1407.93 
2074 1211.30 1687.68 1407.93 
2075 1331.36 1683.12 1407.93 
2076 1080.66 1681.23 1407.93 
2077 1007.53 1681.15 1407.93 
2078 1134.64 1681.76 1407.93 
2079 1346.11 1699.19 1407.93 
2080 1269.39 1692.24 1407.93 
2081 1097.50 1691.45 1407.93 
2082 1247.15 1692.61 1407.93 
2083 1241.24 1690.79 1407.93 
2084 1148.12 1701.60 1407.93 
2085 1030.97 1698.54 1407.93 
2086 1121.69 1701.48 1407.93 
2087 1017.68 1707.52 1407.93 
2088 1159.56 1704.70 1407.93 
2089 1088.96 1707.80 1407.93 
2090 1066.20 1707.93 1407.93 
2091 1122.20 1714.77 1407.93 
2092 1312.62 1712.63 1407.93 
2093 1214.22 1700.59 1407.93 
2094 1277.55 1693.75 1407.93 
2095 1286.03 1680.94 1407.93 
2096 1300.06 1687.56 1407.93 
2097 1160.85 1698.78 1407.93 
2098 1239.67 1702.72 1407.93 
2099 1203.61 1712.16 1407.93 
2100 1364.53 1705.80 1407.93 
2101 1147.25 1711.52 1407.93 
2102 1049.30 1705.01 1407.93 
2103 942.93 1693.90 1407.93 
2104 1053.15 1693.81 1407.93 
2105 1105.21 1697.98 1407.93 
2106 1029.59 1709.65 1407.93 
2107 1408.34 1699.08 1407.93 
2108 1074.53 1697.65 1408.34 
2109 1067.81 1697.05 1408.34 
2110 1057.60 1672.72 1408.34 
2111 1216.35 1685.27 1408.34 
2112 1231.78 1673.39 1408.34 
2113 1338.57 1681.26 1408.34 
2114 1368.71 1674.35 1408.34 
2115 1244.52 1683.88 1408.34 
2116 1284.86 1661.48 1408.34 
2117 1261.13 1675.39 1408.34 
2118 1311.31 1658.15 1408.34 
2119 1268.75 1668.78 1408.34 
2120 1110.66 1664.71 1408.34 
2121 1250.51 1671.24 1408.34 
2122 1250.99 1673.53 1408.34 
2123 1279.80 1661.73 1408.34 
2124 1115.72 1656.07 1408.34 
2125 995.31 1664.28 1408.34 
2126 1141.74 1667.35 1408.34 
2127 1268.52 1674.62 1408.34 
2128 1268.82 1669.08 1408.34 
2129 1145.39 1669.38 1408.34 
2130 1172.33 1683.23 1408.34 
2131 1165.14 1677.13 1408.34 
2132 1147.72 1697.10 1408.34 
2133 1208.27 1693.81 1408.34 
2134 1276.92 1686.46 1408.34 
2135 1120.44 1691.32 1408.34 
2136 1357.35 1685.12 1408.34 
2137 1200.97 1707.08 1408.34 
2138 1234.68 1691.30 1408.34 
2139 1154.15 1705.19 1408.34 
2140 1228.73 1702.21 1408.34 
2141 1143.43 1700.92 1408.34 
2142 904.89 1692.71 1408.34 
2143 1124.84 1690.82 1408.34 
2144 1246.55 1687.10 1408.34 
2145 1270.34 1682.02 1408.34 
2146 1050.25 1678.26 1408.34 
2147 1103.18 1681.39 1408.34 
2148 1257.72 1671.25 1408.34 
2149 1219.74 1683.27 1408.34 
2150 1321.34 1673.26 1408.34 
2151 1284.61 1680.20 1408.34 
2152 1356.41 1677.59 1408.34 
2153 1222.88 1672.35 1408.34 
2154 1123.26 1676.24 1408.34 
2155 1044.49 1679.55 1408.34 
2156 1192.81 1683.18 1408.34 
2157 1023.05 1676.33 1408.34 
2158 1183.19 1686.96 1408.34 
2159 1056.72 1654.45 1408.34 
2160 1011.10 1660.78 1408.34 
2161 1199.01 1694.41 1408.34 
2162 1013.26 1697.56 1408.34 
2163 1128.40 1684.47 1408.34 
2164 1256.46 1683.25 1408.34 
2165 1193.79 1679.51 1408.34 
2166 909.94 1676.32 1408.34 
2167 1169.89 1678.78 1408.34 
2168 1069.85 1671.90 1408.34 
2169 1043.81 1669.97 1408.34 
2170 1120.40 1665.57 1408.34 
2171 1282.60 1677.44 1408.34 
2172 1018.81 1677.51 1408.34 
2173 1269.39 1680.48 1408.34 
2174 1194.96 1642.82 1408.34 
2175 1268.87 1688.60 1408.34 
2176 1119.88 1647.18 1408.34 
2177 1006.90 1672.29 1408.34 
2178 1148.05 1684.40 1408.34 
2179 1024.24 1647.46 1408.34 
2180 1222.05 1686.18 1408.34 
2181 1130.42 1639.62 1408.34 
2182 1178.93 1643.50 1408.34 
2183 1067.37 1677.29 1408.34 
2184 1028.28 1670.30 1408.34 
2185 1174.58 1661.59 1408.34 
2186 1038.45 1658.44 1408.34 
2187 1031.76 1655.49 1408.34 
2188 962.48 1666.90 1408.34 
2189 1251.85 1665.68 1408.34 
2190 1132.40 1659.40 1408.34 
2191 1164.36 1649.22 1408.34 
2192 1112.76 1649.66 1408.34 
2193 1177.84 1659.56 1408.34 
2194 944.05 1654.67 1408.34 
2195 1197.57 1646.53 1408.34 
2196 1266.10 1567.82 1408.34 
2197 1235.04 1566.00 1408.34 
2198 1085.13 1652.66 1408.34 
2199 1216.41 1569.23 1408.34 
2200 1112.51 1569.75 1408.34 
2201 1124.22 1564.27 1408.34 
2202 1324.40 1585.87 1408.34 
2203 1302.42 1580.92 1408.34 
2204 1123.57 1585.68 1408.34 
2205 1085.48 1582.64 1408.34 
2206 1147.54 1582.86 1408.34 
2207 981.39 1592.33 1408.34 
2208 1211.66 1582.41 1408.34 
2209 1146.29 1579.31 1408.34 
2210 972.76 1568.01 1408.34 
2211 1039.88 1573.06 1408.34 
2212 1349.00 1567.73 1408.34 
2213 1076.08 1561.38 1408.34 
2214 1130.13 1608.52 1408.34 
2215 1206.59 1577.36 1408.34 
2216 1290.63 1577.48 1408.34 
2217 1266.74 1573.04 1408.34 
2218 1096.84 1574.23 1408.34 
2219 1216.76 1567.88 1408.34 
2220 1190.68 1566.28 1408.34 
2221 1197.69 1557.30 1408.34 
2222 1312.39 1562.70 1408.34 
2223 1204.05 1546.86 1408.34 
2224 1161.09 1538.39 1408.34 
2225 1230.13 1562.73 1408.34 
2226 1190.48 1548.22 1408.34 
2227 1036.32 1646.41 1408.34 
2228 1381.11 1569.95 1408.34 
2229 1170.17 1649.80 1408.34 
2230 1207.51 1646.13 1408.34 
2231 1201.20 1641.76 1408.34 
2232 1282.25 1639.16 1408.34 
2233 1001.46 1640.82 1408.34 
2234 1177.49 1645.46 1408.34 
2235 1093.85 1636.98 1408.34 
2236 1179.40 1642.43 1408.34 
2237 1213.15 1632.60 1408.34 
2238 1112.39 1642.31 1408.34 
2239 1125.20 1637.04 1408.34 
2240 1342.43 1636.38 1408.34 
2241 1031.60 1633.59 1408.34 
2242 1369.85 1643.18 1408.34 
2243 1232.06 1639.06 1408.34 
2244 1278.51 1632.73 1408.34 
2245 1426.19 1655.90 1408.34 
2246 951.23 1669.85 1426.19 
2247 1162.53 1617.06 1426.19 
2248 1122.04 1642.11 1426.19 
2249 918.28 1633.04 1426.19 
2250 1014.11 1625.38 1426.19 
2251 1268.24 1642.87 1426.19 
2252 1193.71 1653.41 1426.19 
2253 985.38 1617.47 1426.19 
2254 1273.73 1626.30 1426.19 
2255 1251.02 1626.32 1426.19 
2256 1274.46 1662.26 1426.19 
2257 1087.93 1603.02 1426.19 
2258 1234.09 1603.68 1426.19 
2259 1118.31 1598.10 1426.19 
2260 1017.80 1594.96 1426.19 
2261 1150.17 1601.19 1426.19 
2262 1161.16 1608.08 1426.19 
2263 1187.26 1608.09 1426.19 
2264 1257.31 1599.20 1426.19 
2265 1162.31 1599.17 1426.19 
2266 1083.41 1610.41 1426.19 
2267 1099.60 1541.13 1426.19 
2268 1255.50 1522.87 1426.19 
2269 1285.17 1529.85 1426.19 
2270 1153.49 1517.78 1426.19 
2271 1224.47 1523.30 1426.19 
2272 1073.85 1595.01 1426.19 
2273 1187.31 1599.36 1426.19 
2274 1246.44 1623.60 1426.19 
2275 1183.65 1594.96 1426.19 
2276 1089.20 1600.04 1426.19 
2277 1068.93 1512.50 1426.19 
2278 1164.43 1499.90 1426.19 
2279 936.99 1519.37 1426.19 
2280 1201.88 1543.47 1426.19 
2281 1134.23 1565.00 1426.19 
2282 1137.51 1603.78 1426.19 
2283 1262.53 1592.50 1426.19 
2284 1210.36 1593.17 1426.19 
2285 1048.56 1598.72 1426.19 
2286 1151.45 1545.33 1426.19 
2287 1172.15 1666.24 1426.19 
2288 1174.47 1544.63 1426.19 
2289 1244.73 1575.86 1426.19 
2290 1118.19 1541.39 1426.19 
2291 1100.23 1548.38 1426.19 
2292 1316.32 1592.34 1426.19 
2293 1067.49 1616.91 1426.19 
2294 1309.26 1620.69 1426.19 
2295 1057.93 1637.12 1426.19 
2296 1201.56 1644.80 1426.19 
2297 1101.16 1599.21 1426.19 
2298 1035.16 1584.77 1426.19 
2299 1201.99 1577.26 1426.19 
2300 1339.38 1635.54 1426.19 
2301 1125.89 1636.51 1426.19 
2302 1265.24 1600.10 1426.19 
2303 1143.25 1596.71 1426.19 
2304 1436.51 1593.14 1426.19 
2305 995.16 1558.87 1436.51 
2306 1106.50 1566.60 1436.51 
2307 1012.73 1604.14 1436.51 
2308 1341.13 1538.79 1436.51 
2309 1277.94 1597.88 1436.51 
2310 1180.82 1600.95 1436.51 
2311 1371.48 1609.08 1436.51 
2312 968.07 1615.27 1436.51 
2313 1253.93 1609.21 1436.51 
2314 1332.79 1599.70 1436.51 
2315 1197.38 1596.58 1436.51 
2316 1333.88 1600.34 1436.51 
2317 1252.65 1598.46 1436.51 
2318 1213.27 1593.98 1436.51 
2319 1132.16 1593.32 1436.51 
2320 1169.44 1600.46 1436.51 
2321 1121.29 1607.66 1436.51 
2322 949.90 1607.86 1436.51 
2323 1018.45 1613.89 1436.51 
2324 1299.43 1610.05 1436.51 
2325 1039.32 1621.97 1436.51 
2326 1095.45 1614.48 1436.51 
2327 1228.31 1621.40 1436.51 
2328 1196.61 1629.03 1436.51 
2329 1457.64 1615.20 1436.51 
2330 1324.70 1615.94 1457.64 
2331 1060.05 1613.42 1457.64 
2332 1258.45 1622.72 1457.64 
2333 1306.11 1627.47 1457.64 
2334 1120.55 1622.84 1457.64 
2335 1372.91 1627.23 1457.64 
2336 1337.50 1612.12 1457.64 
2337 1170.65 1599.97 1457.64 
2338 1190.99 1600.05 1457.64 
2339 1331.23 1584.95 1457.64 
2340 1299.60 1596.24 1457.64 
2341 1227.15 1598.80 1457.64 
2342 1189.84 1595.08 1457.64 
2343 1186.05 1597.36 1457.64 
2344 1057.43 1606.10 1457.64 
2345 1127.17 1595.20 1457.64 
2346 1205.71 1604.18 1457.64 
2347 1183.02 1600.50 1457.64 
2348 1204.68 1596.48 1457.64 
2349 1126.80 1597.48 1457.64 
2350 1183.78 1597.45 1457.64 
2351 1262.72 1590.78 1457.64 
2352 1254.15 1591.86 1457.64 
2353 1319.28 1587.34 1457.64 
2354 1186.36 1611.26 1457.64 
2355 1323.75 1604.79 1457.64 
2356 1180.08 1599.60 1457.64 
2357 1163.86 1603.48 1457.64 
2358 1198.52 1607.87 1457.64 
2359 1125.64 1624.11 1457.64 
2360 1080.87 1616.66 1457.64 
2361 1085.23 1616.76 1457.64 
2362 1071.18 1607.13 1457.64 
2363 1304.55 1624.93 1457.64 
2364 1270.26 1607.61 1457.64 
2365 1173.50 1601.56 1457.64 
2366 1168.22 1614.79 1457.64 
2367 1111.46 1619.09 1457.64 
2368 1207.63 1594.28 1457.64 
2369 1248.85 1591.40 1457.64 
2370 1251.54 1584.51 1457.64 
2371 1164.87 1596.65 1457.64 
2372 1106.24 1591.46 1457.64 
2373 1180.10 1606.81 1457.64 
2374 1202.04 1584.38 1457.64 
2375 1323.98 1594.54 1457.64 
2376 1254.00 1599.03 1457.64 
2377 1205.04 1599.60 1457.64 
2378 976.19 1598.29 1457.64 
2379 1235.89 1592.03 1457.64 
2380 1078.25 1588.51 1457.64 
2381 1157.72 1587.39 1457.64 
2382 1056.50 1593.62 1457.64 
2383 1232.67 1591.72 1457.64 
2384 1033.44 1601.11 1457.64 
2385 1316.07 1611.94 1457.64 
2386 1055.53 1613.61 1457.64 
2387 1166.38 1617.85 1457.64 
2388 1121.79 1617.23 1457.64 
2389 1108.08 1604.73 1457.64 
2390 1108.29 1600.91 1457.64 
2391 1173.91 1596.79 1457.64 
2392 1128.27 1599.84 1457.64 
2393 1359.68 1603.70 1457.64 
2394 1289.95 1598.61 1457.64 
2395 1310.17 1603.71 1457.64 
2396 1398.24 1589.89 1457.64 
2397 1186.25 1590.51 1457.64 
2398 1223.87 1594.76 1457.64 
2399 1196.96 1598.67 1457.64 
2400 1059.72 1591.19 1457.64 
2401 1283.52 1580.49 1457.64 
2402 1049.66 1608.84 1457.64 
2403 1128.12 1623.83 1457.64 
2404 1119.25 1616.88 1457.64 
2405 1389.21 1613.80 1457.64 
2406 1235.53 1608.70 1457.64 
2407 1109.34 1618.67 1457.64 
2408 960.08 1592.59 1457.64 
2409 1164.31 1610.54 1457.64 
2410 1267.21 1612.78 1457.64 
2411 1270.51 1615.88 1457.64 
2412 1146.93 1611.78 1457.64 
2413 969.68 1605.56 1457.64 
2414 1132.01 1575.70 1457.64 
2415 1098.40 1558.03 1457.64 
2416 1124.21 1546.09 1457.64 
2417 1087.01 1534.85 1457.64 
2418 1179.89 1541.11 1457.64 
2419 1220.66 1537.22 1457.64 
2420 1058.00 1525.35 1457.64 
2421 1405.90 1522.80 1457.64 
2422 1198.46 1525.89 1457.64 
2423 1190.73 1532.41 1457.64 
2424 1272.59 1519.92 1457.64 
2425 1129.41 1522.44 1457.64 
2426 1195.96 1533.14 1457.64 
2427 1096.64 1538.18 1457.64 
2428 1237.01 1519.28 1457.64 
2429 1153.58 1523.11 1457.64 
2430 995.41 1545.86 1457.64 
2431 1277.97 1568.84 1457.64 
2432 1038.33 1590.88 1457.64 
2433 1060.66 1591.12 1457.64 
2434 1260.18 1586.98 1457.64 
2435 1119.39 1565.64 1457.64 
2436 1227.59 1576.96 1457.64 
2437 1138.06 1534.97 1457.64 
2438 1340.77 1549.49 1457.64 
2439 1274.49 1546.34 1457.64 
2440 1234.72 1534.69 1457.64 
2441 1205.71 1565.58 1457.64 
2442 1227.79 1545.29 1457.64 
2443 1214.04 1526.85 1457.64 
2444 1269.24 1512.45 1457.64 
2445 1193.34 1536.65 1457.64 
2446 1214.98 1538.74 1457.64 
2447 1299.09 1536.41 1457.64 
2448 1266.45 1542.11 1457.64 
2449 1380.86 1532.60 1457.64 
2450 1413.08 1519.68 1457.64 
2451 1262.66 1519.69 1457.64 
2452 1191.39 1517.53 1457.64 
2453 1293.74 1527.89 1457.64 
2454 1140.85 1530.62 1457.64 
2455 1290.38 1506.89 1457.64 
2456 1249.67 1516.20 1457.64 
2457 1112.52 1508.62 1457.64 
2458 1176.88 1504.90 1457.64 
2459 1168.20 1506.74 1457.64 
2460 1244.05 1496.12 1457.64 
2461 1091.47 1514.35 1457.64 
2462 1191.83 1513.29 1457.64 
2463 1112.84 1524.98 1457.64 
2464 953.13 1527.39 1457.64 
2465 1186.63 1532.33 1457.64 
2466 1189.56 1536.23 1457.64 
2467 1109.07 1534.57 1457.64 
2468 1061.90 1540.76 1457.64 
2469 1337.81 1544.60 1457.64 
2470 1183.98 1537.64 1457.64 
2471 1254.71 1541.44 1457.64 
2472 1269.71 1548.95 1457.64 
2473 1141.58 1538.34 1457.64 
2474 1135.64 1538.34 1457.64 
2475 1038.83 1533.22 1457.64 
2476 1173.30 1541.94 1457.64 
2477 1283.30 1557.03 1457.64 
2478 1213.25 1567.52 1457.64 
2479 1382.41 1556.15 1457.64 
2480 1135.90 1551.78 1457.64 
2481 1312.89 1553.35 1457.64 
2482 1258.66 1549.61 1457.64 
2483 1252.44 1559.59 1457.64 
2484 1326.03 1562.32 1457.64 
2485 1463.19 1558.62 1457.64 
2486 1251.66 1572.41 1463.19 
2487 1103.73 1568.25 1463.19 
2488 1252.86 1549.96 1463.19 
2489 1163.39 1558.10 1463.19 
2490 1142.94 1557.68 1463.19 
2491 1372.34 1551.07 1463.19 
2492 1071.92 1546.73 1463.19 
2493 1291.38 1549.84 1463.19 
2494 1081.40 1549.09 1463.19 
2495 1179.33 1547.86 1463.19 
2496 1121.71 1553.56 1463.19 
2497 1350.35 1544.82 1463.19 
2498 1067.53 1548.59 1463.19 
2499 1200.23 1555.24 1463.19 
2500 1174.66 1552.35 1463.19 
2501 1396.73 1549.36 1463.19 
2502 1148.31 1546.30 1463.19 
2503 1277.71 1552.56 1463.19 
2504 1189.78 1553.84 1463.19 
2505 1269.71 1548.18 1463.19 
2506 1156.00 1557.50 1463.19 
2507 1151.79 1553.72 1463.19 
2508 1220.14 1556.90 1463.19 
2509 1151.20 1543.76 1463.19 
2510 1130.17 1544.76 1463.19 
2511 1159.56 1545.14 1463.19 
2512 1291.59 1550.82 1463.19 
2513 1166.80 1554.56 1463.19 
2514 1444.65 1558.30 1463.19 
2515 1163.01 1555.49 1463.19 
2516 1070.90 1537.21 1463.19 
2517 1331.68 1541.01 1463.19 
2518 1295.85 1547.57 1463.19 
2519 1272.64 1543.80 1463.19 
2520 1076.15 1544.77 1463.19 
2521 1243.89 1533.47 1463.19 
2522 1463.49 1540.51 1463.19 
2523 957.59 1540.52 1463.49 
2524 1311.35 1545.77 1463.49 
2525 1155.38 1538.97 1463.49 
2526 1209.92 1542.87 1463.49 
2527 1247.82 1533.52 1463.49 
2528 1348.64 1526.08 1463.49 
2529 1124.23 1564.03 1463.49 
2530 1099.58 1530.66 1463.49 
2531 1254.36 1540.41 1463.49 
2532 1002.56 1544.81 1463.49 
2533 1359.71 1539.01 1463.49 
2534 1144.25 1536.63 1463.49 
2535 1275.33 1525.44 1463.49 
2536 1277.77 1536.13 1463.49 
2537 1218.58 1535.28 1463.49 
2538 1193.11 1535.18 1463.49 
2539 1184.27 1535.22 1463.49 
2540 1338.74 1523.95 1463.49 
2541 1058.63 1524.57 1463.49 
2542 1201.39 1478.21 1463.49 
2543 1215.96 1525.73 1463.49 
2544 1405.37 1516.15 1463.49 
2545 1215.35 1516.58 1463.49 
2546 1152.56 1462.13 1463.49 
2547 1340.53 1458.50 1463.49 
2548 1341.47 1469.90 1463.49 
2549 1286.20 1481.75 1463.49 
2550 1493.23 1490.43 1463.49 
2551 1174.00 1496.82 1493.23 
2552 1107.89 1531.36 1493.23 
2553 1232.61 1534.49 1493.23 
2554 1224.91 1556.46 1493.23 
2555 1247.84 1606.42 1493.23 
2556 1302.23 1553.58 1493.23 
2557 1230.06 1568.84 1493.23 
2558 1092.80 1543.00 1493.23 
2559 1162.93 1504.17 1493.23 
2560 1225.20 1550.72 1493.23 
2561 1195.55 1540.02 1493.23 
2562 1208.90 1649.46 1493.23 
2563 1119.19 1650.04 1493.23 
2564 1300.98 1636.21 1493.23 
2565 1342.70 1594.66 1493.23 
2566 1219.37 1586.79 1493.23 
2567 1176.27 1590.94 1493.23 
2568 1204.93 1592.42 1493.23 
2569 1273.79 1535.01 1493.23 
2570 1310.53 1535.04 1493.23 
2571 1246.41 1526.16 1493.23 
2572 1246.91 1589.84 1493.23 
2573 1223.41 1579.44 1493.23 
2574 1351.61 1583.17 1493.23 
2575 1246.83 1576.84 1493.23 
2576 1239.77 1571.11 1493.23 
2577 1294.27 1564.21 1493.23 
2578 1253.27 1508.47 1493.23 
2579 1069.12 1500.89 1493.23 
2580 1174.97 1544.72 1493.23 
2581 1161.95 1508.11 1493.23 
2582 1298.41 1490.00 1493.23 
2583 1165.32 1515.84 1493.23 
2584 1249.84 1510.78 1493.23 
2585 1085.00 1511.44 1493.23 
2586 1053.49 1490.08 1493.23 
2587 1345.75 1482.49 1493.23 
2588 1076.86 1488.80 1493.23 
2589 1272.29 1490.02 1493.23 
2590 1068.48 1504.22 1493.23 
2591 1189.47 1491.88 1493.23 
2592 1287.93 1496.39 1493.23 
2593 1207.37 1486.65 1493.23 
2594 1285.29 1529.95 1493.23 
2595 1222.52 1529.89 1493.23 
2596 1208.55 1507.32 1493.23 
2597 1255.99 1504.89 1493.23 
2598 1187.91 1514.97 1493.23 
2599 1209.15 1519.43 1493.23 
2600 1237.41 1515.74 1493.23 
2601 1402.74 1496.25 1493.23 
2602 1229.72 1497.48 1493.23 
2603 1264.79 1523.31 1493.23 
2604 1207.50 1519.52 1493.23 
2605 1272.51 1525.90 1493.23 
2606 975.02 1564.49 1493.23 
2607 1306.08 1599.94 1493.23 
2608 1195.94 1607.78 1493.23 
2609 1492.66 1609.99 1493.23 
2610 927.54 1614.72 1493.23 
2611 1370.82 1615.24 1493.23 
2612 1119.58 1625.02 1493.23 
2613 1180.25 1625.36 1493.23 
2614 1155.95 1630.39 1493.23 
2615 1174.14 1630.54 1493.23 
2616 1268.76 1631.23 1493.23 
2617 1266.11 1627.85 1493.23 
2618 986.83 1627.93 1493.23 
2619 1237.99 1627.48 1493.23 
2620 1351.84 1615.31 1493.23 
2621 1017.64 1621.47 1493.23 
2622 1283.28 1621.49 1493.23 
2623 1209.96 1618.93 1493.23 
2624 1099.21 1607.56 1493.23 
2625 1043.47 1610.73 1493.23 
2626 1189.53 1606.69 1493.23 
2627 1304.99 1606.13 1493.23 
2628 1330.18 1618.02 1493.23 
2629 1104.70 1637.09 1493.23 
2630 1243.08 1627.11 1493.23 
2631 1449.46 1627.13 1493.23 
2632 1344.66 1630.29 1493.23 
2633 1315.44 1615.19 1493.23 
2634 1351.08 1625.27 1493.23 
2635 1090.09 1618.90 1493.23 
2636 1196.43 1621.42 1493.23 
2637 1126.78 1606.68 1493.23 
2638 1244.85 1599.69 1493.23 
2639 1227.04 1606.83 1493.23 
2640 1182.37 1602.28 1493.23 
2641 1379.59 1623.84 1493.23 
2642 1327.39 1621.23 1493.23 
2643 1282.03 1564.11 1493.23 
2644 1270.97 1559.60 1493.23 
2645 1308.68 1562.00 1493.23 
2646 1242.29 1568.48 1493.23 
2647 1141.09 1557.15 1493.23 
2648 1183.89 1562.59 1493.23 
2649 1158.60 1557.03 1493.23 
2650 1152.55 1552.18 1493.23 
2651 1289.29 1545.17 1493.23 
2652 1100.84 1549.63 1493.23 
2653 1135.49 1540.76 1493.23 
2654 1212.71 1542.45 1493.23 
2655 1230.92 1542.52 1493.23 
2656 1273.31 1545.75 1493.23 
2657 1390.05 1553.60 1493.23 
2658 1454.05 1563.02 1493.23 
2659 1115.66 1567.55 1493.23 
2660 1327.81 1566.73 1493.23 
2661 1333.18 1552.31 1493.23 
2662 1339.38 1556.09 1493.23 
2663 984.87 1545.53 1493.23 
2664 1216.98 1545.43 1493.23 
2665 1170.34 1546.04 1493.23 
2666 1264.14 1544.11 1493.23 
2667 1326.65 1549.25 1493.23 
2668 1039.22 1550.48 1493.23 
2669 1437.94 1545.43 1493.23 
2670 1193.57 1546.06 1493.23 
2671 1115.37 1539.85 1493.23 
2672 1128.50 1546.56 1493.23 
2673 1234.90 1547.86 1493.23 
2674 1159.84 1604.46 1493.23 
2675 1224.62 1548.16 1493.23 
2676 1269.06 1552.38 1493.23 
2677 1141.54 1555.03 1493.23 
2678 1280.28 1558.72 1493.23 
2679 1259.40 1556.27 1493.23 
2680 1196.02 1614.70 1493.23 
2681 1139.83 1569.93 1493.23 
2682 1129.04 1570.47 1493.23 
2683 1228.83 1561.74 1493.23 
2684 1041.30 1566.61 1493.23 
2685 1178.80 1550.25 1493.23 
2686 1283.50 1555.35 1493.23 
2687 1266.08 1577.78 1493.23 
2688 1260.31 1555.96 1493.23 
2689 1337.25 1569.27 1493.23 
2690 1283.21 1558.40 1493.23 
2691 1267.40 1576.11 1493.23 
2692 1292.94 1581.04 1493.23 
2693 1295.14 1624.96 1493.23 
2694 1065.00 1616.69 1493.23 
2695 1445.81 1628.58 1493.23 
2696 1254.53 1629.22 1493.23 
2697 1214.96 1627.43 1493.23 
2698 1190.22 1612.32 1493.23 
2699 1140.49 1608.54 1493.23 
2700 1241.56 1615.58 1493.23 
2701 1174.79 1616.15 1493.23 
2702 1228.71 1615.85 1493.23 
2703 1260.27 1611.35 1493.23 
2704 1243.47 1602.96 1493.23 
2705 1096.50 1582.99 1493.23 
2706 1334.34 1609.08 1493.23 
2707 1366.47 1599.51 1493.23 
2708 1244.31 1612.75 1493.23 
2709 1220.76 1589.36 1493.23 
2710 1157.16 1600.02 1493.23 
2711 1420.94 1604.16 1493.23 
2712 1398.47 1609.92 1493.23 
2713 986.32 1614.83 1493.23 
2714 1187.54 1622.25 1493.23 
2715 1077.09 1612.86 1493.23 
2716 1249.96 1614.72 1493.23 
2717 1301.06 1629.07 1493.23 
2718 954.25 1625.35 1493.23 
2719 1290.46 1627.12 1493.23 
2720 1166.98 1635.46 1493.23 
2721 1151.29 1627.55 1493.23 
2722 1098.20 1632.59 1493.23 
2723 1461.72 1639.05 1493.23 
2724 1166.71 1633.50 1493.23 
2725 1318.81 1592.37 1493.23 
2726 1349.15 1602.48 1493.23 
2727 1151.32 1632.09 1493.23 
2728 1266.10 1640.35 1493.23 
2729 1317.81 1643.56 1493.23 
2730 1325.12 1643.61 1493.23 
2731 1294.17 1643.00 1493.23 
2732 1143.23 1646.07 1493.23 
2733 1242.83 1639.13 1493.23 
2734 1365.27 1632.19 1493.23 
2735 1317.32 1636.64 1493.23 
2736 1459.13 1637.93 1493.23 
2737 1430.21 1642.66 1493.23 
2738 1186.85 1643.57 1493.23 
2739 1145.04 1644.20 1493.23 
2740 1273.60 1642.91 1493.23 
2741 1389.65 1654.27 1493.23 
2742 1149.21 1644.87 1493.23 
2743 1266.26 1662.48 1493.23 
2744 1364.80 1658.67 1493.23 
2745 1414.88 1662.46 1493.23 
2746 1158.25 1662.37 1493.23 
2747 1215.92 1664.00 1493.23 
2748 1046.39 1663.33 1493.23 
2749 1439.83 1666.39 1493.23 
2750 1338.89 1665.16 1493.23 
2751 1317.21 1671.50 1493.23 
2752 1120.95 1667.74 1493.23 
2753 1200.08 1652.38 1493.23 
2754 1276.97 1674.29 1493.23 
2755 1236.22 1661.45 1493.23 
2756 1340.95 1656.74 1493.23 
2757 1289.68 1659.84 1493.23 
2758 1151.12 1662.94 1493.23 
2759 1403.97 1666.74 1493.23 
2760 1170.64 1652.35 1493.23 
2761 1199.55 1658.95 1493.23 
2762 1423.83 1656.17 1493.23 
2763 1259.87 1668.42 1493.23 
2764 1235.57 1661.24 1493.23 
2765 949.51 1656.53 1493.23 
2766 1185.52 1656.77 1493.23 
2767 1245.63 1674.28 1493.23 
2768 1580.67 1671.13 1493.23 
2769 1332.44 1673.33 1580.67 
2770 1064.59 1670.21 1580.67 
2771 1159.97 1660.78 1580.67 
2772 1092.67 1668.91 1580.67 
2773 1209.27 1661.96 1580.67 
2774 1145.97 1658.12 1580.67 
2775 1182.34 1652.14 1580.67 
2776 1320.03 1640.05 1580.67 
2777 1113.44 1638.79 1580.67 
2778 1215.51 1634.28 1580.67 
2779 1113.10 1622.65 1580.67 
2780 1346.64 1621.97 1580.67 
2781 1236.57 1632.37 1580.67 
2782 1212.93 1627.10 1580.67 
2783 1133.33 1619.54 1580.67 
2784 1296.24 1622.69 1580.67 
2785 1093.01 1619.39 1580.67 
2786 1193.86 1627.58 1580.67 
2787 1135.37 1620.73 1580.67 
2788 1159.88 1635.29 1580.67 
2789 1340.45 1623.82 1580.67 
2790 1241.53 1616.86 1580.67 
2791 1169.33 1612.51 1580.67 
2792 1273.25 1617.44 1580.67 
2793 1301.59 1628.39 1580.67 
2794 1298.93 1636.58 1580.67 
2795 1101.09 1622.58 1580.67 
2796 1169.90 1608.52 1580.67 
2797 1176.96 1618.44 1580.67 
2798 1277.75 1625.39 1580.67 
2799 1283.23 1635.52 1580.67 
2800 1321.47 1624.98 1580.67 
2801 1092.28 1627.28 1580.67 
2802 1109.02 1622.21 1580.67 
2803 1060.50 1619.06 1580.67 
2804 1117.89 1622.80 1580.67 
2805 1306.28 1623.53 1580.67 
2806 1214.10 1631.93 1580.67 
2807 1434.67 1617.77 1580.67 
2808 1284.36 1622.10 1580.67 
2809 1438.49 1625.35 1580.67 
2810 1193.75 1631.57 1580.67 
2811 1099.42 1626.72 1580.67 
2812 1298.28 1626.76 1580.67 
2813 1283.25 1630.49 1580.67 
2814 1164.56 1626.11 1580.67 
2815 1156.93 1610.58 1580.67 
2816 1197.65 1590.72 1580.67 
2817 1207.26 1583.51 1580.67 
2818 1417.94 1583.48 1580.67 
2819 1404.87 1591.38 1580.67 
2820 1412.11 1583.16 1580.67 
2821 1328.45 1576.46 1580.67 
2822 1310.82 1594.35 1580.67 
2823 1209.98 1575.19 1580.67 
2824 1280.82 1569.57 1580.67 
2825 1442.69 1595.05 1580.67 
2826 1207.09 1612.86 1580.67 
2827 1234.42 1599.06 1580.67 
2828 1162.55 1580.43 1580.67 
2829 1158.25 1586.73 1580.67 
2830 1304.57 1591.80 1580.67 
2831 1217.62 1616.67 1580.67 
2832 1278.85 1621.69 1580.67 
2833 1305.25 1644.95 1580.67 
2834 1263.59 1636.79 1580.67 
2835 1200.73 1629.25 1580.67 
2836 1180.45 1647.26 1580.67 
2837 1160.13 1653.59 1580.67 
2838 1264.35 1655.70 1580.67 
2839 1268.91 1668.33 1580.67 
2840 1265.46 1666.01 1580.67 
2841 1222.33 1660.10 1580.67 
2842 1226.51 1664.61 1580.67 
2843 1235.81 1639.12 1580.67 
2844 1380.23 1653.06 1580.67 
2845 1173.52 1642.98 1580.67 
2846 1208.33 1658.59 1580.67 
2847 1123.56 1675.02 1580.67 
2848 1255.05 1672.44 1580.67 
2849 1214.86 1679.33 1580.67 
2850 1225.01 1659.91 1580.67 
2851 1446.75 1669.46 1580.67 
2852 1196.45 1668.90 1580.67 
2853 1209.28 1671.39 1580.67 
2854 1423.44 1673.44 1580.67 
2855 1335.10 1650.81 1580.67 
2856 1296.30 1646.42 1580.67 
2857 1287.88 1655.84 1580.67 
2858 1080.86 1635.65 1580.67 
2859 1175.19 1596.84 1580.67 
2860 1444.61 1616.34 1580.67 
2861 1250.10 1603.75 1580.67 
2862 1121.27 1609.20 1580.67 
2863 1280.93 1595.90 1580.67 
2864 1195.53 1581.57 1580.67 
2865 1187.25 1610.71 1580.67 
2866 1196.26 1608.25 1580.67 
2867 1331.70 1615.14 1580.67 
2868 1375.89 1632.70 1580.67 
2869 1328.00 1654.10 1580.67 
2870 1309.59 1634.19 1580.67 
2871 1267.94 1642.67 1580.67 
2872 1079.66 1633.93 1580.67 
2873 1234.61 1628.97 1580.67 
2874 1192.41 1578.84 1580.67 
2875 1193.98 1644.12 1580.67 
2876 1194.17 1645.77 1580.67 
2877 1211.44 1624.53 1580.67 
2878 1168.20 1604.31 1580.67 
2879 1076.25 1593.60 1580.67 
2880 1147.32 1589.10 1580.67 
2881 1131.54 1599.21 1580.67 
2882 1107.89 1601.09 1580.67 
2883 1233.65 1601.66 1580.67 
2884 1448.26 1602.30 1580.67 
2885 1349.95 1652.09 1580.67 
2886 1127.19 1660.36 1580.67 
2887 1105.75 1664.14 1580.67 
2888 1180.77 1598.58 1580.67 
2889 1232.66 1669.83 1580.67 
2890 1241.18 1673.63 1580.67 
2891 1282.13 1605.80 1580.67 
2892 1318.09 1617.74 1580.67 
2893 1129.45 1640.73 1580.67 
2894 1312.02 1609.10 1580.67 
2895 998.47 1602.12 1580.67 
2896 1132.73 1646.92 1580.67 
2897 1313.39 1699.99 1580.67 
2898 1439.61 1710.80 1580.67 
2899 1451.02 1714.02 1580.67 
2900 1235.09 1695.41 1580.67 
2901 1194.24 1703.64 1580.67 
2902 1192.92 1705.24 1580.67 
2903 1289.44 1699.17 1580.67 
2904 1350.08 1719.62 1580.67 
2905 1411.29 1720.32 1580.67 
2906 1365.12 1724.74 1580.67 
2907 1239.03 1723.94 1580.67 
2908 1325.54 1726.43 1580.67 
2909 1271.28 1708.54 1580.67 
2910 1163.16 1709.97 1580.67 
2911 1287.09 1720.74 1580.67 
2912 1222.76 1720.07 1580.67 
2913 1334.17 1721.37 1580.67 
2914 1338.80 1726.76 1580.67 
2915 1167.89 1708.98 1580.67 
2916 1240.35 1709.00 1580.67 
2917 1096.01 1695.84 1580.67 
2918 1338.07 1722.25 1580.67 
2919 1243.35 1684.14 1580.67 
2920 1265.38 1695.76 1580.67 
2921 1310.68 1714.41 1580.67 
2922 1352.09 1714.41 1580.67 
2923 1431.41 1710.64 1580.67 
2924 1324.27 1701.35 1580.67 
2925 1224.38 1700.61 1580.67 
2926 1228.73 1694.40 1580.67 
2927 1282.72 1693.68 1580.67 
2928 1418.54 1683.66 1580.67 
2929 1133.23 1692.95 1580.67 
2930 1166.50 1685.46 1580.67 
2931 1255.32 1689.20 1580.67 
2932 1094.02 1699.25 1580.67 
2933 1479.66 1587.40 1580.67 
2934 1209.19 1604.38 1580.67 
2935 1217.66 1608.12 1580.67 
2936 1280.26 1679.18 1580.67 
2937 1262.30 1685.47 1580.67 
2938 1267.85 1679.20 1580.67 
2939 1408.06 1686.69 1580.67 
2940 1345.54 1693.62 1580.67 
2941 1280.34 1666.89 1580.67 
2942 1372.97 1654.33 1580.67 
2943 1324.92 1661.34 1580.67 
2944 1248.34 1657.56 1580.67 
2945 1411.49 1663.89 1580.67 
2946 1215.96 1666.99 1580.67 
2947 1359.53 1664.46 1580.67 
2948 1255.11 1659.83 1580.67 
2949 1200.18 1652.88 1580.67 
2950 1466.62 1665.34 1580.67 
2951 1388.19 1654.14 1580.67 
2952 1362.23 1670.44 1580.67 
2953 1330.44 1688.06 1580.67 
2954 1371.53 1688.69 1580.67 
2955 1399.23 1696.52 1580.67 
2956 1211.19 1684.21 1580.67 
2957 1365.09 1689.30 1580.67 
2958 1164.22 1671.73 1580.67 
2959 1362.04 1676.80 1580.67 
2960 1363.71 1705.03 1580.67 
2961 1123.35 1626.75 1580.67 
2962 1345.02 1721.25 1580.67 
2963 1277.78 1692.95 1580.67 
2964 1302.22 1723.73 1580.67 
2965 1335.98 1720.33 1580.67 
2966 1197.45 1730.96 1580.67 
2967 1088.28 1729.04 1580.67 
2968 1252.07 1710.37 1580.67 
2969 1191.13 1702.83 1580.67 
2970 1381.98 1716.00 1580.67 
2971 1315.01 1712.81 1580.67 
2972 1336.10 1716.61 1580.67 
2973 1344.45 1718.49 1580.67 
2974 1188.95 1716.66 1580.67 
2975 1291.16 1717.89 1580.67 
2976 1178.68 1717.83 1580.67 
2977 1131.31 1722.19 1580.67 
2978 1289.26 1709.99 1580.67 
2979 1330.60 1714.10 1580.67 
2980 1365.75 1720.98 1580.67 
2981 1163.35 1677.24 1580.67 
2982 1224.96 1655.32 1580.67 
2983 1167.60 1677.24 1580.67 
2984 1117.64 1633.81 1580.67 
2985 1210.52 1615.03 1580.67 
2986 1266.70 1629.13 1580.67 
2987 1396.13 1639.13 1580.67 
2988 1230.99 1608.73 1580.67 
2989 1391.20 1597.39 1580.67 
2990 1220.54 1602.75 1580.67 
2991 1314.36 1628.77 1580.67 
2992 1451.25 1615.93 1580.67 
2993 1255.36 1599.67 1580.67 
2994 1210.88 1666.57 1580.67 
2995 1266.56 1676.99 1580.67 
2996 1236.89 1680.11 1580.67 
2997 1399.46 1664.57 1580.67 
2998 1317.54 1652.64 1580.67 
2999 1303.41 1646.46 1580.67 
3000 1291.71 1649.69 1580.67 
3001 1147.55 1651.47 1580.67 
3002 1289.03 1653.43 1580.67 
3003 1325.50 1658.75 1580.67 
3004 1197.62 1651.55 1580.67 
3005 1398.27 1647.16 1580.67 
3006 1288.87 1652.81 1580.67 
3007 1320.93 1650.67 1580.67 
3008 1332.54 1643.80 1580.67 
3009 1394.96 1648.16 1580.67 
3010 1222.13 1646.81 1580.67 
3011 1364.74 1650.63 1580.67 
3012 1142.16 1654.33 1580.67 
3013 1290.78 1644.95 1580.67 
3014 1173.02 1664.39 1580.67 
3015 1162.30 1655.04 1580.67 
3016 1447.89 1662.41 1580.67 
3017 1479.27 1659.96 1580.67 
3018 1415.33 1675.57 1580.67 
3019 1357.63 1675.67 1580.67 
3020 1321.75 1668.16 1580.67 
3021 1251.18 1661.92 1580.67 
3022 1307.76 1666.39 1580.67 
3023 1148.87 1677.04 1580.67 
3024 1240.56 1665.55 1580.67 
3025 1249.82 1674.67 1580.67 
3026 1120.98 1658.38 1580.67 
3027 1259.99 1670.87 1580.67 
3028 1267.37 1665.24 1580.67 
3029 1418.55 1670.94 1580.67 
3030 1241.76 1654.69 1580.67 
3031 1386.99 1650.91 1580.67 
3032 1267.28 1667.21 1580.67 
3033 1146.91 1660.98 1580.67 
3034 1394.10 1669.70 1580.67 
3035 1399.85 1670.97 1580.67 
3036 1366.56 1685.94 1580.67 
3037 1126.12 1654.01 1580.67 
3038 1479.33 1647.77 1580.67 
3039 1143.65 1645.86 1580.67 
3040 1194.49 1646.57 1580.67 
3041 1372.45 1668.43 1580.67 
3042 1182.29 1677.76 1580.67 
3043 1300.83 1660.53 1580.67 
3044 1140.66 1667.37 1580.67 
3045 1457.29 1662.35 1580.67 
3046 1097.08 1682.68 1580.67 
3047 1278.61 1661.80 1580.67 
3048 1152.60 1663.01 1580.67 
3049 1343.24 1671.46 1580.67 
3050 1354.09 1681.49 1580.67 
3051 1285.50 1684.60 1580.67 
3052 1219.86 1689.05 1580.67 
3053 1326.11 1676.57 1580.67 
3054 1276.09 1685.97 1580.67 
3055 1289.24 1682.22 1580.67 
3056 1317.10 1677.84 1580.67 
3057 1313.02 1697.13 1580.67 
3058 1259.09 1707.74 1580.67 
3059 1345.65 1691.49 1580.67 
3060 1490.24 1696.50 1580.67 
3061 1433.05 1707.80 1580.67 
3062 1377.23 1707.20 1580.67 
3063 1446.80 1714.70 1580.67 
3064 1427.44 1705.36 1580.67 
3065 1279.46 1715.98 1580.67 
3066 1033.64 1709.07 1580.67 
3067 1261.92 1716.69 1580.67 
3068 1353.51 1720.49 1580.67 
3069 1224.30 1706.11 1580.67 
3070 1291.52 1728.59 1580.67 
3071 1151.01 1716.00 1580.67 
3072 1197.11 1731.63 1580.67 
3073 1194.38 1730.43 1580.67 
3074 1217.86 1725.40 1580.67 
3075 1338.59 1729.18 1580.67 
3076 1169.36 1730.42 1580.67 
3077 1273.41 1726.65 1580.67 
3078 1345.18 1735.42 1580.67 
3079 1296.80 1726.01 1580.67 
3080 1331.49 1737.83 1580.67 
3081 1342.80 1734.73 1580.67 
3082 1607.06 1735.42 1580.67 
3083 1316.45 1741.04 1607.06 
3084 1368.24 1732.25 1607.06 
3085 1242.72 1735.41 1607.06 
3086 1331.46 1730.99 1607.06 
3087 1089.88 1724.08 1607.06 
3088 1410.73 1718.46 1607.06 
3089 1310.33 1719.06 1607.06 
3090 1262.47 1727.86 1607.06 
3091 1316.96 1727.87 1607.06 
3092 1237.86 1729.70 1607.06 
3093 1429.03 1724.10 1607.06 
3094 1326.05 1728.52 1607.06 
3095 1310.13 1701.33 1607.06 
3096 1304.82 1708.20 1607.06 
3097 1186.85 1698.13 1607.06 
3098 1192.89 1699.40 1607.06 
3099 1281.52 1698.82 1607.06 
3100 1355.76 1704.92 1607.06 
3101 1252.44 1689.29 1607.06 
3102 1290.54 1697.41 1607.06 
3103 1187.11 1698.63 1607.06 
3104 1435.08 1680.48 1607.06 
3105 1163.00 1688.61 1607.06 
3106 1291.20 1696.70 1607.06 
3107 1425.64 1706.72 1607.06 
3108 1284.19 1694.87 1607.06 
3109 1087.39 1699.23 1607.06 
3110 1189.71 1693.69 1607.06 
3111 1226.22 1684.78 1607.06 
3112 1186.78 1704.83 1607.06 
3113 1347.71 1702.35 1607.06 
3114 1300.82 1733.40 1607.06 
3115 1258.10 1718.72 1607.06 
3116 1307.28 1719.82 1607.06 
3117 1314.49 1712.91 1607.06 
3118 1221.14 1727.41 1607.06 
3119 1205.73 1725.58 1607.06 
3120 1327.58 1718.70 1607.06 
3121 1305.38 1724.91 1607.06 
3122 1339.95 1735.92 1607.06 
3123 1458.87 1725.61 1607.06 
3124 1212.10 1731.80 1607.06 
3125 1291.15 1728.30 1607.06 
3126 1392.18 1732.96 1607.06 
3127 1332.97 1732.67 1607.06 
3128 1154.40 1732.09 1607.06 
3129 1302.43 1738.03 1607.06 
3130 1267.94 1745.51 1607.06 
3131 1198.92 1736.74 1607.06 
3132 1285.98 1743.10 1607.06 
3133 1478.17 1728.70 1607.06 
3134 1299.47 1745.93 1607.06 
3135 1255.97 1729.02 1607.06 
3136 1214.03 1736.55 1607.06 
3137 1127.07 1730.36 1607.06 
3138 1285.33 1736.64 1607.06 
3139 1272.62 1748.17 1607.06 
3140 1174.16 1746.61 1607.06 
3141 1487.39 1745.35 1607.06 
3142 1150.46 1748.47 1607.06 
3143 1116.41 1754.63 1607.06 
3144 1238.15 1760.93 1607.06 
3145 1239.44 1753.45 1607.06 
3146 1246.02 1757.22 1607.06 
3147 1332.50 1751.61 1607.06 
3148 1374.01 1747.21 1607.06 
3149 1314.09 1759.70 1607.06 
3150 1336.37 1747.15 1607.06 
3151 1524.96 1749.67 1607.06 
3152 1297.89 1752.82 1607.06 
3153 1232.50 1743.38 1607.06 
3154 1174.47 1743.35 1607.06 
3155 1499.33 1739.61 1607.06 
3156 1427.77 1712.71 1607.06 
3157 1343.81 1713.92 1607.06 
3158 1227.40 1739.52 1607.06 
3159 1362.61 1750.87 1607.06 
3160 1414.40 1737.76 1607.06 
3161 1441.80 1742.34 1607.06 
3162 1360.18 1757.15 1607.06 
3163 1479.98 1737.16 1607.06 
3164 1261.76 1744.66 1607.06 
3165 1470.42 1743.44 1607.06 
3166 1282.41 1748.44 1607.06 
3167 1400.66 1745.98 1607.06 
3168 1245.65 1747.23 1607.06 
3169 1457.98 1742.53 1607.06 
3170 1252.93 1733.07 1607.06 
3171 1330.46 1737.44 1607.06 
3172 1335.71 1743.03 1607.06 
3173 1324.06 1747.47 1607.06 
3174 1342.88 1734.32 1607.06 
3175 1256.85 1728.71 1607.06 
3176 1314.97 1714.91 1607.06 
3177 1423.37 1713.72 1607.06 
3178 1433.92 1726.80 1607.06 
3179 1253.17 1727.48 1607.06 
3180 1471.60 1729.87 1607.06 
3181 1354.16 1741.24 1607.06 
3182 1409.91 1744.99 1607.06 
3183 1187.22 1739.05 1607.06 
3184 1308.29 1739.07 1607.06 
3185 1344.40 1735.95 1607.06 
3186 1360.10 1742.82 1607.06 
3187 1403.94 1736.55 1607.06 
3188 1213.90 1739.01 1607.06 
3189 1110.25 1746.51 1607.06 
3190 1357.25 1744.24 1607.06 
3191 1421.74 1749.85 1607.06 
3192 1476.48 1753.62 1607.06 
3193 1436.45 1761.82 1607.06 
3194 1428.27 1765.26 1607.06 
3195 972.87 1757.49 1607.06 
3196 1358.84 1762.20 1607.06 
3197 1338.17 1761.83 1607.06 
3198 1180.47 1749.91 1607.06 
3199 1405.20 1749.90 1607.06 
3200 1336.15 1746.76 1607.06 
3201 1080.07 1753.68 1607.06 
3202 1350.13 1752.47 1607.06 
3203 1058.78 1756.52 1607.06 
3204 1287.15 1743.64 1607.06 
3205 1057.53 1743.65 1607.06 
3206 1320.80 1745.87 1607.06 
3207 1363.20 1747.82 1607.06 
3208 1455.79 1746.53 1607.06 
3209 1271.18 1748.15 1607.06 
3210 1295.51 1751.93 1607.06 
3211 1168.42 1725.94 1607.06 
3212 1333.45 1729.99 1607.06 
3213 1345.05 1707.67 1607.06 
3214 1422.19 1716.20 1607.06 
3215 1313.23 1702.99 1607.06 
3216 1333.62 1718.04 1607.06 
3217 1212.69 1716.05 1607.06 
3218 1426.71 1715.36 1607.06 
3219 1224.67 1719.16 1607.06 
3220 1263.40 1726.74 1607.06 
3221 1337.86 1712.61 1607.06 
3222 1264.63 1710.75 1607.06 
3223 1284.40 1696.53 1607.06 
3224 1250.18 1677.40 1607.06 
3225 1062.35 1699.41 1607.06 
3226 1507.82 1689.37 1607.06 
3227 1248.22 1705.13 1607.06 
3228 1262.02 1694.43 1607.06 
3229 1374.88 1710.45 1607.06 
3230 1537.74 1712.73 1607.06 
3231 1425.68 1709.34 1607.06 
3232 1332.98 1718.09 1607.06 
3233 1359.98 1713.67 1607.06 
3234 1204.64 1727.53 1607.06 
3235 1473.27 1721.96 1607.06 
3236 1186.50 1737.35 1607.06 
3237 1259.76 1734.35 1607.06 
3238 1416.83 1726.91 1607.06 
3239 1534.96 1743.27 1607.06 
3240 1441.12 1735.74 1607.06 
3241 1199.85 1743.36 1607.06 
3242 1218.27 1748.06 1607.06 
3243 1164.84 1738.33 1607.06 
3244 1430.95 1755.55 1607.06 
3245 1427.06 1748.05 1607.06 
3246 1506.21 1741.81 1607.06 
3247 1337.63 1748.61 1607.06 
3248 1183.38 1744.84 1607.06 
3249 1243.55 1754.83 1607.06 
3250 1353.01 1739.89 1607.06 
3251 1415.57 1753.00 1607.06 
3252 1389.74 1744.84 1607.06 
3253 1233.78 1750.46 1607.06 
3254 1384.02 1748.57 1607.06 
3255 1519.63 1746.94 1607.06 
3256 1372.73 1726.83 1607.06 
3257 1390.94 1744.08 1607.06 
3258 1378.96 1753.48 1607.06 
3259 1261.27 1757.87 1607.06 
3260 1193.22 1759.64 1607.06 
3261 1442.84 1762.13 1607.06 
3262 1112.36 1737.76 1607.06 
3263 1300.23 1734.62 1607.06 
3264 1292.86 1731.17 1607.06 
3265 1199.50 1718.25 1607.06 
3266 1433.95 1705.76 1607.06 
3267 1370.29 1711.98 1607.06 
3268 1242.48 1715.15 1607.06 
3269 1314.77 1700.88 1607.06 
3270 1458.23 1716.26 1607.06 
3271 1399.80 1703.06 1607.06 
3272 1281.82 1699.14 1607.06 
3273 1298.78 1711.71 1607.06 
3274 1247.41 1746.60 1607.06 
3275 1212.43 1734.75 1607.06 
3276 1263.28 1737.86 1607.06 
3277 1385.24 1737.91 1607.06 
3278 1228.61 1727.83 1607.06 
3279 1437.95 1733.51 1607.06 
3280 1389.91 1717.70 1607.06 
3281 1358.35 1691.85 1607.06 
3282 1444.09 1688.41 1607.06 
3283 1262.84 1676.49 1607.06 
3284 1219.98 1662.63 1607.06 
3285 1283.04 1661.31 1607.06 
3286 1214.17 1665.78 1607.06 
3287 1468.50 1674.64 1607.06 
3288 1366.16 1682.24 1607.06 
3289 1220.77 1689.78 1607.06 
3290 1403.29 1698.55 1607.06 
3291 1305.15 1690.23 1607.06 
3292 1435.32 1685.81 1607.06 
3293 1450.14 1718.57 1607.06 
3294 1352.06 1722.34 1607.06 
3295 1539.11 1651.37 1607.06 
3296 1294.14 1643.23 1607.06 
3297 1212.86 1653.04 1607.06 
3298 1231.21 1729.72 1607.06 
3299 1392.14 1743.42 1607.06 
3300 1187.45 1711.31 1607.06 
3301 1247.81 1718.32 1607.06 
3302 1277.99 1703.80 1607.06 
3303 1272.02 1695.67 1607.06 
3304 1401.97 1642.90 1607.06 
3305 1383.22 1712.48 1607.06 
3306 1291.47 1716.95 1607.06 
3307 1339.64 1734.85 1607.06 
3308 1295.02 1717.55 1607.06 
3309 1378.13 1714.73 1607.06 
3310 1253.46 1699.83 1607.06 
3311 1232.41 1708.54 1607.06 
3312 1251.77 1720.75 1607.06 
3313 1273.12 1728.90 1607.06 
3314 1434.73 1715.70 1607.06 
3315 1285.94 1707.88 1607.06 
3316 1440.30 1750.06 1607.06 
3317 1203.79 1746.69 1607.06 
3318 1181.10 1715.44 1607.06 
3319 1228.06 1719.57 1607.06 
3320 1393.14 1747.89 1607.06 
3321 1266.47 1742.23 1607.06 
3322 1546.25 1720.20 1607.06 
3323 1322.30 1746.33 1607.06 
3324 1225.28 1740.74 1607.06 
3325 1394.20 1736.96 1607.06 
3326 1241.93 1730.38 1607.06 
3327 1489.82 1677.40 1607.06 
3328 1193.96 1737.58 1607.06 
3329 1350.55 1734.43 1607.06 
3330 1310.60 1727.52 1607.06 
3331 1375.09 1734.42 1607.06 
3332 1360.70 1735.05 1607.06 
3333 1215.00 1731.89 1607.06 
3334 1394.80 1738.81 1607.06 
3335 1310.50 1723.41 1607.06 
3336 1418.34 1729.41 1607.06 
3337 1258.36 1682.27 1607.06 
3338 1359.96 1648.22 1607.06 
3339 1337.40 1698.58 1607.06 
3340 1343.54 1681.66 1607.06 
3341 1375.26 1692.93 1607.06 
3342 1355.44 1681.02 1607.06 
3343 1366.79 1671.03 1607.06 
3344 1341.24 1669.84 1607.06 
3345 1256.51 1676.75 1607.06 
3346 1246.56 1675.44 1607.06 
3347 1161.31 1656.79 1607.06 
3348 1275.14 1650.26 1607.06 
3349 1205.18 1653.42 1607.06 
3350 1339.52 1677.02 1607.06 
3351 1317.23 1668.89 1607.06 
3352 1454.58 1668.14 1607.06 
3353 1447.95 1680.09 1607.06 
3354 1219.07 1673.01 1607.06 
3355 1266.48 1669.90 1607.06 
3356 1280.98 1667.60 1607.06 
3357 1165.48 1663.58 1607.06 
3358 1196.79 1674.89 1607.06 
3359 1215.21 1674.90 1607.06 
3360 1184.06 1678.89 1607.06 
3361 1301.65 1665.10 1607.06 
3362 1397.06 1672.64 1607.06 
3363 1293.48 1678.95 1607.06 
3364 1363.13 1682.70 1607.06 
3365 1425.31 1671.43 1607.06 
3366 1181.67 1653.10 1607.06 
3367 1440.14 1656.21 1607.06 
3368 1278.11 1649.31 1607.06 
3369 1192.33 1656.87 1607.06 
3370 1348.64 1660.08 1607.06 
3371 1383.19 1656.26 1607.06 
3372 1504.87 1654.79 1607.06 
3373 1339.54 1653.79 1607.06 
3374 1284.65 1648.44 1607.06 
3375 1345.97 1649.08 1607.06 
3376 1313.91 1658.60 1607.06 
3377 1196.94 1655.38 1607.06 
3378 1321.94 1649.70 1607.06 
3379 1190.08 1662.25 1607.06 
3380 1223.48 1662.26 1607.06 
3381 1414.40 1660.45 1607.06 
3382 1164.57 1652.05 1607.06 
3383 1337.37 1670.49 1607.06 
3384 1429.38 1675.19 1607.06 
3385 1390.63 1680.19 1607.06 
3386 1507.25 1655.69 1607.06 
3387 1279.35 1655.06 1607.06 
3388 1351.38 1656.95 1607.06 
3389 1233.02 1655.38 1607.06 
3390 1278.90 1689.15 1607.06 
3391 1184.64 1692.14 1607.06 
3392 1280.07 1693.97 1607.06 
3393 1216.94 1710.69 1607.06 
3394 1381.63 1719.79 1607.06 
3395 1427.42 1729.71 1607.06 
3396 1339.66 1726.56 1607.06 
3397 1140.52 1715.04 1607.06 
3398 1435.07 1722.60 1607.06 
3399 1129.44 1736.82 1607.06 
3400 1248.66 1744.96 1607.06 
3401 1348.55 1753.40 1607.06 
3402 1309.22 1736.25 1607.06 
3403 1327.36 1744.10 1607.06 
3404 1456.16 1745.98 1607.06 
3405 1316.07 1743.49 1607.06 
3406 1439.90 1747.88 1607.06 
3407 1407.26 1745.33 1607.06 
3408 1421.14 1736.24 1607.06 
3409 1467.81 1743.43 1607.06 
3410 1375.07 1740.29 1607.06 
3411 1311.17 1740.05 1607.06 
3412 1243.49 1745.09 1607.06 
3413 1333.49 1752.90 1607.06 
3414 1178.95 1704.71 1607.06 
3415 1271.39 1692.72 1607.06 
3416 1261.46 1706.88 1607.06 
3417 1284.11 1723.84 1607.06 
3418 1248.36 1764.71 1607.06 
3419 1439.61 1764.44 1607.06 
3420 1254.32 1730.36 1607.06 
3421 1502.43 1765.37 1607.06 
3422 1289.53 1759.11 1607.06 
3423 1433.11 1754.74 1607.06 
3424 1443.07 1757.88 1607.06 
3425 1400.92 1760.29 1607.06 
3426 1463.73 1760.98 1607.06 
3427 1332.60 1757.90 1607.06 
3428 1316.65 1764.16 1607.06 
3429 1517.27 1769.76 1607.06 
3430 1253.41 1762.87 1607.06 
3431 1159.26 1762.24 1607.06 
3432 1418.23 1760.42 1607.06 
3433 1270.03 1752.84 1607.06 
3434 1176.87 1739.74 1607.06 
3435 1206.66 1746.63 1607.06 
3436 1263.34 1750.36 1607.06 
3437 1340.45 1754.14 1607.06 
3438 1380.55 1744.71 1607.06 
3439 1405.73 1748.40 1607.06 
3440 1493.18 1755.90 1607.06 
3441 1338.09 1725.27 1607.06 
3442 1437.55 1734.05 1607.06 
3443 1324.91 1730.97 1607.06 
3444 1395.28 1732.85 1607.06 
3445 1363.90 1746.05 1607.06 
3446 1287.25 1743.58 1607.06 
3447 1347.65 1747.35 1607.06 
3448 1315.43 1740.45 1607.06 
3449 1159.96 1736.61 1607.06 
3450 1254.75 1743.52 1607.06 
3451 1301.46 1740.35 1607.06 
3452 1179.67 1750.38 1607.06 
3453 1516.30 1766.09 1607.06 
3454 1280.47 1769.18 1607.06 
3455 1262.48 1753.53 1607.06 
3456 1439.04 1750.43 1607.06 
3457 1330.74 1747.36 1607.06 
3458 1210.75 1744.28 1607.06 
3459 1338.77 1757.45 1607.06 
3460 1086.22 1743.30 1607.06 
3461 1137.96 1750.44 1607.06 
3462 1284.13 1753.60 1607.06 
3463 1382.70 1747.35 1607.06 
3464 1348.26 1761.15 1607.06 
3465 1348.32 1751.09 1607.06 
3466 1445.44 1748.27 1607.06 
3467 1376.51 1752.08 1607.06 
3468 1344.66 1752.39 1607.06 
3469 1191.04 1769.29 1607.06 
3470 1185.13 1764.22 1607.06 
3471 1376.80 1771.17 1607.06 
3472 1390.35 1759.89 1607.06 
3473 1436.52 1763.04 1607.06 
3474 1332.95 1759.30 1607.06 
3475 1138.76 1759.97 1607.06 
3476 1470.92 1760.59 1607.06 
3477 1199.34 1763.11 1607.06 
3478 1344.35 1759.97 1607.06 
3479 1382.94 1766.22 1607.06 
3480 1395.01 1763.77 1607.06 
3481 1382.73 1763.76 1607.06 
3482 1289.14 1756.88 1607.06 
3483 1421.89 1773.15 1607.06 
3484 1345.62 1763.13 1607.06 
3485 1447.46 1766.25 1607.06 
3486 1458.55 1760.62 1607.06 
3487 1391.32 1766.26 1607.06 
3488 1441.88 1761.86 1607.06 
3489 1289.82 1773.16 1607.06 
3490 1253.95 1757.46 1607.06 
3491 1330.87 1761.27 1607.06 
3492 1335.73 1766.91 1607.06 
3493 1365.93 1767.53 1607.06 
3494 1234.16 1726.92 1607.06 
3495 1414.54 1709.92 1607.06 
3496 1405.44 1724.34 1607.06 
3497 1260.51 1726.23 1607.06 
3498 1436.54 1725.30 1607.06 
3499 1436.89 1762.73 1607.06 
3500 1530.55 1766.50 1607.06 
3501 1363.08 1763.62 1607.06 
3502 1254.27 1712.87 1607.06 
3503 1259.18 1708.44 1607.06 
3504 1333.61 1705.60 1607.06 
3505 1214.32 1702.73 1607.06 
3506 1040.43 1703.40 1607.06 
3507 1370.42 1706.50 1607.06 
3508 1199.50 1704.94 1607.06 
3509 1232.13 1755.12 1607.06 
3510 1459.07 1763.03 1607.06 
3511 1267.99 1762.67 1607.06 
3512 1342.77 1768.36 1607.06 
3513 1224.13 1712.22 1607.06 
3514 1365.96 1758.29 1607.06 
3515 1294.63 1755.06 1607.06 
3516 1295.13 1758.56 1607.06 
3517 1265.13 1717.24 1607.06 
3518 1552.55 1721.65 1607.06 
3519 1240.38 1711.00 1607.06 
3520 1306.12 1715.42 1607.06 
3521 1456.43 1721.78 1607.06 
3522 1110.13 1721.72 1607.06 
3523 1336.85 1714.28 1607.06 
3524 1370.64 1712.46 1607.06 
3525 1466.99 1700.39 1607.06 
3526 1375.36 1714.81 1607.06 
3527 1411.44 1707.91 1607.06 
3528 1080.31 1707.90 1607.06 
3529 1434.93 1701.33 1607.06 
3530 1537.27 1704.47 1607.06 
3531 1111.01 1693.74 1607.06 
3532 1400.57 1689.12 1607.06 
3533 1504.99 1691.01 1607.06 
3534 1276.38 1682.78 1607.06 
3535 1328.41 1672.73 1607.06 
3536 1348.64 1674.58 1607.06 
3537 1164.18 1673.89 1607.06 
3538 1548.69 1707.60 1607.06 
3539 1363.36 1707.66 1607.06 
3540 1279.33 1713.90 1607.06 
3541 1308.75 1705.98 1607.06 
3542 1123.34 1714.81 1607.06 
3543 1127.29 1723.56 1607.06 
3544 1451.16 1708.48 1607.06 
3545 1171.36 1712.27 1607.06 
3546 1152.96 1709.74 1607.06 
3547 1291.93 1702.02 1607.06 
3548 1334.13 1689.94 1607.06 
3549 1388.57 1699.37 1607.06 
3550 1248.03 1710.96 1607.06 
3551 1392.37 1689.24 1607.06 
3552 1272.10 1690.55 1607.06 
3553 1320.59 1700.60 1607.06 
3554 1462.08 1699.34 1607.06 
3555 1361.53 1679.84 1607.06 
3556 1233.98 1672.85 1607.06 
3557 1240.98 1665.36 1607.06 
3558 1246.18 1650.85 1607.06 
3559 1227.92 1651.43 1607.06 
3560 1295.57 1669.15 1607.06 
3561 1161.29 1654.07 1607.06 
3562 1458.47 1654.64 1607.06 
3563 1128.70 1652.67 1607.06 
3564 1243.58 1650.20 1607.06 
3565 1300.97 1667.80 1607.06 
3566 1260.35 1677.35 1607.06 
3567 1334.60 1670.37 1607.06 
3568 1529.50 1665.89 1607.06 
3569 1562.72 1648.20 1607.06 
3570 1197.21 1665.89 1607.06 
3571 1332.42 1686.57 1607.06 
3572 1411.66 1671.44 1607.06 
3573 1195.72 1697.30 1607.06 
3574 1176.71 1699.31 1607.06 
3575 1272.41 1740.01 1607.06 
3576 1310.93 1717.79 1607.06 
3577 1374.88 1711.46 1607.06 
3578 1351.74 1712.48 1607.06 
3579 1379.18 1712.44 1607.06 
3580 1311.90 1706.78 1607.06 
3581 1243.11 1684.75 1607.06 
3582 1336.65 1684.12 1607.06 
3583 1543.51 1699.79 1607.06 
3584 1424.32 1694.84 1607.06 
3585 1391.55 1681.51 1607.06 
3586 1238.86 1673.93 1607.06 
3587 1358.20 1675.36 1607.06 
3588 1260.20 1670.24 1607.06 
3589 1336.78 1672.10 1607.06 
3590 1374.06 1662.40 1607.06 
3591 1317.01 1671.21 1607.06 
3592 1255.85 1681.93 1607.06 
3593 1410.76 1675.65 1607.06 
3594 1339.67 1674.36 1607.06 
3595 1243.84 1690.07 1607.06 
3596 1185.31 1682.54 1607.06 
3597 1295.69 1677.61 1607.06 
3598 1350.56 1682.55 1607.06 
3599 1333.83 1669.97 1607.06 
3600 1291.43 1669.28 1607.06 
3601 1362.31 1686.93 1607.06 
3602 1205.49 1692.68 1607.06 
3603 1149.60 1678.20 1607.06 
3604 1237.99 1670.61 1607.06 
3605 1275.48 1672.40 1607.06 
3606 1415.74 1667.74 1607.06 
3607 1267.37 1669.27 1607.06 
3608 1351.04 1678.13 1607.06 
3609 1406.72 1699.54 1607.06 
3610 1305.59 1698.19 1607.06 
3611 1379.98 1729.46 1607.06 
3612 1309.61 1709.18 1607.06 
3613 1307.88 1744.53 1607.06 
3614 1376.38 1765.07 1607.06 
3615 1478.66 1765.38 1607.06 
3616 1293.84 1758.17 1607.06 
3617 1263.87 1761.95 1607.06 
3618 1407.49 1761.28 1607.06 
3619 1370.07 1765.07 1607.06 
3620 1303.82 1760.32 1607.06 
3621 1393.17 1755.24 1607.06 
3622 1340.74 1690.90 1607.06 
3623 1339.27 1699.16 1607.06 
3624 1387.22 1750.92 1607.06 
3625 1193.66 1754.67 1607.06 
3626 1366.37 1697.84 1607.06 
3627 1289.20 1751.47 1607.06 
3628 1250.94 1706.74 1607.06 
3629 1417.73 1725.01 1607.06 
3630 1339.33 1751.44 1607.06 
3631 1388.69 1725.63 1607.06 
3632 1214.64 1730.05 1607.06 
3633 1345.92 1673.53 1607.06 
3634 1460.94 1673.57 1607.06 
3635 1367.24 1701.97 1607.06 
3636 1424.48 1708.97 1607.06 
3637 1391.41 1676.08 1607.06 
3638 1405.75 1663.42 1607.06 
3639 1476.84 1659.09 1607.06 
3640 1284.24 1664.18 1607.06 
3641 1331.36 1766.27 1607.06 
3642 1365.96 1760.67 1607.06 
3643 1400.25 1713.71 1607.06 
3644 1422.63 1746.59 1607.06 
3645 1550.03 1714.38 1607.06 
3646 1513.22 1757.01 1607.06 
3647 1319.18 1757.64 1607.06 
3648 1371.36 1760.79 1607.06 
3649 1362.30 1766.17 1607.06 
3650 1352.08 1758.92 1607.06 
3651 1258.68 1753.89 1607.06 
3652 1161.13 1751.99 1607.06 
3653 1377.63 1665.80 1607.06 
3654 1270.28 1662.68 1607.06 
3655 1292.47 1665.78 1607.06 
3656 1266.18 1663.29 1607.06 
3657 1523.43 1656.40 1607.06 
3658 1304.93 1660.83 1607.06 
3659 1413.85 1740.59 1607.06 
3660 1265.55 1739.33 1607.06 
3661 1336.96 1746.22 1607.06 
3662 1299.55 1746.82 1607.06 
3663 1357.44 1747.53 1607.06 
3664 1288.54 1740.02 1607.06 
3665 1354.11 1740.64 1607.06 
3666 1370.25 1748.45 1607.06 
3667 1322.30 1743.43 1607.06 
3668 1329.07 1703.15 1607.06 
3669 1398.65 1731.27 1607.06 
3670 1304.26 1732.55 1607.06 
3671 1346.53 1736.23 1607.06 
3672 1437.91 1747.55 1607.06 
3673 1249.90 1741.89 1607.06 
3674 1177.77 1705.69 1607.06 
3675 1360.88 1736.85 1607.06 
3676 1208.72 1739.98 1607.06 
3677 1362.38 1736.82 1607.06 
3678 1258.77 1740.61 1607.06 
3679 1416.65 1739.95 1607.06 
3680 1424.77 1743.09 1607.06 
3681 1372.11 1760.01 1607.06 
3682 1312.67 1737.49 1607.06 
3683 1297.26 1742.56 1607.06 
3684 1247.21 1732.56 1607.06 
3685 1347.12 1740.69 1607.06 
3686 1198.40 1736.94 1607.06 
3687 1298.11 1732.56 1607.06 
3688 1567.49 1735.66 1607.06 
3689 1333.13 1750.07 1607.06 
3690 1259.19 1677.18 1607.06 
3691 1299.51 1761.36 1607.06 
3692 1261.35 1754.45 1607.06 
3693 1307.39 1754.48 1607.06 
3694 1287.41 1747.52 1607.06 
3695 1301.48 1755.66 1607.06 
3696 1390.16 1751.28 1607.06 
3697 1282.91 1746.56 1607.06 
3698 1232.73 1768.21 1607.06 
3699 1240.91 1765.99 1607.06 
3700 1291.65 1747.20 1607.06 
3701 1418.91 1784.68 1607.06 
3702 1292.85 1691.31 1607.06 
3703 1226.55 1788.74 1607.06 
3704 1192.97 1691.01 1607.06 
3705 1257.90 1669.13 1607.06 
3706 1211.52 1791.58 1607.06 
3707 1296.80 1690.97 1607.06 
3708 1214.25 1702.31 1607.06 
3709 1456.65 1693.51 1607.06 
3710 1290.83 1691.03 1607.06 
3711 1487.26 1780.96 1607.06 
3712 1384.67 1784.06 1607.06 
3713 1244.59 1770.91 1607.06 
3714 1329.48 1770.96 1607.06 
3715 1353.71 1771.59 1607.06 
3716 1486.83 1750.29 1607.06 
3717 1354.78 1761.60 1607.06 
3718 1411.30 1763.54 1607.06 
3719 1262.91 1778.54 1607.06 
3720 1305.94 1673.53 1607.06 
3721 1365.49 1679.79 1607.06 
3722 1275.27 1683.55 1607.06 
3723 1046.07 1683.52 1607.06 
3724 1338.99 1684.18 1607.06 
3725 1224.03 1679.80 1607.06 
3726 1386.95 1676.03 1607.06 
3727 1437.95 1675.96 1607.06 
3728 1303.77 1680.35 1607.06 
3729 1311.95 1676.61 1607.06 
3730 1341.16 1662.78 1607.06 
3731 1318.77 1650.91 1607.06 
3732 1258.06 1676.56 1607.06 
3733 1112.62 1672.75 1607.06 
3734 1455.40 1683.82 1607.06 
3735 1256.65 1688.23 1607.06 
3736 1127.04 1702.40 1607.06 
3737 1318.03 1704.20 1607.06 
3738 1291.12 1711.78 1607.06 
3739 1396.83 1742.70 1607.06 
3740 1369.22 1728.33 1607.06 
3741 1294.71 1643.51 1607.06 
3742 1291.52 1641.39 1607.06 
3743 1358.37 1777.56 1607.06 
3744 1282.10 1768.51 1607.06 
3745 1253.33 1777.32 1607.06 
3746 1435.34 1779.51 1607.06 
3747 1338.82 1777.33 1607.06 
3748 1282.45 1777.38 1607.06 
3749 1429.62 1783.66 1607.06 
3750 1327.26 1776.78 1607.06 
3751 1368.75 1789.91 1607.06 
3752 1542.06 1786.17 1607.06 
3753 1534.96 1786.80 1607.06 
3754 1322.80 1783.08 1607.06 
3755 1495.62 1786.50 1607.06 
3756 1295.06 1786.78 1607.06 
3757 1284.92 1789.33 1607.06 
3758 1341.80 1789.31 1607.06 
3759 1441.02 1793.08 1607.06 
3760 1419.35 1793.06 1607.06 
3761 1245.36 1783.68 1607.06 
3762 1207.21 1781.19 1607.06 
3763 1319.77 1793.10 1607.06 
3764 1268.73 1790.62 1607.06 
3765 1394.62 1789.35 1607.06 
3766 1424.69 1786.23 1607.06 
3767 1168.21 1770.54 1607.06 
3768 1204.95 1782.10 1607.06 
3769 1544.67 1786.17 1607.06 
3770 1300.69 1783.03 1607.06 
3771 1448.53 1786.16 1607.06 
3772 1514.36 1779.25 1607.06 
3773 1165.14 1779.23 1607.06 
3774 1357.33 1776.72 1607.06 
3775 1548.19 1761.06 1607.06 
3776 1465.99 1779.82 1607.06 
3777 1285.46 1783.86 1607.06 
3778 1386.56 1781.05 1607.06 
3779 1349.83 1786.68 1607.06 
3780 1411.45 1770.68 1607.06 
3781 1224.88 1773.80 1607.06 
3782 1393.06 1777.82 1607.06 
3783 1314.13 1768.46 1607.06 
3784 1357.87 1762.88 1607.06 
3785 1333.81 1754.08 1607.06 
3786 1335.34 1745.55 1607.06 
3787 1407.88 1741.09 1607.06 
3788 1399.35 1752.22 1607.06 
3789 1429.70 1743.43 1607.06 
3790 1120.51 1750.28 1607.06 
3791 1366.34 1748.99 1607.06 
3792 1369.47 1761.47 1607.06 
3793 1188.14 1761.48 1607.06 
3794 1431.56 1769.55 1607.06 
3795 1412.34 1749.65 1607.06 
3796 1222.51 1742.78 1607.06 
3797 1348.92 1739.65 1607.06 
3798 1356.62 1735.27 1607.06 
3799 1149.50 1734.67 1607.06 
3800 1445.93 1732.19 1607.06 
3801 1339.01 1739.12 1607.06 
3802 1263.11 1671.80 1607.06 
3803 1463.19 1741.08 1607.06 
3804 1256.95 1771.00 1607.06 
3805 1272.41 1763.52 1607.06 
3806 1309.08 1691.92 1607.06 
3807 1279.70 1688.16 1607.06 
3808 1370.08 1675.60 1607.06 
3809 1316.14 1673.66 1607.06 
3810 1417.88 1745.35 1607.06 
3811 1253.52 1681.24 1607.06 
3812 1357.19 1678.73 1607.06 
3813 1511.28 1685.01 1607.06 
3814 1190.71 1697.04 1607.06 
3815 1289.33 1760.38 1607.06 
3816 1230.07 1775.39 1607.06 
3817 1418.16 1696.37 1607.06 
3818 1332.82 1686.30 1607.06 
3819 1518.81 1691.28 1607.06 
3820 1353.58 1693.19 1607.06 
3821 1378.04 1696.38 1607.06 
3822 1331.95 1656.62 1607.06 
3823 1345.46 1695.16 1607.06 
3824 1377.97 1696.09 1607.06 
3825 1273.13 1698.55 1607.06 
3826 1395.34 1691.94 1607.06 
3827 1351.06 1707.63 1607.06 
3828 1305.71 1702.54 1607.06 
3829 1308.93 1706.32 1607.06 
3830 1557.40 1693.17 1607.06 
3831 1399.64 1696.31 1607.06 
3832 1359.42 1710.80 1607.06 
3833 1339.36 1778.59 1607.06 
3834 1378.66 1787.94 1607.06 
3835 1500.48 1779.22 1607.06 
3836 1451.50 1773.01 1607.06 
3837 1343.76 1783.00 1607.06 
3838 1311.21 1787.42 1607.06 
3839 1335.77 1791.13 1607.06 
3840 1612.57 1791.77 1607.06 
3841 1235.44 1790.51 1612.57 
3842 1211.97 1791.12 1612.57 
3843 1267.60 1788.62 1612.57 
3844 1479.05 1788.61 1612.57 
3845 1440.63 1788.66 1612.57 
3846 1351.20 1779.22 1612.57 
3847 1351.68 1788.61 1612.57 
3848 1463.21 1794.21 1612.57 
3849 1358.33 1789.22 1612.57 
3850 1328.72 1711.27 1612.57 
3851 1254.74 1791.71 1612.57 
3852 1219.29 1798.54 1612.57 
3853 1396.75 1796.03 1612.57 
3854 1247.25 1789.77 1612.57 
3855 1293.07 1779.77 1612.57 
3856 1485.66 1786.02 1612.57 
3857 1476.47 1789.17 1612.57 
3858 1426.70 1788.56 1612.57 
3859 1396.87 1798.55 1612.57 
3860 1333.36 1795.40 1612.57 
3861 1144.39 1798.56 1612.57 
3862 1346.69 1798.53 1612.57 
3863 1352.73 1799.22 1612.57 
3864 1409.67 1798.56 1612.57 
3865 1447.72 1806.07 1612.57 
3866 1432.27 1805.45 1612.57 
3867 1418.97 1800.43 1612.57 
3868 1393.61 1802.32 1612.57 
3869 1303.01 1803.59 1612.57 
3870 1207.00 1803.62 1612.57 
3871 1407.66 1803.00 1612.57 
3872 1296.77 1796.78 1612.57 
3873 1505.90 1796.82 1612.57 
3874 1427.50 1803.11 1612.57 
3875 1229.64 1803.75 1612.57 
3876 1467.38 1796.84 1612.57 
3877 1339.77 1798.15 1612.57 
3878 1234.44 1796.85 1612.57 
3879 1233.00 1799.38 1612.57 
3880 1458.16 1798.72 1612.57 
3881 1397.82 1795.61 1612.57 
3882 1374.77 1803.17 1612.57 
3883 1390.34 1801.87 1612.57 
3884 1328.31 1801.89 1612.57 
3885 1242.89 1798.76 1612.57 
3886 1439.22 1802.49 1612.57 
3887 1380.85 1801.85 1612.57 
3888 1328.13 1795.62 1612.57 
3889 1270.51 1791.87 1612.57 
3890 1439.32 1801.90 1612.57 
3891 1288.44 1798.16 1612.57 
3892 1266.66 1801.27 1612.57 
3893 1469.45 1798.14 1612.57 
3894 1385.06 1786.24 1612.57 
3895 1257.43 1797.51 1612.57 
3896 1478.55 1798.78 1612.57 
3897 1476.39 1795.00 1612.57 
3898 1182.04 1792.52 1612.57 
3899 1355.08 1797.59 1612.57 
3900 1278.86 1798.17 1612.57 
3901 1317.47 1799.40 1612.57 
3902 1434.23 1791.56 1612.57 
3903 1398.48 1795.61 1612.57 
3904 1608.19 1790.89 1612.57 
3905 1306.82 1795.57 1612.57 
3906 1236.48 1795.54 1612.57 
3907 1477.54 1788.62 1612.57 
3908 1325.66 1782.37 1612.57 
3909 1398.09 1794.90 1612.57 
3910 1363.71 1779.24 1612.57 
3911 1411.49 1779.27 1612.57 
3912 1432.75 1789.30 1612.57 
3913 1376.24 1791.17 1612.57 
3914 1394.85 1796.16 1612.57 
3915 1389.23 1788.04 1612.57 
3916 1219.71 1790.57 1612.57 
3917 1402.66 1794.31 1612.57 
3918 1278.41 1790.51 1612.57 
3919 1363.76 1782.44 1612.57 
3920 1330.52 1775.58 1612.57 
3921 1545.99 1778.66 1612.57 
3922 1490.04 1775.61 1612.57 
3923 1358.05 1776.22 1612.57 
3924 1347.95 1778.78 1612.57 
3925 1249.84 1778.11 1612.57 
3926 1306.80 1778.74 1612.57 
3927 1284.67 1780.64 1612.57 
3928 1214.83 1776.83 1612.57 
3929 1272.86 1779.98 1612.57 
3930 1371.82 1781.24 1612.57 
3931 1259.45 1778.75 1612.57 
3932 1362.80 1768.13 1612.57 
3933 1312.99 1768.72 1612.57 
3934 1400.85 1767.47 1612.57 
3935 1372.46 1764.99 1612.57 
3936 1230.68 1768.11 1612.57 
3937 1368.15 1764.98 1612.57 
3938 1256.00 1762.45 1612.57 
3939 1485.45 1756.19 1612.57 
3940 1500.18 1755.58 1612.57 
3941 1078.08 1762.43 1612.57 
3942 1389.08 1766.22 1612.57 
3943 1319.51 1772.42 1612.57 
3944 1395.77 1766.16 1612.57 
3945 1491.39 1776.19 1612.57 
3946 1405.47 1769.97 1612.57 
3947 1342.18 1766.81 1612.57 
3948 1325.94 1772.44 1612.57 
3949 1618.02 1769.31 1612.57 
3950 1348.15 1773.09 1618.02 
3951 1361.56 1776.85 1618.02 
3952 1275.69 1773.70 1618.02 
3953 1363.39 1763.76 1618.02 
3954 1378.54 1766.85 1618.02 
3955 1441.85 1764.35 1618.02 
3956 1356.68 1763.71 1618.02 
3957 1313.06 1756.81 1618.02 
3958 1320.88 1751.20 1618.02 
3959 1353.08 1756.83 1618.02 
3960 1337.31 1766.84 1618.02 
3961 1504.10 1755.48 1618.02 
3962 1291.63 1749.22 1618.02 
3963 1393.63 1742.92 1618.02 
3964 1544.25 1753.57 1618.02 
3965 1352.02 1756.71 1618.02 
3966 1368.24 1756.73 1618.02 
3967 1435.20 1751.07 1618.02 
3968 1172.83 1738.49 1618.02 
3969 1226.12 1695.28 1618.02 
3970 1227.19 1702.17 1618.02 
3971 1320.27 1699.67 1618.02 
3972 1493.42 1705.92 1618.02 
3973 1503.56 1702.16 1618.02 
3974 1333.79 1702.75 1618.02 
3975 1354.73 1705.25 1618.02 
3976 1591.84 1705.97 1618.02 
3977 1418.15 1710.35 1618.02 
3978 1429.78 1715.34 1618.02 
3979 1157.92 1730.44 1618.02 
3980 1428.98 1761.01 1618.02 
3981 1303.60 1761.70 1618.02 
3982 1456.31 1653.88 1618.02 
3983 1452.44 1702.00 1618.02 
3984 1217.86 1693.75 1618.02 
3985 1478.62 1698.18 1618.02 
3986 1408.24 1639.85 1618.02 
3987 1344.40 1648.08 1618.02 
3988 1324.67 1658.79 1618.02 
3989 1420.19 1690.01 1618.02 
3990 1360.77 1701.37 1618.02 
3991 1334.78 1658.78 1618.02 
3992 1422.76 1658.80 1618.02 
3993 1300.91 1651.22 1618.02 
3994 1425.84 1642.44 1618.02 
3995 1256.56 1644.98 1618.02 
3996 1216.20 1639.07 1618.02 
3997 1258.85 1638.52 1618.02 
3998 1435.50 1617.76 1618.02 
3999 1370.71 1636.60 1618.02 
4000 1295.81 1649.41 1618.02 
4001 1431.57 1652.93 1618.02 
4002 1307.55 1662.05 1618.02 
4003 1366.54 1663.93 1618.02 
4004 1386.34 1661.45 1618.02 
4005 1237.57 1654.46 1618.02 
4006 1480.73 1649.42 1618.02 
4007 1279.04 1650.05 1618.02 
4008 1293.82 1641.85 1618.02 
4009 1304.37 1649.42 1618.02 
4010 1449.71 1653.21 1618.02 
4011 1497.41 1652.54 1618.02 
4012 1503.50 1656.35 1618.02 
4013 1277.72 1648.74 1618.02 
4014 1337.59 1651.89 1618.02 
4015 1385.11 1651.39 1618.02 
4016 1474.43 1671.40 1618.02 
4017 1302.45 1671.44 1618.02 
4018 1530.30 1664.51 1618.02 
4019 1221.00 1635.51 1618.02 
4020 1250.17 1633.69 1618.02 
4021 1145.45 1641.86 1618.02 
4022 1230.47 1639.34 1618.02 
4023 1141.05 1638.71 1618.02 
4024 1211.17 1636.78 1618.02 
4025 1422.27 1634.87 1618.02 
4026 1357.38 1627.32 1618.02 
4027 1355.21 1627.32 1618.02 
4028 1318.55 1634.88 1618.02 
4029 1149.44 1642.44 1618.02 
4030 1338.85 1641.83 1618.02 
4031 1357.79 1642.42 1618.02 
4032 1194.74 1649.31 1618.02 
4033 1453.82 1651.12 1618.02 
4034 1374.74 1650.80 1618.02 
4035 1371.85 1638.29 1618.02 
4036 1330.78 1645.54 1618.02 
4037 1259.09 1688.03 1618.02 
4038 1309.38 1660.60 1618.02 
4039 1559.18 1678.93 1618.02 
4040 1457.19 1684.01 1618.02 
4041 1422.83 1694.02 1618.02 
4042 1477.36 1691.54 1618.02 
4043 1214.99 1721.25 1618.02 
4044 1422.85 1774.80 1618.02 
4045 1326.63 1774.83 1618.02 
4046 1473.19 1771.73 1618.02 
4047 1347.14 1778.65 1618.02 
4048 1257.50 1781.76 1618.02 
4049 1336.83 1780.49 1618.02 
4050 1298.24 1774.20 1618.02 
4051 1624.77 1775.54 1618.02 
4052 1213.75 1784.88 1624.77 
4053 1287.75 1787.98 1624.77 
4054 1537.78 1781.72 1624.77 
4055 1437.49 1781.09 1624.77 
4056 1479.32 1780.41 1624.77 
4057 1434.21 1776.63 1624.77 
4058 1347.83 1790.42 1624.77 
4059 1242.00 1784.20 1624.77 
4060 1492.89 1781.09 1624.77 
4061 1444.21 1784.20 1624.77 
4062 1418.86 1785.44 1624.77 
4063 1295.47 1784.80 1624.77 
4064 1326.29 1787.34 1624.77 
4065 1058.44 1787.99 1624.77 
4066 1277.15 1794.22 1624.77 
4067 1387.51 1784.73 1624.77 
4068 1484.50 1787.91 1624.77 
4069 1247.28 1791.08 1624.77 
4070 1402.42 1787.25 1624.77 
4071 1493.14 1783.39 1624.77 
4072 1370.32 1785.94 1624.77 
4073 1373.99 1757.46 1624.77 
4074 1349.21 1759.87 1624.77 
4075 1398.21 1770.89 1624.77 
4076 1279.83 1766.19 1624.77 
4077 1362.87 1774.02 1624.77 
4078 1282.39 1769.95 1624.77 
4079 1431.63 1777.75 1624.77 
4080 1350.30 1760.88 1624.77 
4081 1251.96 1753.69 1624.77 
4082 1419.03 1764.63 1624.77 
4083 1428.53 1764.65 1624.77 
4084 1412.72 1764.65 1624.77 
4085 1423.60 1775.28 1624.77 
4086 1456.75 1771.54 1624.77 
4087 1280.76 1772.18 1624.77 
4088 1392.01 1728.29 1624.77 
4089 1573.72 1684.89 1624.77 
4090 1350.52 1688.69 1624.77 
