Iter | Sampling Pol | Evaluation Pol | Best (Sampled) 
   0 -4.90 -112.38 -100000000.00 
   1 59.27 -83.77 -4.90 
   2 179.15 73.90 59.27 
   3 224.84 233.81 179.15 
   4 293.89 474.70 224.84 
   5 346.17 531.51 293.89 
   6 402.49 563.25 346.17 
   7 441.34 569.91 402.49 
   8 479.60 575.57 441.34 
   9 541.09 606.86 479.60 
  10 561.69 624.62 541.09 
  11 575.13 646.70 561.69 
  12 598.32 678.08 575.13 
  13 629.73 678.48 598.32 
  14 637.89 683.76 629.73 
  15 627.15 688.58 637.89 
  16 650.25 689.94 637.89 
  17 658.51 700.55 650.25 
  18 658.88 704.42 658.51 
  19 685.83 704.29 658.88 
  20 672.34 707.27 685.83 
  21 686.25 711.20 685.83 
  22 684.43 715.25 686.25 
  23 690.79 715.58 686.25 
  24 690.70 718.34 690.79 
  25 698.84 719.82 690.79 
  26 694.42 723.32 698.84 
  27 700.30 726.02 698.84 
  28 704.14 727.02 700.30 
  29 708.05 724.85 704.14 
  30 713.64 728.11 708.05 
  31 713.56 731.26 713.64 
  32 717.20 729.85 713.64 
  33 718.34 731.76 717.20 
  34 714.99 730.98 718.34 
  35 717.36 727.75 718.34 
  36 714.32 729.21 718.34 
  37 716.90 730.72 718.34 
  38 718.98 732.37 718.34 
  39 721.14 734.17 718.98 
  40 723.99 735.21 721.14 
  41 724.45 734.24 723.99 
  42 724.99 735.09 724.45 
  43 721.05 735.15 724.99 
  44 723.76 735.56 724.99 
  45 722.74 734.43 724.99 
  46 729.40 733.95 724.99 
  47 722.92 737.55 729.40 
  48 732.99 738.50 729.40 
  49 719.91 740.73 732.99 
  50 726.93 740.31 732.99 
  51 731.03 738.94 732.99 
  52 730.42 739.10 732.99 
  53 728.26 739.65 732.99 
  54 730.80 739.69 732.99 
  55 730.40 739.67 732.99 
  56 734.50 739.52 732.99 
  57 734.54 739.90 734.50 
  58 737.88 740.36 734.54 
  59 730.58 740.55 737.88 
  60 730.59 741.96 737.88 
  61 733.48 740.93 737.88 
  62 732.40 740.97 737.88 
  63 734.81 742.39 737.88 
  64 740.77 741.97 737.88 
  65 738.31 741.95 740.77 
  66 735.38 741.29 740.77 
  67 739.34 741.76 740.77 
  68 743.54 741.79 740.77 
  69 737.96 740.61 743.54 
  70 736.73 740.82 743.54 
  71 736.38 741.47 743.54 
  72 735.73 742.02 743.54 
  73 745.52 742.18 743.54 
  74 741.76 743.04 745.52 
  75 741.85 743.87 745.52 
  76 741.11 744.47 745.52 
  77 740.09 745.01 745.52 
  78 744.90 743.12 745.52 
  79 737.37 744.95 745.52 
  80 744.49 744.39 745.52 
  81 738.40 744.24 745.52 
  82 739.42 744.38 745.52 
  83 739.93 744.05 745.52 
  84 745.87 744.29 745.52 
  85 744.24 743.74 745.87 
  86 743.63 743.35 745.87 
  87 749.98 743.54 745.87 
  88 744.05 743.24 749.98 
  89 752.36 743.21 749.98 
  90 745.48 742.49 752.36 
  91 742.45 742.54 752.36 
  92 737.46 742.85 752.36 
  93 744.20 743.51 752.36 
  94 745.95 742.14 752.36 
  95 746.19 739.48 752.36 
  96 739.89 738.18 752.36 
  97 744.99 738.11 752.36 
  98 743.26 738.42 752.36 
  99 743.84 739.30 752.36 
 100 743.99 739.53 752.36 
 101 745.36 740.98 752.36 
 102 749.12 741.48 752.36 
 103 747.34 742.13 752.36 
 104 747.67 742.82 752.36 
 105 747.79 743.38 752.36 
 106 749.56 743.31 752.36 
 107 746.72 743.47 752.36 
 108 742.00 742.48 752.36 
 109 745.73 743.31 752.36 
 110 749.42 743.92 752.36 
 111 749.26 743.77 752.36 
 112 752.43 743.76 752.36 
 113 750.36 743.93 752.43 
 114 747.20 743.87 752.43 
 115 749.28 744.67 752.43 
 116 752.40 744.41 752.43 
 117 752.72 744.42 752.43 
 118 755.06 744.77 752.72 
 119 754.09 744.18 755.06 
 120 748.97 744.54 755.06 
 121 749.79 744.26 755.06 
 122 750.60 744.09 755.06 
 123 748.44 744.26 755.06 
 124 756.13 744.19 755.06 
 125 750.96 744.85 756.13 
 126 755.59 744.47 756.13 
 127 750.46 744.76 756.13 
 128 750.31 744.82 756.13 
 129 748.95 744.09 756.13 
 130 748.04 743.67 756.13 
 131 752.09 743.05 756.13 
 132 749.60 743.81 756.13 
 133 748.75 743.29 756.13 
 134 747.53 742.54 756.13 
 135 746.03 742.54 756.13 
 136 753.05 742.48 756.13 
 137 745.98 742.61 756.13 
 138 752.38 743.02 756.13 
 139 751.08 742.74 756.13 
 140 752.58 742.87 756.13 
 141 748.30 742.61 756.13 
 142 753.38 742.44 756.13 
 143 750.18 743.14 756.13 
 144 751.97 743.18 756.13 
 145 749.11 743.00 756.13 
 146 747.67 743.03 756.13 
 147 742.64 742.85 756.13 
 148 748.23 742.33 756.13 
 149 753.14 741.98 756.13 
 150 754.14 741.23 756.13 
 151 749.59 741.19 756.13 
 152 748.28 740.73 756.13 
 153 747.56 740.44 756.13 
 154 752.05 739.31 756.13 
 155 749.47 740.00 756.13 
 156 749.75 741.91 756.13 
 157 752.78 742.07 756.13 
 158 751.58 740.64 756.13 
 159 750.95 739.71 756.13 
 160 747.96 739.82 756.13 
 161 752.57 740.41 756.13 
 162 754.23 741.18 756.13 
 163 754.48 742.37 756.13 
 164 753.45 743.59 756.13 
 165 751.64 743.70 756.13 
 166 746.21 743.91 756.13 
 167 749.89 744.58 756.13 
 168 754.42 743.94 756.13 
 169 748.06 744.74 756.13 
 170 751.42 744.78 756.13 
 171 757.68 744.70 756.13 
 172 751.47 744.79 757.68 
 173 754.51 745.11 757.68 
 174 755.39 744.34 757.68 
 175 745.63 744.12 757.68 
 176 750.68 744.36 757.68 
 177 752.07 743.56 757.68 
 178 750.66 743.98 757.68 
 179 743.83 743.95 757.68 
 180 747.39 744.71 757.68 
 181 750.89 744.90 757.68 
 182 750.21 744.76 757.68 
 183 752.71 745.02 757.68 
 184 753.06 745.14 757.68 
 185 751.68 745.00 757.68 
 186 752.44 744.47 757.68 
 187 757.19 744.37 757.68 
 188 747.80 744.98 757.68 
 189 752.41 744.57 757.68 
 190 753.02 744.74 757.68 
 191 752.06 743.89 757.68 
 192 757.03 744.23 757.68 
 193 751.40 744.66 757.68 
 194 754.43 744.20 757.68 
 195 749.17 744.31 757.68 
 196 751.70 744.41 757.68 
 197 756.32 744.31 757.68 
 198 749.56 744.50 757.68 
 199 752.96 744.76 757.68 
 200 751.42 744.76 757.68 
 201 753.59 744.71 757.68 
 202 752.51 745.06 757.68 
 203 753.44 744.71 757.68 
 204 757.65 745.13 757.68 
 205 755.31 745.41 757.68 
 206 753.54 745.17 757.68 
 207 748.21 744.94 757.68 
 208 754.90 744.93 757.68 
 209 749.23 744.78 757.68 
 210 756.86 744.78 757.68 
 211 748.09 744.78 757.68 
 212 753.59 744.59 757.68 
 213 753.68 744.69 757.68 
 214 752.95 744.64 757.68 
 215 759.84 744.43 757.68 
 216 751.14 744.41 759.84 
 217 752.52 744.36 759.84 
 218 751.39 743.88 759.84 
 219 755.46 742.93 759.84 
 220 753.76 742.94 759.84 
 221 751.40 742.48 759.84 
 222 752.28 742.97 759.84 
 223 747.53 743.34 759.84 
 224 747.10 743.00 759.84 
 225 753.73 742.51 759.84 
 226 757.28 742.14 759.84 
 227 760.25 741.27 759.84 
 228 748.76 742.65 760.25 
 229 750.07 743.82 760.25 
 230 753.87 743.37 760.25 
 231 751.46 743.49 760.25 
 232 752.02 744.80 760.25 
 233 756.56 743.79 760.25 
 234 748.21 743.99 760.25 
 235 750.78 743.56 760.25 
 236 753.55 744.66 760.25 
 237 750.09 744.00 760.25 
 238 754.28 744.32 760.25 
 239 755.91 744.51 760.25 
 240 754.33 744.16 760.25 
 241 751.27 744.12 760.25 
 242 744.71 744.13 760.25 
 243 752.51 744.06 760.25 
 244 748.07 744.11 760.25 
 245 747.72 744.11 760.25 
 246 747.55 744.26 760.25 
 247 756.54 744.22 760.25 
 248 750.63 744.34 760.25 
 249 751.92 744.48 760.25 
 250 751.81 744.27 760.25 
 251 755.08 744.61 760.25 
 252 748.44 744.45 760.25 
 253 753.17 745.15 760.25 
 254 754.20 744.72 760.25 
 255 752.98 744.55 760.25 
 256 753.10 744.71 760.25 
 257 748.28 744.38 760.25 
 258 752.77 744.45 760.25 
 259 753.53 744.85 760.25 
 260 754.84 745.05 760.25 
 261 753.23 744.92 760.25 
 262 749.94 744.95 760.25 
 263 753.15 744.74 760.25 
 264 749.41 744.18 760.25 
 265 755.44 744.23 760.25 
 266 752.79 743.90 760.25 
 267 757.27 744.42 760.25 
 268 749.52 744.20 760.25 
 269 753.26 744.21 760.25 
 270 757.35 744.83 760.25 
 271 750.73 745.29 760.25 
 272 753.13 744.97 760.25 
 273 756.10 744.56 760.25 
 274 752.19 744.60 760.25 
 275 750.47 745.02 760.25 
 276 754.11 744.73 760.25 
 277 746.70 744.61 760.25 
 278 753.03 744.70 760.25 
 279 749.08 744.79 760.25 
 280 755.86 744.93 760.25 
 281 754.60 744.61 760.25 
 282 753.89 744.57 760.25 
 283 756.68 744.47 760.25 
 284 752.85 744.52 760.25 
 285 753.81 743.10 760.25 
 286 752.75 742.46 760.25 
 287 762.22 743.00 760.25 
 288 762.54 744.16 762.22 
 289 748.40 742.27 762.54 
 290 754.66 743.97 762.54 
 291 753.91 744.80 762.54 
 292 754.38 745.20 762.54 
 293 753.25 745.31 762.54 
 294 756.17 745.12 762.54 
 295 755.10 744.48 762.54 
 296 746.01 744.51 762.54 
 297 754.91 744.57 762.54 
 298 747.02 745.02 762.54 
 299 743.56 744.70 762.54 
 300 752.17 744.55 762.54 
 301 753.95 744.75 762.54 
 302 755.47 744.70 762.54 
 303 757.39 745.31 762.54 
 304 752.76 744.84 762.54 
 305 757.20 744.32 762.54 
 306 747.59 743.88 762.54 
 307 753.37 743.75 762.54 
 308 757.37 744.01 762.54 
 309 751.91 744.38 762.54 
 310 754.49 744.39 762.54 
 311 754.44 744.68 762.54 
 312 752.60 743.77 762.54 
 313 755.43 744.12 762.54 
 314 751.51 743.07 762.54 
 315 758.46 743.68 762.54 
 316 758.06 743.60 762.54 
 317 760.10 742.20 762.54 
 318 752.92 742.28 762.54 
 319 750.54 742.87 762.54 
 320 746.76 742.80 762.54 
 321 752.18 743.11 762.54 
 322 755.88 743.09 762.54 
 323 758.77 743.37 762.54 
 324 761.00 744.07 762.54 
 325 753.26 743.88 762.54 
 326 748.95 743.96 762.54 
 327 753.65 743.90 762.54 
 328 756.99 743.38 762.54 
 329 752.12 744.19 762.54 
 330 754.68 744.44 762.54 
 331 755.64 743.59 762.54 
 332 750.55 742.93 762.54 
 333 756.71 743.88 762.54 
 334 751.47 743.32 762.54 
 335 750.73 743.32 762.54 
 336 757.50 743.89 762.54 
 337 754.78 744.84 762.54 
 338 753.86 745.83 762.54 
 339 753.11 745.63 762.54 
 340 757.40 745.87 762.54 
 341 751.00 745.56 762.54 
 342 757.17 746.17 762.54 
 343 749.95 746.09 762.54 
 344 758.70 745.89 762.54 
 345 750.67 745.94 762.54 
 346 757.84 745.46 762.54 
 347 750.77 746.22 762.54 
 348 751.60 745.91 762.54 
 349 751.51 745.97 762.54 
 350 752.33 746.08 762.54 
 351 756.16 745.90 762.54 
 352 761.39 745.91 762.54 
 353 754.17 746.04 762.54 
 354 749.08 746.20 762.54 
 355 750.09 746.64 762.54 
 356 753.82 746.31 762.54 
 357 756.39 746.18 762.54 
 358 753.67 746.06 762.54 
 359 758.58 746.27 762.54 
 360 758.68 746.33 762.54 
 361 759.71 745.70 762.54 
 362 753.63 745.67 762.54 
 363 754.80 745.84 762.54 
 364 755.20 745.28 762.54 
 365 757.14 745.80 762.54 
 366 755.38 745.85 762.54 
 367 749.92 745.98 762.54 
 368 760.27 746.26 762.54 
 369 753.06 746.15 762.54 
 370 747.75 745.68 762.54 
 371 755.28 745.81 762.54 
 372 757.81 745.96 762.54 
 373 755.28 745.62 762.54 
 374 758.61 745.88 762.54 
 375 756.29 746.21 762.54 
 376 757.27 745.66 762.54 
 377 752.36 745.60 762.54 
 378 758.28 745.55 762.54 
 379 753.06 745.57 762.54 
 380 753.44 745.71 762.54 
 381 756.19 745.30 762.54 
 382 756.55 745.25 762.54 
 383 757.75 744.53 762.54 
 384 747.54 744.49 762.54 
 385 754.03 744.84 762.54 
 386 750.91 744.89 762.54 
 387 756.41 745.34 762.54 
 388 749.73 745.29 762.54 
 389 754.94 744.86 762.54 
 390 757.80 744.85 762.54 
 391 756.49 744.99 762.54 
 392 757.57 745.15 762.54 
 393 756.27 745.51 762.54 
 394 757.42 746.31 762.54 
 395 751.18 745.98 762.54 
 396 758.25 746.09 762.54 
 397 747.83 746.29 762.54 
 398 755.53 745.74 762.54 
 399 755.02 745.67 762.54 
 400 748.47 745.59 762.54 
 401 750.48 745.51 762.54 
 402 754.49 746.01 762.54 
 403 748.98 746.00 762.54 
 404 754.08 745.64 762.54 
 405 758.48 745.08 762.54 
 406 754.05 744.90 762.54 
 407 756.12 745.53 762.54 
 408 756.78 745.54 762.54 
 409 759.19 745.47 762.54 
 410 754.54 745.55 762.54 
 411 748.75 745.46 762.54 
 412 753.27 745.54 762.54 
 413 748.60 745.25 762.54 
 414 758.22 745.51 762.54 
 415 754.60 745.42 762.54 
 416 752.08 745.27 762.54 
 417 750.93 745.19 762.54 
 418 752.36 745.11 762.54 
 419 757.24 744.79 762.54 
 420 755.32 745.39 762.54 
 421 750.63 745.35 762.54 
 422 754.40 745.68 762.54 
 423 754.30 745.22 762.54 
 424 755.55 745.27 762.54 
 425 754.23 745.20 762.54 
 426 753.25 745.23 762.54 
 427 754.41 745.39 762.54 
 428 754.14 745.39 762.54 
 429 751.20 745.40 762.54 
 430 754.87 744.91 762.54 
 431 750.93 745.27 762.54 
 432 755.82 745.20 762.54 
 433 753.73 745.27 762.54 
 434 754.65 745.31 762.54 
 435 752.45 745.03 762.54 
 436 751.05 744.66 762.54 
 437 753.79 745.82 762.54 
 438 749.17 745.87 762.54 
 439 755.04 745.65 762.54 
 440 760.02 745.28 762.54 
 441 753.14 745.71 762.54 
 442 751.44 745.63 762.54 
 443 753.97 745.50 762.54 
 444 755.30 745.60 762.54 
 445 763.50 745.52 762.54 
 446 753.43 745.84 763.50 
 447 757.78 745.81 763.50 
 448 753.02 745.66 763.50 
 449 756.24 745.62 763.50 
 450 755.29 745.65 763.50 
 451 755.86 745.61 763.50 
 452 756.45 745.55 763.50 
 453 757.47 745.53 763.50 
 454 759.82 745.88 763.50 
 455 752.91 745.89 763.50 
 456 760.19 745.65 763.50 
 457 752.81 745.74 763.50 
 458 757.50 745.46 763.50 
 459 756.73 745.68 763.50 
 460 752.79 746.17 763.50 
 461 755.17 746.32 763.50 
 462 753.76 746.08 763.50 
 463 756.55 745.50 763.50 
 464 755.75 745.84 763.50 
 465 754.26 745.79 763.50 
 466 757.33 745.72 763.50 
 467 760.90 746.24 763.50 
 468 749.14 746.29 763.50 
 469 756.71 746.60 763.50 
 470 744.14 746.66 763.50 
 471 759.34 746.75 763.50 
 472 751.46 746.37 763.50 
 473 756.06 746.03 763.50 
 474 758.04 745.83 763.50 
 475 752.40 746.04 763.50 
 476 752.52 745.94 763.50 
 477 749.47 745.73 763.50 
 478 750.81 744.98 763.50 
 479 754.98 745.41 763.50 
 480 753.73 745.29 763.50 
 481 757.60 745.18 763.50 
 482 754.13 745.43 763.50 
 483 757.86 745.75 763.50 
 484 758.54 745.76 763.50 
 485 753.76 745.71 763.50 
 486 754.62 745.42 763.50 
 487 758.13 744.90 763.50 
 488 758.95 745.07 763.50 
 489 761.03 745.15 763.50 
 490 750.73 744.76 763.50 
 491 759.81 744.69 763.50 
 492 757.02 744.57 763.50 
 493 751.91 745.81 763.50 
 494 754.09 745.55 763.50 
 495 760.55 745.72 763.50 
 496 754.60 745.67 763.50 
 497 750.46 745.43 763.50 
 498 756.68 745.61 763.50 
 499 753.65 744.96 763.50 
 500 757.04 745.77 763.50 
 501 753.67 745.36 763.50 
 502 760.62 745.78 763.50 
 503 749.04 745.45 763.50 
 504 760.09 745.30 763.50 
 505 756.52 745.63 763.50 
 506 755.93 745.46 763.50 
 507 755.05 745.44 763.50 
 508 753.44 745.56 763.50 
 509 756.73 745.42 763.50 
 510 758.60 745.78 763.50 
 511 753.50 745.53 763.50 
 512 751.78 745.16 763.50 
 513 751.90 745.55 763.50 
 514 757.04 745.41 763.50 
 515 760.42 745.57 763.50 
 516 755.83 745.59 763.50 
 517 755.13 745.72 763.50 
 518 754.16 745.70 763.50 
 519 755.69 745.52 763.50 
 520 754.02 746.38 763.50 
 521 757.74 746.08 763.50 
 522 755.40 746.16 763.50 
 523 758.61 746.10 763.50 
 524 753.94 746.23 763.50 
 525 754.55 746.43 763.50 
 526 753.68 746.63 763.50 
 527 750.25 746.06 763.50 
 528 753.50 746.27 763.50 
 529 756.78 746.65 763.50 
 530 756.42 746.71 763.50 
 531 757.47 746.15 763.50 
 532 750.69 746.13 763.50 
 533 754.27 746.80 763.50 
 534 753.72 746.94 763.50 
 535 756.11 746.47 763.50 
 536 755.09 746.52 763.50 
 537 759.96 746.45 763.50 
 538 753.89 746.42 763.50 
 539 753.48 746.43 763.50 
 540 754.90 746.44 763.50 
 541 754.84 746.42 763.50 
 542 757.37 746.42 763.50 
 543 754.71 746.38 763.50 
 544 754.44 746.12 763.50 
 545 752.35 745.70 763.50 
 546 755.76 745.50 763.50 
 547 755.52 745.49 763.50 
 548 752.92 745.77 763.50 
 549 760.56 745.67 763.50 
 550 752.11 745.87 763.50 
 551 753.84 746.28 763.50 
 552 754.24 746.16 763.50 
 553 754.36 745.83 763.50 
 554 750.40 745.85 763.50 
 555 760.51 745.01 763.50 
 556 754.41 745.75 763.50 
 557 754.89 744.96 763.50 
 558 747.29 744.93 763.50 
 559 755.45 745.16 763.50 
 560 755.80 744.65 763.50 
 561 757.24 744.66 763.50 
 562 751.01 744.64 763.50 
 563 753.30 744.53 763.50 
 564 749.74 744.75 763.50 
 565 749.52 743.75 763.50 
 566 757.38 743.99 763.50 
 567 753.07 744.47 763.50 
 568 753.33 744.70 763.50 
 569 756.16 743.32 763.50 
 570 758.68 743.89 763.50 
 571 754.96 745.17 763.50 
 572 755.00 743.91 763.50 
 573 752.49 744.37 763.50 
 574 753.55 743.21 763.50 
 575 752.61 743.18 763.50 
 576 758.10 743.15 763.50 
 577 754.85 742.69 763.50 
 578 752.11 741.10 763.50 
 579 754.80 741.33 763.50 
 580 757.07 741.35 763.50 
 581 759.16 741.19 763.50 
 582 756.58 742.17 763.50 
 583 754.05 742.34 763.50 
 584 749.68 742.86 763.50 
 585 748.95 743.10 763.50 
 586 755.12 743.92 763.50 
 587 752.35 744.50 763.50 
 588 758.53 744.09 763.50 
 589 753.42 744.54 763.50 
 590 752.33 744.01 763.50 
 591 755.30 744.35 763.50 
 592 752.90 743.70 763.50 
 593 751.99 743.08 763.50 
 594 750.42 742.13 763.50 
 595 753.49 742.00 763.50 
 596 755.27 741.34 763.50 
 597 751.98 742.28 763.50 
 598 755.01 742.11 763.50 
 599 755.05 741.83 763.50 
 600 751.66 742.41 763.50 
 601 750.65 742.46 763.50 
 602 760.68 743.08 763.50 
 603 756.28 741.09 763.50 
 604 753.00 742.10 763.50 
 605 751.91 742.08 763.50 
 606 756.18 743.21 763.50 
 607 755.77 741.60 763.50 
 608 749.25 741.48 763.50 
 609 752.87 741.77 763.50 
 610 755.44 742.33 763.50 
 611 753.06 743.54 763.50 
 612 754.72 742.33 763.50 
 613 752.39 742.66 763.50 
 614 752.76 743.16 763.50 
 615 751.24 743.86 763.50 
 616 749.86 743.23 763.50 
 617 748.65 743.82 763.50 
 618 753.07 745.02 763.50 
 619 750.89 745.01 763.50 
 620 748.58 744.30 763.50 
 621 759.28 744.59 763.50 
 622 756.39 744.38 763.50 
 623 761.11 744.16 763.50 
 624 749.60 744.37 763.50 
 625 753.62 745.16 763.50 
 626 753.05 745.72 763.50 
 627 751.68 745.56 763.50 
 628 758.17 745.29 763.50 
 629 754.81 745.82 763.50 
 630 756.49 745.85 763.50 
 631 755.01 745.31 763.50 
 632 759.41 744.94 763.50 
 633 751.18 744.87 763.50 
 634 758.70 744.88 763.50 
 635 754.47 744.20 763.50 
 636 749.80 744.00 763.50 
 637 753.57 743.74 763.50 
 638 756.35 743.65 763.50 
 639 759.08 743.82 763.50 
 640 747.09 743.92 763.50 
 641 755.40 744.98 763.50 
 642 757.18 743.96 763.50 
 643 753.56 743.69 763.50 
 644 755.28 743.66 763.50 
 645 751.73 742.96 763.50 
 646 752.71 744.71 763.50 
 647 747.81 744.64 763.50 
 648 756.43 744.24 763.50 
 649 753.35 744.22 763.50 
 650 752.99 745.07 763.50 
 651 755.91 744.77 763.50 
 652 754.44 744.60 763.50 
 653 762.39 745.25 763.50 
 654 758.11 746.12 763.50 
 655 751.92 745.88 763.50 
 656 760.24 744.21 763.50 
 657 752.31 745.51 763.50 
 658 752.50 745.00 763.50 
 659 754.82 745.83 763.50 
 660 753.65 745.11 763.50 
 661 753.82 746.32 763.50 
 662 756.30 746.01 763.50 
 663 751.18 745.80 763.50 
 664 749.38 745.56 763.50 
 665 749.10 745.55 763.50 
 666 752.27 745.92 763.50 
 667 753.12 745.21 763.50 
 668 750.02 744.79 763.50 
 669 757.90 744.88 763.50 
 670 754.36 744.86 763.50 
 671 758.31 743.48 763.50 
 672 754.28 743.15 763.50 
 673 747.89 742.23 763.50 
 674 749.39 742.63 763.50 
 675 751.95 743.83 763.50 
 676 759.36 743.61 763.50 
 677 759.98 744.39 763.50 
 678 752.13 744.50 763.50 
 679 749.17 744.27 763.50 
 680 756.61 744.97 763.50 
 681 751.55 745.20 763.50 
 682 754.69 744.96 763.50 
 683 756.29 745.49 763.50 
 684 757.88 745.36 763.50 
 685 758.51 745.31 763.50 
 686 756.08 745.11 763.50 
 687 759.32 746.50 763.50 
 688 756.76 747.03 763.50 
 689 753.12 746.11 763.50 
 690 756.63 745.37 763.50 
 691 752.28 745.69 763.50 
 692 756.86 746.32 763.50 
 693 755.18 745.74 763.50 
 694 749.85 746.45 763.50 
 695 758.50 746.85 763.50 
 696 757.93 746.31 763.50 
 697 757.28 745.83 763.50 
 698 761.17 745.75 763.50 
 699 756.34 746.05 763.50 
 700 757.32 746.19 763.50 
 701 754.54 746.49 763.50 
 702 754.52 746.92 763.50 
 703 754.92 747.07 763.50 
 704 752.29 746.66 763.50 
 705 752.51 746.41 763.50 
 706 754.20 747.13 763.50 
 707 756.19 747.19 763.50 
 708 750.93 747.20 763.50 
 709 757.30 746.78 763.50 
 710 753.21 746.51 763.50 
 711 754.34 746.60 763.50 
 712 751.07 745.83 763.50 
 713 756.21 746.69 763.50 
 714 749.59 746.69 763.50 
 715 761.26 746.33 763.50 
 716 756.76 746.42 763.50 
 717 756.53 746.18 763.50 
 718 752.85 746.10 763.50 
 719 753.83 746.06 763.50 
 720 756.02 745.80 763.50 
 721 751.43 745.69 763.50 
 722 752.52 745.54 763.50 
 723 756.65 745.62 763.50 
 724 752.83 745.96 763.50 
 725 748.42 745.94 763.50 
 726 756.70 745.62 763.50 
 727 762.09 745.77 763.50 
 728 756.40 745.90 763.50 
 729 757.59 746.45 763.50 
 730 756.85 746.10 763.50 
 731 753.02 746.15 763.50 
 732 756.91 745.68 763.50 
 733 755.64 745.23 763.50 
 734 753.62 745.48 763.50 
 735 754.36 745.54 763.50 
 736 751.63 745.65 763.50 
 737 757.32 745.35 763.50 
 738 755.28 744.91 763.50 
 739 758.70 744.06 763.50 
 740 754.67 743.08 763.50 
 741 753.96 744.11 763.50 
 742 755.67 744.46 763.50 
 743 757.36 744.11 763.50 
 744 756.54 744.44 763.50 
 745 758.48 744.73 763.50 
 746 751.02 744.12 763.50 
 747 751.28 744.18 763.50 
 748 755.31 744.51 763.50 
 749 753.79 745.13 763.50 
 750 754.38 744.55 763.50 
 751 752.46 745.17 763.50 
 752 757.09 744.98 763.50 
 753 750.83 744.54 763.50 
 754 748.64 744.92 763.50 
 755 754.43 744.32 763.50 
 756 754.16 744.09 763.50 
 757 755.18 744.39 763.50 
 758 756.54 744.46 763.50 
 759 757.41 744.65 763.50 
 760 751.11 744.67 763.50 
 761 758.76 743.88 763.50 
 762 758.90 744.33 763.50 
 763 754.56 744.36 763.50 
 764 754.35 745.24 763.50 
 765 753.88 746.09 763.50 
 766 751.87 745.30 763.50 
 767 756.68 746.14 763.50 
 768 749.69 745.62 763.50 
 769 755.55 745.72 763.50 
 770 756.08 745.54 763.50 
 771 756.36 745.10 763.50 
 772 757.91 745.89 763.50 
 773 760.24 744.79 763.50 
 774 755.77 744.68 763.50 
 775 752.66 745.16 763.50 
 776 755.80 744.89 763.50 
 777 757.13 745.45 763.50 
 778 759.88 746.51 763.50 
 779 759.90 746.04 763.50 
 780 756.22 745.51 763.50 
 781 753.60 746.15 763.50 
 782 754.62 746.27 763.50 
 783 756.36 745.93 763.50 
 784 756.97 745.87 763.50 
 785 758.81 745.83 763.50 
 786 754.58 746.34 763.50 
 787 753.76 746.29 763.50 
 788 754.53 746.51 763.50 
 789 755.92 746.59 763.50 
 790 752.19 746.62 763.50 
 791 751.64 746.40 763.50 
 792 753.79 746.11 763.50 
 793 755.53 746.46 763.50 
 794 755.10 746.13 763.50 
 795 756.00 746.18 763.50 
 796 756.59 746.42 763.50 
 797 754.30 746.44 763.50 
 798 750.70 746.21 763.50 
 799 755.17 745.94 763.50 
 800 760.67 746.33 763.50 
 801 753.63 746.37 763.50 
 802 759.56 746.48 763.50 
 803 754.09 746.19 763.50 
 804 753.67 746.55 763.50 
 805 758.66 746.48 763.50 
 806 750.37 746.49 763.50 
 807 753.97 746.21 763.50 
 808 760.71 746.12 763.50 
 809 754.49 745.29 763.50 
 810 756.33 745.14 763.50 
 811 759.22 746.46 763.50 
 812 752.76 746.58 763.50 
 813 756.30 746.49 763.50 
 814 753.86 746.29 763.50 
 815 755.27 746.36 763.50 
 816 754.67 745.78 763.50 
 817 760.10 745.20 763.50 
 818 752.14 746.26 763.50 
 819 754.80 745.95 763.50 
 820 753.31 746.01 763.50 
 821 751.76 746.06 763.50 
 822 755.02 746.13 763.50 
 823 755.18 746.24 763.50 
 824 754.00 746.58 763.50 
 825 758.97 746.48 763.50 
 826 753.49 746.28 763.50 
 827 757.97 745.93 763.50 
 828 752.99 746.04 763.50 
 829 756.03 746.27 763.50 
 830 757.73 746.22 763.50 
 831 755.04 746.04 763.50 
 832 757.38 745.90 763.50 
 833 754.02 745.93 763.50 
 834 750.75 746.02 763.50 
 835 755.83 746.15 763.50 
 836 753.42 745.85 763.50 
 837 753.39 745.73 763.50 
 838 755.93 745.58 763.50 
 839 754.36 745.44 763.50 
 840 755.32 745.89 763.50 
 841 753.77 746.16 763.50 
 842 754.61 746.19 763.50 
 843 754.72 745.97 763.50 
 844 757.55 746.01 763.50 
 845 748.22 745.53 763.50 
 846 751.63 745.55 763.50 
 847 753.34 745.44 763.50 
 848 750.96 745.65 763.50 
 849 757.00 745.56 763.50 
 850 755.93 745.43 763.50 
 851 754.56 745.42 763.50 
 852 752.10 745.51 763.50 
 853 751.15 745.59 763.50 
 854 757.20 745.66 763.50 
 855 755.57 745.60 763.50 
 856 747.96 745.63 763.50 
 857 757.09 745.66 763.50 
 858 752.14 745.47 763.50 
 859 748.75 745.60 763.50 
 860 756.80 745.94 763.50 
 861 754.49 745.68 763.50 
 862 752.20 745.81 763.50 
 863 756.48 746.01 763.50 
 864 756.54 745.93 763.50 
 865 754.27 746.00 763.50 
 866 752.34 745.75 763.50 
 867 750.90 745.99 763.50 
 868 750.02 746.07 763.50 
 869 751.63 745.86 763.50 
 870 752.67 746.10 763.50 
 871 755.14 746.22 763.50 
 872 753.52 745.89 763.50 
 873 748.87 745.35 763.50 
 874 752.64 745.94 763.50 
 875 757.20 746.21 763.50 
 876 753.79 746.22 763.50 
 877 757.44 746.08 763.50 
 878 756.75 745.99 763.50 
 879 755.02 745.99 763.50 
 880 749.44 745.97 763.50 
 881 754.84 746.16 763.50 
 882 757.50 746.24 763.50 
 883 755.32 746.20 763.50 
 884 756.99 745.71 763.50 
 885 749.45 746.00 763.50 
 886 754.58 745.42 763.50 
 887 760.44 746.03 763.50 
 888 755.84 746.35 763.50 
 889 755.76 745.60 763.50 
 890 751.57 744.83 763.50 
 891 751.75 745.26 763.50 
 892 756.72 745.56 763.50 
 893 752.66 745.88 763.50 
 894 756.37 745.43 763.50 
 895 752.54 744.88 763.50 
 896 752.49 744.93 763.50 
 897 751.80 745.41 763.50 
 898 760.63 746.03 763.50 
 899 754.44 745.54 763.50 
 900 755.64 746.00 763.50 
 901 752.84 745.74 763.50 
 902 758.10 744.91 763.50 
 903 754.80 743.99 763.50 
 904 752.21 743.23 763.50 
 905 752.39 744.18 763.50 
 906 744.76 744.33 763.50 
 907 750.13 744.04 763.50 
 908 754.16 743.61 763.50 
 909 758.70 743.97 763.50 
 910 754.80 744.28 763.50 
 911 755.47 744.10 763.50 
 912 748.14 743.87 763.50 
 913 752.65 743.99 763.50 
 914 755.20 743.89 763.50 
 915 753.96 743.57 763.50 
 916 750.50 743.42 763.50 
 917 752.45 743.58 763.50 
 918 752.47 744.61 763.50 
 919 749.11 744.84 763.50 
 920 753.15 744.27 763.50 
 921 746.74 743.92 763.50 
 922 758.61 744.18 763.50 
 923 757.77 745.84 763.50 
 924 758.77 745.07 763.50 
 925 750.28 746.04 763.50 
 926 760.72 746.33 763.50 
 927 755.41 746.18 763.50 
 928 751.92 746.00 763.50 
 929 751.20 746.12 763.50 
 930 753.09 745.89 763.50 
 931 752.63 745.87 763.50 
 932 758.79 745.98 763.50 
 933 758.14 745.68 763.50 
 934 756.06 745.63 763.50 
 935 752.33 744.09 763.50 
 936 755.75 743.50 763.50 
 937 751.22 743.60 763.50 
 938 757.26 743.51 763.50 
 939 756.22 744.13 763.50 
 940 750.97 743.28 763.50 
 941 750.61 743.06 763.50 
 942 749.84 744.69 763.50 
 943 759.42 744.22 763.50 
 944 750.15 744.35 763.50 
 945 755.59 744.86 763.50 
 946 753.51 745.32 763.50 
 947 759.87 745.50 763.50 
 948 754.64 745.61 763.50 
 949 755.44 745.64 763.50 
 950 753.43 745.95 763.50 
 951 761.68 745.87 763.50 
 952 758.46 746.05 763.50 
 953 758.16 746.03 763.50 
 954 756.67 746.06 763.50 
 955 751.76 746.13 763.50 
 956 751.80 745.68 763.50 
 957 751.80 744.85 763.50 
 958 753.46 745.25 763.50 
 959 754.85 745.34 763.50 
 960 750.13 745.89 763.50 
 961 759.17 745.91 763.50 
 962 755.31 745.20 763.50 
 963 754.36 745.73 763.50 
 964 760.39 745.93 763.50 
 965 756.46 746.08 763.50 
 966 754.84 745.85 763.50 
 967 748.36 746.00 763.50 
 968 756.83 745.99 763.50 
 969 754.61 745.97 763.50 
 970 753.10 745.78 763.50 
 971 758.57 745.89 763.50 
 972 749.79 745.81 763.50 
 973 750.30 745.55 763.50 
 974 756.40 745.53 763.50 
 975 751.53 745.91 763.50 
 976 756.01 746.26 763.50 
 977 753.16 745.86 763.50 
 978 759.39 746.08 763.50 
 979 755.48 745.94 763.50 
 980 753.83 745.87 763.50 
 981 755.68 746.24 763.50 
 982 752.64 745.93 763.50 
 983 756.84 745.63 763.50 
 984 754.82 745.19 763.50 
 985 758.36 745.68 763.50 
 986 757.09 745.93 763.50 
 987 756.36 745.64 763.50 
 988 752.15 745.82 763.50 
 989 753.81 745.57 763.50 
 990 755.25 746.13 763.50 
 991 759.79 745.91 763.50 
 992 749.39 745.99 763.50 
 993 758.01 746.12 763.50 
 994 751.30 746.14 763.50 
 995 748.32 745.77 763.50 
 996 748.94 745.65 763.50 
 997 754.99 745.57 763.50 
 998 753.63 745.81 763.50 
 999 758.50 745.64 763.50 
1000 752.50 745.50 763.50 
1001 757.36 745.42 763.50 
1002 755.89 745.39 763.50 
1003 757.26 745.32 763.50 
1004 755.17 745.48 763.50 
1005 759.39 745.46 763.50 
1006 752.55 745.50 763.50 
1007 754.81 745.54 763.50 
1008 763.22 745.72 763.50 
1009 757.10 745.60 763.50 
1010 755.80 745.93 763.50 
1011 759.18 745.71 763.50 
1012 754.83 745.88 763.50 
1013 756.40 745.79 763.50 
1014 764.80 746.42 763.50 
1015 755.26 745.60 764.80 
1016 759.67 745.17 764.80 
1017 754.84 745.45 764.80 
1018 755.53 745.43 764.80 
1019 754.22 745.55 764.80 
1020 755.11 745.55 764.80 
1021 753.82 745.66 764.80 
1022 754.86 745.90 764.80 
1023 756.11 746.10 764.80 
1024 760.42 745.54 764.80 
1025 749.72 745.65 764.80 
1026 747.99 745.75 764.80 
1027 755.45 745.70 764.80 
1028 752.96 745.26 764.80 
1029 750.18 745.89 764.80 
1030 752.52 745.81 764.80 
1031 756.42 745.76 764.80 
1032 752.23 745.82 764.80 
1033 748.81 745.87 764.80 
1034 753.82 745.66 764.80 
1035 756.87 745.65 764.80 
1036 749.70 745.18 764.80 
1037 757.38 745.32 764.80 
1038 754.46 745.75 764.80 
1039 756.70 745.90 764.80 
1040 757.30 745.69 764.80 
1041 745.57 745.34 764.80 
1042 754.77 745.38 764.80 
1043 756.06 745.30 764.80 
1044 753.28 745.60 764.80 
1045 753.78 745.47 764.80 
1046 762.06 745.63 764.80 
1047 755.93 745.69 764.80 
1048 752.20 745.43 764.80 
1049 753.10 745.20 764.80 
1050 752.87 745.24 764.80 
1051 755.64 745.06 764.80 
1052 756.45 744.98 764.80 
1053 757.33 744.98 764.80 
1054 759.77 745.30 764.80 
1055 745.21 745.41 764.80 
1056 753.97 745.69 764.80 
1057 754.10 745.59 764.80 
1058 753.23 745.57 764.80 
1059 755.21 745.95 764.80 
1060 754.98 745.71 764.80 
1061 752.78 745.53 764.80 
1062 752.04 745.59 764.80 
1063 751.50 746.04 764.80 
1064 754.83 745.93 764.80 
1065 754.76 745.96 764.80 
1066 754.74 745.81 764.80 
1067 755.72 745.37 764.80 
1068 755.10 745.45 764.80 
1069 754.41 745.73 764.80 
1070 755.95 745.60 764.80 
1071 752.17 745.44 764.80 
1072 751.20 745.76 764.80 
1073 754.81 744.89 764.80 
1074 755.15 745.12 764.80 
1075 747.76 745.44 764.80 
1076 748.50 744.73 764.80 
1077 755.28 744.77 764.80 
1078 755.17 745.02 764.80 
1079 752.72 744.95 764.80 
1080 754.29 744.93 764.80 
1081 754.50 744.77 764.80 
1082 754.97 745.39 764.80 
1083 753.33 745.59 764.80 
1084 757.09 745.46 764.80 
1085 755.46 745.46 764.80 
1086 753.97 745.33 764.80 
1087 754.91 745.82 764.80 
1088 749.29 745.77 764.80 
1089 758.28 745.82 764.80 
1090 759.00 745.87 764.80 
1091 754.77 745.68 764.80 
1092 754.38 745.73 764.80 
1093 755.72 745.66 764.80 
1094 754.76 745.80 764.80 
1095 753.82 745.51 764.80 
1096 753.93 745.39 764.80 
1097 755.84 745.68 764.80 
1098 751.76 745.40 764.80 
1099 753.80 745.49 764.80 
1100 757.58 745.70 764.80 
1101 754.60 745.84 764.80 
1102 754.74 745.65 764.80 
1103 755.33 745.00 764.80 
1104 755.13 745.22 764.80 
1105 757.03 745.78 764.80 
1106 752.68 745.75 764.80 
1107 751.43 745.90 764.80 
1108 755.06 745.54 764.80 
1109 753.98 746.06 764.80 
1110 757.18 745.61 764.80 
1111 757.94 745.63 764.80 
1112 758.57 746.21 764.80 
1113 755.58 746.10 764.80 
1114 761.83 746.08 764.80 
1115 753.43 746.00 764.80 
1116 750.50 745.92 764.80 
1117 759.57 746.03 764.80 
1118 749.96 746.05 764.80 
1119 750.18 745.72 764.80 
1120 760.01 744.73 764.80 
1121 751.40 745.19 764.80 
1122 754.55 745.42 764.80 
1123 751.52 745.56 764.80 
1124 747.32 745.43 764.80 
1125 755.60 745.55 764.80 
1126 756.15 745.36 764.80 
1127 753.85 745.11 764.80 
1128 754.58 745.04 764.80 
1129 754.76 745.11 764.80 
1130 753.72 744.12 764.80 
1131 752.75 742.53 764.80 
1132 757.52 743.53 764.80 
1133 748.98 744.27 764.80 
1134 753.58 744.09 764.80 
1135 753.62 743.08 764.80 
1136 751.55 743.22 764.80 
1137 752.73 744.53 764.80 
1138 755.23 743.73 764.80 
1139 755.54 743.96 764.80 
1140 754.52 743.57 764.80 
1141 757.31 744.51 764.80 
1142 755.62 744.54 764.80 
1143 746.88 744.45 764.80 
1144 748.69 744.58 764.80 
1145 752.08 744.84 764.80 
1146 751.85 745.40 764.80 
1147 760.43 745.74 764.80 
1148 757.20 745.58 764.80 
1149 752.79 745.76 764.80 
1150 753.15 745.82 764.80 
1151 754.86 745.98 764.80 
1152 750.46 745.82 764.80 
1153 752.16 746.00 764.80 
1154 754.50 745.82 764.80 
1155 754.40 745.86 764.80 
1156 753.06 745.98 764.80 
1157 754.43 746.01 764.80 
1158 757.98 746.03 764.80 
1159 757.84 745.84 764.80 
1160 757.81 746.03 764.80 
1161 757.28 746.48 764.80 
1162 755.97 746.14 764.80 
1163 757.28 745.68 764.80 
1164 752.89 745.98 764.80 
1165 752.80 745.39 764.80 
1166 755.56 745.65 764.80 
1167 754.62 746.25 764.80 
1168 755.55 745.74 764.80 
1169 757.18 746.45 764.80 
1170 755.61 746.50 764.80 
1171 752.94 746.01 764.80 
1172 755.83 746.73 764.80 
1173 753.38 746.02 764.80 
1174 757.11 746.54 764.80 
1175 755.69 746.92 764.80 
1176 756.01 746.90 764.80 
1177 756.13 746.86 764.80 
1178 755.37 745.56 764.80 
1179 753.42 746.57 764.80 
1180 758.17 746.17 764.80 
1181 755.58 746.78 764.80 
1182 755.01 746.36 764.80 
1183 758.20 746.67 764.80 
1184 757.33 746.62 764.80 
1185 755.38 746.30 764.80 
1186 750.99 745.88 764.80 
1187 753.32 745.86 764.80 
1188 754.71 745.64 764.80 
1189 754.16 746.55 764.80 
1190 751.02 746.64 764.80 
1191 751.58 746.65 764.80 
1192 758.05 746.89 764.80 
1193 754.29 746.92 764.80 
1194 753.22 746.97 764.80 
1195 754.74 747.03 764.80 
1196 755.39 747.10 764.80 
1197 753.69 746.76 764.80 
1198 758.27 746.60 764.80 
1199 757.94 746.84 764.80 
1200 757.32 746.80 764.80 
1201 756.00 746.50 764.80 
1202 751.62 746.73 764.80 
1203 755.95 746.54 764.80 
1204 754.52 746.69 764.80 
1205 757.04 746.76 764.80 
1206 757.87 746.87 764.80 
1207 751.79 746.43 764.80 
1208 757.64 746.05 764.80 
1209 756.15 745.89 764.80 
1210 755.54 746.28 764.80 
1211 758.57 746.32 764.80 
1212 751.15 746.25 764.80 
1213 753.94 746.50 764.80 
1214 759.21 746.03 764.80 
1215 753.64 746.22 764.80 
1216 755.50 746.26 764.80 
1217 754.47 745.62 764.80 
1218 758.51 745.98 764.80 
1219 758.96 745.56 764.80 
1220 756.01 745.29 764.80 
1221 757.81 744.75 764.80 
1222 756.78 745.55 764.80 
1223 753.68 745.19 764.80 
1224 759.32 745.23 764.80 
1225 759.19 745.34 764.80 
1226 749.03 745.38 764.80 
1227 754.85 745.79 764.80 
1228 757.80 746.37 764.80 
1229 752.65 745.86 764.80 
1230 753.21 745.83 764.80 
1231 755.03 745.36 764.80 
1232 756.38 745.31 764.80 
1233 751.56 744.67 764.80 
1234 757.63 745.02 764.80 
1235 750.84 745.31 764.80 
1236 755.25 745.45 764.80 
1237 750.11 745.37 764.80 
1238 753.66 745.34 764.80 
1239 752.94 745.23 764.80 
1240 755.39 745.47 764.80 
1241 754.53 746.18 764.80 
1242 761.33 745.91 764.80 
1243 754.80 746.00 764.80 
1244 760.79 746.25 764.80 
1245 755.58 746.33 764.80 
1246 763.17 746.47 764.80 
1247 751.56 746.13 764.80 
1248 753.75 746.11 764.80 
1249 753.86 746.32 764.80 
1250 752.99 746.06 764.80 
1251 756.99 745.65 764.80 
1252 756.24 745.65 764.80 
1253 757.48 746.01 764.80 
1254 747.55 745.96 764.80 
1255 755.39 745.57 764.80 
1256 757.72 745.69 764.80 
1257 755.68 746.66 764.80 
1258 757.09 746.24 764.80 
1259 753.03 746.40 764.80 
1260 755.48 746.30 764.80 
1261 755.17 746.14 764.80 
1262 757.95 745.72 764.80 
1263 755.89 745.79 764.80 
1264 754.94 745.13 764.80 
1265 757.71 745.31 764.80 
1266 752.80 745.32 764.80 
1267 757.05 745.28 764.80 
1268 757.96 745.53 764.80 
1269 763.85 745.41 764.80 
1270 762.92 745.26 764.80 
1271 753.85 745.11 764.80 
1272 752.74 745.78 764.80 
1273 755.36 746.08 764.80 
1274 757.75 745.65 764.80 
1275 753.89 745.13 764.80 
1276 754.95 745.45 764.80 
1277 750.40 746.84 764.80 
1278 753.32 746.39 764.80 
1279 750.46 746.53 764.80 
1280 759.91 746.53 764.80 
1281 756.79 746.79 764.80 
1282 746.37 746.06 764.80 
1283 754.08 745.76 764.80 
1284 753.73 746.73 764.80 
1285 756.16 744.99 764.80 
1286 750.15 746.14 764.80 
1287 752.67 745.32 764.80 
1288 754.26 746.28 764.80 
1289 761.38 746.56 764.80 
1290 755.30 745.47 764.80 
1291 751.13 745.41 764.80 
1292 757.33 744.82 764.80 
1293 759.75 745.02 764.80 
1294 752.77 744.67 764.80 
1295 755.13 744.84 764.80 
1296 754.06 745.13 764.80 
1297 754.99 745.59 764.80 
1298 761.42 745.32 764.80 
1299 752.28 745.83 764.80 
1300 753.30 745.49 764.80 
1301 754.62 745.71 764.80 
1302 753.57 746.08 764.80 
1303 755.17 745.72 764.80 
1304 755.87 745.34 764.80 
1305 750.51 743.86 764.80 
1306 753.99 744.21 764.80 
1307 754.23 746.37 764.80 
1308 756.22 743.91 764.80 
1309 756.41 743.82 764.80 
1310 755.04 745.36 764.80 
1311 754.70 743.38 764.80 
1312 751.94 743.65 764.80 
1313 751.35 744.06 764.80 
1314 757.95 744.42 764.80 
1315 755.40 743.75 764.80 
1316 758.50 744.17 764.80 
1317 753.23 745.83 764.80 
1318 755.35 745.74 764.80 
1319 757.52 744.44 764.80 
1320 755.22 743.39 764.80 
1321 751.03 743.35 764.80 
1322 754.96 744.19 764.80 
1323 753.99 743.46 764.80 
1324 757.61 744.01 764.80 
1325 751.74 743.90 764.80 
1326 750.61 743.64 764.80 
1327 758.86 744.40 764.80 
1328 755.20 744.21 764.80 
1329 751.43 744.49 764.80 
1330 753.76 742.59 764.80 
1331 752.75 743.95 764.80 
1332 756.52 743.95 764.80 
1333 757.08 742.90 764.80 
1334 754.81 742.14 764.80 
1335 752.75 741.57 764.80 
1336 751.30 741.28 764.80 
1337 758.08 741.23 764.80 
1338 758.11 740.48 764.80 
1339 757.31 739.64 764.80 
1340 755.46 740.86 764.80 
1341 745.51 741.94 764.80 
1342 754.94 742.51 764.80 
1343 753.53 741.34 764.80 
1344 756.29 742.17 764.80 
1345 754.97 742.78 764.80 
1346 752.29 740.47 764.80 
1347 752.53 743.58 764.80 
1348 756.49 744.57 764.80 
1349 752.33 744.40 764.80 
1350 748.65 743.33 764.80 
1351 757.73 744.06 764.80 
1352 752.81 743.64 764.80 
1353 756.32 743.49 764.80 
1354 751.05 746.09 764.80 
1355 744.83 745.00 764.80 
1356 755.28 745.83 764.80 
1357 758.34 745.85 764.80 
1358 756.84 745.75 764.80 
1359 754.78 745.18 764.80 
1360 750.51 745.22 764.80 
1361 754.91 744.68 764.80 
1362 756.06 743.10 764.80 
1363 756.50 742.89 764.80 
1364 758.16 740.80 764.80 
1365 753.46 742.02 764.80 
1366 754.38 741.51 764.80 
1367 748.46 742.30 764.80 
1368 752.99 744.87 764.80 
1369 752.93 744.20 764.80 
1370 754.01 743.96 764.80 
1371 754.96 743.45 764.80 
1372 753.06 743.91 764.80 
1373 755.12 741.95 764.80 
1374 748.50 741.33 764.80 
1375 754.21 741.72 764.80 
1376 753.85 743.36 764.80 
1377 753.33 744.91 764.80 
1378 754.77 745.36 764.80 
1379 753.85 745.18 764.80 
1380 750.79 745.10 764.80 
1381 749.78 745.33 764.80 
1382 751.68 745.77 764.80 
1383 757.34 744.44 764.80 
1384 760.65 742.60 764.80 
1385 758.57 744.02 764.80 
1386 756.86 745.18 764.80 
1387 755.04 745.25 764.80 
1388 753.73 744.38 764.80 
1389 748.56 744.55 764.80 
1390 752.91 743.58 764.80 
1391 757.49 742.92 764.80 
1392 753.19 743.30 764.80 
1393 753.47 742.53 764.80 
1394 754.97 742.81 764.80 
1395 743.90 743.53 764.80 
1396 756.97 742.30 764.80 
1397 756.32 742.80 764.80 
1398 755.85 743.64 764.80 
1399 755.20 744.80 764.80 
1400 755.59 744.31 764.80 
1401 758.00 744.85 764.80 
1402 756.11 743.50 764.80 
1403 755.66 743.38 764.80 
1404 753.14 743.70 764.80 
1405 758.93 743.75 764.80 
1406 753.82 743.78 764.80 
1407 756.68 743.38 764.80 
1408 749.59 742.98 764.80 
1409 752.48 742.73 764.80 
1410 758.78 742.45 764.80 
1411 751.91 742.10 764.80 
1412 751.33 742.93 764.80 
1413 755.24 742.91 764.80 
1414 754.99 743.03 764.80 
1415 753.33 742.64 764.80 
1416 755.22 744.00 764.80 
1417 756.12 743.84 764.80 
1418 752.99 743.88 764.80 
1419 755.65 745.01 764.80 
1420 753.62 744.65 764.80 
1421 754.06 743.45 764.80 
1422 756.01 744.05 764.80 
1423 755.58 743.66 764.80 
1424 757.53 743.30 764.80 
1425 759.75 744.18 764.80 
1426 757.53 743.13 764.80 
1427 753.20 743.61 764.80 
1428 753.06 743.54 764.80 
1429 759.68 743.46 764.80 
1430 755.47 742.97 764.80 
1431 759.54 742.95 764.80 
1432 760.48 742.81 764.80 
1433 749.47 742.95 764.80 
1434 754.11 744.28 764.80 
1435 756.94 744.89 764.80 
1436 757.12 744.24 764.80 
1437 759.76 744.05 764.80 
1438 750.70 744.19 764.80 
1439 759.02 744.39 764.80 
1440 752.72 744.38 764.80 
1441 757.63 744.33 764.80 
1442 758.41 744.52 764.80 
1443 754.65 744.89 764.80 
1444 757.78 744.87 764.80 
1445 756.29 744.65 764.80 
1446 758.67 744.63 764.80 
1447 748.17 744.33 764.80 
1448 759.80 743.84 764.80 
1449 752.73 744.19 764.80 
1450 755.30 744.23 764.80 
1451 760.45 744.22 764.80 
1452 755.58 744.95 764.80 
1453 754.36 744.06 764.80 
1454 750.33 744.24 764.80 
1455 755.86 744.33 764.80 
1456 754.42 744.92 764.80 
1457 746.04 744.93 764.80 
1458 759.94 745.10 764.80 
1459 757.82 744.87 764.80 
1460 754.53 745.70 764.80 
1461 752.44 745.41 764.80 
1462 755.77 745.19 764.80 
1463 752.68 745.32 764.80 
1464 755.33 744.94 764.80 
1465 755.21 745.31 764.80 
1466 756.47 744.31 764.80 
1467 758.49 746.00 764.80 
1468 756.57 746.08 764.80 
1469 751.90 745.94 764.80 
1470 756.57 746.43 764.80 
1471 754.37 746.45 764.80 
1472 756.14 746.90 764.80 
1473 757.93 746.88 764.80 
1474 758.46 747.03 764.80 
1475 751.61 746.43 764.80 
1476 750.70 746.44 764.80 
1477 757.25 746.02 764.80 
1478 757.63 746.69 764.80 
1479 754.79 745.78 764.80 
1480 752.63 746.09 764.80 
1481 756.29 746.39 764.80 
1482 755.97 746.22 764.80 
1483 760.36 745.71 764.80 
1484 755.22 745.77 764.80 
1485 754.69 745.22 764.80 
1486 751.06 745.43 764.80 
1487 753.77 745.72 764.80 
1488 751.94 745.83 764.80 
1489 752.74 745.57 764.80 
1490 757.47 745.40 764.80 
1491 752.98 745.76 764.80 
1492 757.05 745.57 764.80 
1493 753.85 745.35 764.80 
1494 755.64 745.73 764.80 
1495 757.02 745.44 764.80 
1496 754.31 745.49 764.80 
1497 753.19 745.50 764.80 
1498 756.83 745.11 764.80 
1499 752.40 744.90 764.80 
1500 757.24 745.17 764.80 
1501 758.50 745.26 764.80 
1502 753.08 745.60 764.80 
1503 758.46 745.55 764.80 
1504 756.87 745.58 764.80 
1505 755.37 745.34 764.80 
1506 756.48 745.38 764.80 
1507 754.61 745.63 764.80 
1508 754.20 745.12 764.80 
1509 759.54 745.03 764.80 
1510 757.66 744.67 764.80 
1511 752.74 744.76 764.80 
1512 750.60 744.83 764.80 
1513 753.02 744.44 764.80 
1514 753.82 744.79 764.80 
1515 753.40 745.68 764.80 
1516 752.89 745.33 764.80 
1517 757.72 745.14 764.80 
1518 756.42 745.37 764.80 
1519 752.10 745.03 764.80 
1520 756.21 744.64 764.80 
1521 753.48 744.94 764.80 
1522 754.80 744.86 764.80 
1523 757.01 745.02 764.80 
1524 759.51 745.20 764.80 
1525 755.23 745.34 764.80 
1526 752.28 745.10 764.80 
1527 757.98 744.50 764.80 
1528 752.47 744.79 764.80 
1529 758.31 745.54 764.80 
1530 754.22 745.46 764.80 
1531 755.32 745.46 764.80 
1532 754.45 745.68 764.80 
1533 756.02 745.61 764.80 
1534 747.81 745.75 764.80 
1535 752.01 745.62 764.80 
1536 752.66 745.88 764.80 
1537 747.76 745.70 764.80 
1538 753.55 745.84 764.80 
1539 752.76 745.98 764.80 
1540 758.45 745.74 764.80 
1541 753.99 746.06 764.80 
1542 748.33 745.91 764.80 
1543 755.70 746.04 764.80 
1544 756.36 745.68 764.80 
1545 755.08 745.14 764.80 
1546 753.69 745.18 764.80 
1547 755.82 743.83 764.80 
1548 754.43 743.46 764.80 
1549 750.26 744.07 764.80 
1550 753.19 744.87 764.80 
1551 756.04 745.38 764.80 
1552 756.80 745.59 764.80 
1553 755.53 745.21 764.80 
1554 747.02 745.19 764.80 
1555 750.90 745.27 764.80 
1556 754.05 745.35 764.80 
1557 748.67 745.28 764.80 
1558 755.26 745.20 764.80 
1559 752.57 745.19 764.80 
1560 759.26 745.44 764.80 
1561 756.16 745.66 764.80 
1562 754.90 745.19 764.80 
1563 760.58 745.61 764.80 
1564 755.77 745.31 764.80 
1565 751.98 745.10 764.80 
1566 751.39 745.24 764.80 
1567 750.97 745.34 764.80 
1568 754.26 744.90 764.80 
1569 757.83 745.16 764.80 
1570 756.75 745.53 764.80 
1571 755.95 745.31 764.80 
1572 750.28 745.67 764.80 
1573 754.70 745.38 764.80 
1574 756.67 745.35 764.80 
1575 750.98 745.63 764.80 
1576 753.43 745.70 764.80 
1577 756.43 745.80 764.80 
1578 755.16 745.76 764.80 
1579 759.63 745.63 764.80 
1580 752.21 745.70 764.80 
1581 756.67 745.88 764.80 
1582 752.77 745.83 764.80 
1583 755.68 745.75 764.80 
1584 752.47 745.55 764.80 
1585 754.80 745.87 764.80 
1586 756.04 746.16 764.80 
1587 752.64 745.99 764.80 
1588 756.94 746.32 764.80 
1589 752.69 746.59 764.80 
1590 756.91 746.50 764.80 
1591 755.99 746.62 764.80 
1592 757.86 746.82 764.80 
1593 755.67 746.88 764.80 
1594 752.00 746.68 764.80 
1595 761.76 746.34 764.80 
1596 754.66 746.60 764.80 
1597 761.14 746.75 764.80 
1598 752.27 746.71 764.80 
1599 756.03 746.66 764.80 
1600 752.04 746.73 764.80 
1601 754.69 746.53 764.80 
1602 757.49 746.63 764.80 
1603 752.95 746.71 764.80 
1604 756.30 746.65 764.80 
1605 756.41 746.46 764.80 
1606 755.16 746.74 764.80 
1607 751.57 746.93 764.80 
1608 755.72 746.94 764.80 
1609 760.54 746.66 764.80 
1610 758.29 746.21 764.80 
1611 754.26 746.27 764.80 
1612 752.55 746.60 764.80 
1613 754.79 746.13 764.80 
1614 759.29 746.35 764.80 
1615 755.48 746.35 764.80 
1616 756.04 746.16 764.80 
1617 753.33 746.25 764.80 
1618 756.32 745.74 764.80 
1619 757.54 746.37 764.80 
1620 752.92 746.25 764.80 
1621 758.29 745.84 764.80 
1622 761.24 745.99 764.80 
1623 755.61 745.96 764.80 
1624 756.68 745.70 764.80 
1625 755.94 746.11 764.80 
1626 752.80 746.35 764.80 
1627 753.88 746.19 764.80 
1628 755.75 746.40 764.80 
1629 760.33 746.42 764.80 
1630 752.65 746.61 764.80 
1631 756.97 746.11 764.80 
1632 755.29 746.52 764.80 
1633 756.11 746.18 764.80 
1634 751.19 745.79 764.80 
1635 758.59 746.30 764.80 
1636 758.54 746.42 764.80 
1637 762.06 746.13 764.80 
1638 758.60 746.12 764.80 
1639 755.03 746.21 764.80 
1640 751.60 746.06 764.80 
1641 754.81 746.09 764.80 
1642 749.28 746.07 764.80 
1643 760.04 745.83 764.80 
1644 756.62 746.24 764.80 
1645 753.68 746.07 764.80 
1646 760.49 746.44 764.80 
1647 751.18 746.16 764.80 
1648 757.71 746.16 764.80 
1649 756.45 745.98 764.80 
1650 753.05 746.15 764.80 
1651 756.20 746.31 764.80 
1652 753.81 746.29 764.80 
1653 755.78 746.30 764.80 
1654 755.70 745.97 764.80 
1655 760.09 745.87 764.80 
1656 753.18 745.89 764.80 
1657 753.80 746.37 764.80 
1658 749.33 746.40 764.80 
1659 757.73 746.47 764.80 
1660 755.25 746.50 764.80 
1661 752.62 746.60 764.80 
1662 749.15 746.51 764.80 
1663 754.08 746.39 764.80 
1664 753.97 746.08 764.80 
1665 757.93 746.37 764.80 
1666 756.93 746.50 764.80 
1667 758.33 746.34 764.80 
1668 755.16 746.45 764.80 
1669 755.28 746.11 764.80 
1670 753.20 745.99 764.80 
1671 755.20 746.14 764.80 
1672 754.66 746.34 764.80 
1673 759.14 746.40 764.80 
1674 752.34 746.38 764.80 
1675 756.48 746.52 764.80 
1676 756.00 746.42 764.80 
1677 759.56 746.37 764.80 
1678 758.46 746.03 764.80 
1679 754.84 746.13 764.80 
1680 755.11 746.15 764.80 
1681 750.97 746.24 764.80 
1682 756.38 746.12 764.80 
1683 760.12 746.33 764.80 
1684 752.37 745.74 764.80 
1685 760.88 745.66 764.80 
1686 753.01 745.76 764.80 
1687 753.21 745.81 764.80 
1688 757.89 745.86 764.80 
1689 755.98 745.75 764.80 
1690 758.08 745.86 764.80 
1691 757.82 745.88 764.80 
1692 753.09 745.65 764.80 
1693 753.89 745.73 764.80 
1694 751.70 746.23 764.80 
1695 753.77 745.95 764.80 
1696 756.60 746.18 764.80 
1697 755.50 746.37 764.80 
1698 758.93 746.24 764.80 
1699 750.94 746.23 764.80 
1700 757.02 746.07 764.80 
1701 756.33 745.94 764.80 
1702 756.07 746.19 764.80 
1703 758.19 746.45 764.80 
1704 748.72 746.06 764.80 
1705 755.82 746.35 764.80 
1706 752.88 746.35 764.80 
1707 756.86 746.43 764.80 
1708 754.03 746.07 764.80 
1709 761.19 746.25 764.80 
1710 751.58 746.32 764.80 
1711 754.15 746.11 764.80 
1712 754.70 745.60 764.80 
1713 751.60 745.69 764.80 
1714 756.65 745.66 764.80 
1715 753.77 745.68 764.80 
1716 755.36 745.43 764.80 
1717 756.16 745.04 764.80 
1718 755.32 745.46 764.80 
1719 755.30 745.21 764.80 
1720 760.61 744.90 764.80 
1721 759.35 745.16 764.80 
1722 760.80 745.15 764.80 
1723 764.75 745.03 764.80 
1724 755.79 744.99 764.80 
1725 756.34 744.81 764.80 
1726 755.48 745.03 764.80 
1727 753.52 744.54 764.80 
1728 758.65 744.97 764.80 
1729 755.70 745.36 764.80 
1730 760.08 745.17 764.80 
1731 754.89 744.74 764.80 
1732 756.69 744.78 764.80 
1733 755.31 745.16 764.80 
1734 757.43 744.99 764.80 
1735 758.38 744.94 764.80 
1736 755.57 745.01 764.80 
1737 755.91 745.00 764.80 
1738 754.82 744.55 764.80 
1739 755.78 745.03 764.80 
1740 758.04 745.03 764.80 
1741 755.16 744.98 764.80 
1742 751.09 744.75 764.80 
1743 754.10 744.73 764.80 
1744 756.49 744.72 764.80 
1745 756.55 745.06 764.80 
1746 756.38 744.66 764.80 
1747 757.58 744.29 764.80 
1748 756.25 744.40 764.80 
1749 758.95 744.77 764.80 
1750 756.59 744.86 764.80 
1751 753.16 744.62 764.80 
1752 750.54 744.73 764.80 
1753 753.02 744.35 764.80 
1754 754.85 744.31 764.80 
1755 757.54 744.18 764.80 
1756 757.00 744.05 764.80 
1757 752.62 743.85 764.80 
1758 752.37 743.82 764.80 
1759 755.70 743.55 764.80 
1760 755.53 743.60 764.80 
1761 757.93 744.13 764.80 
1762 753.84 744.27 764.80 
1763 756.71 744.11 764.80 
1764 752.96 744.04 764.80 
1765 752.40 744.00 764.80 
1766 753.37 744.58 764.80 
1767 753.12 744.40 764.80 
1768 758.19 744.76 764.80 
1769 759.62 744.58 764.80 
1770 756.04 744.57 764.80 
1771 754.10 744.90 764.80 
1772 750.78 744.96 764.80 
1773 755.70 745.14 764.80 
1774 754.49 745.02 764.80 
1775 752.09 744.97 764.80 
1776 752.55 744.74 764.80 
1777 758.79 744.87 764.80 
1778 758.81 744.86 764.80 
1779 756.33 744.80 764.80 
1780 758.14 744.99 764.80 
1781 755.51 745.10 764.80 
1782 757.56 744.97 764.80 
1783 752.81 744.75 764.80 
1784 753.06 744.40 764.80 
1785 755.92 744.54 764.80 
1786 762.53 744.72 764.80 
1787 757.18 744.90 764.80 
1788 753.33 744.91 764.80 
1789 751.60 744.94 764.80 
1790 755.42 744.94 764.80 
1791 753.62 744.71 764.80 
1792 753.06 744.72 764.80 
1793 757.14 744.70 764.80 
1794 757.53 744.81 764.80 
1795 750.78 744.62 764.80 
1796 753.88 745.01 764.80 
1797 756.70 744.73 764.80 
1798 758.48 744.33 764.80 
1799 752.11 744.71 764.80 
1800 754.43 744.59 764.80 
1801 755.33 744.41 764.80 
1802 757.66 744.51 764.80 
1803 756.77 744.65 764.80 
1804 756.78 744.79 764.80 
1805 757.91 744.98 764.80 
1806 755.78 744.72 764.80 
1807 757.19 744.51 764.80 
1808 758.68 744.33 764.80 
1809 752.77 744.38 764.80 
1810 756.05 744.72 764.80 
1811 756.83 744.54 764.80 
1812 759.82 744.86 764.80 
1813 753.79 744.96 764.80 
1814 756.61 744.83 764.80 
1815 761.58 745.00 764.80 
1816 755.02 744.98 764.80 
1817 755.50 744.90 764.80 
1818 753.43 744.97 764.80 
1819 756.63 745.07 764.80 
1820 759.38 744.47 764.80 
1821 750.49 744.51 764.80 
1822 759.28 744.41 764.80 
1823 756.15 744.10 764.80 
1824 755.86 744.15 764.80 
1825 756.13 744.33 764.80 
1826 756.30 744.07 764.80 
1827 756.34 744.06 764.80 
1828 754.76 744.15 764.80 
1829 753.74 744.21 764.80 
1830 749.20 744.00 764.80 
1831 744.31 744.05 764.80 
1832 757.34 744.25 764.80 
1833 757.28 744.15 764.80 
1834 755.60 743.94 764.80 
1835 760.10 743.97 764.80 
1836 754.23 743.72 764.80 
1837 755.36 743.94 764.80 
1838 753.67 743.89 764.80 
1839 757.05 744.13 764.80 
1840 754.31 744.26 764.80 
1841 758.67 744.30 764.80 
1842 753.88 744.04 764.80 
1843 754.55 744.19 764.80 
1844 752.19 744.08 764.80 
1845 756.57 744.23 764.80 
1846 755.66 744.32 764.80 
1847 753.63 744.29 764.80 
1848 751.98 744.09 764.80 
1849 757.65 744.43 764.80 
1850 751.56 744.13 764.80 
1851 753.94 744.75 764.80 
1852 755.23 744.46 764.80 
1853 756.91 744.71 764.80 
1854 754.62 744.32 764.80 
1855 754.44 744.12 764.80 
1856 759.86 744.40 764.80 
1857 753.28 744.60 764.80 
1858 755.90 744.97 764.80 
1859 752.39 744.94 764.80 
1860 759.40 745.24 764.80 
1861 757.46 745.03 764.80 
1862 756.97 745.18 764.80 
1863 756.71 745.16 764.80 
1864 753.34 744.98 764.80 
1865 758.41 744.78 764.80 
1866 755.67 745.36 764.80 
1867 757.07 745.80 764.80 
1868 758.28 745.23 764.80 
1869 751.70 746.05 764.80 
1870 757.26 745.76 764.80 
1871 758.27 745.77 764.80 
1872 759.05 745.65 764.80 
1873 756.08 745.70 764.80 
1874 758.68 745.61 764.80 
1875 753.93 744.90 764.80 
1876 750.57 745.01 764.80 
1877 756.02 744.43 764.80 
1878 755.27 744.53 764.80 
1879 756.81 744.10 764.80 
1880 755.08 744.35 764.80 
1881 757.61 744.26 764.80 
1882 752.99 744.40 764.80 
1883 752.48 744.12 764.80 
1884 755.44 744.73 764.80 
1885 751.37 744.84 764.80 
1886 760.15 745.07 764.80 
1887 755.98 744.94 764.80 
1888 750.11 744.68 764.80 
1889 755.21 744.50 764.80 
1890 754.48 744.59 764.80 
1891 761.48 744.39 764.80 
1892 754.69 744.50 764.80 
1893 759.24 744.87 764.80 
1894 753.96 744.71 764.80 
1895 752.71 744.55 764.80 
1896 760.28 744.71 764.80 
1897 753.45 744.68 764.80 
1898 755.26 745.13 764.80 
1899 755.95 744.75 764.80 
1900 756.53 744.92 764.80 
1901 760.28 745.17 764.80 
1902 755.00 744.96 764.80 
1903 752.71 745.08 764.80 
1904 763.80 745.59 764.80 
1905 755.82 745.37 764.80 
1906 757.63 745.65 764.80 
1907 758.96 746.09 764.80 
1908 757.13 746.28 764.80 
1909 757.76 746.15 764.80 
1910 753.13 745.95 764.80 
1911 754.03 745.94 764.80 
1912 759.20 746.56 764.80 
1913 760.99 746.01 764.80 
1914 759.65 745.82 764.80 
1915 754.54 746.16 764.80 
1916 759.98 746.75 764.80 
1917 759.72 746.55 764.80 
1918 759.84 745.96 764.80 
1919 757.73 745.81 764.80 
1920 755.52 745.64 764.80 
1921 753.59 746.38 764.80 
1922 753.12 746.00 764.80 
1923 757.08 746.35 764.80 
1924 760.45 746.09 764.80 
1925 757.03 745.93 764.80 
1926 756.36 745.69 764.80 
1927 750.13 746.61 764.80 
1928 754.77 746.31 764.80 
1929 754.36 746.20 764.80 
1930 754.37 745.39 764.80 
1931 752.35 745.65 764.80 
1932 752.04 745.87 764.80 
1933 750.84 745.75 764.80 
1934 759.83 746.16 764.80 
1935 750.28 746.05 764.80 
1936 758.61 746.24 764.80 
1937 753.40 746.40 764.80 
1938 756.19 747.19 764.80 
1939 754.08 746.41 764.80 
1940 754.23 746.63 764.80 
1941 759.15 746.12 764.80 
1942 757.39 746.15 764.80 
1943 755.79 746.44 764.80 
1944 755.67 746.12 764.80 
1945 755.34 745.35 764.80 
1946 756.32 745.96 764.80 
1947 757.93 745.69 764.80 
1948 755.95 745.75 764.80 
1949 754.97 745.83 764.80 
1950 755.17 746.66 764.80 
1951 757.63 746.65 764.80 
1952 759.59 746.06 764.80 
1953 755.74 745.66 764.80 
1954 749.03 745.98 764.80 
1955 758.91 745.79 764.80 
1956 752.77 745.57 764.80 
1957 754.93 745.87 764.80 
1958 754.49 746.35 764.80 
1959 757.83 746.37 764.80 
1960 758.92 746.51 764.80 
1961 756.69 746.08 764.80 
1962 760.48 745.91 764.80 
1963 752.90 746.09 764.80 
1964 755.50 746.17 764.80 
1965 757.35 745.75 764.80 
1966 755.14 745.61 764.80 
1967 758.02 745.66 764.80 
1968 751.44 745.55 764.80 
1969 755.97 746.43 764.80 
1970 751.83 745.57 764.80 
1971 756.34 745.65 764.80 
1972 755.79 745.78 764.80 
1973 751.90 746.11 764.80 
1974 761.31 745.42 764.80 
1975 758.15 745.55 764.80 
1976 756.17 745.92 764.80 
1977 755.25 746.33 764.80 
1978 755.01 746.38 764.80 
1979 759.59 746.44 764.80 
1980 749.51 746.31 764.80 
1981 755.01 745.66 764.80 
1982 754.66 745.93 764.80 
1983 753.76 745.58 764.80 
1984 756.08 746.17 764.80 
1985 756.83 746.14 764.80 
1986 755.98 746.22 764.80 
1987 749.12 746.24 764.80 
1988 751.26 746.30 764.80 
1989 755.57 745.93 764.80 
1990 759.07 745.66 764.80 
1991 758.20 745.48 764.80 
1992 757.50 745.02 764.80 
1993 750.56 745.43 764.80 
1994 755.93 745.23 764.80 
1995 754.54 745.03 764.80 
1996 760.15 745.30 764.80 
1997 755.28 745.51 764.80 
1998 754.90 745.97 764.80 
1999 759.94 746.02 764.80 
2000 755.01 746.21 764.80 
2001 760.04 746.21 764.80 
2002 756.09 745.72 764.80 
2003 755.33 746.11 764.80 
2004 758.84 746.03 764.80 
2005 755.18 746.12 764.80 
2006 756.46 746.21 764.80 
2007 755.48 746.02 764.80 
2008 759.14 746.15 764.80 
2009 754.82 746.23 764.80 
2010 756.10 746.17 764.80 
2011 751.64 746.29 764.80 
2012 760.98 745.97 764.80 
2013 750.01 746.15 764.80 
2014 759.25 746.06 764.80 
2015 751.05 746.03 764.80 
2016 758.16 745.88 764.80 
2017 754.85 745.93 764.80 
2018 755.34 745.91 764.80 
2019 756.19 746.01 764.80 
2020 754.99 746.33 764.80 
2021 755.43 746.25 764.80 
2022 754.96 746.18 764.80 
2023 756.30 746.15 764.80 
2024 759.54 746.37 764.80 
2025 757.54 746.00 764.80 
2026 751.60 746.09 764.80 
2027 757.55 746.28 764.80 
2028 751.42 746.29 764.80 
2029 754.27 746.56 764.80 
2030 755.47 746.08 764.80 
2031 757.71 746.23 764.80 
2032 755.31 745.75 764.80 
2033 750.62 745.95 764.80 
2034 755.93 745.91 764.80 
2035 754.58 745.74 764.80 
2036 753.27 745.77 764.80 
2037 750.72 745.66 764.80 
2038 750.01 745.52 764.80 
2039 757.30 745.82 764.80 
2040 753.08 745.80 764.80 
2041 758.06 746.06 764.80 
2042 754.97 745.97 764.80 
2043 752.83 746.06 764.80 
2044 754.15 745.57 764.80 
2045 753.36 745.58 764.80 
2046 754.20 745.75 764.80 
2047 756.68 745.95 764.80 
2048 752.84 745.35 764.80 
2049 746.91 745.77 764.80 
2050 752.76 745.89 764.80 
2051 759.61 745.25 764.80 
2052 753.91 744.99 764.80 
2053 750.52 744.95 764.80 
2054 758.44 744.50 764.80 
2055 751.87 743.88 764.80 
2056 753.44 744.09 764.80 
2057 750.21 743.69 764.80 
2058 756.45 743.48 764.80 
2059 754.84 744.64 764.80 
2060 759.44 745.02 764.80 
2061 758.72 745.15 764.80 
2062 751.57 745.15 764.80 
2063 755.57 745.30 764.80 
2064 750.86 745.36 764.80 
2065 752.94 745.45 764.80 
2066 755.84 744.94 764.80 
2067 758.60 745.02 764.80 
2068 755.12 745.57 764.80 
2069 754.68 745.85 764.80 
2070 755.62 746.14 764.80 
2071 750.74 746.21 764.80 
2072 757.61 746.66 764.80 
2073 755.70 746.16 764.80 
2074 760.75 746.11 764.80 
2075 755.31 745.66 764.80 
2076 754.82 745.37 764.80 
2077 760.60 745.55 764.80 
2078 759.23 745.44 764.80 
2079 754.67 744.59 764.80 
2080 754.89 744.90 764.80 
2081 760.43 744.75 764.80 
2082 748.84 744.39 764.80 
2083 757.60 744.48 764.80 
2084 754.48 744.55 764.80 
2085 753.15 744.45 764.80 
2086 756.95 744.86 764.80 
2087 756.72 745.17 764.80 
2088 760.66 744.81 764.80 
2089 758.95 745.84 764.80 
2090 757.16 745.72 764.80 
2091 759.40 745.85 764.80 
2092 755.38 745.10 764.80 
2093 761.32 745.28 764.80 
2094 760.10 745.13 764.80 
2095 753.44 744.93 764.80 
2096 755.23 744.87 764.80 
2097 753.19 744.85 764.80 
2098 753.41 744.86 764.80 
2099 754.77 744.84 764.80 
2100 752.94 744.97 764.80 
2101 760.05 745.14 764.80 
2102 754.89 745.28 764.80 
2103 755.60 745.29 764.80 
2104 757.02 746.02 764.80 
2105 754.03 745.56 764.80 
2106 756.02 744.74 764.80 
2107 754.55 745.43 764.80 
2108 761.18 745.38 764.80 
2109 757.04 745.22 764.80 
2110 756.67 745.14 764.80 
2111 758.07 744.30 764.80 
2112 758.63 744.40 764.80 
2113 758.70 744.24 764.80 
2114 757.38 744.54 764.80 
2115 756.50 744.69 764.80 
2116 756.36 744.79 764.80 
2117 750.33 744.47 764.80 
2118 753.02 744.45 764.80 
2119 755.93 745.12 764.80 
2120 755.44 745.32 764.80 
2121 755.77 745.32 764.80 
2122 752.73 745.29 764.80 
2123 753.54 745.36 764.80 
2124 759.12 745.34 764.80 
2125 760.08 744.67 764.80 
2126 754.34 744.87 764.80 
2127 759.69 744.89 764.80 
2128 750.20 744.52 764.80 
2129 760.80 744.58 764.80 
2130 760.32 744.64 764.80 
2131 752.92 744.34 764.80 
2132 758.18 744.18 764.80 
2133 753.71 744.50 764.80 
2134 757.45 744.56 764.80 
2135 757.59 744.76 764.80 
2136 750.51 744.63 764.80 
2137 754.61 744.23 764.80 
2138 755.06 744.14 764.80 
2139 756.09 744.39 764.80 
2140 758.77 744.23 764.80 
2141 756.91 744.54 764.80 
2142 754.73 744.18 764.80 
2143 755.09 744.00 764.80 
2144 757.18 744.62 764.80 
2145 760.43 744.58 764.80 
2146 755.99 744.49 764.80 
2147 755.71 744.54 764.80 
2148 752.05 744.62 764.80 
2149 756.32 744.63 764.80 
2150 747.42 744.59 764.80 
2151 758.90 744.71 764.80 
2152 753.08 744.63 764.80 
2153 756.67 744.73 764.80 
2154 753.29 744.36 764.80 
2155 755.52 744.48 764.80 
2156 754.56 744.45 764.80 
2157 753.87 744.37 764.80 
2158 755.25 744.57 764.80 
2159 758.27 744.57 764.80 
2160 756.67 744.72 764.80 
2161 758.34 744.73 764.80 
2162 747.80 744.54 764.80 
2163 752.47 744.62 764.80 
2164 755.27 744.69 764.80 
2165 752.26 744.50 764.80 
2166 758.06 744.60 764.80 
2167 749.00 745.34 764.80 
2168 759.99 745.94 764.80 
2169 754.44 746.03 764.80 
2170 753.71 745.39 764.80 
2171 754.18 745.12 764.80 
2172 755.80 744.99 764.80 
2173 762.10 746.27 764.80 
2174 748.83 746.39 764.80 
2175 756.70 746.21 764.80 
2176 755.20 746.14 764.80 
2177 759.97 746.12 764.80 
2178 749.95 746.12 764.80 
2179 760.41 745.99 764.80 
2180 753.37 745.94 764.80 
2181 755.33 745.86 764.80 
2182 754.40 746.24 764.80 
2183 756.17 745.71 764.80 
2184 750.96 745.97 764.80 
2185 751.46 745.90 764.80 
2186 758.85 745.95 764.80 
2187 759.02 745.86 764.80 
2188 757.63 745.71 764.80 
2189 754.38 745.46 764.80 
2190 755.10 745.59 764.80 
2191 754.53 745.58 764.80 
2192 758.51 745.66 764.80 
2193 752.86 745.46 764.80 
2194 754.46 745.87 764.80 
2195 756.98 745.67 764.80 
2196 750.44 745.70 764.80 
2197 759.05 745.73 764.80 
2198 751.28 745.99 764.80 
2199 752.13 745.92 764.80 
2200 752.57 746.06 764.80 
2201 758.72 745.77 764.80 
2202 751.71 745.97 764.80 
2203 753.19 745.75 764.80 
2204 757.86 745.69 764.80 
2205 756.37 745.76 764.80 
2206 753.49 745.33 764.80 
2207 750.52 745.36 764.80 
2208 749.94 745.18 764.80 
2209 751.34 744.91 764.80 
2210 760.17 744.52 764.80 
2211 756.26 744.87 764.80 
2212 752.98 744.66 764.80 
2213 759.58 744.81 764.80 
2214 756.08 745.14 764.80 
2215 758.00 745.32 764.80 
2216 754.75 745.21 764.80 
2217 760.84 745.20 764.80 
2218 756.60 745.29 764.80 
2219 749.39 745.26 764.80 
2220 757.47 745.43 764.80 
2221 752.07 745.20 764.80 
2222 749.50 745.13 764.80 
2223 756.44 744.89 764.80 
2224 755.12 744.64 764.80 
2225 751.38 744.89 764.80 
2226 750.48 745.00 764.80 
2227 758.06 744.97 764.80 
2228 750.90 745.16 764.80 
2229 756.95 745.01 764.80 
2230 751.36 745.12 764.80 
2231 746.91 744.98 764.80 
2232 749.85 745.02 764.80 
2233 752.74 744.57 764.80 
2234 755.83 744.58 764.80 
2235 750.49 744.76 764.80 
2236 748.75 745.18 764.80 
2237 755.44 745.29 764.80 
2238 758.45 745.07 764.80 
2239 761.11 745.26 764.80 
2240 752.81 745.35 764.80 
2241 754.51 745.28 764.80 
2242 753.86 744.97 764.80 
2243 751.71 745.21 764.80 
2244 753.48 745.26 764.80 
2245 755.80 744.91 764.80 
2246 755.94 744.80 764.80 
2247 754.42 744.70 764.80 
2248 763.04 744.88 764.80 
2249 763.13 744.55 764.80 
2250 754.65 744.43 764.80 
2251 754.62 744.49 764.80 
2252 752.48 744.73 764.80 
2253 756.79 744.64 764.80 
2254 754.69 744.68 764.80 
2255 752.02 744.81 764.80 
2256 754.00 744.81 764.80 
2257 758.23 744.87 764.80 
2258 748.94 745.46 764.80 
2259 754.99 745.07 764.80 
2260 754.58 745.01 764.80 
2261 756.97 745.43 764.80 
2262 752.94 745.61 764.80 
2263 755.51 745.79 764.80 
2264 758.73 745.40 764.80 
2265 758.80 745.58 764.80 
2266 761.38 745.39 764.80 
2267 759.66 745.41 764.80 
2268 755.93 745.67 764.80 
2269 754.01 745.56 764.80 
2270 754.96 745.51 764.80 
2271 756.40 745.37 764.80 
2272 757.54 745.34 764.80 
2273 755.32 745.22 764.80 
2274 753.89 745.11 764.80 
2275 752.15 744.88 764.80 
2276 751.74 744.65 764.80 
2277 756.11 744.87 764.80 
2278 752.90 745.20 764.80 
2279 751.59 745.38 764.80 
2280 753.15 745.43 764.80 
2281 753.01 745.45 764.80 
2282 757.84 745.41 764.80 
2283 752.23 745.31 764.80 
2284 754.29 745.56 764.80 
2285 755.49 745.51 764.80 
2286 756.09 745.29 764.80 
2287 756.29 745.79 764.80 
2288 760.85 745.17 764.80 
2289 752.65 745.33 764.80 
2290 749.95 745.21 764.80 
2291 757.01 745.19 764.80 
2292 752.70 745.43 764.80 
2293 752.53 745.56 764.80 
2294 753.63 745.41 764.80 
2295 758.96 745.61 764.80 
2296 748.08 745.38 764.80 
2297 761.07 745.63 764.80 
2298 754.53 745.64 764.80 
2299 756.65 745.48 764.80 
2300 753.37 745.38 764.80 
2301 756.37 745.38 764.80 
2302 752.56 745.50 764.80 
2303 756.99 745.72 764.80 
2304 754.77 745.29 764.80 
2305 761.35 745.39 764.80 
2306 756.08 745.30 764.80 
2307 759.28 745.73 764.80 
2308 756.12 745.48 764.80 
2309 753.17 745.36 764.80 
2310 756.76 745.10 764.80 
2311 750.76 745.10 764.80 
2312 758.01 744.33 764.80 
2313 758.97 745.28 764.80 
2314 753.27 745.41 764.80 
2315 759.44 745.40 764.80 
2316 752.21 745.54 764.80 
2317 756.53 745.35 764.80 
2318 756.64 745.84 764.80 
2319 753.22 745.87 764.80 
2320 757.53 745.76 764.80 
2321 754.60 746.13 764.80 
2322 760.64 745.43 764.80 
2323 758.58 745.86 764.80 
2324 750.58 745.42 764.80 
2325 758.87 744.83 764.80 
2326 752.95 745.38 764.80 
2327 750.62 745.12 764.80 
2328 754.35 745.07 764.80 
2329 753.93 744.49 764.80 
2330 750.07 745.72 764.80 
2331 755.31 745.34 764.80 
2332 751.55 745.18 764.80 
2333 752.78 745.48 764.80 
2334 757.26 745.75 764.80 
2335 748.52 745.68 764.80 
2336 753.87 745.76 764.80 
2337 758.72 745.76 764.80 
2338 759.69 745.59 764.80 
2339 754.85 745.50 764.80 
2340 755.97 745.47 764.80 
2341 751.02 745.74 764.80 
2342 756.67 745.87 764.80 
2343 755.84 745.74 764.80 
2344 755.77 745.63 764.80 
2345 755.64 745.74 764.80 
2346 755.29 745.36 764.80 
2347 752.38 745.39 764.80 
2348 754.35 745.55 764.80 
2349 760.70 745.43 764.80 
2350 755.17 745.52 764.80 
2351 749.67 745.31 764.80 
2352 758.35 745.30 764.80 
2353 749.46 745.22 764.80 
2354 761.39 745.22 764.80 
2355 753.54 745.46 764.80 
2356 749.87 745.51 764.80 
2357 760.83 745.37 764.80 
2358 754.51 745.57 764.80 
2359 753.68 744.83 764.80 
2360 754.86 744.74 764.80 
2361 756.84 744.87 764.80 
2362 752.73 744.96 764.80 
2363 755.68 745.49 764.80 
2364 750.94 745.66 764.80 
2365 757.50 745.05 764.80 
2366 756.66 745.41 764.80 
2367 754.20 745.42 764.80 
2368 751.65 745.15 764.80 
2369 758.91 744.90 764.80 
2370 755.10 745.02 764.80 
2371 755.75 745.02 764.80 
2372 753.16 745.09 764.80 
2373 753.27 744.89 764.80 
2374 758.56 745.33 764.80 
2375 755.51 745.76 764.80 
2376 752.10 745.75 764.80 
2377 753.45 745.59 764.80 
2378 755.80 745.61 764.80 
2379 758.53 745.51 764.80 
2380 760.31 745.48 764.80 
2381 754.31 745.72 764.80 
2382 752.04 746.11 764.80 
2383 753.69 746.11 764.80 
2384 755.08 746.46 764.80 
2385 755.39 745.94 764.80 
2386 751.72 745.93 764.80 
2387 758.56 746.26 764.80 
2388 757.36 746.07 764.80 
2389 752.62 746.00 764.80 
2390 752.48 746.40 764.80 
2391 753.87 746.54 764.80 
2392 757.83 746.39 764.80 
2393 757.92 746.43 764.80 
2394 759.05 746.36 764.80 
2395 754.72 746.66 764.80 
2396 757.19 746.63 764.80 
2397 760.14 746.79 764.80 
2398 750.10 746.66 764.80 
2399 758.22 746.78 764.80 
2400 760.24 746.76 764.80 
2401 757.01 746.74 764.80 
2402 756.46 746.86 764.80 
2403 756.30 746.68 764.80 
2404 755.74 746.90 764.80 
2405 753.86 746.71 764.80 
2406 757.71 746.37 764.80 
2407 755.70 746.24 764.80 
2408 756.50 746.44 764.80 
2409 755.01 746.74 764.80 
2410 755.08 746.15 764.80 
2411 755.32 745.84 764.80 
2412 754.38 746.09 764.80 
2413 758.44 746.22 764.80 
2414 753.57 745.98 764.80 
2415 755.55 746.52 764.80 
2416 762.55 745.93 764.80 
2417 758.14 745.82 764.80 
2418 751.73 746.19 764.80 
2419 760.30 746.68 764.80 
2420 755.80 746.26 764.80 
2421 755.94 746.35 764.80 
2422 757.66 746.35 764.80 
2423 756.35 746.35 764.80 
2424 752.87 746.25 764.80 
2425 757.79 745.92 764.80 
2426 756.63 745.99 764.80 
2427 758.11 745.38 764.80 
2428 756.93 745.46 764.80 
2429 757.68 745.80 764.80 
2430 757.22 745.04 764.80 
2431 758.88 745.42 764.80 
2432 760.24 745.30 764.80 
2433 760.32 744.82 764.80 
2434 749.97 744.84 764.80 
2435 755.94 744.58 764.80 
2436 752.70 745.31 764.80 
2437 756.10 744.95 764.80 
2438 754.80 745.56 764.80 
2439 754.18 744.65 764.80 
2440 759.07 744.94 764.80 
2441 754.29 745.10 764.80 
2442 753.43 745.29 764.80 
2443 758.77 745.17 764.80 
2444 759.70 744.39 764.80 
2445 758.02 744.60 764.80 
2446 753.04 744.97 764.80 
2447 753.83 745.13 764.80 
2448 751.15 745.81 764.80 
2449 754.85 745.70 764.80 
2450 757.04 745.88 764.80 
2451 755.93 745.83 764.80 
2452 751.69 746.25 764.80 
2453 756.34 746.39 764.80 
2454 752.98 746.03 764.80 
2455 761.10 745.62 764.80 
2456 758.52 745.64 764.80 
2457 760.70 745.26 764.80 
2458 756.00 745.71 764.80 
2459 756.58 745.82 764.80 
2460 757.20 745.92 764.80 
2461 759.42 745.70 764.80 
2462 754.19 745.71 764.80 
2463 755.82 745.52 764.80 
2464 755.87 746.32 764.80 
2465 755.29 746.38 764.80 
2466 753.14 745.89 764.80 
2467 751.28 746.05 764.80 
2468 750.52 745.52 764.80 
2469 759.90 745.21 764.80 
2470 755.90 746.53 764.80 
2471 758.42 746.43 764.80 
2472 755.36 746.48 764.80 
2473 754.21 746.61 764.80 
2474 757.30 746.72 764.80 
2475 760.07 746.44 764.80 
2476 755.76 745.66 764.80 
2477 752.17 746.40 764.80 
2478 752.71 746.18 764.80 
2479 753.49 746.22 764.80 
2480 757.71 746.21 764.80 
2481 757.31 746.02 764.80 
2482 748.40 746.31 764.80 
2483 765.44 746.02 764.80 
2484 758.18 745.72 765.44 
2485 757.46 745.71 765.44 
2486 751.28 745.94 765.44 
2487 759.01 745.57 765.44 
2488 753.75 745.77 765.44 
2489 755.58 745.59 765.44 
2490 756.83 745.49 765.44 
2491 753.80 744.90 765.44 
2492 756.62 745.37 765.44 
2493 753.36 745.77 765.44 
2494 757.95 746.34 765.44 
2495 753.25 746.27 765.44 
2496 760.35 745.92 765.44 
2497 755.61 746.58 765.44 
2498 760.91 746.28 765.44 
2499 752.11 746.22 765.44 
2500 758.41 746.63 765.44 
2501 756.86 746.40 765.44 
2502 757.27 746.72 765.44 
2503 754.25 746.48 765.44 
2504 754.36 746.46 765.44 
2505 757.42 746.60 765.44 
2506 758.86 746.51 765.44 
2507 759.05 746.20 765.44 
2508 757.78 746.27 765.44 
2509 763.17 746.20 765.44 
2510 750.88 746.08 765.44 
2511 757.33 745.92 765.44 
2512 757.25 746.33 765.44 
2513 752.96 746.23 765.44 
2514 755.27 745.99 765.44 
2515 755.54 746.05 765.44 
2516 757.15 746.15 765.44 
2517 752.06 746.35 765.44 
2518 757.78 746.15 765.44 
2519 756.50 746.20 765.44 
2520 753.16 746.30 765.44 
2521 753.76 746.38 765.44 
2522 758.45 746.90 765.44 
2523 756.50 746.81 765.44 
2524 757.73 746.86 765.44 
2525 748.78 746.58 765.44 
2526 754.31 746.74 765.44 
2527 759.32 746.38 765.44 
2528 754.50 746.44 765.44 
2529 754.66 746.31 765.44 
2530 756.63 746.38 765.44 
2531 754.18 746.41 765.44 
2532 758.23 745.76 765.44 
2533 751.49 745.23 765.44 
2534 751.71 745.07 765.44 
2535 751.23 745.30 765.44 
2536 755.14 745.52 765.44 
2537 748.28 745.67 765.44 
2538 759.23 745.83 765.44 
2539 753.30 745.58 765.44 
2540 757.20 746.28 765.44 
2541 759.90 745.54 765.44 
2542 751.25 745.26 765.44 
2543 754.12 745.35 765.44 
2544 754.77 745.25 765.44 
2545 760.33 745.53 765.44 
2546 753.64 745.70 765.44 
2547 759.71 745.62 765.44 
2548 752.70 745.59 765.44 
2549 748.98 746.03 765.44 
2550 754.70 746.70 765.44 
2551 757.60 746.60 765.44 
2552 757.89 746.09 765.44 
2553 756.71 746.25 765.44 
2554 751.71 746.05 765.44 
2555 754.62 746.06 765.44 
2556 755.08 745.98 765.44 
2557 756.77 746.14 765.44 
2558 757.32 746.22 765.44 
2559 755.95 746.24 765.44 
2560 751.72 746.43 765.44 
2561 749.25 746.62 765.44 
2562 757.54 745.80 765.44 
2563 755.47 745.56 765.44 
2564 754.17 745.51 765.44 
2565 758.47 745.90 765.44 
2566 756.96 745.85 765.44 
2567 756.93 745.39 765.44 
2568 752.20 745.46 765.44 
2569 757.43 745.28 765.44 
2570 751.37 744.94 765.44 
2571 757.38 746.00 765.44 
2572 755.10 745.31 765.44 
2573 754.31 745.63 765.44 
2574 756.98 745.27 765.44 
2575 757.73 746.17 765.44 
2576 760.85 745.92 765.44 
2577 755.62 745.83 765.44 
2578 756.34 745.67 765.44 
2579 753.59 744.75 765.44 
2580 752.95 744.80 765.44 
2581 761.01 744.19 765.44 
2582 754.59 744.76 765.44 
2583 761.01 744.79 765.44 
2584 757.61 744.65 765.44 
2585 749.91 744.60 765.44 
2586 755.34 744.39 765.44 
2587 753.59 744.82 765.44 
2588 758.17 744.71 765.44 
2589 754.99 745.71 765.44 
2590 754.82 745.46 765.44 
2591 751.20 746.41 765.44 
2592 756.41 745.94 765.44 
2593 752.97 746.11 765.44 
2594 750.81 745.81 765.44 
2595 757.08 746.49 765.44 
2596 754.95 746.30 765.44 
2597 756.86 746.22 765.44 
2598 754.85 746.30 765.44 
2599 758.06 745.69 765.44 
2600 756.61 745.78 765.44 
2601 748.63 746.15 765.44 
2602 753.44 746.22 765.44 
2603 752.55 746.01 765.44 
2604 750.69 745.80 765.44 
2605 755.69 744.97 765.44 
2606 763.59 745.33 765.44 
2607 757.07 745.47 765.44 
2608 756.37 745.68 765.44 
2609 758.44 745.65 765.44 
2610 755.90 745.70 765.44 
2611 757.47 745.24 765.44 
2612 758.25 745.04 765.44 
2613 751.43 745.04 765.44 
2614 754.68 744.69 765.44 
2615 761.19 744.50 765.44 
2616 754.35 744.24 765.44 
2617 752.61 744.15 765.44 
2618 757.65 744.50 765.44 
2619 757.99 744.02 765.44 
2620 757.18 743.82 765.44 
2621 756.77 743.75 765.44 
2622 755.01 744.04 765.44 
2623 751.64 744.13 765.44 
2624 753.91 744.17 765.44 
2625 754.60 745.54 765.44 
2626 757.45 745.64 765.44 
2627 759.67 745.60 765.44 
2628 752.10 745.81 765.44 
2629 761.41 745.60 765.44 
2630 748.15 745.67 765.44 
2631 756.81 745.39 765.44 
2632 754.74 746.26 765.44 
2633 750.06 746.35 765.44 
2634 750.20 746.44 765.44 
2635 755.88 746.37 765.44 
2636 755.71 746.42 765.44 
2637 752.27 746.10 765.44 
2638 760.05 746.20 765.44 
2639 757.63 746.23 765.44 
2640 751.39 745.93 765.44 
2641 756.62 746.04 765.44 
2642 758.80 745.69 765.44 
2643 756.27 745.29 765.44 
2644 755.25 745.29 765.44 
2645 752.64 745.53 765.44 
2646 759.36 745.36 765.44 
2647 749.72 745.00 765.44 
2648 753.70 745.09 765.44 
2649 761.17 745.11 765.44 
2650 756.54 745.88 765.44 
2651 756.94 745.71 765.44 
2652 754.99 745.81 765.44 
2653 755.85 745.55 765.44 
2654 757.02 745.42 765.44 
2655 749.81 744.93 765.44 
2656 748.07 744.44 765.44 
2657 755.10 745.20 765.44 
2658 747.81 745.20 765.44 
2659 758.89 744.53 765.44 
2660 756.27 744.52 765.44 
2661 756.86 744.56 765.44 
2662 754.43 744.51 765.44 
2663 751.31 744.24 765.44 
2664 756.49 745.46 765.44 
2665 755.64 745.44 765.44 
2666 759.38 745.32 765.44 
2667 759.04 745.55 765.44 
2668 758.24 744.91 765.44 
2669 749.56 744.88 765.44 
2670 753.55 745.02 765.44 
2671 751.57 744.72 765.44 
2672 756.25 744.58 765.44 
2673 755.80 744.30 765.44 
2674 755.40 744.47 765.44 
2675 758.93 744.12 765.44 
2676 755.53 744.21 765.44 
2677 755.30 744.30 765.44 
2678 757.20 743.73 765.44 
2679 753.52 743.13 765.44 
2680 759.31 742.98 765.44 
2681 755.94 743.34 765.44 
2682 753.37 743.11 765.44 
2683 761.21 743.89 765.44 
2684 755.70 744.27 765.44 
2685 755.47 743.98 765.44 
2686 759.08 744.22 765.44 
2687 755.15 744.18 765.44 
2688 750.07 744.11 765.44 
2689 756.51 744.51 765.44 
2690 752.65 744.35 765.44 
2691 755.98 744.30 765.44 
2692 762.93 744.50 765.44 
2693 755.11 744.34 765.44 
2694 753.70 744.37 765.44 
2695 754.55 744.08 765.44 
2696 753.49 743.80 765.44 
2697 755.60 743.77 765.44 
2698 752.68 743.72 765.44 
2699 749.97 743.90 765.44 
2700 749.78 743.77 765.44 
2701 750.10 743.76 765.44 
2702 755.35 743.56 765.44 
2703 748.18 743.88 765.44 
2704 755.49 743.67 765.44 
2705 754.89 743.65 765.44 
2706 754.18 743.69 765.44 
2707 751.68 743.64 765.44 
2708 753.73 743.37 765.44 
2709 758.86 743.77 765.44 
2710 758.43 743.79 765.44 
2711 750.86 743.81 765.44 
2712 751.07 743.45 765.44 
2713 757.12 743.23 765.44 
2714 754.52 743.11 765.44 
2715 754.47 743.23 765.44 
2716 748.47 743.57 765.44 
2717 758.28 743.51 765.44 
2718 756.44 743.28 765.44 
2719 750.60 743.32 765.44 
2720 758.11 743.58 765.44 
2721 756.11 743.77 765.44 
2722 758.57 743.31 765.44 
2723 752.60 743.64 765.44 
2724 752.90 743.70 765.44 
2725 755.01 743.73 765.44 
2726 746.13 743.81 765.44 
2727 753.42 743.89 765.44 
2728 756.75 744.58 765.44 
2729 752.87 744.51 765.44 
2730 752.71 744.53 765.44 
2731 755.10 744.23 765.44 
2732 754.89 744.46 765.44 
2733 751.55 744.35 765.44 
2734 751.47 743.84 765.44 
2735 753.26 743.91 765.44 
2736 753.54 743.85 765.44 
2737 748.78 744.18 765.44 
2738 758.27 744.04 765.44 
2739 756.68 743.92 765.44 
2740 754.75 743.94 765.44 
2741 748.14 744.00 765.44 
2742 758.62 743.74 765.44 
2743 755.94 744.10 765.44 
2744 752.98 743.46 765.44 
2745 751.45 743.56 765.44 
2746 759.11 743.62 765.44 
2747 756.36 743.65 765.44 
2748 758.77 743.36 765.44 
2749 754.63 743.46 765.44 
2750 753.48 743.20 765.44 
2751 750.10 743.21 765.44 
2752 754.50 743.34 765.44 
2753 752.86 743.08 765.44 
2754 755.54 743.07 765.44 
2755 753.70 744.18 765.44 
2756 756.65 744.01 765.44 
2757 751.16 743.52 765.44 
2758 755.46 743.72 765.44 
2759 747.19 743.99 765.44 
2760 754.92 744.38 765.44 
2761 757.70 743.89 765.44 
2762 760.12 743.78 765.44 
2763 757.13 743.81 765.44 
2764 751.41 743.76 765.44 
2765 758.26 743.88 765.44 
2766 755.17 743.16 765.44 
2767 753.77 742.72 765.44 
2768 753.60 743.09 765.44 
2769 755.72 743.43 765.44 
2770 761.74 743.16 765.44 
2771 753.06 742.52 765.44 
2772 750.57 741.64 765.44 
2773 755.90 742.31 765.44 
2774 757.98 741.49 765.44 
2775 752.86 742.50 765.44 
2776 751.65 742.45 765.44 
2777 753.01 742.55 765.44 
2778 758.94 742.49 765.44 
2779 752.22 742.95 765.44 
2780 747.93 742.34 765.44 
2781 755.75 743.08 765.44 
2782 755.18 743.18 765.44 
2783 753.61 743.69 765.44 
2784 755.78 743.63 765.44 
2785 757.13 743.03 765.44 
2786 749.60 742.67 765.44 
2787 754.73 743.32 765.44 
2788 756.03 743.56 765.44 
2789 754.44 743.46 765.44 
2790 754.69 743.48 765.44 
2791 756.89 743.28 765.44 
2792 754.60 743.27 765.44 
2793 751.84 742.94 765.44 
2794 750.36 743.38 765.44 
2795 752.32 743.50 765.44 
2796 755.32 743.53 765.44 
2797 752.69 743.22 765.44 
2798 753.64 743.63 765.44 
2799 747.89 743.49 765.44 
2800 756.33 744.04 765.44 
2801 755.18 744.57 765.44 
2802 755.21 744.57 765.44 
2803 749.05 744.33 765.44 
2804 750.70 744.62 765.44 
2805 754.12 743.94 765.44 
2806 759.93 744.25 765.44 
2807 749.37 743.95 765.44 
2808 757.68 744.33 765.44 
2809 752.02 744.24 765.44 
2810 751.90 744.59 765.44 
2811 752.63 744.74 765.44 
2812 753.11 744.62 765.44 
2813 761.10 744.20 765.44 
2814 759.25 744.65 765.44 
2815 749.29 744.69 765.44 
2816 758.54 744.59 765.44 
2817 756.28 744.72 765.44 
2818 754.91 744.79 765.44 
2819 754.47 745.01 765.44 
2820 756.75 744.70 765.44 
2821 753.54 744.85 765.44 
2822 754.56 744.80 765.44 
2823 753.75 744.94 765.44 
2824 758.37 744.77 765.44 
2825 749.27 743.91 765.44 
2826 759.11 743.42 765.44 
2827 757.31 742.81 765.44 
2828 759.42 744.12 765.44 
2829 748.02 743.79 765.44 
2830 753.01 743.88 765.44 
2831 754.04 743.63 765.44 
2832 752.82 743.66 765.44 
2833 760.12 744.41 765.44 
2834 758.05 744.50 765.44 
2835 752.90 744.44 765.44 
2836 751.67 744.66 765.44 
2837 755.23 744.55 765.44 
2838 752.03 744.50 765.44 
2839 755.26 744.56 765.44 
2840 758.13 744.67 765.44 
2841 757.24 744.60 765.44 
2842 755.26 744.62 765.44 
2843 753.39 744.36 765.44 
2844 755.42 744.20 765.44 
2845 759.23 744.21 765.44 
2846 755.44 744.13 765.44 
2847 756.98 744.24 765.44 
2848 749.56 743.70 765.44 
2849 751.83 744.25 765.44 
2850 753.13 744.01 765.44 
2851 747.89 744.61 765.44 
2852 757.18 744.27 765.44 
2853 753.49 744.17 765.44 
2854 751.35 744.26 765.44 
2855 753.02 744.52 765.44 
2856 759.43 744.35 765.44 
2857 759.35 743.92 765.44 
2858 759.75 744.11 765.44 
2859 751.80 743.59 765.44 
2860 754.68 743.75 765.44 
2861 748.38 743.68 765.44 
2862 752.93 743.43 765.44 
2863 752.08 744.01 765.44 
2864 755.18 743.91 765.44 
2865 760.71 744.12 765.44 
2866 757.90 744.16 765.44 
2867 754.98 744.02 765.44 
2868 758.59 744.42 765.44 
2869 752.65 744.77 765.44 
2870 755.08 744.37 765.44 
2871 759.22 744.01 765.44 
2872 755.56 744.07 765.44 
2873 753.61 744.08 765.44 
2874 751.61 744.01 765.44 
2875 752.52 744.01 765.44 
2876 754.68 744.15 765.44 
2877 757.17 744.37 765.44 
2878 759.06 744.47 765.44 
2879 757.16 744.39 765.44 
2880 751.56 744.51 765.44 
2881 754.45 744.45 765.44 
2882 760.35 744.57 765.44 
2883 756.89 744.24 765.44 
2884 758.99 744.08 765.44 
2885 751.38 744.03 765.44 
2886 757.48 743.64 765.44 
2887 757.12 744.05 765.44 
2888 751.57 744.31 765.44 
2889 753.98 744.18 765.44 
2890 756.08 743.87 765.44 
2891 754.46 743.38 765.44 
2892 757.31 743.99 765.44 
2893 754.51 744.19 765.44 
2894 755.66 744.26 765.44 
2895 756.11 744.12 765.44 
2896 758.08 744.19 765.44 
2897 753.99 743.45 765.44 
2898 747.32 743.78 765.44 
2899 748.24 743.95 765.44 
2900 754.90 743.31 765.44 
2901 755.81 743.41 765.44 
2902 756.41 743.08 765.44 
2903 754.62 743.32 765.44 
2904 753.17 743.33 765.44 
2905 747.65 743.77 765.44 
2906 754.26 743.91 765.44 
2907 752.25 743.88 765.44 
2908 754.98 743.91 765.44 
2909 753.22 743.48 765.44 
2910 753.24 744.02 765.44 
2911 755.02 743.96 765.44 
2912 748.24 744.07 765.44 
2913 757.71 742.81 765.44 
2914 752.13 742.82 765.44 
2915 752.98 742.95 765.44 
2916 752.30 743.52 765.44 
2917 757.39 743.93 765.44 
2918 752.63 743.78 765.44 
2919 750.72 743.62 765.44 
2920 759.01 743.05 765.44 
2921 761.09 743.19 765.44 
2922 753.47 743.82 765.44 
2923 757.28 743.37 765.44 
2924 756.19 743.31 765.44 
2925 756.25 743.35 765.44 
2926 758.46 743.67 765.44 
2927 754.53 743.46 765.44 
2928 753.60 743.51 765.44 
2929 752.78 743.60 765.44 
2930 753.44 743.40 765.44 
2931 755.58 743.43 765.44 
2932 755.14 743.49 765.44 
2933 752.62 743.20 765.44 
2934 756.62 742.77 765.44 
2935 754.14 743.00 765.44 
2936 751.43 742.74 765.44 
2937 752.94 742.86 765.44 
2938 757.24 742.80 765.44 
2939 751.91 742.75 765.44 
2940 752.18 743.30 765.44 
2941 751.39 743.27 765.44 
2942 750.64 743.13 765.44 
2943 750.32 743.06 765.44 
2944 755.70 742.98 765.44 
2945 755.27 742.88 765.44 
2946 756.98 743.43 765.44 
2947 751.05 743.19 765.44 
2948 754.86 743.40 765.44 
2949 756.27 743.38 765.44 
2950 749.18 743.42 765.44 
2951 751.18 743.37 765.44 
2952 752.18 743.27 765.44 
2953 754.15 743.11 765.44 
2954 753.10 743.29 765.44 
2955 760.46 743.42 765.44 
2956 752.08 743.55 765.44 
2957 759.02 743.82 765.44 
2958 759.85 743.91 765.44 
2959 752.97 744.04 765.44 
2960 756.30 743.69 765.44 
2961 752.48 743.72 765.44 
2962 750.03 743.57 765.44 
2963 754.66 743.65 765.44 
2964 756.12 743.82 765.44 
2965 758.83 743.58 765.44 
2966 760.05 743.60 765.44 
2967 750.39 743.80 765.44 
2968 754.49 743.38 765.44 
2969 756.28 743.68 765.44 
2970 756.36 743.84 765.44 
2971 755.68 743.84 765.44 
2972 756.49 743.60 765.44 
2973 760.40 743.61 765.44 
2974 760.07 743.64 765.44 
2975 752.98 743.38 765.44 
2976 756.44 743.55 765.44 
2977 756.63 743.60 765.44 
2978 755.28 743.61 765.44 
2979 757.73 743.76 765.44 
2980 759.93 743.74 765.44 
2981 751.80 743.01 765.44 
2982 754.49 743.08 765.44 
2983 758.63 741.98 765.44 
2984 758.36 741.31 765.44 
2985 755.63 742.59 765.44 
2986 758.64 741.95 765.44 
2987 752.59 740.70 765.44 
2988 757.45 741.07 765.44 
2989 755.46 741.14 765.44 
2990 758.94 740.35 765.44 
2991 754.83 740.17 765.44 
2992 749.02 739.60 765.44 
2993 755.19 740.88 765.44 
2994 751.41 740.47 765.44 
2995 757.23 740.41 765.44 
2996 750.85 739.65 765.44 
2997 749.59 740.51 765.44 
2998 755.01 741.51 765.44 
2999 744.35 740.49 765.44 
3000 752.95 741.40 765.44 
3001 760.98 740.57 765.44 
3002 747.70 740.63 765.44 
3003 760.64 740.76 765.44 
3004 754.44 740.72 765.44 
3005 744.58 741.16 765.44 
3006 756.37 741.52 765.44 
3007 758.32 741.41 765.44 
3008 754.67 741.41 765.44 
3009 758.05 740.85 765.44 
3010 754.94 740.70 765.44 
3011 755.55 741.37 765.44 
3012 753.78 739.67 765.44 
3013 759.45 740.25 765.44 
3014 761.52 741.14 765.44 
3015 757.32 740.31 765.44 
3016 754.48 740.65 765.44 
3017 752.55 739.50 765.44 
3018 750.82 740.92 765.44 
3019 750.17 743.00 765.44 
3020 754.52 742.66 765.44 
3021 757.38 742.40 765.44 
3022 757.03 742.56 765.44 
3023 756.70 741.77 765.44 
3024 749.63 741.61 765.44 
3025 757.13 742.78 765.44 
3026 760.87 741.73 765.44 
3027 753.66 740.87 765.44 
3028 753.64 742.13 765.44 
3029 752.86 741.20 765.44 
3030 753.95 742.12 765.44 
3031 753.72 741.90 765.44 
3032 756.66 741.62 765.44 
3033 750.48 742.59 765.44 
3034 749.84 741.99 765.44 
3035 750.66 741.40 765.44 
3036 754.21 741.33 765.44 
3037 750.98 741.94 765.44 
3038 748.45 742.09 765.44 
3039 750.92 742.35 765.44 
3040 758.81 741.57 765.44 
3041 756.57 743.61 765.44 
3042 751.94 743.52 765.44 
3043 754.82 743.15 765.44 
3044 749.12 743.17 765.44 
3045 754.84 743.42 765.44 
3046 757.96 743.76 765.44 
3047 756.27 743.65 765.44 
3048 754.68 743.72 765.44 
3049 753.18 743.56 765.44 
3050 753.03 743.32 765.44 
3051 756.14 743.45 765.44 
3052 760.13 743.31 765.44 
3053 758.22 743.59 765.44 
3054 757.01 743.37 765.44 
3055 749.77 743.49 765.44 
3056 755.88 743.48 765.44 
3057 757.54 743.33 765.44 
3058 756.83 743.31 765.44 
3059 754.45 743.79 765.44 
3060 748.23 744.17 765.44 
3061 748.10 743.80 765.44 
3062 758.43 743.46 765.44 
3063 753.74 743.70 765.44 
3064 752.80 743.95 765.44 
3065 760.38 743.77 765.44 
3066 757.60 743.83 765.44 
3067 753.76 743.73 765.44 
3068 754.08 743.93 765.44 
3069 752.82 743.89 765.44 
3070 757.03 743.96 765.44 
3071 754.80 743.97 765.44 
3072 756.06 743.90 765.44 
3073 758.41 743.68 765.44 
3074 756.24 743.53 765.44 
3075 748.54 743.59 765.44 
3076 756.55 743.59 765.44 
3077 756.80 743.39 765.44 
3078 751.95 743.63 765.44 
3079 756.85 743.38 765.44 
3080 758.27 743.43 765.44 
3081 754.90 743.26 765.44 
3082 757.53 743.67 765.44 
3083 754.61 743.63 765.44 
3084 757.27 743.26 765.44 
3085 749.18 743.23 765.44 
3086 750.49 743.28 765.44 
3087 760.76 743.61 765.44 
3088 752.11 743.56 765.44 
3089 752.01 743.41 765.44 
3090 753.16 743.32 765.44 
3091 756.86 743.36 765.44 
3092 755.61 743.72 765.44 
3093 752.94 743.67 765.44 
3094 748.26 743.14 765.44 
3095 756.31 743.45 765.44 
3096 754.37 743.59 765.44 
3097 752.14 743.66 765.44 
3098 756.35 743.62 765.44 
3099 759.84 743.52 765.44 
3100 752.49 742.65 765.44 
3101 750.46 742.73 765.44 
3102 744.98 743.33 765.44 
3103 754.41 743.48 765.44 
3104 753.70 743.62 765.44 
3105 758.00 743.65 765.44 
3106 752.29 743.87 765.44 
3107 755.96 743.73 765.44 
3108 753.69 743.52 765.44 
3109 755.94 743.50 765.44 
3110 763.09 743.64 765.44 
3111 753.36 743.76 765.44 
3112 758.79 743.58 765.44 
3113 753.12 743.83 765.44 
3114 753.97 743.85 765.44 
3115 749.44 743.99 765.44 
3116 755.73 743.97 765.44 
3117 753.06 743.85 765.44 
3118 751.96 743.99 765.44 
3119 755.25 744.02 765.44 
3120 757.52 744.42 765.44 
3121 754.27 744.22 765.44 
3122 752.57 743.87 765.44 
3123 750.19 744.41 765.44 
3124 756.49 744.15 765.44 
3125 759.15 744.24 765.44 
3126 752.42 744.56 765.44 
3127 746.70 744.41 765.44 
3128 755.09 744.49 765.44 
3129 751.91 744.59 765.44 
3130 758.06 744.81 765.44 
3131 755.53 744.59 765.44 
3132 750.10 744.25 765.44 
3133 758.66 744.45 765.44 
3134 754.72 744.59 765.44 
3135 758.11 744.58 765.44 
3136 755.88 744.23 765.44 
3137 755.43 744.56 765.44 
3138 754.63 744.71 765.44 
3139 760.36 745.10 765.44 
3140 754.48 745.49 765.44 
3141 752.34 745.76 765.44 
3142 754.93 745.33 765.44 
3143 757.01 745.27 765.44 
3144 753.32 744.98 765.44 
3145 753.11 744.88 765.44 
3146 752.99 744.47 765.44 
3147 754.86 745.12 765.44 
3148 756.31 744.72 765.44 
3149 752.37 744.75 765.44 
3150 748.54 744.98 765.44 
3151 760.61 744.41 765.44 
3152 750.23 744.82 765.44 
3153 753.51 744.35 765.44 
3154 756.35 744.76 765.44 
3155 749.30 744.80 765.44 
3156 752.62 744.30 765.44 
3157 751.81 744.74 765.44 
3158 754.19 744.57 765.44 
3159 750.58 745.64 765.44 
3160 754.64 744.17 765.44 
3161 754.45 743.93 765.44 
3162 758.90 744.21 765.44 
3163 756.92 744.07 765.44 
3164 759.56 744.32 765.44 
3165 752.99 744.31 765.44 
3166 755.20 743.97 765.44 
3167 758.45 744.43 765.44 
3168 753.30 744.77 765.44 
3169 753.67 744.23 765.44 
3170 756.41 744.46 765.44 
3171 748.83 744.48 765.44 
3172 754.65 744.82 765.44 
3173 755.56 744.74 765.44 
3174 752.79 744.52 765.44 
3175 751.61 744.59 765.44 
3176 759.54 744.77 765.44 
3177 753.72 744.09 765.44 
3178 750.06 744.40 765.44 
3179 762.54 744.39 765.44 
3180 750.67 744.29 765.44 
3181 759.45 744.61 765.44 
3182 758.68 745.02 765.44 
3183 752.78 745.20 765.44 
3184 754.49 744.70 765.44 
3185 750.70 744.75 765.44 
3186 753.25 744.26 765.44 
3187 751.73 744.77 765.44 
3188 753.21 744.79 765.44 
3189 759.74 745.19 765.44 
3190 756.50 744.87 765.44 
3191 758.99 744.68 765.44 
3192 753.86 744.56 765.44 
3193 757.75 744.44 765.44 
3194 751.38 744.15 765.44 
3195 758.63 744.15 765.44 
3196 759.82 744.15 765.44 
3197 757.88 743.87 765.44 
3198 751.98 743.98 765.44 
3199 754.77 744.74 765.44 
3200 752.32 743.77 765.44 
3201 757.00 744.26 765.44 
3202 757.03 743.84 765.44 
3203 757.05 744.15 765.44 
3204 758.05 744.45 765.44 
3205 753.28 744.77 765.44 
3206 753.52 744.49 765.44 
3207 755.61 744.65 765.44 
3208 756.02 744.70 765.44 
3209 752.90 744.67 765.44 
3210 753.53 744.58 765.44 
3211 754.03 744.90 765.44 
3212 752.17 745.28 765.44 
3213 748.85 744.86 765.44 
3214 754.85 744.79 765.44 
3215 752.42 744.95 765.44 
3216 755.53 744.93 765.44 
3217 753.84 744.53 765.44 
3218 748.54 744.78 765.44 
3219 750.13 744.91 765.44 
3220 756.53 744.70 765.44 
3221 757.33 744.92 765.44 
3222 757.38 745.14 765.44 
3223 761.93 744.84 765.44 
3224 758.34 744.96 765.44 
3225 751.90 744.98 765.44 
3226 751.22 744.37 765.44 
3227 753.44 744.38 765.44 
3228 761.49 744.09 765.44 
3229 752.19 744.41 765.44 
3230 750.22 744.43 765.44 
3231 747.35 744.30 765.44 
3232 747.26 744.58 765.44 
3233 753.20 744.57 765.44 
3234 751.91 744.45 765.44 
3235 757.74 744.26 765.44 
3236 752.52 744.54 765.44 
3237 755.82 744.04 765.44 
3238 755.36 743.95 765.44 
3239 750.97 743.55 765.44 
3240 757.20 744.12 765.44 
3241 754.05 744.02 765.44 
3242 755.86 743.89 765.44 
3243 760.07 743.71 765.44 
3244 757.37 743.52 765.44 
3245 750.98 743.52 765.44 
3246 754.80 743.66 765.44 
3247 754.27 744.17 765.44 
3248 754.44 744.53 765.44 
3249 755.68 744.46 765.44 
3250 748.87 744.42 765.44 
3251 754.04 744.28 765.44 
3252 756.21 744.47 765.44 
3253 752.74 744.80 765.44 
3254 758.68 744.57 765.44 
3255 754.50 743.79 765.44 
3256 750.64 744.60 765.44 
3257 752.41 744.54 765.44 
3258 754.11 744.55 765.44 
3259 753.15 744.60 765.44 
3260 757.52 744.58 765.44 
3261 754.83 744.63 765.44 
3262 758.04 744.80 765.44 
3263 751.25 744.73 765.44 
3264 753.01 744.30 765.44 
3265 752.89 744.45 765.44 
3266 751.06 743.65 765.44 
3267 761.02 743.44 765.44 
3268 752.85 743.73 765.44 
3269 756.99 743.82 765.44 
3270 750.55 743.14 765.44 
3271 755.73 743.17 765.44 
3272 753.88 743.54 765.44 
3273 754.74 744.22 765.44 
3274 755.70 744.16 765.44 
3275 753.42 744.20 765.44 
3276 752.90 744.04 765.44 
3277 760.37 744.01 765.44 
3278 759.96 744.42 765.44 
3279 762.60 744.69 765.44 
3280 751.85 744.44 765.44 
3281 760.89 744.37 765.44 
3282 756.04 744.68 765.44 
3283 752.93 744.45 765.44 
3284 758.96 744.83 765.44 
3285 752.39 744.80 765.44 
3286 757.82 744.81 765.44 
3287 753.43 744.74 765.44 
3288 753.30 744.81 765.44 
3289 752.61 744.46 765.44 
3290 756.13 744.62 765.44 
3291 752.83 744.62 765.44 
3292 753.89 744.07 765.44 
3293 752.99 744.11 765.44 
3294 748.89 744.41 765.44 
3295 755.82 744.44 765.44 
3296 757.42 744.36 765.44 
3297 756.15 744.27 765.44 
3298 754.35 744.17 765.44 
3299 757.52 744.10 765.44 
3300 754.13 744.52 765.44 
3301 754.45 744.81 765.44 
3302 754.21 744.62 765.44 
3303 757.46 744.57 765.44 
3304 753.50 745.40 765.44 
3305 750.37 744.53 765.44 
3306 758.86 744.38 765.44 
3307 757.81 744.59 765.44 
3308 754.61 744.78 765.44 
3309 754.30 745.27 765.44 
3310 756.06 745.32 765.44 
3311 758.00 745.66 765.44 
3312 757.32 745.62 765.44 
3313 752.84 745.32 765.44 
3314 752.75 745.49 765.44 
3315 756.00 745.44 765.44 
3316 752.56 745.60 765.44 
3317 755.99 745.73 765.44 
3318 752.13 745.47 765.44 
3319 755.54 745.45 765.44 
3320 750.52 745.10 765.44 
3321 757.05 744.75 765.44 
3322 754.22 744.58 765.44 
3323 755.54 744.75 765.44 
3324 752.07 745.43 765.44 
3325 757.11 745.52 765.44 
3326 751.53 745.33 765.44 
3327 752.53 745.34 765.44 
3328 754.02 745.27 765.44 
3329 753.57 745.26 765.44 
3330 756.38 744.95 765.44 
3331 751.67 744.99 765.44 
3332 754.82 745.20 765.44 
3333 754.78 744.92 765.44 
3334 754.79 744.52 765.44 
3335 757.78 744.78 765.44 
3336 746.57 744.74 765.44 
3337 758.41 744.21 765.44 
3338 751.62 744.57 765.44 
3339 756.10 744.82 765.44 
3340 754.06 745.08 765.44 
3341 755.40 745.17 765.44 
3342 751.60 745.12 765.44 
3343 756.25 745.21 765.44 
3344 748.23 745.16 765.44 
3345 757.83 745.23 765.44 
3346 752.80 745.25 765.44 
3347 752.83 745.21 765.44 
3348 752.02 744.54 765.44 
3349 757.72 744.45 765.44 
3350 752.15 744.86 765.44 
3351 758.96 744.93 765.44 
3352 757.79 744.94 765.44 
3353 759.78 744.32 765.44 
3354 754.76 744.39 765.44 
3355 754.14 744.30 765.44 
3356 754.73 744.62 765.44 
3357 758.80 745.06 765.44 
3358 755.23 745.19 765.44 
3359 748.69 744.74 765.44 
3360 760.60 744.72 765.44 
3361 754.41 744.90 765.44 
3362 759.08 745.38 765.44 
3363 751.38 745.74 765.44 
3364 751.19 745.74 765.44 
3365 753.88 745.51 765.44 
3366 753.94 745.53 765.44 
3367 752.70 745.98 765.44 
3368 751.56 745.53 765.44 
3369 759.11 745.45 765.44 
3370 753.00 745.23 765.44 
3371 752.27 745.26 765.44 
3372 750.85 745.13 765.44 
3373 754.53 745.26 765.44 
3374 750.65 745.37 765.44 
3375 757.64 745.24 765.44 
3376 748.43 745.49 765.44 
3377 756.72 744.89 765.44 
3378 753.17 744.55 765.44 
3379 754.65 745.07 765.44 
3380 752.42 744.91 765.44 
3381 755.33 744.76 765.44 
3382 753.30 744.62 765.44 
3383 751.11 744.42 765.44 
3384 748.70 744.50 765.44 
3385 750.14 744.70 765.44 
3386 752.49 744.52 765.44 
3387 753.56 744.57 765.44 
3388 753.43 744.44 765.44 
3389 758.91 744.40 765.44 
3390 751.39 744.67 765.44 
3391 755.22 744.50 765.44 
3392 754.62 744.61 765.44 
3393 758.20 744.51 765.44 
3394 753.31 744.37 765.44 
3395 751.65 744.31 765.44 
3396 753.80 744.70 765.44 
3397 757.61 744.78 765.44 
3398 756.46 744.73 765.44 
3399 758.33 744.58 765.44 
3400 753.35 744.70 765.44 
3401 757.79 744.58 765.44 
3402 755.10 744.42 765.44 
3403 755.66 744.28 765.44 
3404 752.71 744.44 765.44 
3405 758.46 744.25 765.44 
3406 759.77 744.77 765.44 
3407 753.64 744.09 765.44 
3408 750.72 744.68 765.44 
3409 754.98 743.87 765.44 
3410 752.69 743.89 765.44 
3411 757.95 743.74 765.44 
3412 757.51 744.26 765.44 
3413 758.25 744.24 765.44 
3414 750.11 744.29 765.44 
3415 753.51 744.56 765.44 
3416 753.40 744.56 765.44 
3417 752.83 744.54 765.44 
3418 758.00 744.60 765.44 
3419 753.30 744.66 765.44 
3420 758.65 744.86 765.44 
3421 753.67 744.82 765.44 
3422 752.42 744.63 765.44 
3423 756.75 745.16 765.44 
3424 756.04 745.15 765.44 
3425 756.96 745.30 765.44 
3426 757.18 745.04 765.44 
3427 758.63 745.17 765.44 
3428 758.78 744.92 765.44 
3429 756.96 744.94 765.44 
3430 754.64 745.00 765.44 
3431 755.80 744.98 765.44 
3432 752.86 744.91 765.44 
3433 751.82 745.00 765.44 
3434 753.35 745.14 765.44 
3435 760.88 745.06 765.44 
3436 751.01 745.00 765.44 
3437 760.16 744.92 765.44 
3438 755.95 745.00 765.44 
3439 755.35 745.18 765.44 
3440 757.99 745.23 765.44 
3441 762.53 745.50 765.44 
3442 760.71 745.29 765.44 
3443 757.14 745.24 765.44 
3444 753.12 744.98 765.44 
3445 754.20 744.77 765.44 
3446 754.82 744.77 765.44 
3447 754.06 744.54 765.44 
3448 760.43 744.32 765.44 
3449 755.17 744.38 765.44 
3450 758.63 744.59 765.44 
3451 756.31 744.54 765.44 
3452 753.94 744.54 765.44 
3453 754.97 744.63 765.44 
3454 752.91 744.65 765.44 
3455 758.44 744.54 765.44 
3456 757.12 744.48 765.44 
3457 758.73 744.15 765.44 
3458 757.87 744.49 765.44 
3459 751.22 744.60 765.44 
3460 755.73 744.38 765.44 
3461 754.32 744.62 765.44 
3462 760.17 744.59 765.44 
3463 759.06 744.44 765.44 
3464 754.44 744.41 765.44 
3465 754.04 744.52 765.44 
3466 759.16 743.83 765.44 
3467 756.66 744.02 765.44 
3468 750.54 743.72 765.44 
3469 749.03 743.90 765.44 
3470 758.80 744.51 765.44 
3471 753.41 744.60 765.44 
3472 756.02 745.15 765.44 
3473 753.14 744.85 765.44 
3474 755.56 745.17 765.44 
3475 755.65 745.18 765.44 
3476 757.85 745.09 765.44 
3477 762.21 745.46 765.44 
3478 751.61 745.29 765.44 
3479 757.52 745.42 765.44 
3480 751.33 745.36 765.44 
3481 760.07 745.37 765.44 
3482 758.44 744.76 765.44 
3483 755.87 745.00 765.44 
3484 753.64 744.88 765.44 
3485 749.02 744.78 765.44 
3486 752.95 745.25 765.44 
3487 758.27 744.99 765.44 
3488 757.00 744.66 765.44 
3489 754.19 744.91 765.44 
3490 754.62 745.13 765.44 
3491 758.03 744.60 765.44 
3492 753.28 744.67 765.44 
3493 758.29 744.52 765.44 
3494 754.70 744.91 765.44 
3495 758.61 745.27 765.44 
3496 755.71 744.96 765.44 
3497 757.96 745.19 765.44 
3498 750.19 745.09 765.44 
3499 757.27 744.97 765.44 
3500 753.36 744.94 765.44 
3501 755.94 745.03 765.44 
3502 754.55 745.35 765.44 
3503 750.99 745.13 765.44 
3504 756.85 745.51 765.44 
3505 755.40 745.53 765.44 
3506 760.50 745.51 765.44 
3507 749.78 745.64 765.44 
3508 756.02 745.64 765.44 
3509 754.07 745.57 765.44 
3510 757.46 745.41 765.44 
3511 753.81 745.36 765.44 
3512 760.32 745.29 765.44 
3513 758.66 745.70 765.44 
3514 751.48 745.68 765.44 
3515 751.99 745.69 765.44 
3516 756.04 745.57 765.44 
3517 754.11 746.14 765.44 
3518 752.41 746.05 765.44 
3519 756.44 746.00 765.44 
3520 754.39 745.93 765.44 
3521 752.13 745.87 765.44 
3522 760.18 745.53 765.44 
3523 755.61 745.69 765.44 
3524 755.51 745.76 765.44 
3525 753.21 746.07 765.44 
3526 752.59 745.97 765.44 
3527 754.66 745.87 765.44 
3528 758.21 745.26 765.44 
3529 755.10 744.98 765.44 
3530 756.60 745.14 765.44 
3531 759.15 745.21 765.44 
3532 751.21 745.11 765.44 
3533 750.08 745.27 765.44 
3534 753.01 744.99 765.44 
3535 751.79 745.53 765.44 
3536 755.95 745.23 765.44 
3537 755.81 745.19 765.44 
3538 747.65 745.07 765.44 
3539 750.96 745.13 765.44 
3540 755.34 744.85 765.44 
3541 758.62 745.13 765.44 
3542 751.00 745.26 765.44 
3543 754.12 745.53 765.44 
3544 755.33 745.24 765.44 
3545 756.18 744.77 765.44 
3546 754.27 744.64 765.44 
3547 753.39 744.65 765.44 
3548 756.96 744.66 765.44 
3549 755.00 744.45 765.44 
3550 757.52 743.80 765.44 
3551 757.41 743.99 765.44 
3552 758.02 744.12 765.44 
3553 755.17 744.73 765.44 
3554 759.62 744.15 765.44 
3555 754.26 744.78 765.44 
3556 752.38 744.83 765.44 
3557 757.95 744.70 765.44 
3558 756.93 744.95 765.44 
3559 758.45 745.23 765.44 
3560 753.79 744.87 765.44 
3561 751.86 745.68 765.44 
3562 752.80 745.23 765.44 
3563 756.71 745.23 765.44 
3564 761.84 745.51 765.44 
3565 752.10 745.34 765.44 
3566 754.76 745.54 765.44 
3567 751.78 745.46 765.44 
3568 749.36 745.63 765.44 
3569 752.44 745.85 765.44 
3570 759.68 746.02 765.44 
3571 756.94 745.46 765.44 
3572 754.07 745.68 765.44 
3573 754.62 746.04 765.44 
3574 756.30 745.99 765.44 
3575 756.91 745.65 765.44 
3576 752.79 745.60 765.44 
3577 751.86 745.69 765.44 
3578 752.48 745.66 765.44 
3579 752.57 745.76 765.44 
3580 757.87 745.59 765.44 
3581 754.95 745.65 765.44 
3582 758.71 745.67 765.44 
3583 755.84 745.51 765.44 
3584 753.17 745.58 765.44 
3585 758.35 745.54 765.44 
3586 755.73 745.64 765.44 
3587 757.17 745.45 765.44 
3588 758.55 745.63 765.44 
3589 753.90 745.96 765.44 
3590 754.15 746.07 765.44 
3591 757.03 745.79 765.44 
3592 756.93 745.93 765.44 
3593 756.53 745.52 765.44 
3594 750.89 745.54 765.44 
3595 757.27 745.35 765.44 
3596 757.08 745.35 765.44 
3597 756.45 745.19 765.44 
3598 755.50 745.22 765.44 
3599 750.54 745.40 765.44 
3600 765.04 745.21 765.44 
3601 757.31 745.11 765.44 
3602 758.58 745.03 765.44 
3603 756.94 744.97 765.44 
3604 754.62 745.03 765.44 
3605 757.89 745.00 765.44 
3606 752.51 745.04 765.44 
3607 753.31 745.05 765.44 
3608 757.56 745.20 765.44 
3609 752.56 745.12 765.44 
3610 754.32 745.01 765.44 
3611 748.07 745.20 765.44 
3612 753.28 745.05 765.44 
3613 756.72 744.99 765.44 
3614 757.14 744.95 765.44 
3615 752.94 745.15 765.44 
3616 751.36 745.45 765.44 
3617 753.18 745.33 765.44 
3618 761.94 745.06 765.44 
3619 752.14 745.02 765.44 
3620 756.35 744.84 765.44 
3621 756.25 744.99 765.44 
3622 757.07 745.38 765.44 
3623 758.41 745.42 765.44 
3624 753.93 745.17 765.44 
3625 755.69 744.74 765.44 
3626 753.79 744.64 765.44 
3627 753.92 744.57 765.44 
3628 758.68 744.61 765.44 
3629 755.65 744.61 765.44 
3630 753.29 744.69 765.44 
3631 755.48 744.58 765.44 
3632 765.08 744.51 765.44 
3633 755.80 744.47 765.44 
3634 751.13 744.43 765.44 
3635 758.67 744.50 765.44 
3636 752.96 744.07 765.44 
3637 752.40 743.63 765.44 
3638 756.41 743.59 765.44 
3639 750.65 743.68 765.44 
3640 749.88 743.29 765.44 
3641 754.23 744.12 765.44 
3642 754.35 744.42 765.44 
3643 764.47 744.43 765.44 
3644 752.62 744.31 765.44 
3645 753.52 744.39 765.44 
3646 749.52 744.41 765.44 
3647 756.07 744.24 765.44 
3648 757.15 744.50 765.44 
3649 753.09 744.60 765.44 
3650 754.12 744.68 765.44 
3651 757.75 744.34 765.44 
3652 757.29 744.63 765.44 
3653 756.16 744.76 765.44 
3654 754.53 744.53 765.44 
3655 752.01 744.75 765.44 
3656 754.61 744.77 765.44 
3657 756.39 744.73 765.44 
3658 756.44 744.46 765.44 
3659 754.45 744.50 765.44 
3660 753.91 744.72 765.44 
3661 750.16 744.70 765.44 
3662 748.04 744.89 765.44 
3663 752.21 745.07 765.44 
3664 752.99 745.13 765.44 
3665 756.75 744.59 765.44 
3666 753.59 744.83 765.44 
3667 755.67 744.72 765.44 
3668 759.63 744.73 765.44 
3669 753.79 744.74 765.44 
3670 756.67 744.58 765.44 
3671 756.84 744.93 765.44 
3672 747.64 745.36 765.44 
3673 758.30 745.00 765.44 
3674 759.23 744.95 765.44 
3675 748.64 744.80 765.44 
3676 758.08 745.04 765.44 
3677 749.60 745.22 765.44 
3678 753.63 745.35 765.44 
3679 752.45 745.20 765.44 
3680 751.50 745.39 765.44 
3681 756.66 745.10 765.44 
3682 754.52 745.58 765.44 
3683 755.78 745.67 765.44 
3684 759.84 745.72 765.44 
3685 756.55 745.51 765.44 
3686 758.49 745.34 765.44 
3687 754.65 745.41 765.44 
3688 751.88 745.41 765.44 
3689 747.45 745.45 765.44 
3690 754.15 745.20 765.44 
3691 752.33 745.13 765.44 
3692 751.04 745.20 765.44 
3693 751.76 745.50 765.44 
3694 758.62 745.45 765.44 
3695 756.44 745.07 765.44 
3696 756.71 745.14 765.44 
3697 757.38 744.94 765.44 
3698 759.24 745.05 765.44 
3699 756.68 745.27 765.44 
3700 753.48 745.24 765.44 
3701 759.85 745.10 765.44 
3702 758.20 745.28 765.44 
3703 755.50 745.31 765.44 
3704 752.42 745.19 765.44 
3705 753.11 745.32 765.44 
3706 753.80 745.32 765.44 
3707 752.76 745.48 765.44 
3708 760.56 745.65 765.44 
3709 756.30 745.56 765.44 
3710 758.40 745.03 765.44 
3711 757.72 745.23 765.44 
3712 754.19 745.67 765.44 
3713 753.88 745.46 765.44 
3714 750.50 745.52 765.44 
3715 748.24 744.23 765.44 
3716 755.10 743.70 765.44 
3717 754.44 744.32 765.44 
3718 754.27 744.54 765.44 
3719 757.80 744.58 765.44 
3720 760.63 744.96 765.44 
3721 750.59 745.02 765.44 
3722 760.14 744.67 765.44 
3723 761.17 745.27 765.44 
3724 751.00 745.57 765.44 
3725 756.77 744.40 765.44 
3726 754.71 744.69 765.44 
3727 750.25 744.33 765.44 
3728 752.82 744.49 765.44 
3729 757.42 744.00 765.44 
3730 754.45 744.42 765.44 
3731 755.33 744.30 765.44 
3732 748.41 743.83 765.44 
3733 753.70 744.48 765.44 
3734 752.83 744.58 765.44 
3735 756.84 744.18 765.44 
3736 754.35 744.62 765.44 
3737 752.35 745.04 765.44 
3738 756.33 744.96 765.44 
3739 754.54 744.74 765.44 
3740 756.58 745.64 765.44 
3741 753.62 745.45 765.44 
3742 755.50 745.68 765.44 
3743 756.15 746.13 765.44 
3744 755.21 746.39 765.44 
3745 755.80 746.27 765.44 
3746 751.56 745.60 765.44 
3747 757.32 745.44 765.44 
3748 752.61 745.23 765.44 
3749 758.08 745.52 765.44 
3750 754.39 745.66 765.44 
3751 756.04 745.66 765.44 
3752 752.58 745.80 765.44 
3753 756.44 746.07 765.44 
3754 755.30 746.35 765.44 
3755 750.81 745.53 765.44 
3756 755.39 745.74 765.44 
3757 752.84 745.39 765.44 
3758 756.67 745.32 765.44 
3759 755.60 745.00 765.44 
3760 755.21 745.30 765.44 
3761 752.49 745.37 765.44 
3762 754.50 745.90 765.44 
3763 756.00 745.79 765.44 
3764 754.02 746.10 765.44 
3765 752.72 745.98 765.44 
3766 757.98 746.25 765.44 
3767 754.29 746.32 765.44 
3768 757.59 746.16 765.44 
3769 750.91 746.03 765.44 
3770 757.05 746.37 765.44 
3771 752.78 745.89 765.44 
3772 749.46 745.68 765.44 
3773 757.37 746.12 765.44 
3774 750.51 745.85 765.44 
3775 750.32 746.13 765.44 
3776 754.03 746.19 765.44 
3777 759.64 746.23 765.44 
3778 751.68 746.34 765.44 
3779 756.13 746.37 765.44 
3780 753.59 746.53 765.44 
3781 753.94 746.28 765.44 
3782 751.35 746.56 765.44 
3783 757.99 746.81 765.44 
3784 751.01 747.47 765.44 
3785 757.55 747.26 765.44 
3786 757.47 747.34 765.44 
3787 752.76 747.37 765.44 
3788 756.58 747.34 765.44 
3789 751.22 747.15 765.44 
3790 754.77 747.23 765.44 
3791 748.25 747.64 765.44 
3792 753.89 747.96 765.44 
3793 760.59 748.03 765.44 
3794 751.72 747.76 765.44 
3795 759.71 747.71 765.44 
3796 759.56 747.70 765.44 
3797 754.85 747.90 765.44 
3798 758.15 747.95 765.44 
3799 762.17 747.87 765.44 
3800 755.61 747.92 765.44 
3801 755.00 747.94 765.44 
3802 757.21 748.05 765.44 
3803 759.63 748.05 765.44 
3804 751.77 748.24 765.44 
3805 752.46 748.31 765.44 
3806 751.93 748.18 765.44 
3807 754.85 748.38 765.44 
3808 756.73 748.32 765.44 
3809 753.04 748.15 765.44 
3810 755.44 748.47 765.44 
3811 756.07 748.02 765.44 
3812 749.99 748.13 765.44 
3813 755.09 748.07 765.44 
3814 757.45 748.15 765.44 
3815 757.88 747.86 765.44 
3816 756.65 747.80 765.44 
3817 754.41 747.95 765.44 
3818 754.34 748.22 765.44 
3819 756.76 748.22 765.44 
3820 754.22 748.20 765.44 
3821 758.62 748.19 765.44 
3822 754.41 748.07 765.44 
3823 759.54 747.84 765.44 
3824 756.69 747.82 765.44 
3825 752.99 747.92 765.44 
3826 752.94 748.16 765.44 
3827 752.04 748.16 765.44 
3828 757.28 748.24 765.44 
3829 756.70 748.03 765.44 
3830 758.44 747.99 765.44 
3831 753.70 748.13 765.44 
3832 762.85 748.27 765.44 
3833 759.94 748.26 765.44 
3834 757.11 748.07 765.44 
3835 752.11 747.94 765.44 
3836 751.40 748.19 765.44 
3837 755.39 748.05 765.44 
3838 752.63 747.17 765.44 
3839 753.96 746.67 765.44 
3840 757.38 746.89 765.44 
3841 756.43 746.65 765.44 
3842 757.32 746.68 765.44 
3843 757.96 746.57 765.44 
3844 754.44 746.74 765.44 
3845 754.24 746.63 765.44 
3846 755.35 746.12 765.44 
3847 754.02 746.25 765.44 
3848 751.28 746.73 765.44 
3849 754.54 745.87 765.44 
3850 753.99 745.44 765.44 
3851 752.92 745.16 765.44 
3852 750.94 745.18 765.44 
3853 757.48 745.74 765.44 
3854 761.21 745.20 765.44 
3855 758.34 744.30 765.44 
3856 752.37 744.73 765.44 
3857 757.66 745.83 765.44 
3858 757.15 744.51 765.44 
3859 753.77 745.56 765.44 
3860 759.37 746.13 765.44 
3861 755.79 745.34 765.44 
3862 756.98 744.89 765.44 
3863 758.31 744.78 765.44 
3864 749.90 745.79 765.44 
3865 758.08 745.53 765.44 
3866 752.55 744.52 765.44 
3867 754.10 745.29 765.44 
3868 752.90 745.79 765.44 
3869 754.57 746.31 765.44 
3870 755.25 744.98 765.44 
3871 754.31 744.31 765.44 
3872 752.88 744.50 765.44 
3873 753.23 744.78 765.44 
3874 755.94 744.95 765.44 
3875 755.54 744.67 765.44 
3876 755.23 742.76 765.44 
3877 752.35 742.62 765.44 
3878 752.49 741.84 765.44 
3879 755.20 743.32 765.44 
3880 754.46 743.15 765.44 
3881 758.63 743.77 765.44 
3882 751.37 745.00 765.44 
3883 751.47 744.55 765.44 
3884 757.43 746.04 765.44 
3885 753.50 745.18 765.44 
3886 755.25 745.35 765.44 
3887 754.23 746.15 765.44 
3888 753.30 746.20 765.44 
3889 758.51 746.38 765.44 
3890 759.20 746.19 765.44 
3891 751.52 746.24 765.44 
3892 750.17 746.67 765.44 
3893 754.38 746.67 765.44 
3894 751.80 746.66 765.44 
3895 753.62 745.95 765.44 
3896 754.57 746.31 765.44 
3897 753.57 747.21 765.44 
3898 757.35 746.84 765.44 
3899 751.95 746.19 765.44 
3900 759.65 746.49 765.44 
3901 754.40 746.60 765.44 
3902 759.07 746.88 765.44 
3903 754.65 746.78 765.44 
3904 755.60 746.37 765.44 
3905 760.33 745.46 765.44 
3906 753.55 744.60 765.44 
3907 754.04 745.66 765.44 
3908 753.00 745.34 765.44 
3909 756.49 745.46 765.44 
3910 754.90 745.17 765.44 
3911 749.60 745.66 765.44 
3912 754.64 745.43 765.44 
3913 757.19 745.00 765.44 
3914 753.17 744.36 765.44 
3915 752.67 743.69 765.44 
3916 753.51 744.02 765.44 
3917 748.19 743.45 765.44 
3918 753.83 743.69 765.44 
3919 754.51 744.24 765.44 
3920 748.75 743.79 765.44 
3921 758.68 743.50 765.44 
3922 751.54 744.79 765.44 
3923 754.54 746.42 765.44 
3924 754.23 746.28 765.44 
3925 752.60 746.64 765.44 
3926 755.05 746.91 765.44 
3927 754.52 746.71 765.44 
3928 748.70 746.87 765.44 
3929 756.96 746.81 765.44 
3930 757.26 746.74 765.44 
3931 754.81 746.73 765.44 
3932 759.53 746.41 765.44 
3933 754.11 746.65 765.44 
3934 752.56 746.64 765.44 
3935 755.69 746.29 765.44 
3936 754.04 746.51 765.44 
3937 755.01 746.56 765.44 
3938 758.96 746.53 765.44 
3939 757.10 746.27 765.44 
3940 752.81 746.80 765.44 
3941 757.25 746.53 765.44 
3942 756.34 746.56 765.44 
3943 753.31 747.18 765.44 
3944 757.20 747.36 765.44 
3945 753.73 747.22 765.44 
3946 763.31 747.67 765.44 
3947 758.81 747.75 765.44 
3948 756.98 747.37 765.44 
3949 752.65 747.61 765.44 
3950 759.39 747.25 765.44 
3951 760.60 747.12 765.44 
3952 752.68 747.53 765.44 
3953 758.41 747.48 765.44 
3954 756.62 747.29 765.44 
3955 754.44 747.48 765.44 
3956 753.39 747.58 765.44 
3957 753.92 747.94 765.44 
3958 750.62 747.93 765.44 
3959 751.12 747.65 765.44 
3960 754.60 747.67 765.44 
3961 757.26 747.95 765.44 
3962 754.77 747.89 765.44 
3963 757.36 747.90 765.44 
3964 755.90 747.90 765.44 
3965 760.15 747.71 765.44 
3966 757.69 747.77 765.44 
3967 754.07 747.57 765.44 
3968 750.32 747.50 765.44 
3969 758.47 747.47 765.44 
3970 755.34 747.45 765.44 
3971 758.20 747.18 765.44 
3972 759.44 747.20 765.44 
3973 751.41 747.12 765.44 
3974 758.18 747.18 765.44 
3975 753.59 746.97 765.44 
3976 751.52 746.89 765.44 
3977 750.51 747.33 765.44 
3978 754.00 747.35 765.44 
3979 754.58 747.43 765.44 
3980 756.09 747.40 765.44 
3981 757.69 747.17 765.44 
3982 753.86 747.26 765.44 
3983 757.75 747.30 765.44 
3984 754.95 747.11 765.44 
3985 752.88 746.95 765.44 
3986 757.53 746.93 765.44 
3987 756.90 746.93 765.44 
3988 754.70 747.08 765.44 
3989 767.27 746.93 765.44 
3990 752.24 747.01 767.27 
3991 753.87 747.11 767.27 
3992 755.66 746.79 767.27 
3993 754.87 746.99 767.27 
3994 756.41 746.90 767.27 
3995 754.80 746.66 767.27 
3996 756.35 746.41 767.27 
3997 764.45 746.66 767.27 
3998 758.28 746.69 767.27 
3999 757.37 746.65 767.27 
4000 750.94 746.71 767.27 
4001 757.33 746.72 767.27 
4002 757.15 746.70 767.27 
4003 751.57 746.73 767.27 
4004 753.01 746.76 767.27 
4005 756.68 746.83 767.27 
4006 752.59 746.82 767.27 
4007 761.78 746.79 767.27 
4008 756.29 746.63 767.27 
4009 756.51 746.71 767.27 
4010 748.93 746.75 767.27 
4011 753.46 746.72 767.27 
4012 753.55 746.87 767.27 
4013 759.41 746.90 767.27 
4014 754.39 747.18 767.27 
4015 761.15 747.37 767.27 
4016 757.08 747.11 767.27 
4017 759.76 747.01 767.27 
4018 752.89 747.01 767.27 
4019 761.53 747.01 767.27 
4020 753.34 747.44 767.27 
4021 755.58 747.47 767.27 
4022 754.63 747.32 767.27 
4023 754.14 747.33 767.27 
4024 755.31 747.32 767.27 
4025 758.09 747.37 767.27 
4026 757.26 747.41 767.27 
4027 755.97 747.45 767.27 
4028 762.48 747.47 767.27 
4029 751.50 747.44 767.27 
4030 757.12 747.33 767.27 
4031 754.11 747.73 767.27 
4032 757.64 747.58 767.27 
4033 752.51 747.24 767.27 
4034 751.09 747.10 767.27 
4035 753.70 747.14 767.27 
4036 748.96 747.17 767.27 
4037 755.21 747.28 767.27 
4038 756.47 747.61 767.27 
4039 752.17 747.49 767.27 
4040 755.29 747.19 767.27 
4041 756.94 747.20 767.27 
4042 757.73 747.17 767.27 
4043 757.23 747.29 767.27 
4044 750.26 747.27 767.27 
4045 753.82 747.22 767.27 
4046 758.21 747.16 767.27 
4047 755.47 747.32 767.27 
4048 756.41 747.36 767.27 
4049 759.18 747.38 767.27 
4050 758.08 747.25 767.27 
4051 753.40 747.51 767.27 
4052 754.41 747.45 767.27 
4053 753.02 747.54 767.27 
4054 753.58 747.69 767.27 
4055 757.99 747.54 767.27 
4056 753.91 747.74 767.27 
4057 753.12 747.76 767.27 
4058 756.10 747.52 767.27 
4059 755.30 747.49 767.27 
4060 752.91 747.56 767.27 
4061 752.83 747.52 767.27 
4062 749.50 747.50 767.27 
4063 760.55 747.90 767.27 
4064 754.02 747.75 767.27 
4065 762.04 747.80 767.27 
4066 756.36 747.79 767.27 
4067 753.64 747.92 767.27 
4068 758.59 747.88 767.27 
4069 756.66 747.65 767.27 
4070 755.23 747.83 767.27 
4071 751.38 747.65 767.27 
4072 754.59 747.54 767.27 
4073 751.35 747.51 767.27 
4074 756.34 747.58 767.27 
4075 756.60 747.92 767.27 
4076 762.03 747.94 767.27 
4077 749.95 747.95 767.27 
4078 754.58 747.97 767.27 
4079 756.85 747.98 767.27 
4080 759.66 748.04 767.27 
4081 752.92 748.10 767.27 
4082 757.67 748.15 767.27 
4083 755.96 748.11 767.27 
4084 756.03 748.04 767.27 
4085 755.96 748.03 767.27 
4086 757.14 747.82 767.27 
4087 756.78 747.86 767.27 
4088 753.14 747.97 767.27 
4089 755.33 747.97 767.27 
4090 759.55 747.91 767.27 
4091 755.81 747.87 767.27 
4092 755.54 747.84 767.27 
4093 758.52 747.70 767.27 
4094 758.78 747.90 767.27 
4095 760.98 747.76 767.27 
4096 761.01 747.66 767.27 
4097 757.52 747.74 767.27 
4098 759.71 747.62 767.27 
4099 758.07 747.67 767.27 
4100 752.84 747.73 767.27 
4101 754.81 747.87 767.27 
4102 759.71 748.01 767.27 
4103 752.12 747.92 767.27 
4104 758.26 747.84 767.27 
4105 752.70 747.58 767.27 
4106 750.08 747.97 767.27 
4107 756.16 748.12 767.27 
4108 751.49 748.13 767.27 
4109 750.84 747.95 767.27 
4110 748.56 748.11 767.27 
4111 751.64 747.99 767.27 
4112 755.54 747.82 767.27 
4113 756.38 747.71 767.27 
4114 756.66 747.77 767.27 
4115 757.69 747.67 767.27 
4116 757.42 747.64 767.27 
4117 755.28 747.20 767.27 
4118 751.52 746.95 767.27 
4119 755.54 747.46 767.27 
4120 760.23 747.31 767.27 
4121 752.37 747.68 767.27 
4122 753.58 747.66 767.27 
4123 754.95 747.90 767.27 
4124 757.15 747.75 767.27 
4125 754.47 747.80 767.27 
4126 752.80 747.69 767.27 
4127 756.25 747.57 767.27 
4128 755.76 747.35 767.27 
4129 753.49 747.23 767.27 
4130 759.59 747.11 767.27 
4131 747.33 747.15 767.27 
4132 756.98 747.11 767.27 
4133 752.98 747.19 767.27 
4134 754.37 747.22 767.27 
4135 759.18 747.24 767.27 
4136 755.46 747.41 767.27 
4137 752.89 747.43 767.27 
4138 752.63 747.40 767.27 
4139 754.99 747.53 767.27 
4140 760.31 747.29 767.27 
4141 757.72 747.29 767.27 
4142 750.06 747.28 767.27 
4143 758.14 747.38 767.27 
4144 751.67 747.41 767.27 
4145 751.67 747.57 767.27 
4146 752.07 747.52 767.27 
4147 752.98 747.39 767.27 
4148 762.03 747.56 767.27 
4149 754.96 747.60 767.27 
4150 757.12 747.56 767.27 
4151 751.69 747.31 767.27 
4152 758.46 747.15 767.27 
4153 749.93 747.19 767.27 
4154 761.43 747.21 767.27 
4155 752.90 747.38 767.27 
4156 760.34 747.30 767.27 
4157 750.85 747.37 767.27 
4158 756.35 747.34 767.27 
4159 750.92 747.31 767.27 
4160 754.05 747.58 767.27 
4161 759.29 747.32 767.27 
4162 755.14 747.32 767.27 
4163 760.67 747.06 767.27 
4164 757.53 746.89 767.27 
4165 752.75 746.34 767.27 
4166 756.57 746.50 767.27 
4167 755.39 746.35 767.27 
4168 756.01 746.70 767.27 
4169 755.48 746.58 767.27 
4170 750.06 746.06 767.27 
4171 758.88 746.08 767.27 
4172 754.02 745.70 767.27 
4173 755.36 745.50 767.27 
4174 759.24 745.41 767.27 
4175 756.44 745.45 767.27 
4176 756.95 745.45 767.27 
4177 754.40 745.58 767.27 
4178 755.11 745.70 767.27 
4179 752.40 745.56 767.27 
4180 759.89 745.87 767.27 
4181 762.35 745.88 767.27 
4182 754.03 745.94 767.27 
4183 754.14 745.67 767.27 
4184 758.41 746.33 767.27 
4185 753.72 746.66 767.27 
4186 757.18 746.00 767.27 
4187 759.04 745.51 767.27 
4188 762.98 746.13 767.27 
4189 755.03 745.52 767.27 
4190 756.34 745.37 767.27 
4191 754.00 745.74 767.27 
4192 758.95 746.05 767.27 
4193 754.44 745.34 767.27 
4194 753.47 744.96 767.27 
4195 749.36 745.47 767.27 
4196 759.24 744.96 767.27 
4197 751.15 745.26 767.27 
4198 758.14 744.84 767.27 
4199 754.72 745.32 767.27 
4200 753.76 745.38 767.27 
4201 758.16 745.34 767.27 
4202 756.68 745.39 767.27 
4203 748.25 745.51 767.27 
4204 746.34 745.74 767.27 
4205 755.74 746.49 767.27 
4206 755.69 746.99 767.27 
4207 759.56 746.91 767.27 
4208 759.51 747.05 767.27 
4209 757.08 746.50 767.27 
4210 750.99 746.67 767.27 
4211 751.61 746.82 767.27 
4212 755.06 746.38 767.27 
4213 753.31 746.26 767.27 
4214 753.39 746.56 767.27 
4215 750.39 747.32 767.27 
4216 754.96 747.07 767.27 
4217 754.53 747.15 767.27 
4218 753.18 747.41 767.27 
4219 762.72 747.22 767.27 
4220 749.45 747.24 767.27 
4221 752.48 747.09 767.27 
4222 755.58 747.17 767.27 
4223 760.20 746.83 767.27 
4224 757.78 746.98 767.27 
4225 753.37 747.03 767.27 
4226 757.21 747.25 767.27 
4227 755.00 747.16 767.27 
4228 758.75 747.07 767.27 
4229 753.68 746.96 767.27 
4230 759.07 747.09 767.27 
4231 755.36 747.54 767.27 
4232 755.71 747.54 767.27 
4233 757.42 747.39 767.27 
4234 752.96 747.50 767.27 
4235 754.31 747.47 767.27 
4236 751.96 747.62 767.27 
4237 757.95 747.68 767.27 
4238 755.89 747.55 767.27 
4239 752.60 747.46 767.27 
4240 755.51 747.22 767.27 
4241 759.43 747.09 767.27 
4242 759.20 746.97 767.27 
4243 753.93 746.81 767.27 
4244 753.97 747.31 767.27 
4245 757.19 747.08 767.27 
4246 756.30 746.96 767.27 
4247 763.32 746.94 767.27 
4248 753.39 747.11 767.27 
4249 756.22 746.97 767.27 
4250 758.83 746.26 767.27 
4251 756.06 746.46 767.27 
4252 753.89 746.99 767.27 
4253 755.02 746.84 767.27 
4254 752.12 746.95 767.27 
4255 754.00 746.80 767.27 
4256 759.92 747.11 767.27 
4257 751.66 747.11 767.27 
4258 757.44 747.22 767.27 
4259 759.29 746.95 767.27 
4260 756.01 746.91 767.27 
4261 757.16 746.75 767.27 
4262 761.04 746.83 767.27 
4263 754.91 746.85 767.27 
4264 754.63 746.94 767.27 
4265 755.69 746.47 767.27 
4266 756.42 746.34 767.27 
4267 754.21 746.39 767.27 
4268 759.40 746.27 767.27 
4269 759.11 747.05 767.27 
4270 759.64 746.96 767.27 
4271 751.69 746.76 767.27 
4272 761.14 746.83 767.27 
4273 752.14 746.87 767.27 
4274 757.00 747.12 767.27 
4275 756.52 747.13 767.27 
4276 756.24 746.89 767.27 
4277 752.92 747.11 767.27 
4278 752.19 747.15 767.27 
4279 750.25 746.79 767.27 
4280 755.15 746.80 767.27 
4281 758.39 746.74 767.27 
4282 758.99 747.01 767.27 
4283 759.67 747.24 767.27 
4284 756.49 747.29 767.27 
4285 759.66 746.89 767.27 
4286 758.79 746.99 767.27 
4287 749.60 746.74 767.27 
4288 752.15 747.05 767.27 
4289 752.35 746.50 767.27 
4290 762.74 746.41 767.27 
4291 751.02 746.94 767.27 
4292 762.61 746.59 767.27 
4293 750.16 746.68 767.27 
4294 749.75 746.88 767.27 
4295 752.83 746.86 767.27 
4296 754.02 747.04 767.27 
4297 753.57 746.87 767.27 
4298 750.33 746.87 767.27 
4299 752.06 746.88 767.27 
4300 757.30 747.10 767.27 
4301 753.19 747.16 767.27 
4302 754.85 747.22 767.27 
4303 756.80 747.24 767.27 
4304 753.08 747.26 767.27 
4305 758.66 747.47 767.27 
4306 752.96 747.49 767.27 
4307 757.59 747.50 767.27 
4308 758.99 747.15 767.27 
4309 750.24 747.32 767.27 
4310 757.00 747.38 767.27 
4311 755.79 746.88 767.27 
4312 759.48 747.36 767.27 
4313 757.40 747.07 767.27 
4314 756.43 747.02 767.27 
4315 757.95 747.01 767.27 
4316 757.88 747.02 767.27 
4317 756.96 746.66 767.27 
4318 755.76 746.55 767.27 
4319 757.02 746.85 767.27 
4320 757.04 747.12 767.27 
4321 760.00 746.85 767.27 
4322 750.78 746.93 767.27 
4323 753.47 746.87 767.27 
4324 756.14 746.68 767.27 
4325 751.00 746.98 767.27 
4326 759.76 747.06 767.27 
4327 756.06 747.12 767.27 
4328 751.61 747.35 767.27 
4329 754.72 747.23 767.27 
4330 749.83 747.15 767.27 
4331 756.20 747.14 767.27 
4332 754.71 747.12 767.27 
4333 756.95 747.09 767.27 
4334 755.33 747.19 767.27 
4335 752.08 746.66 767.27 
4336 756.98 746.52 767.27 
4337 759.45 746.04 767.27 
4338 757.06 745.91 767.27 
4339 759.77 745.74 767.27 
4340 752.73 745.89 767.27 
4341 752.94 746.11 767.27 
4342 756.70 746.02 767.27 
4343 753.72 745.55 767.27 
4344 757.42 745.98 767.27 
4345 753.48 745.78 767.27 
4346 747.91 745.91 767.27 
4347 759.06 746.13 767.27 
4348 751.79 747.11 767.27 
4349 750.40 746.95 767.27 
4350 758.12 746.86 767.27 
4351 751.28 746.97 767.27 
4352 753.90 746.50 767.27 
4353 752.65 746.95 767.27 
4354 749.92 746.28 767.27 
4355 757.94 746.60 767.27 
4356 757.46 746.13 767.27 
4357 751.94 745.75 767.27 
4358 754.63 746.14 767.27 
4359 753.97 747.20 767.27 
4360 753.46 747.39 767.27 
4361 758.89 746.56 767.27 
4362 757.66 745.55 767.27 
4363 754.18 746.51 767.27 
4364 753.20 746.66 767.27 
4365 758.04 746.71 767.27 
4366 752.28 746.71 767.27 
4367 754.41 746.82 767.27 
4368 755.93 747.35 767.27 
4369 748.22 747.21 767.27 
4370 758.93 746.84 767.27 
4371 752.59 746.40 767.27 
4372 758.40 747.43 767.27 
4373 756.64 747.34 767.27 
4374 755.69 747.56 767.27 
4375 755.69 747.35 767.27 
4376 751.22 747.04 767.27 
4377 754.94 747.72 767.27 
4378 755.29 747.64 767.27 
4379 758.99 747.37 767.27 
4380 758.38 747.44 767.27 
4381 754.01 747.64 767.27 
4382 753.46 747.29 767.27 
4383 751.08 746.99 767.27 
4384 751.11 747.18 767.27 
4385 754.50 747.10 767.27 
4386 757.88 747.55 767.27 
4387 752.63 747.53 767.27 
4388 751.22 747.37 767.27 
4389 754.61 747.20 767.27 
4390 755.11 747.26 767.27 
4391 755.79 747.62 767.27 
4392 753.14 747.26 767.27 
4393 753.10 747.33 767.27 
4394 753.98 747.45 767.27 
4395 753.84 747.60 767.27 
4396 756.00 747.36 767.27 
4397 751.70 747.68 767.27 
4398 755.11 747.32 767.27 
4399 752.98 747.50 767.27 
4400 759.07 747.15 767.27 
4401 754.57 747.34 767.27 
4402 754.32 747.63 767.27 
4403 757.56 747.11 767.27 
4404 756.81 747.43 767.27 
4405 757.61 747.67 767.27 
4406 759.28 747.36 767.27 
4407 759.11 747.35 767.27 
4408 751.99 747.55 767.27 
4409 760.09 747.62 767.27 
4410 755.35 747.51 767.27 
4411 758.57 747.66 767.27 
4412 753.53 747.43 767.27 
4413 751.15 747.56 767.27 
4414 757.41 747.91 767.27 
4415 754.33 747.39 767.27 
4416 755.87 746.79 767.27 
4417 760.21 747.14 767.27 
4418 755.14 747.41 767.27 
4419 756.99 747.46 767.27 
4420 751.40 747.64 767.27 
4421 755.15 747.52 767.27 
4422 760.24 747.38 767.27 
4423 755.49 747.29 767.27 
4424 757.04 747.61 767.27 
4425 748.68 747.52 767.27 
4426 755.47 747.61 767.27 
4427 753.86 747.50 767.27 
4428 750.17 747.55 767.27 
4429 757.83 747.57 767.27 
4430 758.18 747.24 767.27 
4431 758.69 747.14 767.27 
4432 753.26 747.33 767.27 
4433 757.50 747.16 767.27 
4434 755.41 747.63 767.27 
4435 754.71 747.54 767.27 
4436 758.02 747.58 767.27 
4437 753.16 747.46 767.27 
4438 752.78 747.52 767.27 
4439 760.61 747.47 767.27 
4440 754.28 747.00 767.27 
4441 757.17 747.31 767.27 
