Iter | Sampling Pol | Evaluation Pol | Best (Sampled) 
   0 -248.88 -316.12 -100000000.00 
   1 -252.75 -353.94 -248.88 
   2 -262.59 -321.05 -248.88 
   3 -248.75 -314.06 -248.88 
   4 -250.76 -455.99 -248.75 
   5 -247.52 -430.29 -248.75 
   6 -251.35 -442.94 -247.52 
   7 -246.26 -482.40 -247.52 
   8 -249.41 -443.72 -246.26 
   9 -253.13 -424.85 -246.26 
  10 -257.70 -432.71 -246.26 
  11 -249.54 -397.76 -246.26 
  12 -246.21 -341.51 -246.26 
  13 -247.80 -329.37 -246.21 
  14 -247.24 -269.66 -246.21 
  15 -247.16 -319.83 -246.21 
  16 -245.56 -351.76 -246.21 
  17 -242.47 -341.95 -245.56 
  18 -248.03 -338.79 -242.47 
  19 -247.34 -348.85 -242.47 
  20 -242.97 -232.23 -242.47 
  21 -252.76 -233.14 -242.47 
  22 -240.88 -302.29 -242.47 
  23 -239.82 -339.26 -240.88 
  24 -238.83 -263.25 -239.82 
  25 -238.16 -299.78 -238.83 
  26 -238.81 -256.12 -238.16 
  27 -230.85 -244.62 -238.16 
  28 -245.03 -230.18 -230.85 
  29 -241.03 -239.15 -230.85 
  30 -234.76 -232.24 -230.85 
  31 -242.01 -233.50 -230.85 
  32 -237.07 -248.60 -230.85 
  33 -234.69 -236.78 -230.85 
  34 -236.32 -234.84 -230.85 
  35 -245.31 -242.38 -230.85 
  36 -237.37 -240.52 -230.85 
  37 -235.06 -237.86 -230.85 
  38 -235.11 -231.05 -230.85 
  39 -235.74 -248.43 -230.85 
  40 -227.95 -241.98 -230.85 
  41 -235.07 -232.65 -227.95 
  42 -234.29 -230.70 -227.95 
  43 -230.22 -225.92 -227.95 
  44 -231.72 -224.95 -227.95 
  45 -232.07 -229.95 -227.95 
  46 -235.73 -235.60 -227.95 
  47 -228.90 -235.94 -227.95 
  48 -231.15 -229.55 -227.95 
  49 -229.96 -224.93 -227.95 
  50 -228.18 -229.43 -227.95 
  51 -223.44 -236.65 -227.95 
  52 -222.19 -241.58 -223.44 
  53 -229.06 -238.72 -222.19 
  54 -224.45 -241.43 -222.19 
  55 -227.24 -242.50 -222.19 
  56 -224.85 -244.53 -222.19 
  57 -220.47 -245.75 -222.19 
  58 -219.59 -238.53 -220.47 
  59 -218.99 -239.97 -219.59 
  60 -224.26 -246.07 -218.99 
  61 -215.75 -240.32 -218.99 
  62 -222.61 -256.13 -215.75 
  63 -215.30 -267.41 -215.75 
  64 -220.32 -257.53 -215.30 
  65 -219.49 -233.46 -215.30 
  66 -221.05 -226.36 -215.30 
  67 -220.88 -231.42 -215.30 
  68 -219.61 -231.24 -215.30 
  69 -218.88 -222.80 -215.30 
  70 -223.42 -236.97 -215.30 
  71 -220.06 -246.47 -215.30 
  72 -218.07 -238.49 -215.30 
  73 -216.26 -240.51 -215.30 
  74 -213.02 -251.09 -215.30 
  75 -212.79 -234.91 -213.02 
  76 -221.62 -232.82 -212.79 
  77 -214.32 -240.30 -212.79 
  78 -213.16 -233.30 -212.79 
  79 -215.36 -234.24 -212.79 
  80 -215.19 -230.18 -212.79 
  81 -218.31 -232.96 -212.79 
  82 -214.54 -231.39 -212.79 
  83 -219.46 -231.95 -212.79 
  84 -218.06 -226.20 -212.79 
  85 -216.26 -232.97 -212.79 
  86 -217.76 -240.41 -212.79 
  87 -206.03 -235.30 -212.79 
  88 -216.88 -233.78 -206.03 
  89 -219.29 -234.50 -206.03 
  90 -213.07 -242.06 -206.03 
  91 -214.31 -246.19 -206.03 
  92 -217.94 -234.44 -206.03 
  93 -214.87 -235.24 -206.03 
  94 -212.04 -231.85 -206.03 
  95 -216.41 -236.09 -206.03 
  96 -217.13 -247.22 -206.03 
  97 -208.96 -240.40 -206.03 
  98 -213.55 -244.27 -206.03 
  99 -213.64 -238.15 -206.03 
 100 -208.02 -231.46 -206.03 
 101 -210.64 -233.81 -206.03 
 102 -208.40 -234.38 -206.03 
 103 -206.15 -233.19 -206.03 
 104 -210.76 -243.08 -206.03 
 105 -211.82 -242.09 -206.03 
 106 -209.09 -233.90 -206.03 
 107 -210.09 -242.92 -206.03 
 108 -211.46 -234.46 -206.03 
 109 -214.52 -239.22 -206.03 
 110 -215.73 -246.36 -206.03 
 111 -211.06 -241.51 -206.03 
 112 -214.82 -227.67 -206.03 
 113 -213.43 -232.97 -206.03 
 114 -209.40 -229.97 -206.03 
 115 -207.94 -226.26 -206.03 
 116 -210.07 -228.37 -206.03 
 117 -215.12 -228.47 -206.03 
 118 -212.58 -231.35 -206.03 
 119 -210.48 -222.32 -206.03 
 120 -203.41 -220.32 -206.03 
 121 -214.27 -220.82 -203.41 
 122 -205.12 -216.46 -203.41 
 123 -208.76 -219.83 -203.41 
 124 -208.72 -220.29 -203.41 
 125 -208.46 -219.42 -203.41 
 126 -208.56 -211.36 -203.41 
 127 -208.88 -214.92 -203.41 
 128 -205.77 -216.07 -203.41 
 129 -209.26 -213.89 -203.41 
 130 -213.25 -215.79 -203.41 
 131 -207.74 -214.01 -203.41 
 132 -203.90 -214.93 -203.41 
 133 -206.86 -216.98 -203.41 
 134 -207.59 -218.25 -203.41 
 135 -203.64 -216.32 -203.41 
 136 -206.25 -217.20 -203.41 
 137 -211.33 -216.93 -203.41 
 138 -206.42 -215.49 -203.41 
 139 -205.71 -222.84 -203.41 
 140 -208.21 -217.08 -203.41 
 141 -210.42 -223.61 -203.41 
 142 -212.34 -215.93 -203.41 
 143 -206.91 -213.44 -203.41 
 144 -202.79 -215.12 -203.41 
 145 -214.46 -213.81 -202.79 
 146 -210.62 -216.86 -202.79 
 147 -210.74 -216.43 -202.79 
 148 -204.34 -218.42 -202.79 
 149 -209.31 -214.86 -202.79 
 150 -209.38 -218.06 -202.79 
 151 -205.63 -214.30 -202.79 
 152 -206.33 -216.02 -202.79 
 153 -209.54 -216.07 -202.79 
 154 -207.93 -217.90 -202.79 
 155 -205.12 -218.54 -202.79 
 156 -211.55 -218.17 -202.79 
 157 -210.54 -217.79 -202.79 
 158 -209.76 -217.75 -202.79 
 159 -210.55 -215.70 -202.79 
 160 -210.37 -210.92 -202.79 
 161 -207.28 -211.48 -202.79 
 162 -204.08 -210.96 -202.79 
 163 -206.28 -207.53 -202.79 
 164 -204.32 -205.55 -202.79 
 165 -203.53 -205.88 -202.79 
 166 -212.36 -213.32 -202.79 
 167 -205.92 -210.02 -202.79 
 168 -207.79 -207.91 -202.79 
 169 -210.21 -204.96 -202.79 
 170 -206.52 -208.71 -202.79 
 171 -201.51 -208.29 -202.79 
 172 -206.15 -205.41 -201.51 
 173 -205.52 -209.10 -201.51 
 174 -205.87 -208.23 -201.51 
 175 -206.27 -210.32 -201.51 
 176 -204.46 -209.11 -201.51 
 177 -205.15 -209.87 -201.51 
 178 -206.33 -210.48 -201.51 
 179 -204.53 -209.97 -201.51 
 180 -212.07 -207.23 -201.51 
 181 -207.39 -208.63 -201.51 
 182 -204.78 -202.77 -201.51 
 183 -205.08 -205.17 -201.51 
 184 -203.62 -201.76 -201.51 
 185 -204.57 -204.32 -201.51 
 186 -209.73 -204.20 -201.51 
 187 -203.11 -207.48 -201.51 
 188 -207.76 -204.91 -201.51 
 189 -199.01 -199.11 -201.51 
 190 -205.02 -205.62 -199.01 
 191 -201.62 -203.82 -199.01 
 192 -199.51 -201.27 -199.01 
 193 -202.57 -201.97 -199.01 
 194 -205.39 -200.57 -199.01 
 195 -206.49 -200.98 -199.01 
 196 -204.89 -196.34 -199.01 
 197 -205.93 -200.07 -199.01 
 198 -208.20 -202.10 -199.01 
 199 -205.05 -202.95 -199.01 
 200 -205.39 -199.95 -199.01 
 201 -204.56 -201.41 -199.01 
 202 -204.30 -199.69 -199.01 
 203 -202.06 -197.76 -199.01 
 204 -201.69 -200.45 -199.01 
 205 -203.86 -199.87 -199.01 
 206 -208.59 -201.05 -199.01 
 207 -205.77 -200.17 -199.01 
 208 -200.68 -201.82 -199.01 
 209 -203.03 -203.18 -199.01 
 210 -199.55 -198.14 -199.01 
 211 -204.13 -198.37 -199.01 
 212 -199.47 -195.63 -199.01 
 213 -198.72 -196.15 -199.01 
 214 -206.49 -197.93 -198.72 
 215 -196.88 -199.28 -198.72 
 216 -205.70 -196.83 -196.88 
 217 -204.30 -199.25 -196.88 
 218 -207.37 -202.92 -196.88 
 219 -201.62 -200.69 -196.88 
 220 -206.81 -202.13 -196.88 
 221 -204.60 -194.34 -196.88 
 222 -196.33 -193.93 -196.88 
 223 -203.76 -197.28 -196.33 
 224 -207.29 -196.53 -196.33 
 225 -198.17 -198.79 -196.33 
 226 -200.18 -197.40 -196.33 
 227 -200.02 -199.77 -196.33 
 228 -205.64 -200.15 -196.33 
 229 -196.18 -200.10 -196.33 
 230 -201.51 -199.21 -196.18 
 231 -202.37 -202.10 -196.18 
 232 -204.17 -200.20 -196.18 
 233 -196.14 -199.01 -196.18 
 234 -206.63 -199.57 -196.14 
 235 -201.77 -200.16 -196.14 
 236 -202.38 -200.33 -196.14 
 237 -201.04 -202.27 -196.14 
 238 -204.61 -198.13 -196.14 
 239 -198.61 -196.77 -196.14 
 240 -198.76 -199.99 -196.14 
 241 -202.18 -202.05 -196.14 
 242 -205.55 -194.62 -196.14 
 243 -203.81 -202.93 -196.14 
 244 -203.59 -195.90 -196.14 
 245 -205.42 -199.11 -196.14 
 246 -202.48 -195.89 -196.14 
 247 -202.61 -197.27 -196.14 
 248 -204.31 -200.73 -196.14 
 249 -205.34 -200.51 -196.14 
 250 -201.57 -194.41 -196.14 
 251 -201.14 -194.28 -196.14 
 252 -211.62 -196.67 -196.14 
 253 -202.86 -200.86 -196.14 
 254 -201.96 -197.58 -196.14 
 255 -198.83 -196.06 -196.14 
 256 -201.90 -197.60 -196.14 
 257 -200.34 -199.91 -196.14 
 258 -195.84 -196.10 -196.14 
 259 -203.69 -196.10 -195.84 
 260 -198.59 -202.27 -195.84 
 261 -200.80 -199.82 -195.84 
 262 -200.82 -203.87 -195.84 
 263 -200.45 -202.52 -195.84 
 264 -200.90 -196.51 -195.84 
 265 -198.57 -198.37 -195.84 
 266 -199.61 -199.01 -195.84 
 267 -200.00 -198.78 -195.84 
 268 -202.91 -193.52 -195.84 
 269 -200.63 -199.12 -195.84 
 270 -193.73 -201.78 -195.84 
 271 -199.03 -198.45 -193.73 
 272 -201.43 -196.07 -193.73 
 273 -201.46 -196.79 -193.73 
 274 -199.33 -200.09 -193.73 
 275 -201.97 -196.42 -193.73 
 276 -200.49 -196.73 -193.73 
 277 -198.67 -202.75 -193.73 
 278 -197.59 -198.88 -193.73 
 279 -200.79 -201.18 -193.73 
 280 -198.88 -197.68 -193.73 
 281 -201.91 -196.40 -193.73 
 282 -194.11 -196.38 -193.73 
 283 -198.23 -195.31 -193.73 
 284 -199.99 -196.27 -193.73 
 285 -200.73 -194.22 -193.73 
 286 -200.98 -194.80 -193.73 
 287 -194.93 -200.05 -193.73 
 288 -197.83 -200.08 -193.73 
 289 -205.99 -199.77 -193.73 
 290 -198.80 -200.58 -193.73 
 291 -199.26 -202.03 -193.73 
 292 -200.37 -195.66 -193.73 
 293 -196.61 -199.25 -193.73 
 294 -199.17 -200.23 -193.73 
 295 -201.55 -197.72 -193.73 
 296 -201.79 -195.65 -193.73 
 297 -196.39 -197.65 -193.73 
 298 -200.01 -198.07 -193.73 
 299 -199.27 -193.84 -193.73 
 300 -202.92 -195.65 -193.73 
 301 -196.82 -199.44 -193.73 
 302 -196.39 -197.29 -193.73 
 303 -199.57 -200.88 -193.73 
 304 -200.10 -195.43 -193.73 
 305 -198.68 -197.64 -193.73 
 306 -201.27 -196.74 -193.73 
 307 -205.40 -193.56 -193.73 
 308 -200.17 -195.55 -193.73 
 309 -194.75 -194.76 -193.73 
 310 -203.43 -196.19 -193.73 
 311 -198.56 -194.27 -193.73 
 312 -202.21 -197.92 -193.73 
 313 -197.24 -194.99 -193.73 
 314 -202.58 -194.44 -193.73 
 315 -193.68 -197.12 -193.73 
 316 -199.79 -198.34 -193.68 
 317 -200.55 -197.26 -193.68 
 318 -199.15 -197.23 -193.68 
 319 -202.02 -198.01 -193.68 
 320 -198.96 -195.25 -193.68 
 321 -204.15 -193.62 -193.68 
 322 -196.92 -193.54 -193.68 
 323 -195.93 -195.28 -193.68 
 324 -197.47 -189.18 -193.68 
 325 -199.67 -192.82 -193.68 
 326 -202.92 -192.57 -193.68 
 327 -196.77 -193.81 -193.68 
 328 -199.75 -195.78 -193.68 
 329 -201.56 -191.10 -193.68 
 330 -200.13 -195.02 -193.68 
 331 -200.09 -193.63 -193.68 
 332 -198.02 -193.35 -193.68 
 333 -198.29 -190.84 -193.68 
 334 -196.54 -191.18 -193.68 
 335 -198.20 -194.61 -193.68 
 336 -193.55 -193.89 -193.68 
 337 -198.93 -195.35 -193.55 
 338 -200.96 -197.90 -193.55 
 339 -201.26 -194.83 -193.55 
 340 -198.53 -191.17 -193.55 
 341 -199.89 -193.48 -193.55 
 342 -198.14 -195.08 -193.55 
 343 -199.57 -191.40 -193.55 
 344 -201.09 -193.99 -193.55 
 345 -195.96 -192.10 -193.55 
 346 -201.57 -194.99 -193.55 
 347 -203.30 -194.33 -193.55 
 348 -201.76 -197.21 -193.55 
 349 -198.26 -192.97 -193.55 
 350 -202.83 -192.63 -193.55 
 351 -199.76 -192.97 -193.55 
 352 -192.49 -195.07 -193.55 
 353 -201.32 -194.95 -192.49 
 354 -204.83 -192.41 -192.49 
 355 -204.92 -191.01 -192.49 
 356 -198.85 -193.86 -192.49 
 357 -197.14 -192.08 -192.49 
 358 -200.03 -194.30 -192.49 
 359 -203.99 -200.33 -192.49 
 360 -196.95 -190.23 -192.49 
 361 -199.88 -193.26 -192.49 
 362 -199.49 -195.55 -192.49 
 363 -197.60 -195.72 -192.49 
 364 -195.66 -192.61 -192.49 
 365 -199.06 -194.80 -192.49 
 366 -200.81 -194.42 -192.49 
 367 -199.67 -195.64 -192.49 
 368 -195.11 -197.21 -192.49 
 369 -200.04 -198.24 -192.49 
 370 -198.00 -195.55 -192.49 
 371 -198.44 -192.24 -192.49 
 372 -191.04 -197.47 -192.49 
 373 -197.60 -197.06 -191.04 
 374 -200.49 -191.76 -191.04 
 375 -196.23 -192.70 -191.04 
 376 -196.32 -190.09 -191.04 
 377 -194.91 -190.00 -191.04 
 378 -196.73 -185.77 -191.04 
 379 -197.92 -184.32 -191.04 
 380 -199.86 -191.24 -191.04 
 381 -197.51 -194.24 -191.04 
 382 -196.71 -196.02 -191.04 
 383 -193.11 -199.38 -191.04 
 384 -200.43 -194.11 -191.04 
 385 -195.28 -194.62 -191.04 
 386 -197.62 -193.20 -191.04 
 387 -196.00 -190.16 -191.04 
 388 -197.25 -188.27 -191.04 
 389 -194.91 -189.62 -191.04 
 390 -199.52 -190.47 -191.04 
 391 -198.57 -191.38 -191.04 
 392 -190.95 -194.72 -191.04 
 393 -197.75 -188.70 -190.95 
 394 -195.36 -190.09 -190.95 
 395 -198.49 -188.60 -190.95 
 396 -195.45 -189.49 -190.95 
 397 -200.22 -193.05 -190.95 
 398 -198.91 -196.90 -190.95 
 399 -197.86 -192.90 -190.95 
 400 -197.54 -194.08 -190.95 
 401 -203.64 -193.74 -190.95 
 402 -195.77 -191.12 -190.95 
 403 -200.46 -191.88 -190.95 
 404 -199.08 -194.72 -190.95 
 405 -194.60 -190.36 -190.95 
 406 -197.11 -189.99 -190.95 
 407 -193.53 -188.24 -190.95 
 408 -195.94 -192.22 -190.95 
 409 -192.52 -194.24 -190.95 
 410 -195.31 -194.41 -190.95 
 411 -200.11 -191.83 -190.95 
 412 -201.73 -193.45 -190.95 
 413 -199.13 -192.83 -190.95 
 414 -192.93 -189.20 -190.95 
 415 -198.08 -191.88 -190.95 
 416 -196.93 -193.14 -190.95 
 417 -203.47 -192.02 -190.95 
 418 -196.57 -188.28 -190.95 
 419 -196.43 -190.14 -190.95 
 420 -195.52 -190.60 -190.95 
 421 -196.59 -189.05 -190.95 
 422 -197.91 -189.04 -190.95 
 423 -196.76 -187.89 -190.95 
 424 -195.36 -193.66 -190.95 
 425 -199.76 -193.09 -190.95 
 426 -194.57 -188.85 -190.95 
 427 -195.18 -183.78 -190.95 
 428 -200.10 -186.70 -190.95 
 429 -201.52 -187.17 -190.95 
 430 -191.04 -189.82 -190.95 
 431 -195.41 -186.94 -190.95 
 432 -195.38 -189.64 -190.95 
 433 -196.98 -188.98 -190.95 
 434 -197.45 -188.37 -190.95 
 435 -197.91 -185.74 -190.95 
 436 -195.57 -187.84 -190.95 
 437 -193.68 -187.10 -190.95 
 438 -194.15 -185.26 -190.95 
 439 -195.39 -186.92 -190.95 
 440 -194.09 -188.88 -190.95 
 441 -194.39 -189.25 -190.95 
 442 -196.00 -185.13 -190.95 
 443 -200.92 -186.34 -190.95 
 444 -194.76 -185.58 -190.95 
 445 -191.11 -183.89 -190.95 
 446 -197.92 -188.62 -190.95 
 447 -197.14 -189.11 -190.95 
 448 -196.04 -189.98 -190.95 
 449 -198.42 -190.94 -190.95 
 450 -196.24 -190.15 -190.95 
 451 -194.59 -184.38 -190.95 
 452 -196.34 -189.30 -190.95 
 453 -194.49 -189.65 -190.95 
 454 -194.59 -185.00 -190.95 
 455 -196.85 -189.30 -190.95 
 456 -191.05 -188.93 -190.95 
 457 -197.10 -186.91 -190.95 
 458 -192.39 -183.25 -190.95 
 459 -192.80 -187.30 -190.95 
 460 -199.60 -187.83 -190.95 
 461 -195.62 -186.57 -190.95 
 462 -196.29 -187.20 -190.95 
 463 -192.65 -183.46 -190.95 
 464 -196.99 -184.97 -190.95 
 465 -197.81 -186.40 -190.95 
 466 -195.45 -188.28 -190.95 
 467 -194.14 -189.63 -190.95 
 468 -199.05 -189.47 -190.95 
 469 -198.58 -186.30 -190.95 
 470 -198.32 -188.55 -190.95 
 471 -192.17 -186.85 -190.95 
 472 -193.81 -188.71 -190.95 
 473 -200.64 -189.08 -190.95 
 474 -195.89 -186.83 -190.95 
 475 -197.96 -188.04 -190.95 
 476 -196.93 -188.25 -190.95 
 477 -193.98 -187.44 -190.95 
 478 -196.94 -187.38 -190.95 
 479 -193.77 -185.03 -190.95 
 480 -191.97 -187.26 -190.95 
 481 -193.20 -187.84 -190.95 
 482 -196.99 -192.16 -190.95 
 483 -194.96 -190.92 -190.95 
 484 -194.46 -190.35 -190.95 
 485 -199.71 -189.21 -190.95 
 486 -195.87 -189.26 -190.95 
 487 -196.26 -186.09 -190.95 
 488 -195.39 -189.85 -190.95 
 489 -194.41 -188.76 -190.95 
 490 -199.66 -186.74 -190.95 
 491 -193.87 -190.80 -190.95 
 492 -197.20 -188.41 -190.95 
 493 -197.22 -190.10 -190.95 
 494 -193.12 -187.52 -190.95 
 495 -189.72 -186.49 -190.95 
 496 -194.97 -192.70 -189.72 
 497 -192.54 -188.98 -189.72 
 498 -196.12 -189.27 -189.72 
 499 -198.92 -189.02 -189.72 
 500 -196.33 -188.57 -189.72 
 501 -198.49 -190.00 -189.72 
 502 -193.43 -190.24 -189.72 
 503 -199.15 -188.14 -189.72 
 504 -200.33 -189.35 -189.72 
 505 -191.83 -190.50 -189.72 
 506 -197.89 -187.88 -189.72 
 507 -197.38 -186.13 -189.72 
 508 -194.16 -183.61 -189.72 
 509 -195.66 -188.31 -189.72 
 510 -195.95 -184.46 -189.72 
 511 -195.98 -184.47 -189.72 
 512 -195.58 -186.28 -189.72 
 513 -194.97 -184.23 -189.72 
 514 -193.72 -187.22 -189.72 
 515 -194.30 -185.61 -189.72 
 516 -195.10 -185.83 -189.72 
 517 -191.27 -186.42 -189.72 
 518 -196.86 -184.87 -189.72 
 519 -192.82 -185.96 -189.72 
 520 -192.61 -186.17 -189.72 
 521 -195.91 -187.76 -189.72 
 522 -197.30 -186.93 -189.72 
 523 -197.53 -187.99 -189.72 
 524 -195.06 -190.05 -189.72 
 525 -191.97 -184.72 -189.72 
 526 -196.86 -184.91 -189.72 
 527 -198.88 -187.01 -189.72 
 528 -192.98 -186.81 -189.72 
 529 -189.40 -186.87 -189.72 
 530 -193.25 -188.83 -189.40 
 531 -194.96 -187.69 -189.40 
 532 -193.25 -184.60 -189.40 
 533 -196.08 -185.84 -189.40 
 534 -197.78 -186.08 -189.40 
 535 -193.69 -185.94 -189.40 
 536 -196.12 -185.00 -189.40 
 537 -199.11 -186.21 -189.40 
 538 -195.79 -189.90 -189.40 
 539 -197.24 -190.15 -189.40 
 540 -194.89 -187.14 -189.40 
 541 -196.23 -186.18 -189.40 
 542 -193.78 -185.92 -189.40 
 543 -195.62 -190.77 -189.40 
 544 -196.22 -190.17 -189.40 
 545 -195.75 -188.88 -189.40 
 546 -196.13 -189.87 -189.40 
 547 -195.20 -191.89 -189.40 
 548 -195.04 -196.87 -189.40 
 549 -194.39 -185.92 -189.40 
 550 -195.47 -186.98 -189.40 
 551 -193.71 -190.10 -189.40 
 552 -194.87 -188.92 -189.40 
 553 -191.34 -190.15 -189.40 
 554 -197.60 -193.59 -189.40 
 555 -194.69 -189.38 -189.40 
 556 -197.69 -190.18 -189.40 
 557 -197.10 -195.26 -189.40 
 558 -195.75 -189.38 -189.40 
 559 -191.14 -188.59 -189.40 
 560 -195.68 -186.88 -189.40 
 561 -190.90 -186.41 -189.40 
 562 -197.46 -188.44 -189.40 
 563 -198.93 -191.10 -189.40 
 564 -196.34 -189.43 -189.40 
 565 -199.29 -191.08 -189.40 
 566 -195.64 -188.10 -189.40 
 567 -192.97 -190.39 -189.40 
 568 -200.46 -186.86 -189.40 
 569 -192.05 -188.04 -189.40 
 570 -195.13 -188.47 -189.40 
 571 -195.87 -187.60 -189.40 
 572 -196.17 -185.97 -189.40 
 573 -195.39 -185.13 -189.40 
 574 -198.00 -187.60 -189.40 
 575 -200.89 -190.81 -189.40 
 576 -191.24 -187.22 -189.40 
 577 -195.08 -189.96 -189.40 
 578 -195.93 -188.19 -189.40 
 579 -198.22 -190.01 -189.40 
 580 -190.94 -189.73 -189.40 
 581 -196.52 -183.75 -189.40 
 582 -194.54 -185.07 -189.40 
 583 -193.50 -185.83 -189.40 
 584 -200.58 -185.85 -189.40 
 585 -196.31 -185.79 -189.40 
 586 -197.80 -180.96 -189.40 
 587 -198.24 -183.34 -189.40 
 588 -194.08 -184.78 -189.40 
 589 -199.00 -184.86 -189.40 
 590 -193.07 -185.16 -189.40 
 591 -197.48 -184.04 -189.40 
 592 -192.24 -187.51 -189.40 
 593 -194.63 -183.72 -189.40 
 594 -196.08 -185.90 -189.40 
 595 -194.79 -184.70 -189.40 
 596 -190.92 -186.43 -189.40 
 597 -194.89 -185.49 -189.40 
 598 -195.31 -185.78 -189.40 
 599 -200.47 -188.51 -189.40 
 600 -194.27 -185.89 -189.40 
 601 -196.84 -187.25 -189.40 
 602 -192.94 -188.03 -189.40 
 603 -196.96 -185.15 -189.40 
 604 -199.49 -186.81 -189.40 
 605 -196.61 -186.27 -189.40 
 606 -194.25 -187.06 -189.40 
 607 -195.68 -187.62 -189.40 
 608 -199.51 -187.07 -189.40 
 609 -192.08 -185.20 -189.40 
 610 -195.39 -186.87 -189.40 
 611 -192.32 -186.42 -189.40 
 612 -194.42 -188.67 -189.40 
 613 -194.51 -186.63 -189.40 
 614 -193.06 -185.44 -189.40 
 615 -195.96 -187.04 -189.40 
 616 -196.79 -184.76 -189.40 
 617 -196.57 -188.52 -189.40 
 618 -198.23 -187.39 -189.40 
 619 -198.40 -188.68 -189.40 
 620 -193.27 -185.07 -189.40 
 621 -191.56 -185.07 -189.40 
 622 -194.57 -187.41 -189.40 
 623 -191.10 -188.97 -189.40 
 624 -194.70 -187.88 -189.40 
 625 -194.86 -190.26 -189.40 
 626 -197.02 -188.37 -189.40 
 627 -195.74 -189.33 -189.40 
 628 -190.24 -186.90 -189.40 
 629 -191.39 -189.35 -189.40 
 630 -193.25 -188.11 -189.40 
 631 -192.33 -190.14 -189.40 
 632 -195.77 -188.13 -189.40 
 633 -193.14 -187.35 -189.40 
 634 -189.76 -188.16 -189.40 
 635 -197.35 -186.19 -189.40 
 636 -199.47 -188.08 -189.40 
 637 -195.79 -186.87 -189.40 
 638 -191.20 -187.00 -189.40 
 639 -192.22 -187.79 -189.40 
 640 -196.05 -190.10 -189.40 
 641 -195.61 -186.49 -189.40 
 642 -195.17 -190.44 -189.40 
 643 -195.04 -189.37 -189.40 
 644 -190.99 -188.26 -189.40 
 645 -196.26 -185.65 -189.40 
 646 -195.15 -188.25 -189.40 
 647 -192.63 -187.74 -189.40 
 648 -191.30 -188.48 -189.40 
 649 -193.50 -190.93 -189.40 
 650 -194.39 -190.78 -189.40 
 651 -197.45 -188.03 -189.40 
 652 -193.24 -190.31 -189.40 
 653 -195.22 -186.54 -189.40 
 654 -194.31 -190.96 -189.40 
 655 -193.11 -188.92 -189.40 
 656 -191.96 -189.13 -189.40 
 657 -196.69 -190.89 -189.40 
 658 -194.61 -189.20 -189.40 
 659 -191.34 -187.47 -189.40 
 660 -194.07 -187.94 -189.40 
 661 -192.52 -188.78 -189.40 
 662 -191.88 -188.42 -189.40 
 663 -194.84 -187.16 -189.40 
 664 -194.25 -188.57 -189.40 
 665 -192.57 -185.91 -189.40 
 666 -194.63 -184.92 -189.40 
 667 -194.76 -187.60 -189.40 
 668 -194.45 -185.74 -189.40 
 669 -194.98 -188.98 -189.40 
 670 -195.45 -187.34 -189.40 
 671 -190.46 -190.43 -189.40 
 672 -193.92 -189.39 -189.40 
 673 -193.55 -188.19 -189.40 
 674 -194.16 -187.14 -189.40 
 675 -195.30 -187.74 -189.40 
 676 -191.45 -188.44 -189.40 
 677 -194.63 -190.52 -189.40 
 678 -192.79 -189.80 -189.40 
 679 -194.68 -191.57 -189.40 
 680 -195.02 -190.50 -189.40 
 681 -191.08 -189.35 -189.40 
 682 -191.82 -188.58 -189.40 
 683 -193.53 -188.86 -189.40 
 684 -191.97 -187.82 -189.40 
 685 -193.85 -189.55 -189.40 
 686 -191.75 -190.46 -189.40 
 687 -194.91 -189.36 -189.40 
 688 -196.33 -186.81 -189.40 
 689 -196.15 -189.09 -189.40 
 690 -191.47 -186.45 -189.40 
 691 -193.30 -186.28 -189.40 
 692 -191.86 -190.66 -189.40 
 693 -193.03 -184.13 -189.40 
 694 -196.12 -187.53 -189.40 
 695 -197.58 -182.16 -189.40 
 696 -194.45 -188.59 -189.40 
 697 -194.40 -185.80 -189.40 
 698 -193.51 -185.59 -189.40 
 699 -191.86 -186.43 -189.40 
 700 -195.61 -185.76 -189.40 
 701 -194.58 -185.01 -189.40 
 702 -193.86 -184.31 -189.40 
 703 -197.31 -186.57 -189.40 
 704 -190.88 -181.71 -189.40 
 705 -197.09 -187.90 -189.40 
 706 -196.31 -183.17 -189.40 
 707 -191.03 -185.30 -189.40 
 708 -193.15 -189.54 -189.40 
 709 -192.40 -185.14 -189.40 
 710 -196.85 -187.20 -189.40 
 711 -196.43 -187.53 -189.40 
 712 -191.06 -186.57 -189.40 
 713 -192.77 -186.75 -189.40 
 714 -198.14 -187.07 -189.40 
 715 -189.97 -184.97 -189.40 
 716 -194.07 -187.32 -189.40 
 717 -193.58 -187.66 -189.40 
 718 -192.97 -187.10 -189.40 
 719 -191.44 -184.43 -189.40 
 720 -191.77 -185.11 -189.40 
 721 -193.88 -184.87 -189.40 
 722 -193.83 -185.24 -189.40 
 723 -193.19 -186.98 -189.40 
 724 -199.94 -187.82 -189.40 
 725 -199.78 -188.59 -189.40 
 726 -192.81 -187.40 -189.40 
 727 -198.61 -185.09 -189.40 
 728 -194.06 -184.38 -189.40 
 729 -192.23 -185.46 -189.40 
 730 -193.53 -185.25 -189.40 
 731 -194.46 -183.41 -189.40 
 732 -194.16 -185.90 -189.40 
 733 -193.10 -186.87 -189.40 
 734 -192.06 -186.20 -189.40 
 735 -193.23 -187.44 -189.40 
 736 -194.53 -185.34 -189.40 
 737 -191.98 -183.69 -189.40 
 738 -195.15 -183.94 -189.40 
 739 -192.15 -184.15 -189.40 
 740 -192.33 -181.17 -189.40 
 741 -196.17 -181.11 -189.40 
 742 -189.23 -184.44 -189.40 
 743 -194.80 -185.91 -189.23 
 744 -192.58 -182.71 -189.23 
 745 -192.42 -183.15 -189.23 
 746 -195.93 -184.25 -189.23 
 747 -193.05 -187.32 -189.23 
 748 -189.24 -186.38 -189.23 
 749 -189.59 -185.84 -189.23 
 750 -195.75 -186.28 -189.23 
 751 -192.05 -184.87 -189.23 
 752 -192.58 -183.71 -189.23 
 753 -194.04 -183.68 -189.23 
 754 -195.29 -184.94 -189.23 
 755 -198.07 -183.72 -189.23 
 756 -196.44 -185.84 -189.23 
 757 -193.41 -187.40 -189.23 
 758 -191.01 -185.97 -189.23 
 759 -190.17 -186.47 -189.23 
 760 -195.25 -186.22 -189.23 
 761 -190.35 -185.71 -189.23 
 762 -191.44 -187.72 -189.23 
 763 -195.40 -186.62 -189.23 
 764 -193.14 -185.63 -189.23 
 765 -191.10 -186.73 -189.23 
 766 -194.68 -184.59 -189.23 
 767 -192.38 -186.40 -189.23 
 768 -194.70 -186.58 -189.23 
 769 -187.54 -187.29 -189.23 
 770 -192.49 -186.43 -187.54 
 771 -189.84 -186.02 -187.54 
 772 -190.50 -188.79 -187.54 
 773 -192.99 -189.65 -187.54 
 774 -196.11 -187.19 -187.54 
 775 -193.12 -189.68 -187.54 
 776 -194.73 -190.16 -187.54 
 777 -187.21 -189.52 -187.54 
 778 -191.72 -189.38 -187.21 
 779 -193.58 -186.93 -187.21 
 780 -188.80 -184.77 -187.21 
 781 -190.39 -189.11 -187.21 
 782 -189.04 -189.86 -187.21 
 783 -190.28 -188.23 -187.21 
 784 -192.71 -192.17 -187.21 
 785 -192.19 -190.33 -187.21 
 786 -190.35 -189.31 -187.21 
 787 -195.74 -189.41 -187.21 
 788 -194.90 -190.94 -187.21 
 789 -187.25 -191.17 -187.21 
 790 -195.08 -189.30 -187.21 
 791 -191.34 -187.50 -187.21 
 792 -195.02 -188.69 -187.21 
 793 -194.60 -187.21 -187.21 
 794 -192.08 -188.76 -187.21 
 795 -194.83 -187.91 -187.21 
 796 -199.32 -185.94 -187.21 
 797 -194.07 -190.10 -187.21 
 798 -192.01 -185.17 -187.21 
 799 -193.03 -185.74 -187.21 
 800 -190.62 -186.54 -187.21 
 801 -190.29 -187.69 -187.21 
 802 -190.51 -186.13 -187.21 
 803 -186.77 -188.09 -187.21 
 804 -190.37 -187.92 -186.77 
 805 -187.88 -183.91 -186.77 
 806 -193.05 -184.60 -186.77 
 807 -194.79 -186.17 -186.77 
 808 -192.00 -189.48 -186.77 
 809 -192.41 -186.58 -186.77 
 810 -194.66 -186.65 -186.77 
 811 -187.68 -183.03 -186.77 
 812 -193.84 -182.31 -186.77 
 813 -192.08 -183.33 -186.77 
 814 -188.81 -183.28 -186.77 
 815 -190.73 -183.65 -186.77 
 816 -192.14 -184.26 -186.77 
 817 -191.39 -185.86 -186.77 
 818 -193.35 -188.12 -186.77 
 819 -194.61 -188.00 -186.77 
 820 -193.84 -188.04 -186.77 
 821 -195.55 -188.53 -186.77 
 822 -195.78 -188.58 -186.77 
 823 -190.97 -189.46 -186.77 
 824 -196.13 -185.76 -186.77 
 825 -195.01 -189.29 -186.77 
 826 -194.03 -189.82 -186.77 
 827 -195.04 -185.54 -186.77 
 828 -191.03 -186.00 -186.77 
 829 -190.84 -185.76 -186.77 
 830 -196.18 -189.49 -186.77 
 831 -193.60 -186.76 -186.77 
 832 -190.64 -185.02 -186.77 
 833 -190.14 -184.36 -186.77 
 834 -189.94 -187.65 -186.77 
 835 -193.08 -187.35 -186.77 
 836 -194.05 -186.69 -186.77 
 837 -192.77 -185.09 -186.77 
 838 -194.18 -185.65 -186.77 
 839 -188.90 -185.65 -186.77 
 840 -193.36 -185.15 -186.77 
 841 -191.31 -186.26 -186.77 
 842 -191.41 -187.14 -186.77 
 843 -192.11 -186.85 -186.77 
 844 -194.82 -187.42 -186.77 
 845 -191.04 -186.87 -186.77 
 846 -191.87 -187.12 -186.77 
 847 -193.79 -187.25 -186.77 
 848 -187.35 -187.93 -186.77 
 849 -186.40 -188.13 -186.77 
 850 -193.51 -186.60 -186.40 
 851 -195.49 -187.96 -186.40 
 852 -194.89 -185.87 -186.40 
 853 -193.72 -186.76 -186.40 
 854 -190.51 -186.57 -186.40 
 855 -191.17 -187.64 -186.40 
 856 -193.94 -187.92 -186.40 
 857 -190.68 -185.60 -186.40 
 858 -191.85 -189.44 -186.40 
 859 -195.70 -187.75 -186.40 
 860 -192.31 -191.30 -186.40 
 861 -193.62 -190.27 -186.40 
 862 -194.91 -186.15 -186.40 
 863 -192.04 -187.22 -186.40 
 864 -194.67 -187.19 -186.40 
 865 -191.35 -184.42 -186.40 
 866 -187.68 -188.01 -186.40 
 867 -195.74 -186.62 -186.40 
 868 -190.81 -186.51 -186.40 
 869 -192.70 -189.16 -186.40 
 870 -195.23 -190.08 -186.40 
 871 -193.96 -188.99 -186.40 
 872 -194.38 -186.41 -186.40 
 873 -196.22 -189.08 -186.40 
 874 -193.74 -188.72 -186.40 
 875 -192.96 -189.63 -186.40 
 876 -189.00 -188.69 -186.40 
 877 -189.76 -189.42 -186.40 
 878 -187.44 -187.56 -186.40 
 879 -191.49 -188.72 -186.40 
 880 -193.21 -188.43 -186.40 
 881 -193.02 -187.08 -186.40 
 882 -192.20 -186.00 -186.40 
 883 -195.29 -186.43 -186.40 
 884 -188.76 -185.79 -186.40 
 885 -193.13 -185.56 -186.40 
 886 -193.80 -189.58 -186.40 
 887 -190.28 -185.09 -186.40 
 888 -191.04 -187.50 -186.40 
 889 -195.49 -188.34 -186.40 
 890 -191.23 -185.94 -186.40 
 891 -191.60 -187.78 -186.40 
 892 -191.41 -186.83 -186.40 
 893 -192.48 -189.93 -186.40 
 894 -192.89 -187.47 -186.40 
 895 -192.95 -187.57 -186.40 
 896 -195.62 -185.40 -186.40 
 897 -193.16 -185.86 -186.40 
 898 -193.92 -185.47 -186.40 
 899 -190.79 -185.29 -186.40 
 900 -192.83 -184.89 -186.40 
 901 -195.62 -185.82 -186.40 
 902 -186.90 -186.84 -186.40 
 903 -194.44 -183.46 -186.40 
 904 -187.93 -183.89 -186.40 
 905 -190.54 -186.32 -186.40 
 906 -195.47 -188.20 -186.40 
 907 -192.86 -188.65 -186.40 
 908 -191.03 -189.06 -186.40 
 909 -193.72 -188.92 -186.40 
 910 -190.99 -190.34 -186.40 
 911 -191.74 -187.75 -186.40 
 912 -192.49 -189.65 -186.40 
 913 -191.52 -186.90 -186.40 
 914 -190.72 -187.77 -186.40 
 915 -191.36 -188.22 -186.40 
 916 -193.49 -188.78 -186.40 
 917 -192.19 -184.21 -186.40 
 918 -189.08 -185.12 -186.40 
 919 -193.69 -185.31 -186.40 
 920 -194.75 -184.66 -186.40 
 921 -193.63 -188.00 -186.40 
 922 -190.10 -188.08 -186.40 
 923 -194.73 -186.54 -186.40 
 924 -192.50 -187.33 -186.40 
 925 -194.95 -188.93 -186.40 
 926 -190.10 -188.45 -186.40 
 927 -188.69 -186.96 -186.40 
 928 -196.57 -186.70 -186.40 
 929 -190.93 -189.04 -186.40 
 930 -192.67 -189.99 -186.40 
 931 -189.94 -188.17 -186.40 
 932 -192.52 -184.34 -186.40 
 933 -188.39 -187.94 -186.40 
 934 -192.47 -186.24 -186.40 
 935 -194.24 -185.99 -186.40 
 936 -190.10 -186.52 -186.40 
 937 -189.06 -186.27 -186.40 
 938 -188.27 -188.10 -186.40 
 939 -192.41 -186.27 -186.40 
 940 -190.93 -187.80 -186.40 
 941 -189.53 -186.60 -186.40 
 942 -193.06 -190.30 -186.40 
 943 -188.14 -185.86 -186.40 
 944 -190.18 -187.74 -186.40 
 945 -190.82 -187.70 -186.40 
 946 -193.11 -186.42 -186.40 
 947 -190.31 -184.26 -186.40 
 948 -191.57 -187.68 -186.40 
 949 -192.65 -190.46 -186.40 
 950 -193.37 -190.39 -186.40 
 951 -186.62 -186.40 -186.40 
 952 -191.32 -187.63 -186.40 
 953 -192.00 -184.52 -186.40 
 954 -192.17 -187.03 -186.40 
 955 -190.68 -187.72 -186.40 
 956 -190.40 -185.95 -186.40 
 957 -192.13 -185.42 -186.40 
 958 -191.21 -187.20 -186.40 
 959 -190.93 -188.61 -186.40 
 960 -193.09 -187.01 -186.40 
 961 -193.51 -185.40 -186.40 
 962 -191.57 -186.62 -186.40 
 963 -193.39 -185.96 -186.40 
 964 -191.05 -186.81 -186.40 
 965 -193.49 -185.91 -186.40 
 966 -192.92 -185.86 -186.40 
 967 -193.41 -186.14 -186.40 
 968 -191.79 -186.86 -186.40 
 969 -192.40 -188.03 -186.40 
 970 -189.71 -184.82 -186.40 
 971 -190.84 -184.78 -186.40 
 972 -190.10 -184.61 -186.40 
 973 -196.45 -184.26 -186.40 
 974 -194.42 -184.88 -186.40 
 975 -192.23 -186.33 -186.40 
 976 -192.99 -185.11 -186.40 
 977 -190.36 -184.06 -186.40 
 978 -191.46 -188.42 -186.40 
 979 -193.24 -185.60 -186.40 
 980 -190.00 -184.58 -186.40 
 981 -189.83 -185.16 -186.40 
 982 -191.48 -185.40 -186.40 
 983 -188.05 -184.90 -186.40 
 984 -190.12 -185.87 -186.40 
 985 -189.26 -186.59 -186.40 
 986 -192.13 -184.71 -186.40 
 987 -191.91 -189.61 -186.40 
 988 -192.71 -186.29 -186.40 
 989 -192.54 -186.38 -186.40 
 990 -192.70 -188.82 -186.40 
 991 -186.35 -185.77 -186.40 
 992 -194.65 -189.90 -186.35 
 993 -189.42 -188.21 -186.35 
 994 -189.23 -190.13 -186.35 
 995 -191.87 -188.91 -186.35 
 996 -193.20 -188.70 -186.35 
 997 -192.52 -189.00 -186.35 
 998 -192.43 -190.34 -186.35 
 999 -190.64 -187.73 -186.35 
1000 -189.56 -188.31 -186.35 
1001 -193.40 -191.73 -186.35 
1002 -187.70 -187.52 -186.35 
1003 -189.10 -192.12 -186.35 
1004 -190.40 -189.09 -186.35 
1005 -190.98 -187.65 -186.35 
1006 -188.60 -187.44 -186.35 
1007 -194.08 -188.80 -186.35 
1008 -188.23 -186.00 -186.35 
1009 -195.03 -190.06 -186.35 
1010 -186.73 -190.24 -186.35 
1011 -187.50 -191.94 -186.35 
1012 -192.30 -190.19 -186.35 
1013 -191.76 -190.40 -186.35 
1014 -191.24 -187.63 -186.35 
1015 -189.27 -189.95 -186.35 
1016 -191.83 -187.88 -186.35 
1017 -191.28 -188.16 -186.35 
1018 -189.53 -191.57 -186.35 
1019 -194.34 -189.96 -186.35 
1020 -190.59 -189.19 -186.35 
1021 -192.96 -188.92 -186.35 
1022 -190.38 -189.44 -186.35 
1023 -196.01 -189.04 -186.35 
1024 -190.91 -188.83 -186.35 
1025 -194.75 -190.75 -186.35 
1026 -192.91 -192.01 -186.35 
1027 -190.99 -189.27 -186.35 
1028 -193.38 -190.90 -186.35 
1029 -192.33 -187.09 -186.35 
1030 -194.18 -192.28 -186.35 
1031 -188.61 -188.24 -186.35 
1032 -189.92 -190.03 -186.35 
1033 -189.20 -188.36 -186.35 
1034 -194.30 -189.95 -186.35 
1035 -192.23 -185.16 -186.35 
1036 -194.75 -187.43 -186.35 
1037 -191.31 -190.59 -186.35 
1038 -189.16 -186.42 -186.35 
1039 -189.91 -189.65 -186.35 
1040 -190.89 -187.99 -186.35 
1041 -194.85 -188.02 -186.35 
1042 -188.91 -187.40 -186.35 
1043 -191.92 -190.05 -186.35 
1044 -189.20 -187.63 -186.35 
1045 -194.21 -184.27 -186.35 
1046 -189.69 -185.56 -186.35 
1047 -189.46 -187.41 -186.35 
1048 -191.13 -188.08 -186.35 
1049 -190.52 -186.62 -186.35 
1050 -196.32 -186.56 -186.35 
1051 -191.47 -185.43 -186.35 
1052 -189.65 -187.11 -186.35 
1053 -191.03 -188.48 -186.35 
1054 -191.29 -188.87 -186.35 
1055 -191.48 -187.92 -186.35 
1056 -189.92 -188.57 -186.35 
1057 -189.68 -188.60 -186.35 
1058 -193.57 -188.69 -186.35 
1059 -190.09 -184.99 -186.35 
1060 -188.48 -186.85 -186.35 
1061 -188.22 -188.03 -186.35 
1062 -190.77 -188.82 -186.35 
1063 -193.64 -185.73 -186.35 
1064 -191.48 -185.98 -186.35 
1065 -189.81 -187.59 -186.35 
1066 -192.08 -188.54 -186.35 
1067 -187.28 -186.14 -186.35 
1068 -186.37 -187.58 -186.35 
1069 -191.86 -187.03 -186.35 
1070 -188.30 -184.64 -186.35 
1071 -191.72 -186.79 -186.35 
1072 -195.17 -185.99 -186.35 
1073 -190.64 -185.36 -186.35 
1074 -189.60 -185.98 -186.35 
1075 -193.49 -187.03 -186.35 
1076 -192.02 -186.23 -186.35 
1077 -192.67 -188.65 -186.35 
1078 -190.01 -186.63 -186.35 
1079 -188.78 -188.29 -186.35 
1080 -187.12 -187.56 -186.35 
1081 -193.02 -186.29 -186.35 
1082 -193.76 -188.40 -186.35 
1083 -191.84 -187.34 -186.35 
1084 -191.71 -185.97 -186.35 
1085 -192.25 -185.62 -186.35 
1086 -189.48 -185.76 -186.35 
1087 -193.72 -183.48 -186.35 
1088 -197.05 -187.71 -186.35 
1089 -189.51 -184.23 -186.35 
1090 -191.35 -186.45 -186.35 
1091 -187.12 -186.29 -186.35 
1092 -190.14 -185.50 -186.35 
1093 -191.04 -185.27 -186.35 
1094 -192.80 -186.03 -186.35 
1095 -194.16 -183.02 -186.35 
1096 -194.36 -185.75 -186.35 
1097 -191.28 -182.56 -186.35 
1098 -193.23 -185.67 -186.35 
1099 -187.06 -188.67 -186.35 
1100 -194.91 -187.43 -186.35 
1101 -188.86 -183.39 -186.35 
1102 -188.84 -185.71 -186.35 
1103 -191.15 -184.07 -186.35 
1104 -189.79 -186.63 -186.35 
1105 -189.88 -187.17 -186.35 
1106 -193.10 -185.94 -186.35 
1107 -186.46 -184.21 -186.35 
1108 -186.39 -186.25 -186.35 
1109 -194.22 -185.69 -186.35 
1110 -190.44 -186.29 -186.35 
1111 -189.43 -186.32 -186.35 
1112 -189.42 -187.85 -186.35 
1113 -192.12 -188.12 -186.35 
1114 -191.30 -188.42 -186.35 
1115 -192.24 -187.02 -186.35 
1116 -188.93 -189.23 -186.35 
1117 -188.55 -188.49 -186.35 
1118 -189.39 -188.16 -186.35 
1119 -189.55 -182.68 -186.35 
1120 -189.55 -184.25 -186.35 
1121 -192.20 -186.35 -186.35 
1122 -194.26 -183.98 -186.35 
1123 -190.55 -184.96 -186.35 
1124 -192.23 -187.09 -186.35 
1125 -192.34 -188.14 -186.35 
1126 -189.96 -187.91 -186.35 
1127 -193.05 -185.50 -186.35 
1128 -193.00 -186.44 -186.35 
1129 -190.95 -188.52 -186.35 
1130 -191.37 -187.95 -186.35 
1131 -193.82 -186.62 -186.35 
1132 -191.00 -185.70 -186.35 
1133 -192.10 -184.52 -186.35 
1134 -194.84 -185.56 -186.35 
1135 -188.94 -187.33 -186.35 
1136 -191.25 -186.06 -186.35 
1137 -191.75 -188.08 -186.35 
1138 -188.00 -184.73 -186.35 
1139 -188.81 -184.11 -186.35 
1140 -191.08 -187.17 -186.35 
1141 -186.77 -183.00 -186.35 
1142 -189.47 -186.70 -186.35 
1143 -193.42 -187.79 -186.35 
1144 -188.74 -185.66 -186.35 
1145 -191.45 -187.26 -186.35 
1146 -192.31 -184.93 -186.35 
1147 -186.32 -185.36 -186.35 
1148 -190.31 -187.71 -186.32 
1149 -188.17 -184.20 -186.32 
1150 -188.30 -183.88 -186.32 
1151 -191.22 -184.05 -186.32 
1152 -193.46 -188.28 -186.32 
1153 -189.70 -188.32 -186.32 
1154 -189.79 -187.26 -186.32 
1155 -191.90 -187.50 -186.32 
1156 -192.35 -186.49 -186.32 
1157 -191.28 -186.82 -186.32 
1158 -187.49 -187.95 -186.32 
1159 -188.03 -184.91 -186.32 
1160 -189.01 -184.91 -186.32 
1161 -189.28 -185.74 -186.32 
1162 -189.96 -187.63 -186.32 
1163 -190.09 -187.87 -186.32 
1164 -192.33 -186.23 -186.32 
1165 -189.93 -186.35 -186.32 
1166 -192.43 -185.92 -186.32 
1167 -193.12 -185.71 -186.32 
1168 -188.33 -185.72 -186.32 
1169 -188.53 -186.19 -186.32 
1170 -193.90 -185.73 -186.32 
1171 -193.37 -186.57 -186.32 
1172 -188.09 -185.65 -186.32 
1173 -192.98 -184.88 -186.32 
1174 -188.58 -185.51 -186.32 
1175 -187.69 -184.94 -186.32 
1176 -191.40 -185.10 -186.32 
1177 -191.58 -184.48 -186.32 
1178 -192.83 -185.15 -186.32 
1179 -193.61 -184.66 -186.32 
1180 -188.48 -185.15 -186.32 
1181 -190.89 -184.59 -186.32 
1182 -192.80 -184.66 -186.32 
1183 -186.85 -185.81 -186.32 
1184 -189.18 -185.14 -186.32 
1185 -189.79 -185.21 -186.32 
1186 -191.63 -187.55 -186.32 
1187 -191.22 -186.64 -186.32 
1188 -189.74 -187.04 -186.32 
1189 -188.70 -187.18 -186.32 
1190 -188.70 -186.76 -186.32 
1191 -189.29 -186.58 -186.32 
1192 -195.91 -186.78 -186.32 
1193 -193.60 -187.51 -186.32 
1194 -192.61 -188.03 -186.32 
1195 -190.56 -187.00 -186.32 
1196 -190.80 -187.18 -186.32 
1197 -191.78 -186.38 -186.32 
1198 -190.06 -187.23 -186.32 
1199 -191.54 -187.03 -186.32 
1200 -186.98 -186.53 -186.32 
1201 -188.73 -187.12 -186.32 
1202 -191.02 -188.21 -186.32 
1203 -189.87 -186.67 -186.32 
1204 -191.50 -188.54 -186.32 
1205 -189.82 -185.69 -186.32 
1206 -190.87 -184.12 -186.32 
1207 -188.84 -188.85 -186.32 
1208 -188.15 -183.99 -186.32 
1209 -189.23 -186.16 -186.32 
1210 -193.38 -190.20 -186.32 
1211 -196.41 -187.46 -186.32 
1212 -189.97 -188.71 -186.32 
1213 -188.99 -188.94 -186.32 
1214 -191.44 -189.49 -186.32 
1215 -190.59 -189.15 -186.32 
1216 -191.34 -187.34 -186.32 
1217 -189.08 -189.99 -186.32 
1218 -193.33 -187.20 -186.32 
1219 -188.85 -188.77 -186.32 
1220 -189.81 -191.11 -186.32 
1221 -188.45 -189.92 -186.32 
1222 -192.86 -189.78 -186.32 
1223 -188.46 -187.95 -186.32 
1224 -189.70 -188.11 -186.32 
1225 -186.86 -188.00 -186.32 
1226 -189.08 -188.14 -186.32 
1227 -189.62 -188.05 -186.32 
1228 -187.74 -186.92 -186.32 
1229 -192.70 -191.03 -186.32 
1230 -193.93 -191.00 -186.32 
1231 -190.03 -188.60 -186.32 
1232 -192.42 -188.85 -186.32 
1233 -191.17 -187.07 -186.32 
1234 -193.02 -192.09 -186.32 
1235 -190.09 -189.33 -186.32 
1236 -191.52 -190.71 -186.32 
1237 -193.31 -188.67 -186.32 
1238 -193.32 -187.90 -186.32 
1239 -187.58 -188.81 -186.32 
1240 -188.51 -189.65 -186.32 
1241 -191.46 -191.25 -186.32 
1242 -187.85 -190.24 -186.32 
1243 -189.70 -188.13 -186.32 
1244 -187.10 -187.67 -186.32 
1245 -188.72 -190.78 -186.32 
1246 -188.38 -190.68 -186.32 
1247 -189.20 -188.90 -186.32 
1248 -192.20 -187.05 -186.32 
1249 -194.78 -188.66 -186.32 
1250 -191.25 -189.43 -186.32 
1251 -189.78 -189.13 -186.32 
1252 -189.13 -191.86 -186.32 
1253 -188.67 -191.88 -186.32 
1254 -195.32 -189.78 -186.32 
1255 -189.78 -189.86 -186.32 
1256 -184.40 -187.29 -186.32 
1257 -191.76 -189.35 -184.40 
1258 -186.80 -188.02 -184.40 
1259 -189.67 -190.13 -184.40 
1260 -188.54 -188.95 -184.40 
1261 -192.23 -192.70 -184.40 
1262 -187.41 -189.10 -184.40 
1263 -190.00 -190.06 -184.40 
1264 -188.46 -188.82 -184.40 
1265 -190.51 -191.38 -184.40 
1266 -190.36 -188.61 -184.40 
1267 -188.35 -183.67 -184.40 
1268 -188.58 -187.94 -184.40 
1269 -185.83 -186.07 -184.40 
1270 -188.39 -183.68 -184.40 
1271 -193.21 -187.58 -184.40 
1272 -189.34 -186.04 -184.40 
1273 -190.75 -184.66 -184.40 
1274 -187.19 -183.08 -184.40 
1275 -189.61 -184.94 -184.40 
1276 -190.23 -184.57 -184.40 
1277 -192.62 -186.26 -184.40 
1278 -193.59 -185.87 -184.40 
1279 -191.28 -185.56 -184.40 
1280 -190.31 -183.43 -184.40 
1281 -189.22 -183.80 -184.40 
1282 -194.24 -187.78 -184.40 
1283 -188.19 -186.03 -184.40 
1284 -188.99 -184.46 -184.40 
1285 -187.14 -185.24 -184.40 
1286 -191.60 -184.66 -184.40 
1287 -190.09 -185.31 -184.40 
1288 -191.62 -184.85 -184.40 
1289 -186.20 -184.04 -184.40 
1290 -189.81 -184.82 -184.40 
1291 -188.94 -186.22 -184.40 
1292 -189.89 -186.69 -184.40 
1293 -186.71 -188.63 -184.40 
1294 -188.86 -187.95 -184.40 
1295 -192.47 -186.67 -184.40 
1296 -188.17 -185.23 -184.40 
1297 -192.39 -184.74 -184.40 
1298 -189.20 -186.68 -184.40 
1299 -192.26 -184.75 -184.40 
1300 -188.70 -186.70 -184.40 
1301 -190.15 -187.14 -184.40 
1302 -186.84 -186.38 -184.40 
1303 -190.51 -185.67 -184.40 
1304 -188.94 -187.04 -184.40 
1305 -190.54 -185.71 -184.40 
1306 -189.83 -185.17 -184.40 
1307 -187.84 -186.47 -184.40 
1308 -190.29 -186.49 -184.40 
1309 -187.25 -184.35 -184.40 
1310 -190.28 -184.98 -184.40 
1311 -188.89 -185.67 -184.40 
1312 -188.14 -186.43 -184.40 
1313 -187.74 -185.91 -184.40 
1314 -187.60 -188.01 -184.40 
1315 -189.69 -187.20 -184.40 
1316 -190.38 -188.03 -184.40 
1317 -186.78 -189.16 -184.40 
1318 -188.52 -186.91 -184.40 
1319 -190.49 -189.27 -184.40 
1320 -191.69 -188.33 -184.40 
1321 -192.39 -187.38 -184.40 
1322 -193.30 -185.87 -184.40 
1323 -191.51 -186.44 -184.40 
1324 -191.14 -185.01 -184.40 
1325 -192.07 -186.07 -184.40 
1326 -192.31 -187.62 -184.40 
1327 -189.09 -185.46 -184.40 
1328 -189.06 -187.92 -184.40 
1329 -191.42 -188.14 -184.40 
1330 -190.13 -187.59 -184.40 
1331 -190.70 -185.58 -184.40 
1332 -189.38 -188.61 -184.40 
1333 -187.53 -188.79 -184.40 
1334 -193.50 -185.65 -184.40 
1335 -189.67 -187.25 -184.40 
1336 -189.57 -185.51 -184.40 
1337 -189.89 -186.95 -184.40 
1338 -191.16 -186.17 -184.40 
1339 -187.05 -187.27 -184.40 
1340 -187.90 -184.76 -184.40 
1341 -194.40 -186.00 -184.40 
1342 -188.78 -186.14 -184.40 
1343 -190.94 -188.53 -184.40 
1344 -189.59 -188.20 -184.40 
1345 -187.67 -186.87 -184.40 
1346 -186.92 -187.14 -184.40 
1347 -190.44 -187.50 -184.40 
1348 -191.46 -188.20 -184.40 
1349 -190.42 -188.67 -184.40 
1350 -187.95 -189.37 -184.40 
1351 -189.38 -189.47 -184.40 
1352 -192.15 -192.05 -184.40 
1353 -188.47 -190.39 -184.40 
1354 -189.43 -189.48 -184.40 
1355 -193.31 -188.21 -184.40 
1356 -189.75 -190.35 -184.40 
1357 -190.39 -190.55 -184.40 
1358 -192.85 -189.18 -184.40 
1359 -192.83 -190.41 -184.40 
1360 -191.61 -189.17 -184.40 
1361 -188.22 -190.36 -184.40 
1362 -188.45 -189.38 -184.40 
1363 -191.18 -188.52 -184.40 
1364 -190.76 -188.72 -184.40 
1365 -187.19 -187.15 -184.40 
1366 -188.50 -188.47 -184.40 
1367 -192.44 -186.96 -184.40 
1368 -191.87 -185.62 -184.40 
1369 -189.85 -186.45 -184.40 
1370 -187.57 -186.65 -184.40 
1371 -191.89 -188.03 -184.40 
1372 -191.77 -188.94 -184.40 
1373 -189.08 -186.61 -184.40 
1374 -191.55 -186.96 -184.40 
1375 -186.79 -187.64 -184.40 
1376 -188.43 -187.30 -184.40 
1377 -186.05 -187.66 -184.40 
1378 -189.51 -187.95 -184.40 
1379 -190.04 -188.80 -184.40 
1380 -190.71 -189.07 -184.40 
1381 -191.14 -188.73 -184.40 
1382 -190.97 -189.79 -184.40 
1383 -187.34 -184.02 -184.40 
1384 -184.57 -186.03 -184.40 
1385 -188.34 -185.04 -184.40 
1386 -188.69 -187.26 -184.40 
1387 -191.18 -184.88 -184.40 
1388 -185.84 -186.05 -184.40 
1389 -187.35 -186.99 -184.40 
1390 -189.77 -187.07 -184.40 
1391 -192.60 -185.90 -184.40 
1392 -191.23 -182.79 -184.40 
1393 -191.05 -186.16 -184.40 
1394 -192.76 -187.23 -184.40 
1395 -188.42 -184.37 -184.40 
1396 -185.83 -183.89 -184.40 
1397 -190.80 -184.78 -184.40 
1398 -188.35 -184.39 -184.40 
1399 -192.79 -186.96 -184.40 
1400 -191.88 -190.19 -184.40 
1401 -188.75 -183.14 -184.40 
1402 -187.79 -183.47 -184.40 
1403 -188.05 -183.86 -184.40 
1404 -191.04 -182.24 -184.40 
1405 -188.61 -182.74 -184.40 
1406 -186.27 -185.04 -184.40 
1407 -188.82 -185.90 -184.40 
1408 -192.57 -185.27 -184.40 
1409 -197.39 -182.39 -184.40 
1410 -188.57 -183.25 -184.40 
1411 -191.35 -186.19 -184.40 
1412 -190.36 -187.17 -184.40 
1413 -193.63 -184.49 -184.40 
1414 -191.65 -186.38 -184.40 
1415 -189.40 -185.55 -184.40 
1416 -187.24 -186.70 -184.40 
1417 -190.15 -186.57 -184.40 
1418 -188.54 -185.41 -184.40 
1419 -188.76 -181.82 -184.40 
1420 -187.00 -184.48 -184.40 
1421 -189.52 -181.73 -184.40 
1422 -189.83 -180.58 -184.40 
1423 -187.27 -180.73 -184.40 
1424 -186.44 -179.78 -184.40 
1425 -191.01 -186.95 -184.40 
1426 -188.70 -183.59 -184.40 
1427 -191.77 -183.52 -184.40 
1428 -188.69 -183.26 -184.40 
1429 -189.65 -185.83 -184.40 
1430 -191.57 -187.93 -184.40 
1431 -188.15 -186.09 -184.40 
1432 -187.96 -187.48 -184.40 
1433 -191.67 -185.83 -184.40 
1434 -188.94 -186.21 -184.40 
1435 -187.13 -185.74 -184.40 
1436 -187.98 -187.74 -184.40 
1437 -186.93 -187.87 -184.40 
1438 -192.20 -186.45 -184.40 
1439 -187.43 -187.71 -184.40 
1440 -190.55 -188.57 -184.40 
1441 -187.70 -189.04 -184.40 
1442 -189.76 -189.39 -184.40 
1443 -187.49 -190.54 -184.40 
1444 -189.26 -187.18 -184.40 
1445 -191.30 -187.59 -184.40 
1446 -194.72 -190.32 -184.40 
1447 -190.79 -186.81 -184.40 
1448 -189.04 -188.87 -184.40 
1449 -191.54 -189.75 -184.40 
1450 -191.43 -188.83 -184.40 
1451 -188.58 -185.11 -184.40 
1452 -188.00 -187.46 -184.40 
1453 -194.71 -188.63 -184.40 
1454 -190.17 -188.02 -184.40 
1455 -192.55 -190.74 -184.40 
1456 -192.17 -189.88 -184.40 
1457 -191.08 -185.64 -184.40 
1458 -189.07 -186.98 -184.40 
1459 -186.74 -185.87 -184.40 
1460 -188.04 -188.07 -184.40 
1461 -189.45 -189.28 -184.40 
1462 -190.02 -189.90 -184.40 
1463 -187.87 -187.75 -184.40 
1464 -189.76 -187.70 -184.40 
1465 -189.75 -186.45 -184.40 
1466 -188.81 -185.63 -184.40 
1467 -190.55 -186.92 -184.40 
1468 -185.13 -186.24 -184.40 
1469 -188.69 -185.10 -184.40 
1470 -190.41 -187.33 -184.40 
1471 -193.08 -185.84 -184.40 
1472 -185.40 -185.94 -184.40 
1473 -187.23 -186.78 -184.40 
1474 -190.02 -184.69 -184.40 
1475 -192.95 -184.88 -184.40 
1476 -189.90 -184.72 -184.40 
1477 -188.14 -184.42 -184.40 
1478 -190.97 -183.75 -184.40 
1479 -192.41 -185.77 -184.40 
1480 -189.21 -184.82 -184.40 
1481 -189.81 -184.23 -184.40 
1482 -191.04 -187.67 -184.40 
1483 -188.60 -185.03 -184.40 
1484 -185.12 -184.65 -184.40 
1485 -188.26 -184.53 -184.40 
1486 -191.64 -186.26 -184.40 
1487 -190.71 -186.35 -184.40 
1488 -189.45 -185.20 -184.40 
1489 -187.62 -185.67 -184.40 
1490 -186.61 -186.31 -184.40 
1491 -189.33 -185.37 -184.40 
1492 -185.73 -185.31 -184.40 
1493 -190.61 -186.24 -184.40 
1494 -189.79 -184.93 -184.40 
1495 -189.76 -184.50 -184.40 
1496 -187.96 -184.38 -184.40 
1497 -191.87 -183.74 -184.40 
1498 -190.63 -187.11 -184.40 
1499 -189.40 -185.86 -184.40 
1500 -192.54 -184.13 -184.40 
1501 -190.88 -186.74 -184.40 
1502 -189.03 -186.54 -184.40 
1503 -191.32 -186.31 -184.40 
1504 -189.13 -184.89 -184.40 
1505 -187.22 -185.78 -184.40 
1506 -190.48 -184.21 -184.40 
1507 -188.24 -188.62 -184.40 
1508 -190.80 -186.21 -184.40 
1509 -188.09 -187.13 -184.40 
1510 -190.45 -185.85 -184.40 
1511 -192.96 -187.13 -184.40 
1512 -190.43 -185.91 -184.40 
1513 -191.43 -184.52 -184.40 
1514 -188.77 -182.02 -184.40 
1515 -191.10 -182.92 -184.40 
1516 -187.76 -183.71 -184.40 
1517 -187.82 -182.35 -184.40 
1518 -187.07 -183.70 -184.40 
1519 -189.49 -183.61 -184.40 
1520 -189.15 -186.58 -184.40 
1521 -187.60 -186.19 -184.40 
1522 -190.82 -185.55 -184.40 
1523 -189.73 -185.25 -184.40 
1524 -188.16 -186.95 -184.40 
1525 -186.15 -186.22 -184.40 
1526 -190.02 -185.41 -184.40 
1527 -188.14 -185.39 -184.40 
1528 -187.80 -185.96 -184.40 
1529 -188.10 -185.17 -184.40 
1530 -188.58 -184.16 -184.40 
1531 -188.71 -187.20 -184.40 
1532 -187.05 -189.67 -184.40 
1533 -191.05 -187.84 -184.40 
1534 -190.51 -186.29 -184.40 
1535 -193.83 -186.54 -184.40 
1536 -189.85 -189.26 -184.40 
1537 -194.45 -187.17 -184.40 
1538 -188.24 -186.45 -184.40 
1539 -190.90 -186.36 -184.40 
1540 -185.38 -186.32 -184.40 
1541 -187.76 -187.06 -184.40 
1542 -189.29 -184.81 -184.40 
1543 -186.85 -188.43 -184.40 
1544 -192.16 -186.73 -184.40 
1545 -186.49 -185.86 -184.40 
1546 -189.57 -186.22 -184.40 
1547 -189.47 -189.08 -184.40 
1548 -188.34 -186.84 -184.40 
1549 -189.03 -186.49 -184.40 
1550 -191.60 -187.66 -184.40 
1551 -187.88 -189.02 -184.40 
1552 -191.73 -185.84 -184.40 
1553 -189.52 -189.87 -184.40 
1554 -191.97 -184.83 -184.40 
1555 -186.15 -186.86 -184.40 
1556 -190.83 -187.55 -184.40 
1557 -190.22 -182.93 -184.40 
1558 -186.80 -185.23 -184.40 
1559 -191.33 -183.61 -184.40 
1560 -188.61 -184.62 -184.40 
1561 -191.40 -185.46 -184.40 
1562 -187.84 -183.35 -184.40 
1563 -192.60 -184.45 -184.40 
1564 -185.69 -185.05 -184.40 
1565 -192.37 -184.32 -184.40 
1566 -188.87 -183.60 -184.40 
1567 -189.89 -182.15 -184.40 
1568 -186.72 -183.98 -184.40 
1569 -190.09 -183.14 -184.40 
1570 -186.58 -180.60 -184.40 
1571 -189.68 -183.02 -184.40 
1572 -188.55 -180.09 -184.40 
1573 -189.85 -181.96 -184.40 
1574 -188.21 -184.84 -184.40 
1575 -186.58 -183.76 -184.40 
1576 -188.88 -181.86 -184.40 
1577 -192.29 -182.98 -184.40 
1578 -190.90 -181.45 -184.40 
1579 -188.45 -182.79 -184.40 
1580 -189.82 -183.86 -184.40 
1581 -189.56 -181.34 -184.40 
1582 -189.78 -183.70 -184.40 
1583 -190.89 -183.41 -184.40 
1584 -189.82 -183.47 -184.40 
1585 -187.35 -183.68 -184.40 
1586 -189.05 -183.11 -184.40 
1587 -191.33 -185.75 -184.40 
1588 -187.85 -183.91 -184.40 
1589 -187.76 -182.03 -184.40 
1590 -186.48 -184.06 -184.40 
1591 -189.19 -182.24 -184.40 
1592 -189.10 -181.97 -184.40 
1593 -189.00 -180.48 -184.40 
1594 -187.24 -180.54 -184.40 
1595 -187.87 -181.37 -184.40 
1596 -190.97 -181.68 -184.40 
1597 -185.20 -181.83 -184.40 
1598 -189.49 -179.74 -184.40 
1599 -190.27 -180.15 -184.40 
1600 -187.26 -182.58 -184.40 
1601 -188.28 -181.57 -184.40 
1602 -187.99 -181.55 -184.40 
1603 -190.52 -182.00 -184.40 
1604 -187.94 -180.74 -184.40 
1605 -187.10 -180.83 -184.40 
1606 -187.80 -183.04 -184.40 
1607 -190.07 -183.04 -184.40 
1608 -189.34 -182.72 -184.40 
1609 -187.06 -184.01 -184.40 
1610 -187.74 -184.29 -184.40 
1611 -188.60 -184.88 -184.40 
1612 -187.96 -185.55 -184.40 
1613 -190.34 -184.65 -184.40 
1614 -190.29 -185.33 -184.40 
1615 -188.15 -183.22 -184.40 
1616 -185.95 -182.01 -184.40 
1617 -192.05 -183.04 -184.40 
1618 -189.38 -182.10 -184.40 
1619 -184.02 -181.66 -184.40 
1620 -189.89 -183.71 -184.02 
1621 -189.72 -183.73 -184.02 
1622 -184.31 -186.41 -184.02 
1623 -185.52 -186.19 -184.02 
1624 -182.61 -182.81 -184.02 
1625 -189.05 -183.55 -182.61 
1626 -190.94 -181.68 -182.61 
1627 -189.27 -182.04 -182.61 
1628 -188.61 -179.32 -182.61 
1629 -185.41 -187.22 -182.61 
1630 -189.67 -181.62 -182.61 
1631 -190.21 -184.20 -182.61 
1632 -188.43 -180.56 -182.61 
1633 -187.90 -185.00 -182.61 
1634 -190.26 -182.70 -182.61 
1635 -189.00 -183.52 -182.61 
1636 -186.87 -187.50 -182.61 
1637 -188.42 -185.31 -182.61 
1638 -187.34 -181.83 -182.61 
1639 -190.59 -179.52 -182.61 
1640 -189.46 -184.99 -182.61 
1641 -188.19 -182.74 -182.61 
1642 -189.58 -183.94 -182.61 
1643 -187.18 -184.41 -182.61 
1644 -188.58 -182.68 -182.61 
1645 -190.72 -181.54 -182.61 
1646 -188.89 -182.48 -182.61 
1647 -190.31 -184.70 -182.61 
1648 -189.80 -183.22 -182.61 
1649 -188.35 -182.58 -182.61 
1650 -189.94 -181.87 -182.61 
1651 -191.95 -185.40 -182.61 
1652 -187.73 -181.74 -182.61 
1653 -187.32 -181.91 -182.61 
1654 -190.08 -182.75 -182.61 
1655 -186.34 -185.57 -182.61 
1656 -193.07 -178.83 -182.61 
1657 -187.84 -182.11 -182.61 
1658 -193.94 -180.64 -182.61 
1659 -188.08 -180.18 -182.61 
1660 -185.99 -181.66 -182.61 
1661 -187.41 -183.01 -182.61 
1662 -192.76 -182.35 -182.61 
1663 -192.24 -183.79 -182.61 
1664 -188.29 -185.59 -182.61 
1665 -189.25 -179.37 -182.61 
1666 -187.06 -184.76 -182.61 
1667 -183.91 -183.47 -182.61 
1668 -192.18 -182.98 -182.61 
1669 -187.75 -184.01 -182.61 
1670 -189.15 -182.27 -182.61 
1671 -185.89 -181.52 -182.61 
1672 -191.32 -183.27 -182.61 
1673 -190.92 -188.68 -182.61 
1674 -183.92 -183.04 -182.61 
1675 -189.97 -186.46 -182.61 
1676 -191.57 -182.75 -182.61 
1677 -186.96 -183.20 -182.61 
1678 -187.94 -184.21 -182.61 
1679 -188.85 -184.45 -182.61 
1680 -189.46 -186.55 -182.61 
1681 -191.39 -184.55 -182.61 
1682 -189.68 -183.03 -182.61 
1683 -184.78 -188.75 -182.61 
1684 -188.49 -186.17 -182.61 
1685 -188.69 -183.82 -182.61 
1686 -191.71 -189.16 -182.61 
1687 -189.97 -187.15 -182.61 
1688 -188.34 -189.39 -182.61 
1689 -186.79 -192.05 -182.61 
1690 -183.11 -184.45 -182.61 
1691 -190.28 -189.63 -182.61 
1692 -191.53 -191.08 -182.61 
1693 -188.94 -188.50 -182.61 
1694 -191.85 -185.61 -182.61 
1695 -189.95 -190.40 -182.61 
1696 -186.92 -187.79 -182.61 
1697 -189.20 -191.19 -182.61 
1698 -190.16 -187.64 -182.61 
1699 -192.96 -187.33 -182.61 
1700 -189.44 -187.33 -182.61 
1701 -184.77 -184.13 -182.61 
1702 -186.16 -190.36 -182.61 
1703 -185.48 -187.83 -182.61 
1704 -189.72 -187.18 -182.61 
1705 -191.85 -186.67 -182.61 
1706 -187.74 -190.98 -182.61 
1707 -190.88 -191.82 -182.61 
1708 -190.66 -188.30 -182.61 
1709 -187.48 -187.92 -182.61 
1710 -190.23 -185.50 -182.61 
1711 -188.15 -185.46 -182.61 
1712 -190.52 -187.32 -182.61 
1713 -189.50 -189.65 -182.61 
1714 -186.39 -189.07 -182.61 
1715 -193.85 -194.38 -182.61 
1716 -187.77 -189.98 -182.61 
1717 -189.99 -189.83 -182.61 
1718 -190.21 -188.32 -182.61 
1719 -187.76 -187.15 -182.61 
1720 -187.60 -190.72 -182.61 
1721 -189.78 -192.21 -182.61 
1722 -184.24 -189.18 -182.61 
1723 -187.90 -190.31 -182.61 
1724 -190.06 -188.58 -182.61 
1725 -186.69 -190.46 -182.61 
1726 -193.21 -192.58 -182.61 
1727 -188.21 -191.54 -182.61 
1728 -189.99 -190.65 -182.61 
1729 -189.62 -188.62 -182.61 
1730 -188.44 -184.47 -182.61 
1731 -185.56 -185.82 -182.61 
1732 -189.85 -186.48 -182.61 
1733 -188.15 -188.56 -182.61 
1734 -186.50 -185.18 -182.61 
1735 -188.79 -187.24 -182.61 
1736 -188.27 -184.99 -182.61 
1737 -189.00 -184.96 -182.61 
1738 -186.14 -186.87 -182.61 
1739 -191.11 -186.50 -182.61 
1740 -185.15 -185.15 -182.61 
1741 -188.06 -186.87 -182.61 
1742 -193.94 -185.84 -182.61 
1743 -189.23 -184.65 -182.61 
1744 -187.19 -184.99 -182.61 
1745 -192.50 -184.54 -182.61 
1746 -183.18 -184.25 -182.61 
1747 -188.52 -184.17 -182.61 
1748 -187.35 -183.28 -182.61 
1749 -189.94 -182.44 -182.61 
1750 -189.40 -183.00 -182.61 
1751 -190.74 -183.77 -182.61 
1752 -186.52 -180.94 -182.61 
1753 -191.18 -185.08 -182.61 
1754 -190.56 -183.68 -182.61 
1755 -185.49 -183.92 -182.61 
1756 -186.38 -183.26 -182.61 
1757 -190.28 -183.40 -182.61 
1758 -189.79 -183.84 -182.61 
1759 -188.49 -185.78 -182.61 
1760 -187.00 -186.33 -182.61 
1761 -188.45 -183.75 -182.61 
1762 -188.23 -182.49 -182.61 
1763 -186.68 -184.78 -182.61 
1764 -190.16 -184.23 -182.61 
1765 -190.55 -182.86 -182.61 
1766 -189.53 -183.62 -182.61 
1767 -191.68 -184.57 -182.61 
1768 -187.30 -184.60 -182.61 
1769 -188.82 -185.27 -182.61 
1770 -190.27 -186.33 -182.61 
1771 -190.09 -190.21 -182.61 
1772 -189.00 -189.53 -182.61 
1773 -187.86 -192.14 -182.61 
1774 -188.81 -193.21 -182.61 
1775 -189.65 -186.83 -182.61 
1776 -193.77 -185.73 -182.61 
1777 -187.95 -184.69 -182.61 
1778 -190.32 -184.83 -182.61 
1779 -189.36 -184.27 -182.61 
1780 -184.64 -186.40 -182.61 
1781 -189.88 -184.74 -182.61 
1782 -188.26 -186.36 -182.61 
1783 -191.68 -187.77 -182.61 
1784 -190.47 -182.55 -182.61 
1785 -188.14 -185.96 -182.61 
1786 -181.91 -187.20 -182.61 
1787 -186.06 -183.12 -181.91 
1788 -187.24 -185.55 -181.91 
1789 -190.41 -183.78 -181.91 
1790 -186.47 -186.29 -181.91 
1791 -185.98 -184.83 -181.91 
1792 -189.38 -184.76 -181.91 
1793 -185.46 -181.38 -181.91 
1794 -189.03 -184.37 -181.91 
1795 -189.96 -185.76 -181.91 
1796 -188.54 -182.90 -181.91 
1797 -186.21 -182.47 -181.91 
1798 -186.08 -184.54 -181.91 
1799 -194.08 -185.00 -181.91 
1800 -190.56 -185.99 -181.91 
1801 -185.24 -186.08 -181.91 
1802 -187.86 -182.11 -181.91 
1803 -190.19 -184.91 -181.91 
1804 -186.64 -184.17 -181.91 
1805 -189.70 -184.88 -181.91 
1806 -189.48 -183.86 -181.91 
1807 -189.65 -180.96 -181.91 
1808 -186.74 -183.68 -181.91 
1809 -190.17 -181.22 -181.91 
1810 -189.31 -183.06 -181.91 
1811 -189.24 -182.29 -181.91 
1812 -188.87 -184.15 -181.91 
1813 -187.72 -184.22 -181.91 
1814 -193.07 -180.21 -181.91 
1815 -186.78 -182.60 -181.91 
1816 -190.05 -182.54 -181.91 
1817 -187.74 -179.51 -181.91 
1818 -190.17 -181.80 -181.91 
1819 -188.65 -179.87 -181.91 
1820 -187.80 -181.22 -181.91 
1821 -187.77 -183.44 -181.91 
1822 -190.82 -181.95 -181.91 
1823 -191.07 -183.18 -181.91 
1824 -192.41 -183.19 -181.91 
1825 -189.24 -182.94 -181.91 
1826 -183.73 -180.10 -181.91 
1827 -192.33 -184.74 -181.91 
1828 -188.78 -183.16 -181.91 
1829 -189.02 -183.73 -181.91 
1830 -188.83 -182.24 -181.91 
1831 -190.18 -182.59 -181.91 
1832 -186.13 -183.78 -181.91 
1833 -187.21 -180.81 -181.91 
1834 -187.69 -182.90 -181.91 
1835 -186.50 -180.92 -181.91 
1836 -188.29 -182.28 -181.91 
1837 -185.54 -181.69 -181.91 
1838 -190.62 -180.89 -181.91 
1839 -188.65 -181.43 -181.91 
1840 -189.64 -180.27 -181.91 
1841 -185.62 -181.19 -181.91 
1842 -189.82 -180.47 -181.91 
1843 -190.21 -180.66 -181.91 
1844 -190.67 -185.93 -181.91 
1845 -187.72 -188.04 -181.91 
1846 -187.05 -184.21 -181.91 
1847 -187.67 -182.92 -181.91 
1848 -190.26 -184.47 -181.91 
1849 -189.69 -182.68 -181.91 
1850 -188.21 -183.00 -181.91 
1851 -187.73 -183.24 -181.91 
1852 -189.78 -186.35 -181.91 
1853 -188.03 -185.60 -181.91 
1854 -186.94 -186.20 -181.91 
1855 -187.27 -186.48 -181.91 
1856 -188.53 -184.89 -181.91 
1857 -186.97 -181.01 -181.91 
1858 -189.57 -182.74 -181.91 
1859 -189.59 -181.16 -181.91 
1860 -190.18 -184.26 -181.91 
1861 -187.43 -182.57 -181.91 
1862 -188.16 -179.99 -181.91 
1863 -187.16 -185.23 -181.91 
1864 -185.87 -185.12 -181.91 
1865 -188.17 -186.53 -181.91 
1866 -190.17 -186.21 -181.91 
1867 -187.84 -184.32 -181.91 
1868 -185.49 -184.16 -181.91 
1869 -188.70 -184.20 -181.91 
1870 -187.37 -185.69 -181.91 
1871 -189.95 -185.24 -181.91 
1872 -187.04 -182.93 -181.91 
1873 -185.91 -185.45 -181.91 
1874 -191.98 -185.75 -181.91 
1875 -187.34 -184.50 -181.91 
1876 -188.49 -183.66 -181.91 
1877 -185.25 -183.82 -181.91 
1878 -188.20 -187.13 -181.91 
1879 -192.35 -182.62 -181.91 
1880 -188.15 -183.07 -181.91 
1881 -186.65 -182.25 -181.91 
1882 -189.79 -186.16 -181.91 
1883 -188.66 -183.14 -181.91 
1884 -185.51 -184.59 -181.91 
1885 -189.81 -187.35 -181.91 
1886 -188.63 -185.11 -181.91 
1887 -186.92 -185.46 -181.91 
1888 -192.86 -184.60 -181.91 
1889 -185.69 -186.27 -181.91 
1890 -186.14 -184.81 -181.91 
1891 -187.17 -184.44 -181.91 
1892 -187.27 -184.86 -181.91 
1893 -189.87 -184.15 -181.91 
1894 -188.89 -182.80 -181.91 
1895 -192.02 -184.94 -181.91 
1896 -184.61 -183.84 -181.91 
1897 -187.00 -184.06 -181.91 
1898 -188.64 -183.92 -181.91 
1899 -187.38 -184.28 -181.91 
1900 -187.89 -184.19 -181.91 
1901 -185.78 -184.93 -181.91 
1902 -192.55 -184.55 -181.91 
1903 -192.57 -184.31 -181.91 
1904 -187.90 -185.07 -181.91 
1905 -188.83 -184.90 -181.91 
1906 -187.31 -187.15 -181.91 
1907 -188.62 -185.77 -181.91 
1908 -190.26 -186.42 -181.91 
1909 -189.57 -186.18 -181.91 
1910 -188.65 -184.97 -181.91 
1911 -187.51 -183.71 -181.91 
1912 -187.42 -185.58 -181.91 
1913 -191.01 -184.97 -181.91 
1914 -188.43 -185.13 -181.91 
1915 -190.71 -184.61 -181.91 
1916 -189.26 -185.74 -181.91 
1917 -184.57 -184.27 -181.91 
1918 -186.61 -186.42 -181.91 
1919 -188.84 -184.80 -181.91 
1920 -193.05 -186.77 -181.91 
1921 -191.61 -184.87 -181.91 
1922 -192.63 -183.01 -181.91 
1923 -188.58 -180.69 -181.91 
1924 -188.86 -180.42 -181.91 
1925 -189.66 -181.89 -181.91 
1926 -189.18 -189.18 -181.91 
1927 -193.44 -181.41 -181.91 
1928 -183.71 -184.75 -181.91 
1929 -191.08 -186.09 -181.91 
1930 -191.16 -180.19 -181.91 
1931 -192.71 -181.97 -181.91 
1932 -189.66 -180.32 -181.91 
1933 -190.29 -184.49 -181.91 
1934 -189.58 -181.44 -181.91 
1935 -193.48 -182.19 -181.91 
1936 -189.98 -182.72 -181.91 
1937 -190.22 -184.87 -181.91 
1938 -185.30 -183.80 -181.91 
1939 -192.50 -183.61 -181.91 
1940 -190.39 -182.56 -181.91 
1941 -191.07 -182.13 -181.91 
1942 -190.41 -182.43 -181.91 
1943 -189.19 -183.04 -181.91 
1944 -184.89 -182.99 -181.91 
1945 -191.11 -186.30 -181.91 
1946 -193.92 -183.26 -181.91 
1947 -185.41 -184.26 -181.91 
1948 -188.65 -183.52 -181.91 
1949 -188.54 -183.82 -181.91 
1950 -185.20 -183.83 -181.91 
1951 -190.35 -184.26 -181.91 
1952 -191.71 -182.59 -181.91 
1953 -189.66 -183.01 -181.91 
1954 -190.37 -184.89 -181.91 
1955 -187.43 -184.19 -181.91 
1956 -190.98 -184.41 -181.91 
1957 -190.30 -184.18 -181.91 
1958 -189.09 -183.01 -181.91 
1959 -185.06 -185.26 -181.91 
1960 -188.35 -183.62 -181.91 
1961 -188.80 -184.02 -181.91 
1962 -185.85 -184.38 -181.91 
1963 -188.59 -185.13 -181.91 
1964 -185.32 -182.62 -181.91 
1965 -187.47 -183.12 -181.91 
1966 -185.56 -183.90 -181.91 
1967 -186.95 -184.30 -181.91 
1968 -189.86 -184.29 -181.91 
1969 -191.20 -184.20 -181.91 
1970 -185.70 -187.64 -181.91 
1971 -187.78 -183.98 -181.91 
1972 -188.67 -183.36 -181.91 
1973 -189.67 -181.76 -181.91 
1974 -188.62 -185.18 -181.91 
1975 -188.15 -183.62 -181.91 
1976 -187.43 -183.56 -181.91 
1977 -188.31 -185.38 -181.91 
1978 -192.50 -185.95 -181.91 
1979 -191.24 -185.18 -181.91 
1980 -190.40 -183.64 -181.91 
1981 -185.55 -183.69 -181.91 
1982 -189.70 -181.75 -181.91 
1983 -189.76 -184.24 -181.91 
1984 -186.77 -183.37 -181.91 
1985 -188.45 -183.10 -181.91 
1986 -188.34 -184.95 -181.91 
1987 -192.33 -184.54 -181.91 
1988 -188.65 -183.83 -181.91 
1989 -188.49 -185.35 -181.91 
1990 -188.24 -183.35 -181.91 
1991 -187.18 -181.51 -181.91 
1992 -187.42 -183.03 -181.91 
1993 -189.05 -182.99 -181.91 
1994 -190.97 -180.90 -181.91 
1995 -186.69 -182.65 -181.91 
1996 -186.26 -181.26 -181.91 
1997 -186.31 -180.66 -181.91 
1998 -190.09 -182.46 -181.91 
1999 -186.54 -183.41 -181.91 
2000 -187.26 -185.35 -181.91 
2001 -187.62 -184.34 -181.91 
2002 -188.82 -180.43 -181.91 
2003 -182.90 -180.41 -181.91 
2004 -188.07 -182.77 -181.91 
2005 -188.57 -181.78 -181.91 
2006 -190.70 -181.59 -181.91 
2007 -185.98 -181.29 -181.91 
2008 -187.04 -183.73 -181.91 
2009 -188.55 -182.64 -181.91 
2010 -186.99 -186.44 -181.91 
2011 -189.48 -183.56 -181.91 
2012 -186.03 -183.72 -181.91 
2013 -190.45 -184.26 -181.91 
2014 -187.41 -183.81 -181.91 
2015 -185.61 -184.29 -181.91 
2016 -186.86 -180.89 -181.91 
2017 -187.03 -182.74 -181.91 
2018 -189.36 -182.70 -181.91 
2019 -189.33 -183.54 -181.91 
2020 -190.21 -184.48 -181.91 
2021 -186.58 -183.44 -181.91 
2022 -189.24 -184.36 -181.91 
2023 -185.04 -183.85 -181.91 
2024 -190.09 -181.89 -181.91 
2025 -190.13 -184.05 -181.91 
2026 -188.30 -182.77 -181.91 
2027 -189.36 -182.63 -181.91 
2028 -188.59 -185.35 -181.91 
2029 -192.19 -184.31 -181.91 
2030 -189.32 -184.32 -181.91 
2031 -189.09 -182.94 -181.91 
2032 -187.82 -181.28 -181.91 
2033 -191.09 -183.47 -181.91 
2034 -187.54 -184.42 -181.91 
2035 -184.19 -183.52 -181.91 
2036 -188.31 -181.71 -181.91 
2037 -188.83 -184.42 -181.91 
2038 -190.80 -185.23 -181.91 
2039 -186.52 -183.32 -181.91 
2040 -191.66 -182.54 -181.91 
2041 -185.54 -184.53 -181.91 
2042 -191.12 -183.07 -181.91 
2043 -187.95 -183.33 -181.91 
2044 -185.76 -183.46 -181.91 
2045 -189.56 -183.53 -181.91 
2046 -189.49 -184.48 -181.91 
2047 -185.05 -184.04 -181.91 
2048 -190.69 -183.84 -181.91 
2049 -192.30 -181.60 -181.91 
2050 -189.30 -183.48 -181.91 
2051 -186.82 -183.19 -181.91 
2052 -188.53 -182.38 -181.91 
2053 -189.21 -183.83 -181.91 
2054 -184.26 -182.40 -181.91 
2055 -188.90 -183.47 -181.91 
2056 -188.75 -182.89 -181.91 
2057 -190.75 -182.10 -181.91 
2058 -184.37 -182.04 -181.91 
2059 -186.88 -183.14 -181.91 
2060 -188.09 -182.14 -181.91 
2061 -192.50 -182.94 -181.91 
2062 -187.67 -182.61 -181.91 
2063 -188.62 -183.27 -181.91 
2064 -190.64 -184.02 -181.91 
2065 -188.60 -184.47 -181.91 
2066 -190.31 -183.74 -181.91 
2067 -190.05 -183.79 -181.91 
2068 -189.23 -184.38 -181.91 
2069 -185.05 -184.55 -181.91 
2070 -188.55 -181.42 -181.91 
2071 -186.88 -179.04 -181.91 
2072 -186.95 -183.86 -181.91 
2073 -189.02 -184.48 -181.91 
2074 -189.12 -182.58 -181.91 
2075 -189.09 -183.76 -181.91 
2076 -189.23 -184.29 -181.91 
2077 -188.23 -184.53 -181.91 
2078 -188.82 -183.59 -181.91 
2079 -190.41 -185.37 -181.91 
2080 -189.11 -182.86 -181.91 
2081 -186.46 -184.07 -181.91 
2082 -188.97 -184.51 -181.91 
2083 -188.63 -184.15 -181.91 
2084 -186.81 -183.88 -181.91 
2085 -190.24 -182.20 -181.91 
2086 -187.49 -182.30 -181.91 
2087 -178.98 -184.27 -181.91 
2088 -184.51 -181.52 -178.98 
2089 -185.98 -181.45 -178.98 
2090 -188.12 -184.90 -178.98 
2091 -183.64 -182.78 -178.98 
2092 -183.93 -184.19 -178.98 
2093 -187.33 -185.22 -178.98 
2094 -187.56 -185.17 -178.98 
2095 -186.91 -180.63 -178.98 
2096 -185.73 -182.00 -178.98 
2097 -187.30 -183.51 -178.98 
2098 -188.88 -180.70 -178.98 
2099 -188.96 -182.60 -178.98 
2100 -188.16 -182.64 -178.98 
2101 -184.20 -182.84 -178.98 
2102 -188.72 -183.26 -178.98 
2103 -186.76 -185.62 -178.98 
2104 -189.89 -182.96 -178.98 
2105 -190.73 -187.89 -178.98 
2106 -189.40 -183.30 -178.98 
2107 -186.07 -182.69 -178.98 
2108 -188.21 -182.00 -178.98 
2109 -184.04 -185.60 -178.98 
2110 -186.24 -181.38 -178.98 
2111 -186.90 -181.99 -178.98 
2112 -191.37 -183.32 -178.98 
2113 -188.09 -182.16 -178.98 
2114 -186.93 -181.86 -178.98 
2115 -187.62 -184.09 -178.98 
2116 -187.95 -182.39 -178.98 
2117 -188.66 -182.83 -178.98 
2118 -191.27 -180.72 -178.98 
2119 -185.87 -180.55 -178.98 
2120 -188.34 -182.39 -178.98 
2121 -184.60 -181.44 -178.98 
2122 -186.69 -181.75 -178.98 
2123 -187.31 -181.04 -178.98 
2124 -185.38 -178.36 -178.98 
2125 -187.12 -183.66 -178.98 
2126 -189.65 -181.03 -178.98 
2127 -188.14 -182.81 -178.98 
2128 -187.68 -179.71 -178.98 
2129 -187.18 -178.16 -178.98 
2130 -186.66 -181.32 -178.98 
2131 -187.36 -181.41 -178.98 
2132 -185.65 -181.34 -178.98 
2133 -191.89 -184.80 -178.98 
2134 -185.75 -186.75 -178.98 
2135 -188.23 -182.91 -178.98 
2136 -189.26 -181.55 -178.98 
2137 -187.16 -183.78 -178.98 
2138 -185.42 -177.68 -178.98 
2139 -185.79 -183.53 -178.98 
2140 -192.77 -181.44 -178.98 
2141 -185.51 -181.03 -178.98 
2142 -189.64 -179.43 -178.98 
2143 -188.75 -177.57 -178.98 
2144 -186.85 -181.28 -178.98 
2145 -187.71 -183.52 -178.98 
2146 -189.23 -178.88 -178.98 
2147 -188.31 -179.84 -178.98 
2148 -187.18 -180.46 -178.98 
2149 -185.98 -180.25 -178.98 
2150 -188.60 -181.66 -178.98 
2151 -186.99 -184.43 -178.98 
2152 -191.21 -182.23 -178.98 
2153 -188.60 -182.40 -178.98 
2154 -190.47 -184.63 -178.98 
2155 -189.63 -182.10 -178.98 
2156 -187.97 -182.36 -178.98 
2157 -186.06 -184.31 -178.98 
2158 -188.07 -184.58 -178.98 
2159 -187.80 -183.87 -178.98 
2160 -185.95 -183.98 -178.98 
2161 -189.18 -184.96 -178.98 
2162 -191.31 -184.40 -178.98 
2163 -190.39 -184.24 -178.98 
2164 -184.28 -185.19 -178.98 
2165 -186.22 -184.59 -178.98 
2166 -190.29 -185.14 -178.98 
2167 -192.82 -186.07 -178.98 
2168 -186.48 -185.56 -178.98 
2169 -185.47 -182.50 -178.98 
2170 -189.59 -180.98 -178.98 
2171 -190.48 -181.85 -178.98 
2172 -190.34 -182.11 -178.98 
2173 -187.22 -181.32 -178.98 
2174 -186.73 -184.04 -178.98 
2175 -187.89 -181.66 -178.98 
2176 -188.07 -183.90 -178.98 
2177 -185.18 -181.07 -178.98 
2178 -189.51 -180.74 -178.98 
2179 -188.49 -180.37 -178.98 
2180 -185.46 -179.84 -178.98 
2181 -186.36 -180.20 -178.98 
2182 -186.03 -180.02 -178.98 
2183 -187.34 -180.41 -178.98 
2184 -183.77 -180.51 -178.98 
2185 -188.54 -183.62 -178.98 
2186 -187.06 -182.92 -178.98 
2187 -186.29 -183.11 -178.98 
2188 -185.06 -182.06 -178.98 
2189 -185.81 -180.56 -178.98 
2190 -186.23 -180.68 -178.98 
2191 -189.67 -180.37 -178.98 
2192 -189.92 -180.97 -178.98 
2193 -188.05 -179.30 -178.98 
2194 -188.64 -180.27 -178.98 
2195 -187.13 -182.41 -178.98 
2196 -190.22 -182.97 -178.98 
2197 -186.42 -182.94 -178.98 
2198 -186.85 -181.90 -178.98 
2199 -189.58 -183.11 -178.98 
2200 -188.89 -185.05 -178.98 
2201 -188.44 -185.26 -178.98 
2202 -191.42 -185.22 -178.98 
2203 -190.48 -181.85 -178.98 
2204 -189.16 -183.49 -178.98 
2205 -188.15 -181.49 -178.98 
2206 -190.18 -181.01 -178.98 
2207 -186.28 -182.09 -178.98 
2208 -189.85 -181.87 -178.98 
2209 -189.58 -184.21 -178.98 
2210 -189.31 -183.42 -178.98 
2211 -188.45 -183.89 -178.98 
2212 -186.86 -182.08 -178.98 
2213 -186.62 -182.88 -178.98 
2214 -190.69 -183.66 -178.98 
2215 -186.41 -178.93 -178.98 
2216 -190.20 -182.42 -178.98 
2217 -186.59 -183.20 -178.98 
2218 -191.89 -183.87 -178.98 
2219 -189.75 -183.73 -178.98 
2220 -186.07 -183.74 -178.98 
2221 -191.35 -182.02 -178.98 
2222 -191.23 -182.93 -178.98 
2223 -189.76 -185.10 -178.98 
2224 -190.39 -185.64 -178.98 
2225 -188.13 -186.36 -178.98 
2226 -190.33 -185.00 -178.98 
2227 -190.31 -187.60 -178.98 
2228 -190.03 -185.96 -178.98 
2229 -185.07 -186.94 -178.98 
2230 -189.63 -184.24 -178.98 
2231 -187.84 -179.76 -178.98 
2232 -190.56 -183.65 -178.98 
2233 -186.34 -183.66 -178.98 
2234 -186.07 -184.00 -178.98 
2235 -188.17 -184.88 -178.98 
2236 -190.71 -182.83 -178.98 
2237 -186.60 -183.47 -178.98 
2238 -186.22 -182.95 -178.98 
2239 -189.74 -183.77 -178.98 
2240 -188.78 -183.89 -178.98 
2241 -186.09 -185.80 -178.98 
2242 -188.58 -183.65 -178.98 
2243 -192.21 -185.67 -178.98 
2244 -186.98 -182.15 -178.98 
2245 -188.62 -184.07 -178.98 
2246 -185.57 -183.03 -178.98 
2247 -187.46 -183.10 -178.98 
2248 -188.24 -185.17 -178.98 
2249 -181.28 -182.97 -178.98 
2250 -185.07 -185.33 -178.98 
2251 -190.11 -182.49 -178.98 
2252 -189.15 -183.72 -178.98 
2253 -186.36 -181.88 -178.98 
2254 -185.03 -181.74 -178.98 
2255 -187.65 -181.22 -178.98 
2256 -187.99 -180.97 -178.98 
2257 -187.18 -180.95 -178.98 
2258 -188.18 -179.53 -178.98 
2259 -187.74 -183.18 -178.98 
2260 -187.25 -186.64 -178.98 
2261 -187.01 -182.87 -178.98 
2262 -191.77 -182.39 -178.98 
2263 -188.24 -180.75 -178.98 
2264 -186.92 -179.29 -178.98 
2265 -185.51 -182.93 -178.98 
2266 -188.10 -183.04 -178.98 
2267 -185.31 -183.52 -178.98 
2268 -185.83 -183.42 -178.98 
2269 -190.82 -183.02 -178.98 
2270 -189.67 -182.99 -178.98 
2271 -188.22 -183.25 -178.98 
2272 -188.23 -183.55 -178.98 
2273 -186.72 -183.28 -178.98 
2274 -187.17 -183.96 -178.98 
2275 -190.68 -184.74 -178.98 
2276 -190.76 -184.44 -178.98 
2277 -187.72 -185.33 -178.98 
2278 -186.26 -184.69 -178.98 
2279 -187.86 -183.29 -178.98 
2280 -188.64 -185.67 -178.98 
2281 -187.77 -184.73 -178.98 
2282 -187.87 -182.81 -178.98 
2283 -189.55 -185.02 -178.98 
2284 -186.28 -184.83 -178.98 
2285 -183.60 -186.04 -178.98 
2286 -187.06 -181.90 -178.98 
2287 -184.18 -183.55 -178.98 
2288 -183.25 -183.65 -178.98 
2289 -190.19 -183.38 -178.98 
2290 -187.39 -183.25 -178.98 
2291 -188.25 -181.19 -178.98 
2292 -188.62 -183.53 -178.98 
2293 -188.87 -183.65 -178.98 
2294 -185.23 -181.46 -178.98 
2295 -187.20 -184.37 -178.98 
2296 -190.07 -184.81 -178.98 
2297 -185.99 -184.90 -178.98 
2298 -181.57 -185.46 -178.98 
2299 -189.08 -185.62 -178.98 
2300 -189.03 -185.12 -178.98 
2301 -187.72 -185.88 -178.98 
2302 -189.60 -185.44 -178.98 
2303 -185.54 -183.04 -178.98 
2304 -187.32 -183.24 -178.98 
2305 -188.64 -182.84 -178.98 
2306 -188.63 -183.14 -178.98 
2307 -185.99 -185.32 -178.98 
2308 -182.55 -183.50 -178.98 
2309 -191.30 -183.14 -178.98 
2310 -185.58 -183.28 -178.98 
2311 -190.53 -183.09 -178.98 
2312 -187.13 -181.57 -178.98 
2313 -187.34 -183.21 -178.98 
2314 -190.44 -183.52 -178.98 
2315 -187.45 -180.92 -178.98 
2316 -187.75 -180.88 -178.98 
2317 -187.57 -182.41 -178.98 
2318 -182.37 -182.93 -178.98 
2319 -189.31 -183.89 -178.98 
2320 -186.44 -183.67 -178.98 
2321 -188.24 -185.50 -178.98 
2322 -185.71 -185.55 -178.98 
2323 -186.13 -185.60 -178.98 
2324 -187.71 -183.74 -178.98 
2325 -186.59 -183.91 -178.98 
2326 -187.73 -184.25 -178.98 
2327 -188.37 -184.49 -178.98 
2328 -184.00 -185.78 -178.98 
2329 -186.79 -183.73 -178.98 
2330 -187.46 -183.39 -178.98 
2331 -185.57 -183.91 -178.98 
2332 -189.49 -184.03 -178.98 
2333 -187.82 -183.45 -178.98 
2334 -185.66 -184.24 -178.98 
2335 -190.61 -184.08 -178.98 
2336 -186.41 -184.45 -178.98 
2337 -189.17 -184.35 -178.98 
2338 -183.23 -185.14 -178.98 
2339 -189.32 -185.22 -178.98 
2340 -183.66 -185.19 -178.98 
2341 -191.34 -185.26 -178.98 
2342 -187.37 -184.92 -178.98 
2343 -190.22 -185.78 -178.98 
2344 -185.77 -185.86 -178.98 
2345 -189.07 -186.01 -178.98 
2346 -188.54 -185.25 -178.98 
2347 -185.13 -185.58 -178.98 
2348 -187.24 -186.09 -178.98 
2349 -188.41 -185.31 -178.98 
2350 -187.68 -185.04 -178.98 
2351 -188.77 -185.43 -178.98 
2352 -184.97 -185.09 -178.98 
2353 -188.61 -185.65 -178.98 
2354 -185.99 -185.80 -178.98 
2355 -184.92 -184.99 -178.98 
2356 -188.94 -185.27 -178.98 
2357 -185.46 -185.29 -178.98 
2358 -184.41 -184.89 -178.98 
2359 -186.76 -185.63 -178.98 
2360 -187.84 -185.52 -178.98 
2361 -185.13 -183.71 -178.98 
2362 -185.89 -182.21 -178.98 
2363 -184.21 -184.13 -178.98 
2364 -186.70 -183.53 -178.98 
2365 -187.60 -184.21 -178.98 
2366 -186.68 -184.58 -178.98 
2367 -187.37 -184.49 -178.98 
2368 -188.71 -182.52 -178.98 
2369 -182.07 -182.83 -178.98 
2370 -187.57 -184.95 -178.98 
2371 -187.66 -184.84 -178.98 
2372 -185.97 -185.20 -178.98 
2373 -185.32 -183.05 -178.98 
2374 -188.66 -185.20 -178.98 
2375 -186.09 -184.59 -178.98 
2376 -186.81 -184.56 -178.98 
2377 -191.17 -184.49 -178.98 
2378 -185.76 -186.23 -178.98 
2379 -187.05 -186.20 -178.98 
2380 -187.69 -182.99 -178.98 
2381 -181.60 -182.42 -178.98 
2382 -185.58 -184.62 -178.98 
2383 -187.56 -182.97 -178.98 
2384 -188.72 -185.24 -178.98 
2385 -186.67 -181.68 -178.98 
2386 -186.39 -183.34 -178.98 
2387 -187.96 -183.40 -178.98 
2388 -187.28 -183.83 -178.98 
2389 -190.30 -181.74 -178.98 
2390 -192.32 -183.76 -178.98 
2391 -190.61 -183.79 -178.98 
2392 -185.73 -183.24 -178.98 
2393 -186.21 -184.33 -178.98 
2394 -185.54 -184.43 -178.98 
2395 -189.31 -185.72 -178.98 
2396 -186.63 -182.91 -178.98 
2397 -185.67 -184.36 -178.98 
2398 -189.86 -181.78 -178.98 
2399 -194.36 -184.21 -178.98 
2400 -183.41 -185.46 -178.98 
2401 -187.22 -184.13 -178.98 
2402 -188.15 -183.65 -178.98 
2403 -186.42 -183.57 -178.98 
2404 -187.75 -187.65 -178.98 
2405 -187.95 -184.39 -178.98 
2406 -185.31 -181.81 -178.98 
2407 -188.53 -184.31 -178.98 
2408 -185.47 -185.14 -178.98 
2409 -187.92 -179.98 -178.98 
2410 -186.48 -184.56 -178.98 
2411 -186.39 -185.04 -178.98 
2412 -187.01 -185.01 -178.98 
2413 -185.50 -184.40 -178.98 
2414 -187.07 -185.02 -178.98 
2415 -187.92 -185.37 -178.98 
2416 -183.88 -184.32 -178.98 
2417 -187.01 -185.23 -178.98 
2418 -187.53 -185.22 -178.98 
2419 -183.13 -183.40 -178.98 
2420 -185.88 -183.19 -178.98 
2421 -187.72 -183.43 -178.98 
2422 -187.66 -183.93 -178.98 
2423 -187.77 -181.85 -178.98 
2424 -188.01 -182.30 -178.98 
2425 -185.00 -182.05 -178.98 
2426 -186.75 -182.41 -178.98 
2427 -187.43 -180.55 -178.98 
2428 -187.81 -180.86 -178.98 
2429 -185.45 -180.63 -178.98 
2430 -186.51 -181.60 -178.98 
2431 -183.47 -181.17 -178.98 
2432 -186.90 -183.39 -178.98 
2433 -183.88 -184.02 -178.98 
2434 -187.42 -183.93 -178.98 
2435 -186.84 -180.23 -178.98 
2436 -186.37 -182.16 -178.98 
2437 -187.31 -179.88 -178.98 
2438 -186.62 -185.18 -178.98 
2439 -184.66 -185.09 -178.98 
2440 -183.35 -184.65 -178.98 
2441 -186.96 -184.60 -178.98 
2442 -185.46 -182.67 -178.98 
2443 -185.32 -185.01 -178.98 
2444 -187.08 -185.24 -178.98 
2445 -184.29 -185.07 -178.98 
2446 -189.84 -182.64 -178.98 
2447 -188.83 -182.96 -178.98 
2448 -186.13 -183.28 -178.98 
2449 -184.73 -182.91 -178.98 
2450 -184.87 -181.20 -178.98 
2451 -191.30 -183.07 -178.98 
2452 -187.29 -181.54 -178.98 
2453 -184.31 -182.37 -178.98 
2454 -184.02 -181.81 -178.98 
2455 -186.52 -182.06 -178.98 
2456 -183.69 -183.29 -178.98 
2457 -185.90 -182.72 -178.98 
2458 -186.24 -181.00 -178.98 
2459 -190.04 -180.50 -178.98 
2460 -184.58 -182.53 -178.98 
2461 -186.19 -180.46 -178.98 
2462 -187.97 -185.01 -178.98 
2463 -186.22 -179.95 -178.98 
2464 -189.53 -183.69 -178.98 
2465 -187.22 -183.79 -178.98 
2466 -185.35 -183.89 -178.98 
2467 -190.72 -182.54 -178.98 
2468 -187.81 -183.05 -178.98 
2469 -184.52 -184.96 -178.98 
2470 -188.33 -184.69 -178.98 
2471 -184.70 -182.98 -178.98 
2472 -188.06 -183.06 -178.98 
2473 -188.46 -185.24 -178.98 
2474 -186.41 -183.18 -178.98 
2475 -184.40 -183.35 -178.98 
2476 -184.58 -185.89 -178.98 
2477 -187.87 -183.67 -178.98 
2478 -186.49 -185.63 -178.98 
2479 -189.95 -183.82 -178.98 
2480 -187.54 -185.72 -178.98 
2481 -189.54 -185.84 -178.98 
2482 -186.33 -182.35 -178.98 
2483 -189.58 -184.36 -178.98 
2484 -188.38 -184.28 -178.98 
2485 -186.25 -183.74 -178.98 
2486 -186.17 -183.74 -178.98 
2487 -186.23 -183.37 -178.98 
2488 -187.92 -183.06 -178.98 
2489 -188.90 -183.74 -178.98 
2490 -188.85 -185.86 -178.98 
2491 -185.12 -183.92 -178.98 
2492 -184.53 -183.24 -178.98 
2493 -185.93 -183.95 -178.98 
2494 -187.98 -184.44 -178.98 
2495 -188.10 -183.96 -178.98 
2496 -183.67 -186.36 -178.98 
2497 -188.01 -186.40 -178.98 
2498 -185.26 -186.24 -178.98 
2499 -190.95 -184.39 -178.98 
2500 -183.51 -185.84 -178.98 
2501 -185.46 -183.97 -178.98 
2502 -186.37 -185.99 -178.98 
2503 -181.74 -183.59 -178.98 
2504 -186.34 -184.00 -178.98 
2505 -185.02 -184.06 -178.98 
2506 -184.23 -183.76 -178.98 
2507 -182.54 -183.69 -178.98 
2508 -185.11 -182.21 -178.98 
2509 -185.99 -178.24 -178.98 
2510 -187.25 -177.95 -178.98 
2511 -184.15 -182.62 -178.98 
2512 -183.49 -182.40 -178.98 
2513 -187.16 -181.69 -178.98 
2514 -185.55 -181.77 -178.98 
2515 -189.42 -184.31 -178.98 
2516 -183.03 -184.02 -178.98 
2517 -186.76 -183.82 -178.98 
2518 -185.99 -181.05 -178.98 
2519 -188.25 -183.94 -178.98 
2520 -186.43 -184.14 -178.98 
2521 -188.94 -184.32 -178.98 
2522 -186.90 -183.63 -178.98 
2523 -184.87 -184.02 -178.98 
2524 -186.37 -184.13 -178.98 
2525 -188.46 -183.44 -178.98 
2526 -189.34 -184.77 -178.98 
2527 -185.11 -182.93 -178.98 
2528 -190.59 -183.47 -178.98 
2529 -185.31 -184.26 -178.98 
2530 -187.85 -183.33 -178.98 
2531 -189.12 -185.08 -178.98 
2532 -184.03 -185.29 -178.98 
2533 -189.40 -184.43 -178.98 
2534 -186.12 -183.34 -178.98 
2535 -187.33 -184.41 -178.98 
2536 -186.76 -184.47 -178.98 
2537 -187.84 -182.11 -178.98 
2538 -183.04 -184.35 -178.98 
2539 -186.43 -184.75 -178.98 
2540 -185.82 -183.20 -178.98 
2541 -184.32 -181.31 -178.98 
2542 -186.93 -182.80 -178.98 
2543 -189.08 -182.77 -178.98 
2544 -187.41 -182.81 -178.98 
2545 -185.41 -184.36 -178.98 
2546 -190.99 -182.23 -178.98 
2547 -186.17 -182.88 -178.98 
2548 -187.69 -183.40 -178.98 
2549 -186.50 -184.07 -178.98 
2550 -185.41 -184.34 -178.98 
2551 -188.23 -184.17 -178.98 
2552 -184.24 -186.10 -178.98 
2553 -185.43 -181.69 -178.98 
2554 -188.65 -182.90 -178.98 
2555 -187.90 -181.38 -178.98 
2556 -191.71 -181.49 -178.98 
2557 -186.63 -183.14 -178.98 
2558 -188.66 -181.25 -178.98 
2559 -185.79 -183.47 -178.98 
2560 -186.27 -180.97 -178.98 
2561 -189.30 -182.52 -178.98 
2562 -187.07 -179.76 -178.98 
2563 -182.65 -179.17 -178.98 
2564 -187.40 -183.51 -178.98 
2565 -190.31 -183.18 -178.98 
2566 -186.82 -180.66 -178.98 
2567 -190.01 -178.50 -178.98 
2568 -190.01 -182.00 -178.98 
2569 -188.69 -182.07 -178.98 
2570 -186.93 -183.72 -178.98 
2571 -185.40 -184.07 -178.98 
2572 -185.64 -179.71 -178.98 
2573 -186.55 -180.33 -178.98 
2574 -187.70 -180.24 -178.98 
2575 -189.38 -182.15 -178.98 
2576 -184.40 -180.44 -178.98 
2577 -185.71 -180.37 -178.98 
2578 -187.26 -184.35 -178.98 
2579 -186.38 -183.54 -178.98 
2580 -188.30 -184.83 -178.98 
2581 -183.25 -184.54 -178.98 
2582 -187.01 -184.96 -178.98 
2583 -184.08 -184.82 -178.98 
2584 -184.14 -184.18 -178.98 
2585 -187.79 -184.51 -178.98 
2586 -187.02 -184.24 -178.98 
2587 -189.27 -183.81 -178.98 
2588 -183.76 -185.69 -178.98 
2589 -190.49 -184.21 -178.98 
2590 -184.15 -186.52 -178.98 
2591 -186.59 -186.35 -178.98 
2592 -186.73 -186.56 -178.98 
2593 -187.19 -184.24 -178.98 
2594 -190.30 -184.65 -178.98 
2595 -186.76 -185.56 -178.98 
2596 -186.59 -185.08 -178.98 
2597 -187.55 -185.16 -178.98 
2598 -186.21 -185.04 -178.98 
2599 -186.46 -184.77 -178.98 
2600 -186.44 -184.61 -178.98 
2601 -186.55 -184.59 -178.98 
2602 -186.47 -184.84 -178.98 
2603 -186.62 -184.87 -178.98 
2604 -187.41 -183.27 -178.98 
2605 -184.99 -185.87 -178.98 
2606 -183.65 -185.45 -178.98 
2607 -185.70 -182.67 -178.98 
2608 -188.34 -184.90 -178.98 
2609 -185.38 -185.19 -178.98 
2610 -185.22 -185.52 -178.98 
2611 -184.01 -185.26 -178.98 
2612 -183.56 -185.56 -178.98 
2613 -187.48 -185.23 -178.98 
2614 -185.62 -185.62 -178.98 
2615 -187.51 -182.98 -178.98 
2616 -188.64 -183.90 -178.98 
2617 -186.25 -185.36 -178.98 
2618 -184.57 -185.76 -178.98 
2619 -185.99 -185.67 -178.98 
2620 -190.31 -185.39 -178.98 
2621 -186.91 -185.22 -178.98 
2622 -187.98 -185.35 -178.98 
2623 -189.40 -186.51 -178.98 
2624 -187.81 -184.55 -178.98 
2625 -192.28 -185.28 -178.98 
2626 -186.02 -185.36 -178.98 
2627 -186.47 -185.60 -178.98 
2628 -186.68 -184.70 -178.98 
2629 -187.36 -186.16 -178.98 
2630 -188.60 -185.02 -178.98 
2631 -186.02 -180.86 -178.98 
2632 -189.61 -183.30 -178.98 
2633 -188.53 -181.88 -178.98 
2634 -187.90 -186.22 -178.98 
2635 -180.97 -186.20 -178.98 
2636 -189.47 -184.77 -178.98 
2637 -188.32 -185.31 -178.98 
2638 -186.81 -186.30 -178.98 
2639 -186.00 -186.46 -178.98 
2640 -184.55 -186.89 -178.98 
2641 -184.88 -188.42 -178.98 
2642 -185.41 -185.60 -178.98 
2643 -188.11 -187.18 -178.98 
2644 -183.73 -186.83 -178.98 
2645 -188.02 -184.96 -178.98 
2646 -187.31 -184.49 -178.98 
2647 -187.97 -187.61 -178.98 
2648 -186.91 -185.74 -178.98 
2649 -183.95 -185.97 -178.98 
2650 -187.98 -185.82 -178.98 
2651 -186.35 -185.35 -178.98 
2652 -187.84 -185.27 -178.98 
2653 -188.71 -186.02 -178.98 
2654 -187.23 -186.39 -178.98 
2655 -187.89 -184.11 -178.98 
2656 -187.78 -185.50 -178.98 
2657 -185.51 -185.54 -178.98 
2658 -187.88 -185.01 -178.98 
2659 -188.85 -184.99 -178.98 
2660 -186.06 -184.09 -178.98 
2661 -188.14 -184.86 -178.98 
2662 -188.19 -183.03 -178.98 
2663 -185.14 -186.73 -178.98 
2664 -181.88 -184.63 -178.98 
2665 -186.88 -185.02 -178.98 
2666 -184.15 -185.31 -178.98 
2667 -184.29 -183.56 -178.98 
2668 -186.11 -181.11 -178.98 
2669 -188.64 -181.00 -178.98 
2670 -187.26 -187.75 -178.98 
2671 -186.15 -181.87 -178.98 
2672 -188.25 -182.50 -178.98 
2673 -184.79 -182.35 -178.98 
2674 -186.18 -182.85 -178.98 
2675 -186.85 -181.85 -178.98 
2676 -184.63 -181.93 -178.98 
2677 -185.51 -182.01 -178.98 
2678 -184.45 -181.57 -178.98 
2679 -187.44 -181.76 -178.98 
2680 -184.95 -181.99 -178.98 
2681 -185.73 -181.28 -178.98 
2682 -186.44 -181.27 -178.98 
2683 -187.16 -181.64 -178.98 
2684 -188.66 -181.44 -178.98 
2685 -185.89 -181.06 -178.98 
2686 -183.30 -182.00 -178.98 
2687 -187.07 -182.51 -178.98 
2688 -188.07 -182.12 -178.98 
2689 -183.86 -181.81 -178.98 
2690 -188.97 -180.06 -178.98 
2691 -184.61 -182.78 -178.98 
2692 -184.21 -184.17 -178.98 
2693 -188.93 -182.23 -178.98 
2694 -188.64 -181.71 -178.98 
2695 -186.55 -181.36 -178.98 
2696 -186.88 -180.78 -178.98 
2697 -186.32 -182.60 -178.98 
2698 -192.24 -181.86 -178.98 
2699 -186.25 -180.87 -178.98 
2700 -188.64 -181.10 -178.98 
2701 -187.53 -184.91 -178.98 
2702 -190.29 -182.82 -178.98 
2703 -190.97 -183.12 -178.98 
2704 -183.63 -182.00 -178.98 
2705 -187.66 -180.99 -178.98 
2706 -185.91 -180.68 -178.98 
2707 -187.09 -181.20 -178.98 
2708 -185.39 -182.11 -178.98 
2709 -186.50 -181.79 -178.98 
2710 -187.60 -182.40 -178.98 
2711 -190.00 -178.93 -178.98 
2712 -187.61 -181.11 -178.98 
2713 -189.71 -179.11 -178.98 
2714 -187.25 -178.24 -178.98 
2715 -187.97 -179.53 -178.98 
2716 -188.82 -179.91 -178.98 
2717 -184.04 -179.64 -178.98 
2718 -185.44 -180.39 -178.98 
2719 -185.72 -181.52 -178.98 
2720 -189.68 -182.21 -178.98 
2721 -185.77 -182.19 -178.98 
2722 -187.54 -181.56 -178.98 
2723 -185.36 -180.16 -178.98 
2724 -186.15 -179.69 -178.98 
2725 -188.28 -180.95 -178.98 
2726 -189.53 -180.70 -178.98 
2727 -186.16 -181.80 -178.98 
2728 -185.48 -181.86 -178.98 
2729 -189.51 -182.29 -178.98 
2730 -186.95 -182.04 -178.98 
2731 -190.31 -181.59 -178.98 
2732 -186.28 -182.56 -178.98 
2733 -189.86 -182.99 -178.98 
2734 -187.24 -183.30 -178.98 
2735 -186.17 -180.99 -178.98 
2736 -184.90 -180.65 -178.98 
2737 -189.47 -183.26 -178.98 
2738 -188.49 -181.72 -178.98 
2739 -184.12 -180.64 -178.98 
2740 -186.10 -178.74 -178.98 
2741 -189.58 -179.22 -178.98 
2742 -184.88 -178.61 -178.98 
2743 -189.96 -178.06 -178.98 
2744 -188.73 -177.54 -178.98 
2745 -187.17 -177.68 -178.98 
2746 -187.00 -178.56 -178.98 
2747 -187.39 -179.30 -178.98 
2748 -189.08 -177.72 -178.98 
2749 -184.84 -177.68 -178.98 
2750 -186.08 -177.48 -178.98 
2751 -189.20 -177.41 -178.98 
2752 -188.76 -178.10 -178.98 
2753 -187.51 -178.72 -178.98 
2754 -183.51 -179.08 -178.98 
2755 -188.51 -178.23 -178.98 
2756 -188.14 -178.54 -178.98 
2757 -186.11 -179.24 -178.98 
2758 -183.95 -179.83 -178.98 
2759 -188.14 -179.61 -178.98 
2760 -186.63 -179.50 -178.98 
2761 -185.82 -180.41 -178.98 
2762 -186.69 -178.11 -178.98 
2763 -184.52 -180.33 -178.98 
2764 -187.60 -180.34 -178.98 
2765 -186.45 -179.13 -178.98 
2766 -189.86 -179.31 -178.98 
2767 -188.98 -180.09 -178.98 
2768 -189.95 -180.43 -178.98 
2769 -190.25 -182.90 -178.98 
2770 -184.58 -181.70 -178.98 
2771 -188.29 -185.64 -178.98 
2772 -186.36 -184.36 -178.98 
2773 -183.84 -185.37 -178.98 
2774 -185.93 -182.97 -178.98 
2775 -187.35 -184.69 -178.98 
2776 -184.89 -184.83 -178.98 
2777 -191.14 -182.59 -178.98 
2778 -185.95 -180.40 -178.98 
2779 -187.42 -180.54 -178.98 
2780 -189.10 -182.45 -178.98 
2781 -184.91 -178.51 -178.98 
2782 -186.26 -178.32 -178.98 
2783 -187.19 -178.73 -178.98 
2784 -184.55 -178.72 -178.98 
2785 -184.06 -178.56 -178.98 
2786 -186.54 -180.63 -178.98 
2787 -189.63 -181.90 -178.98 
2788 -186.75 -180.28 -178.98 
2789 -187.49 -182.90 -178.98 
2790 -184.73 -180.44 -178.98 
2791 -189.55 -182.29 -178.98 
2792 -184.67 -182.88 -178.98 
2793 -187.33 -183.04 -178.98 
2794 -190.77 -180.64 -178.98 
2795 -188.63 -180.30 -178.98 
2796 -186.35 -181.72 -178.98 
2797 -188.66 -183.39 -178.98 
2798 -186.10 -179.46 -178.98 
2799 -185.48 -180.01 -178.98 
2800 -190.49 -180.80 -178.98 
2801 -185.75 -179.14 -178.98 
2802 -187.58 -178.54 -178.98 
2803 -188.03 -178.60 -178.98 
2804 -188.57 -181.11 -178.98 
2805 -186.75 -177.41 -178.98 
2806 -188.72 -178.42 -178.98 
2807 -186.23 -181.43 -178.98 
2808 -186.63 -181.65 -178.98 
2809 -190.62 -182.14 -178.98 
2810 -185.84 -180.25 -178.98 
2811 -188.74 -179.18 -178.98 
2812 -187.47 -183.36 -178.98 
2813 -186.21 -186.51 -178.98 
2814 -189.33 -184.68 -178.98 
2815 -188.18 -187.20 -178.98 
2816 -187.24 -183.81 -178.98 
2817 -187.53 -182.95 -178.98 
2818 -189.72 -184.03 -178.98 
2819 -184.35 -183.41 -178.98 
2820 -189.67 -184.71 -178.98 
2821 -187.23 -182.58 -178.98 
2822 -186.42 -183.28 -178.98 
2823 -183.21 -179.14 -178.98 
2824 -182.80 -176.27 -178.98 
2825 -190.38 -180.58 -178.98 
2826 -184.87 -178.66 -178.98 
2827 -187.65 -176.67 -178.98 
2828 -185.32 -179.22 -178.98 
2829 -188.66 -178.90 -178.98 
2830 -186.01 -178.25 -178.98 
2831 -187.49 -178.24 -178.98 
2832 -188.30 -178.43 -178.98 
2833 -183.25 -176.22 -178.98 
2834 -187.55 -178.28 -178.98 
2835 -187.77 -185.44 -178.98 
2836 -186.62 -177.96 -178.98 
2837 -187.50 -177.23 -178.98 
2838 -183.13 -178.82 -178.98 
2839 -187.72 -177.76 -178.98 
2840 -185.21 -177.42 -178.98 
2841 -187.37 -178.35 -178.98 
2842 -185.07 -180.17 -178.98 
2843 -189.96 -183.59 -178.98 
2844 -188.80 -185.22 -178.98 
2845 -185.67 -183.03 -178.98 
2846 -189.05 -181.49 -178.98 
2847 -183.90 -181.11 -178.98 
2848 -186.58 -185.54 -178.98 
2849 -186.42 -180.16 -178.98 
2850 -186.58 -179.78 -178.98 
2851 -188.95 -183.88 -178.98 
2852 -183.92 -185.89 -178.98 
2853 -185.77 -182.29 -178.98 
2854 -191.02 -183.71 -178.98 
2855 -186.94 -188.64 -178.98 
2856 -184.00 -185.59 -178.98 
2857 -183.99 -185.36 -178.98 
2858 -188.09 -183.23 -178.98 
2859 -186.30 -186.53 -178.98 
2860 -188.76 -184.69 -178.98 
2861 -191.53 -183.99 -178.98 
2862 -188.08 -185.68 -178.98 
2863 -190.42 -185.62 -178.98 
2864 -185.84 -184.18 -178.98 
2865 -185.20 -181.70 -178.98 
2866 -188.40 -185.21 -178.98 
2867 -185.66 -184.89 -178.98 
2868 -184.28 -185.36 -178.98 
2869 -188.02 -184.54 -178.98 
2870 -193.86 -186.28 -178.98 
2871 -186.61 -183.56 -178.98 
2872 -184.74 -185.85 -178.98 
2873 -188.30 -183.70 -178.98 
2874 -185.53 -185.47 -178.98 
2875 -186.59 -184.71 -178.98 
2876 -190.94 -184.64 -178.98 
2877 -187.68 -185.35 -178.98 
2878 -189.50 -185.43 -178.98 
2879 -185.13 -184.70 -178.98 
2880 -184.93 -186.83 -178.98 
2881 -189.70 -183.79 -178.98 
2882 -185.31 -188.39 -178.98 
2883 -185.39 -183.83 -178.98 
2884 -185.40 -188.57 -178.98 
2885 -187.75 -188.58 -178.98 
2886 -186.71 -186.24 -178.98 
2887 -188.38 -188.54 -178.98 
2888 -185.60 -186.87 -178.98 
2889 -185.56 -188.70 -178.98 
2890 -190.33 -187.77 -178.98 
2891 -189.99 -189.29 -178.98 
2892 -183.99 -187.10 -178.98 
2893 -186.17 -186.00 -178.98 
2894 -185.40 -187.52 -178.98 
2895 -186.15 -183.58 -178.98 
2896 -184.91 -184.12 -178.98 
2897 -185.12 -183.90 -178.98 
2898 -188.08 -183.62 -178.98 
2899 -184.17 -185.49 -178.98 
2900 -185.30 -183.46 -178.98 
2901 -183.76 -183.94 -178.98 
2902 -186.08 -185.97 -178.98 
2903 -188.00 -185.76 -178.98 
2904 -187.43 -189.06 -178.98 
2905 -187.46 -187.00 -178.98 
2906 -184.90 -185.36 -178.98 
2907 -188.72 -187.78 -178.98 
2908 -186.34 -184.11 -178.98 
2909 -185.47 -190.37 -178.98 
2910 -185.70 -187.57 -178.98 
2911 -185.15 -187.29 -178.98 
2912 -187.75 -187.36 -178.98 
2913 -187.20 -187.58 -178.98 
2914 -189.73 -189.46 -178.98 
2915 -187.07 -187.65 -178.98 
2916 -189.49 -187.74 -178.98 
2917 -185.79 -186.41 -178.98 
2918 -186.85 -187.59 -178.98 
2919 -187.83 -186.03 -178.98 
2920 -184.37 -186.06 -178.98 
2921 -183.29 -187.53 -178.98 
2922 -187.22 -186.81 -178.98 
2923 -187.22 -187.03 -178.98 
2924 -188.15 -188.94 -178.98 
2925 -184.11 -187.32 -178.98 
2926 -187.43 -188.74 -178.98 
2927 -190.25 -188.58 -178.98 
2928 -188.16 -189.00 -178.98 
2929 -187.99 -188.95 -178.98 
2930 -186.67 -188.52 -178.98 
2931 -187.94 -189.16 -178.98 
2932 -188.52 -188.83 -178.98 
2933 -188.27 -186.70 -178.98 
2934 -188.70 -186.99 -178.98 
2935 -186.00 -188.72 -178.98 
2936 -188.65 -187.28 -178.98 
2937 -185.60 -187.36 -178.98 
2938 -184.50 -186.16 -178.98 
2939 -185.95 -187.78 -178.98 
2940 -184.70 -186.29 -178.98 
2941 -185.38 -184.52 -178.98 
2942 -187.91 -185.17 -178.98 
2943 -184.44 -184.84 -178.98 
2944 -184.07 -186.01 -178.98 
2945 -184.14 -187.13 -178.98 
2946 -185.74 -188.91 -178.98 
2947 -186.73 -188.62 -178.98 
2948 -185.61 -188.68 -178.98 
2949 -186.54 -188.41 -178.98 
2950 -188.26 -188.72 -178.98 
2951 -188.66 -188.41 -178.98 
2952 -186.04 -188.55 -178.98 
2953 -185.53 -189.18 -178.98 
2954 -189.53 -189.66 -178.98 
2955 -186.08 -188.20 -178.98 
2956 -190.71 -189.05 -178.98 
2957 -184.37 -189.32 -178.98 
2958 -187.26 -187.62 -178.98 
2959 -185.50 -189.44 -178.98 
2960 -186.81 -188.65 -178.98 
2961 -187.01 -188.03 -178.98 
2962 -188.17 -187.75 -178.98 
2963 -188.61 -187.47 -178.98 
2964 -185.32 -187.32 -178.98 
2965 -190.58 -186.36 -178.98 
2966 -187.33 -186.97 -178.98 
2967 -186.52 -187.31 -178.98 
2968 -190.44 -186.79 -178.98 
2969 -184.38 -186.91 -178.98 
2970 -188.49 -186.99 -178.98 
2971 -186.61 -186.67 -178.98 
2972 -186.62 -185.47 -178.98 
2973 -183.60 -187.25 -178.98 
2974 -183.00 -184.68 -178.98 
2975 -187.58 -184.64 -178.98 
2976 -184.27 -184.95 -178.98 
2977 -185.84 -185.89 -178.98 
2978 -181.98 -185.38 -178.98 
2979 -186.42 -185.34 -178.98 
2980 -185.56 -184.99 -178.98 
2981 -188.00 -186.08 -178.98 
2982 -188.86 -186.02 -178.98 
2983 -184.87 -188.59 -178.98 
2984 -182.37 -186.48 -178.98 
2985 -185.98 -186.09 -178.98 
2986 -184.67 -186.11 -178.98 
2987 -187.06 -185.45 -178.98 
2988 -188.30 -186.10 -178.98 
2989 -182.77 -186.00 -178.98 
2990 -188.62 -187.01 -178.98 
2991 -186.64 -186.06 -178.98 
2992 -185.62 -185.88 -178.98 
2993 -184.84 -187.60 -178.98 
2994 -187.05 -185.44 -178.98 
2995 -183.80 -186.25 -178.98 
2996 -187.64 -186.65 -178.98 
2997 -189.11 -187.22 -178.98 
2998 -188.34 -187.02 -178.98 
2999 -189.68 -186.89 -178.98 
3000 -184.38 -186.74 -178.98 
3001 -184.47 -185.59 -178.98 
3002 -193.05 -184.86 -178.98 
3003 -189.13 -185.15 -178.98 
3004 -185.02 -185.90 -178.98 
3005 -189.50 -186.26 -178.98 
3006 -186.21 -186.62 -178.98 
3007 -182.80 -187.65 -178.98 
3008 -183.71 -189.49 -178.98 
3009 -188.84 -188.91 -178.98 
3010 -187.00 -189.26 -178.98 
3011 -187.29 -189.24 -178.98 
3012 -186.39 -189.47 -178.98 
3013 -187.37 -190.10 -178.98 
3014 -182.93 -189.56 -178.98 
3015 -187.73 -188.74 -178.98 
3016 -186.62 -187.64 -178.98 
3017 -187.82 -188.19 -178.98 
3018 -185.44 -187.02 -178.98 
3019 -188.89 -186.83 -178.98 
3020 -186.59 -185.74 -178.98 
3021 -184.35 -187.98 -178.98 
3022 -181.09 -185.99 -178.98 
3023 -188.01 -186.52 -178.98 
3024 -188.52 -187.90 -178.98 
3025 -183.31 -187.20 -178.98 
3026 -183.64 -186.27 -178.98 
3027 -186.04 -186.63 -178.98 
3028 -190.15 -188.34 -178.98 
3029 -183.40 -185.79 -178.98 
3030 -188.77 -185.93 -178.98 
3031 -187.07 -190.38 -178.98 
3032 -185.74 -190.68 -178.98 
3033 -190.65 -185.54 -178.98 
3034 -185.08 -186.60 -178.98 
3035 -187.14 -186.65 -178.98 
3036 -185.55 -185.79 -178.98 
3037 -189.10 -185.82 -178.98 
3038 -189.25 -186.75 -178.98 
3039 -188.17 -184.66 -178.98 
3040 -185.36 -184.60 -178.98 
3041 -183.60 -185.50 -178.98 
3042 -187.39 -187.39 -178.98 
3043 -184.41 -187.87 -178.98 
3044 -187.24 -187.09 -178.98 
3045 -189.10 -188.40 -178.98 
3046 -188.84 -186.14 -178.98 
3047 -187.57 -186.92 -178.98 
3048 -188.10 -187.22 -178.98 
3049 -188.92 -186.86 -178.98 
3050 -190.21 -186.29 -178.98 
3051 -185.64 -188.19 -178.98 
3052 -185.66 -188.24 -178.98 
3053 -181.39 -186.34 -178.98 
3054 -185.81 -188.45 -178.98 
3055 -185.89 -188.97 -178.98 
3056 -183.96 -187.37 -178.98 
3057 -189.61 -187.36 -178.98 
3058 -183.66 -187.47 -178.98 
3059 -188.42 -183.92 -178.98 
3060 -185.76 -184.26 -178.98 
3061 -187.99 -187.77 -178.98 
3062 -183.86 -185.37 -178.98 
3063 -185.80 -187.83 -178.98 
3064 -186.47 -187.20 -178.98 
3065 -184.90 -187.76 -178.98 
3066 -182.34 -187.60 -178.98 
3067 -187.49 -187.40 -178.98 
3068 -185.50 -187.75 -178.98 
3069 -190.97 -186.76 -178.98 
3070 -187.81 -186.26 -178.98 
3071 -188.90 -186.60 -178.98 
3072 -181.36 -185.44 -178.98 
3073 -186.60 -185.86 -178.98 
3074 -185.29 -186.76 -178.98 
3075 -188.59 -185.76 -178.98 
3076 -184.11 -187.80 -178.98 
3077 -185.52 -187.77 -178.98 
3078 -186.16 -182.40 -178.98 
3079 -184.11 -183.84 -178.98 
3080 -184.69 -186.03 -178.98 
3081 -189.18 -185.37 -178.98 
3082 -186.02 -184.40 -178.98 
3083 -182.38 -185.84 -178.98 
3084 -185.54 -185.98 -178.98 
3085 -186.38 -185.96 -178.98 
3086 -186.78 -186.73 -178.98 
3087 -186.00 -185.59 -178.98 
3088 -186.66 -185.15 -178.98 
3089 -185.34 -185.86 -178.98 
3090 -185.63 -185.51 -178.98 
3091 -184.29 -187.00 -178.98 
3092 -186.25 -187.27 -178.98 
3093 -185.76 -186.55 -178.98 
3094 -188.35 -186.90 -178.98 
3095 -184.39 -187.15 -178.98 
3096 -183.39 -185.51 -178.98 
3097 -184.83 -185.89 -178.98 
3098 -185.83 -186.09 -178.98 
3099 -189.94 -186.22 -178.98 
3100 -184.34 -185.48 -178.98 
3101 -188.61 -185.35 -178.98 
3102 -189.17 -186.13 -178.98 
3103 -184.91 -186.93 -178.98 
3104 -187.09 -186.41 -178.98 
3105 -187.42 -184.31 -178.98 
3106 -186.62 -187.38 -178.98 
3107 -188.70 -187.80 -178.98 
3108 -187.08 -186.25 -178.98 
3109 -184.75 -185.52 -178.98 
3110 -182.36 -185.42 -178.98 
3111 -189.56 -187.53 -178.98 
3112 -183.21 -186.22 -178.98 
3113 -189.21 -186.10 -178.98 
3114 -185.81 -186.09 -178.98 
3115 -188.44 -187.30 -178.98 
3116 -185.22 -185.77 -178.98 
3117 -183.08 -184.80 -178.98 
3118 -187.25 -184.76 -178.98 
3119 -186.43 -187.46 -178.98 
3120 -186.52 -184.93 -178.98 
3121 -184.60 -186.79 -178.98 
3122 -187.72 -184.87 -178.98 
3123 -188.12 -183.35 -178.98 
3124 -184.30 -185.49 -178.98 
3125 -186.12 -185.31 -178.98 
3126 -188.05 -186.83 -178.98 
3127 -188.99 -186.89 -178.98 
3128 -183.98 -185.88 -178.98 
3129 -187.60 -185.15 -178.98 
3130 -182.52 -185.35 -178.98 
3131 -186.86 -184.95 -178.98 
3132 -185.72 -186.52 -178.98 
3133 -183.08 -186.58 -178.98 
3134 -190.61 -185.65 -178.98 
3135 -188.12 -186.30 -178.98 
3136 -188.70 -186.66 -178.98 
3137 -184.60 -186.44 -178.98 
3138 -184.50 -185.49 -178.98 
3139 -188.57 -185.81 -178.98 
3140 -191.71 -187.21 -178.98 
3141 -188.32 -187.14 -178.98 
3142 -189.00 -185.81 -178.98 
3143 -186.91 -186.21 -178.98 
3144 -184.60 -186.44 -178.98 
3145 -186.04 -187.11 -178.98 
3146 -183.18 -185.87 -178.98 
3147 -186.50 -186.70 -178.98 
3148 -184.15 -186.81 -178.98 
3149 -189.99 -186.09 -178.98 
3150 -188.75 -187.09 -178.98 
3151 -183.53 -187.58 -178.98 
3152 -189.22 -187.52 -178.98 
3153 -188.15 -187.43 -178.98 
3154 -184.64 -186.43 -178.98 
3155 -189.19 -186.05 -178.98 
3156 -185.38 -186.72 -178.98 
3157 -187.16 -185.98 -178.98 
3158 -187.44 -186.52 -178.98 
3159 -190.57 -185.86 -178.98 
3160 -186.24 -186.76 -178.98 
3161 -186.78 -185.50 -178.98 
3162 -182.94 -185.07 -178.98 
3163 -183.77 -185.58 -178.98 
3164 -185.96 -185.25 -178.98 
3165 -185.49 -185.01 -178.98 
3166 -182.62 -185.14 -178.98 
3167 -184.14 -185.28 -178.98 
3168 -184.67 -185.00 -178.98 
3169 -186.37 -186.95 -178.98 
3170 -187.63 -187.12 -178.98 
3171 -186.43 -186.04 -178.98 
3172 -186.45 -186.40 -178.98 
3173 -186.14 -187.68 -178.98 
3174 -188.33 -187.57 -178.98 
3175 -187.13 -186.85 -178.98 
3176 -185.91 -188.66 -178.98 
3177 -187.44 -189.09 -178.98 
3178 -184.97 -188.46 -178.98 
3179 -183.95 -188.47 -178.98 
3180 -186.68 -188.49 -178.98 
3181 -188.33 -185.56 -178.98 
3182 -185.20 -187.36 -178.98 
3183 -188.10 -189.55 -178.98 
3184 -186.26 -188.63 -178.98 
3185 -186.23 -188.60 -178.98 
3186 -184.72 -188.34 -178.98 
3187 -187.44 -188.17 -178.98 
3188 -186.49 -187.23 -178.98 
3189 -186.01 -186.60 -178.98 
3190 -183.73 -187.96 -178.98 
3191 -184.49 -188.38 -178.98 
3192 -186.15 -188.69 -178.98 
3193 -184.35 -188.06 -178.98 
3194 -186.89 -188.51 -178.98 
3195 -186.97 -188.44 -178.98 
3196 -182.61 -188.32 -178.98 
3197 -188.02 -188.58 -178.98 
3198 -187.97 -187.98 -178.98 
3199 -189.82 -188.47 -178.98 
3200 -188.39 -187.14 -178.98 
3201 -185.51 -188.96 -178.98 
3202 -186.27 -187.08 -178.98 
3203 -184.94 -186.84 -178.98 
3204 -182.09 -186.35 -178.98 
3205 -189.19 -186.01 -178.98 
3206 -187.70 -185.59 -178.98 
3207 -182.99 -185.11 -178.98 
3208 -187.93 -186.48 -178.98 
3209 -186.53 -188.01 -178.98 
3210 -185.27 -187.22 -178.98 
3211 -186.35 -186.97 -178.98 
3212 -188.54 -187.27 -178.98 
3213 -185.33 -188.08 -178.98 
3214 -183.54 -187.09 -178.98 
3215 -183.62 -186.61 -178.98 
3216 -185.31 -185.26 -178.98 
3217 -189.99 -186.08 -178.98 
3218 -190.26 -187.44 -178.98 
3219 -188.50 -186.64 -178.98 
3220 -185.61 -186.08 -178.98 
3221 -186.18 -187.12 -178.98 
3222 -183.29 -186.65 -178.98 
3223 -183.77 -186.99 -178.98 
3224 -180.36 -187.00 -178.98 
3225 -187.88 -186.60 -178.98 
3226 -187.67 -186.89 -178.98 
3227 -185.62 -187.02 -178.98 
3228 -185.77 -188.49 -178.98 
3229 -185.20 -187.53 -178.98 
3230 -190.60 -186.26 -178.98 
3231 -189.65 -187.65 -178.98 
3232 -189.00 -187.44 -178.98 
3233 -187.59 -188.56 -178.98 
3234 -186.88 -187.77 -178.98 
3235 -182.81 -187.81 -178.98 
3236 -187.59 -188.08 -178.98 
3237 -180.51 -189.91 -178.98 
3238 -182.70 -188.24 -178.98 
3239 -183.74 -188.46 -178.98 
3240 -184.97 -189.22 -178.98 
3241 -183.90 -187.52 -178.98 
3242 -185.68 -188.02 -178.98 
3243 -184.23 -188.87 -178.98 
3244 -184.91 -189.47 -178.98 
3245 -185.42 -189.61 -178.98 
3246 -183.72 -189.76 -178.98 
3247 -182.75 -189.07 -178.98 
3248 -185.78 -188.06 -178.98 
3249 -186.57 -187.81 -178.98 
3250 -189.69 -187.35 -178.98 
3251 -183.32 -188.24 -178.98 
3252 -185.75 -187.93 -178.98 
3253 -183.94 -188.40 -178.98 
3254 -184.63 -187.19 -178.98 
3255 -187.00 -187.60 -178.98 
3256 -186.36 -187.86 -178.98 
3257 -184.51 -188.18 -178.98 
3258 -187.65 -187.56 -178.98 
3259 -187.61 -188.32 -178.98 
3260 -186.02 -188.87 -178.98 
3261 -187.20 -189.31 -178.98 
3262 -189.10 -188.87 -178.98 
3263 -187.66 -189.85 -178.98 
3264 -186.85 -190.01 -178.98 
3265 -184.70 -188.23 -178.98 
3266 -186.39 -186.72 -178.98 
3267 -182.75 -188.48 -178.98 
3268 -185.81 -189.29 -178.98 
3269 -187.94 -187.97 -178.98 
3270 -186.93 -187.10 -178.98 
3271 -184.02 -185.59 -178.98 
3272 -189.35 -183.05 -178.98 
3273 -187.82 -185.50 -178.98 
3274 -184.73 -183.65 -178.98 
3275 -184.22 -186.90 -178.98 
3276 -185.05 -184.64 -178.98 
3277 -183.51 -184.84 -178.98 
3278 -184.01 -188.34 -178.98 
3279 -188.91 -190.49 -178.98 
3280 -188.98 -186.56 -178.98 
3281 -186.53 -185.10 -178.98 
3282 -183.16 -186.64 -178.98 
3283 -186.00 -184.95 -178.98 
3284 -184.78 -185.54 -178.98 
3285 -185.16 -185.69 -178.98 
3286 -185.89 -185.43 -178.98 
3287 -187.11 -186.72 -178.98 
3288 -186.54 -184.99 -178.98 
3289 -183.19 -184.90 -178.98 
3290 -185.00 -185.31 -178.98 
3291 -186.99 -187.21 -178.98 
3292 -185.90 -184.54 -178.98 
3293 -188.19 -185.27 -178.98 
3294 -190.12 -185.65 -178.98 
3295 -185.25 -183.69 -178.98 
3296 -185.36 -181.45 -178.98 
3297 -186.47 -183.92 -178.98 
3298 -184.14 -182.30 -178.98 
3299 -183.07 -184.29 -178.98 
3300 -184.34 -184.06 -178.98 
3301 -187.56 -183.91 -178.98 
3302 -183.19 -184.09 -178.98 
3303 -187.34 -181.43 -178.98 
3304 -187.05 -186.12 -178.98 
3305 -187.94 -185.80 -178.98 
3306 -188.37 -184.41 -178.98 
3307 -185.84 -185.96 -178.98 
3308 -187.20 -185.49 -178.98 
3309 -185.63 -185.83 -178.98 
3310 -183.43 -186.03 -178.98 
3311 -185.31 -185.76 -178.98 
3312 -182.76 -185.70 -178.98 
3313 -183.50 -184.26 -178.98 
3314 -184.36 -184.38 -178.98 
3315 -188.50 -185.95 -178.98 
3316 -186.82 -184.20 -178.98 
3317 -186.47 -184.32 -178.98 
3318 -184.16 -183.84 -178.98 
3319 -186.78 -181.32 -178.98 
3320 -185.63 -181.18 -178.98 
3321 -184.94 -181.09 -178.98 
3322 -185.21 -180.98 -178.98 
3323 -187.94 -181.51 -178.98 
3324 -185.41 -184.40 -178.98 
3325 -186.52 -184.00 -178.98 
3326 -182.79 -184.29 -178.98 
3327 -185.17 -186.52 -178.98 
3328 -185.36 -184.56 -178.98 
3329 -183.96 -179.08 -178.98 
3330 -186.33 -179.56 -178.98 
3331 -186.23 -179.71 -178.98 
3332 -187.19 -179.61 -178.98 
3333 -183.01 -179.42 -178.98 
3334 -185.11 -179.85 -178.98 
3335 -186.98 -178.09 -178.98 
3336 -187.14 -178.01 -178.98 
3337 -183.98 -177.72 -178.98 
3338 -189.05 -177.32 -178.98 
3339 -184.60 -177.99 -178.98 
3340 -185.13 -178.53 -178.98 
3341 -186.35 -177.20 -178.98 
3342 -186.19 -177.64 -178.98 
3343 -186.02 -177.84 -178.98 
3344 -189.60 -178.74 -178.98 
3345 -185.92 -178.39 -178.98 
3346 -187.32 -177.81 -178.98 
3347 -186.22 -178.92 -178.98 
3348 -188.60 -178.64 -178.98 
3349 -184.10 -178.57 -178.98 
3350 -186.45 -177.84 -178.98 
3351 -181.54 -177.53 -178.98 
3352 -184.14 -177.37 -178.98 
3353 -183.26 -176.91 -178.98 
3354 -186.27 -179.35 -178.98 
3355 -187.10 -183.25 -178.98 
3356 -186.76 -182.48 -178.98 
3357 -182.66 -182.49 -178.98 
3358 -183.52 -184.91 -178.98 
3359 -187.38 -182.93 -178.98 
3360 -183.60 -183.06 -178.98 
3361 -188.11 -183.20 -178.98 
3362 -185.83 -183.52 -178.98 
3363 -190.40 -183.64 -178.98 
3364 -188.72 -183.59 -178.98 
3365 -186.65 -181.29 -178.98 
3366 -187.67 -183.24 -178.98 
3367 -184.28 -180.74 -178.98 
3368 -186.98 -184.33 -178.98 
3369 -187.99 -182.47 -178.98 
3370 -186.90 -181.00 -178.98 
3371 -186.27 -179.39 -178.98 
3372 -184.67 -179.80 -178.98 
3373 -188.43 -179.42 -178.98 
3374 -189.13 -179.46 -178.98 
3375 -182.60 -178.84 -178.98 
3376 -189.30 -179.31 -178.98 
3377 -185.82 -178.43 -178.98 
3378 -185.65 -178.49 -178.98 
3379 -184.56 -182.11 -178.98 
3380 -186.55 -183.93 -178.98 
3381 -185.27 -183.77 -178.98 
3382 -183.29 -184.25 -178.98 
3383 -186.94 -182.64 -178.98 
3384 -187.74 -184.63 -178.98 
3385 -187.55 -183.13 -178.98 
3386 -189.89 -179.03 -178.98 
3387 -188.28 -179.59 -178.98 
3388 -185.81 -179.17 -178.98 
3389 -186.25 -179.64 -178.98 
3390 -183.74 -179.56 -178.98 
3391 -184.65 -180.45 -178.98 
3392 -189.47 -181.15 -178.98 
3393 -183.69 -181.98 -178.98 
3394 -186.36 -182.66 -178.98 
3395 -187.71 -183.13 -178.98 
3396 -186.28 -181.75 -178.98 
3397 -180.57 -181.69 -178.98 
3398 -185.24 -181.00 -178.98 
3399 -191.02 -180.56 -178.98 
3400 -191.15 -179.90 -178.98 
3401 -187.95 -180.44 -178.98 
3402 -188.56 -180.91 -178.98 
3403 -185.82 -179.78 -178.98 
3404 -183.84 -180.12 -178.98 
3405 -184.79 -180.54 -178.98 
3406 -182.25 -180.31 -178.98 
3407 -188.00 -179.88 -178.98 
3408 -188.32 -179.75 -178.98 
3409 -188.83 -180.08 -178.98 
3410 -187.12 -179.51 -178.98 
3411 -182.08 -180.33 -178.98 
3412 -183.65 -179.81 -178.98 
3413 -183.44 -179.41 -178.98 
3414 -188.75 -181.36 -178.98 
3415 -187.83 -183.09 -178.98 
3416 -183.04 -184.96 -178.98 
3417 -184.58 -185.21 -178.98 
3418 -186.40 -181.23 -178.98 
3419 -191.07 -181.77 -178.98 
3420 -183.13 -184.40 -178.98 
3421 -187.10 -182.66 -178.98 
3422 -188.68 -182.07 -178.98 
3423 -183.98 -181.59 -178.98 
3424 -187.27 -180.73 -178.98 
3425 -186.18 -181.49 -178.98 
3426 -185.75 -181.30 -178.98 
3427 -186.35 -182.02 -178.98 
3428 -182.71 -179.43 -178.98 
3429 -185.48 -181.64 -178.98 
3430 -185.42 -179.47 -178.98 
3431 -187.96 -181.26 -178.98 
3432 -188.03 -181.67 -178.98 
3433 -184.21 -179.11 -178.98 
3434 -186.62 -179.62 -178.98 
3435 -184.61 -179.86 -178.98 
3436 -190.21 -180.04 -178.98 
3437 -184.61 -180.25 -178.98 
3438 -184.02 -180.07 -178.98 
3439 -183.56 -179.83 -178.98 
3440 -182.77 -180.10 -178.98 
3441 -182.87 -180.25 -178.98 
3442 -187.34 -180.97 -178.98 
3443 -188.14 -180.05 -178.98 
3444 -184.66 -180.38 -178.98 
3445 -189.68 -181.59 -178.98 
3446 -187.69 -181.46 -178.98 
3447 -190.18 -181.23 -178.98 
3448 -183.31 -181.21 -178.98 
3449 -184.67 -181.51 -178.98 
3450 -186.85 -181.09 -178.98 
3451 -186.11 -181.56 -178.98 
3452 -185.11 -181.57 -178.98 
3453 -188.65 -181.93 -178.98 
3454 -187.15 -182.41 -178.98 
3455 -186.48 -182.57 -178.98 
3456 -183.11 -182.44 -178.98 
3457 -184.49 -182.13 -178.98 
3458 -183.31 -182.41 -178.98 
3459 -186.86 -182.70 -178.98 
3460 -181.53 -182.27 -178.98 
3461 -188.35 -181.93 -178.98 
3462 -184.98 -182.04 -178.98 
3463 -185.07 -182.26 -178.98 
3464 -186.41 -182.13 -178.98 
3465 -183.12 -181.90 -178.98 
3466 -190.29 -182.20 -178.98 
3467 -185.78 -181.93 -178.98 
3468 -187.73 -181.23 -178.98 
3469 -186.72 -181.06 -178.98 
3470 -183.47 -180.84 -178.98 
3471 -186.97 -180.93 -178.98 
3472 -187.79 -181.08 -178.98 
3473 -186.78 -181.24 -178.98 
3474 -187.45 -180.82 -178.98 
3475 -187.39 -179.08 -178.98 
3476 -183.79 -181.51 -178.98 
3477 -187.09 -181.35 -178.98 
3478 -187.15 -182.45 -178.98 
3479 -183.96 -182.86 -178.98 
3480 -186.63 -183.36 -178.98 
3481 -184.91 -183.24 -178.98 
3482 -184.13 -182.90 -178.98 
3483 -188.15 -183.18 -178.98 
3484 -187.43 -182.70 -178.98 
3485 -184.68 -182.30 -178.98 
3486 -184.19 -182.25 -178.98 
3487 -182.34 -182.92 -178.98 
3488 -184.11 -182.88 -178.98 
3489 -187.67 -183.56 -178.98 
3490 -185.21 -183.10 -178.98 
3491 -186.37 -183.37 -178.98 
3492 -184.51 -183.37 -178.98 
3493 -185.32 -184.24 -178.98 
3494 -186.06 -184.00 -178.98 
3495 -184.72 -184.03 -178.98 
3496 -184.03 -183.48 -178.98 
3497 -183.59 -183.49 -178.98 
3498 -188.13 -183.54 -178.98 
3499 -185.69 -182.98 -178.98 
3500 -184.95 -182.77 -178.98 
3501 -185.19 -183.57 -178.98 
3502 -188.05 -183.24 -178.98 
3503 -187.36 -183.09 -178.98 
3504 -186.35 -184.04 -178.98 
3505 -182.47 -183.49 -178.98 
3506 -185.08 -183.78 -178.98 
3507 -188.46 -183.47 -178.98 
3508 -187.59 -181.09 -178.98 
3509 -185.79 -181.28 -178.98 
3510 -187.61 -181.62 -178.98 
3511 -187.91 -181.79 -178.98 
3512 -185.41 -181.74 -178.98 
3513 -186.39 -179.90 -178.98 
3514 -186.95 -180.38 -178.98 
3515 -183.19 -180.39 -178.98 
3516 -182.39 -180.46 -178.98 
3517 -185.05 -182.23 -178.98 
3518 -187.50 -181.77 -178.98 
3519 -184.87 -183.37 -178.98 
3520 -186.38 -181.48 -178.98 
3521 -189.52 -181.48 -178.98 
3522 -181.66 -181.23 -178.98 
3523 -182.75 -183.30 -178.98 
3524 -186.69 -182.79 -178.98 
3525 -180.22 -182.86 -178.98 
3526 -187.37 -182.44 -178.98 
3527 -184.00 -182.22 -178.98 
3528 -188.58 -182.29 -178.98 
3529 -186.63 -182.54 -178.98 
3530 -185.64 -182.48 -178.98 
3531 -183.46 -182.21 -178.98 
3532 -187.82 -182.08 -178.98 
3533 -188.95 -181.94 -178.98 
3534 -185.31 -181.60 -178.98 
3535 -187.77 -181.73 -178.98 
3536 -183.99 -183.79 -178.98 
3537 -184.90 -183.31 -178.98 
3538 -187.67 -183.26 -178.98 
3539 -185.32 -181.77 -178.98 
3540 -184.19 -181.77 -178.98 
3541 -183.63 -182.35 -178.98 
3542 -186.84 -180.40 -178.98 
3543 -185.41 -181.77 -178.98 
3544 -188.46 -184.04 -178.98 
3545 -184.87 -183.54 -178.98 
3546 -189.38 -183.17 -178.98 
3547 -182.56 -182.72 -178.98 
3548 -188.78 -182.17 -178.98 
3549 -186.87 -182.07 -178.98 
3550 -185.41 -180.54 -178.98 
3551 -187.81 -182.79 -178.98 
3552 -182.40 -181.05 -178.98 
3553 -186.97 -183.11 -178.98 
3554 -182.83 -183.24 -178.98 
3555 -182.09 -182.97 -178.98 
3556 -185.95 -181.17 -178.98 
3557 -182.16 -181.08 -178.98 
3558 -183.22 -179.94 -178.98 
3559 -185.81 -180.23 -178.98 
3560 -183.22 -179.93 -178.98 
3561 -187.11 -180.59 -178.98 
3562 -189.81 -180.14 -178.98 
3563 -186.71 -180.54 -178.98 
3564 -181.28 -180.68 -178.98 
3565 -187.60 -180.05 -178.98 
3566 -188.68 -177.27 -178.98 
3567 -187.13 -178.18 -178.98 
3568 -190.16 -176.39 -178.98 
3569 -189.55 -176.74 -178.98 
3570 -184.67 -178.85 -178.98 
3571 -184.06 -176.65 -178.98 
3572 -184.23 -179.05 -178.98 
3573 -182.69 -177.06 -178.98 
3574 -185.38 -177.42 -178.98 
3575 -183.28 -177.91 -178.98 
3576 -185.77 -178.14 -178.98 
3577 -186.12 -178.06 -178.98 
3578 -185.67 -178.32 -178.98 
3579 -185.33 -178.43 -178.98 
3580 -183.06 -177.77 -178.98 
3581 -185.29 -178.24 -178.98 
3582 -183.69 -177.78 -178.98 
3583 -186.14 -177.46 -178.98 
3584 -186.97 -178.03 -178.98 
3585 -185.44 -178.20 -178.98 
3586 -184.82 -180.26 -178.98 
3587 -184.07 -180.16 -178.98 
3588 -186.58 -180.14 -178.98 
3589 -189.27 -180.08 -178.98 
3590 -185.74 -179.57 -178.98 
3591 -183.95 -180.01 -178.98 
3592 -186.62 -182.02 -178.98 
3593 -185.56 -181.03 -178.98 
3594 -185.11 -181.46 -178.98 
3595 -181.16 -180.91 -178.98 
3596 -186.95 -180.74 -178.98 
3597 -179.96 -182.21 -178.98 
3598 -185.53 -181.94 -178.98 
3599 -184.62 -181.05 -178.98 
3600 -185.27 -180.89 -178.98 
3601 -186.57 -180.42 -178.98 
3602 -185.14 -180.52 -178.98 
3603 -184.41 -181.06 -178.98 
3604 -188.31 -182.30 -178.98 
3605 -185.42 -181.42 -178.98 
3606 -185.55 -179.11 -178.98 
3607 -185.25 -179.64 -178.98 
3608 -183.09 -179.61 -178.98 
3609 -184.24 -181.57 -178.98 
3610 -188.33 -180.82 -178.98 
3611 -188.99 -181.74 -178.98 
3612 -183.30 -181.60 -178.98 
3613 -185.90 -180.35 -178.98 
3614 -184.99 -180.29 -178.98 
3615 -184.63 -179.30 -178.98 
3616 -182.81 -178.47 -178.98 
3617 -187.67 -178.47 -178.98 
3618 -181.46 -180.51 -178.98 
3619 -184.90 -178.53 -178.98 
3620 -183.07 -177.72 -178.98 
3621 -187.44 -177.97 -178.98 
3622 -184.34 -177.92 -178.98 
3623 -184.96 -178.74 -178.98 
3624 -183.95 -179.79 -178.98 
3625 -185.70 -179.32 -178.98 
3626 -185.52 -176.92 -178.98 
3627 -183.36 -179.12 -178.98 
3628 -183.26 -179.66 -178.98 
3629 -185.83 -179.69 -178.98 
3630 -187.31 -180.01 -178.98 
3631 -184.42 -180.23 -178.98 
3632 -184.34 -178.93 -178.98 
3633 -187.50 -179.07 -178.98 
3634 -185.29 -179.16 -178.98 
3635 -182.95 -181.52 -178.98 
3636 -186.02 -180.22 -178.98 
3637 -182.81 -181.12 -178.98 
3638 -183.86 -180.90 -178.98 
3639 -184.58 -180.82 -178.98 
3640 -185.09 -180.79 -178.98 
3641 -185.42 -181.02 -178.98 
3642 -182.88 -179.79 -178.98 
3643 -180.06 -179.92 -178.98 
3644 -189.25 -180.06 -178.98 
3645 -185.65 -178.82 -178.98 
3646 -186.83 -179.94 -178.98 
3647 -184.57 -179.96 -178.98 
3648 -183.04 -178.85 -178.98 
3649 -187.43 -178.93 -178.98 
3650 -184.86 -178.67 -178.98 
3651 -181.73 -179.58 -178.98 
3652 -181.60 -180.70 -178.98 
3653 -186.41 -182.42 -178.98 
3654 -186.10 -178.65 -178.98 
3655 -186.36 -176.56 -178.98 
3656 -185.20 -180.25 -178.98 
3657 -181.46 -178.08 -178.98 
3658 -183.63 -177.75 -178.98 
3659 -188.36 -179.77 -178.98 
3660 -182.49 -179.56 -178.98 
3661 -186.75 -179.80 -178.98 
3662 -186.92 -179.74 -178.98 
3663 -185.84 -180.24 -178.98 
3664 -185.35 -181.75 -178.98 
3665 -186.12 -181.04 -178.98 
3666 -182.04 -181.63 -178.98 
3667 -186.12 -179.06 -178.98 
3668 -182.58 -178.68 -178.98 
3669 -189.19 -179.02 -178.98 
3670 -184.88 -178.89 -178.98 
3671 -181.45 -178.66 -178.98 
3672 -183.98 -178.30 -178.98 
3673 -185.32 -178.97 -178.98 
3674 -185.83 -181.59 -178.98 
3675 -184.92 -179.20 -178.98 
3676 -181.83 -178.58 -178.98 
3677 -186.40 -180.43 -178.98 
3678 -187.62 -178.33 -178.98 
3679 -190.10 -180.79 -178.98 
3680 -187.54 -182.07 -178.98 
3681 -185.59 -181.67 -178.98 
3682 -184.07 -181.53 -178.98 
3683 -185.49 -178.60 -178.98 
3684 -182.12 -178.32 -178.98 
3685 -186.10 -180.03 -178.98 
3686 -182.78 -179.70 -178.98 
3687 -184.86 -180.62 -178.98 
3688 -185.72 -182.02 -178.98 
3689 -188.35 -184.71 -178.98 
3690 -182.66 -180.74 -178.98 
3691 -186.75 -180.80 -178.98 
3692 -184.64 -182.36 -178.98 
3693 -187.17 -183.89 -178.98 
3694 -186.22 -182.33 -178.98 
3695 -184.99 -180.05 -178.98 
3696 -186.46 -183.17 -178.98 
3697 -187.75 -184.96 -178.98 
3698 -184.65 -181.19 -178.98 
3699 -185.06 -180.69 -178.98 
3700 -184.48 -184.44 -178.98 
3701 -183.67 -181.84 -178.98 
3702 -184.99 -182.51 -178.98 
3703 -184.02 -181.58 -178.98 
3704 -181.31 -179.44 -178.98 
3705 -185.46 -183.64 -178.98 
3706 -183.77 -180.83 -178.98 
3707 -184.85 -181.71 -178.98 
3708 -181.64 -177.42 -178.98 
3709 -183.72 -179.01 -178.98 
3710 -179.11 -177.85 -178.98 
3711 -187.52 -177.24 -178.98 
3712 -183.56 -177.27 -178.98 
3713 -182.98 -177.02 -178.98 
3714 -186.84 -178.18 -178.98 
3715 -186.33 -179.76 -178.98 
3716 -184.87 -181.76 -178.98 
3717 -187.20 -178.03 -178.98 
3718 -181.67 -179.78 -178.98 
3719 -187.93 -183.59 -178.98 
3720 -181.69 -185.37 -178.98 
3721 -185.07 -182.76 -178.98 
3722 -181.46 -185.57 -178.98 
3723 -184.42 -183.70 -178.98 
3724 -185.52 -186.76 -178.98 
3725 -185.49 -187.04 -178.98 
3726 -184.60 -188.83 -178.98 
3727 -187.12 -185.02 -178.98 
3728 -186.48 -186.28 -178.98 
3729 -183.33 -190.32 -178.98 
3730 -186.50 -186.44 -178.98 
3731 -186.80 -186.69 -178.98 
3732 -187.47 -187.82 -178.98 
3733 -185.04 -186.60 -178.98 
3734 -186.23 -186.77 -178.98 
3735 -182.64 -187.17 -178.98 
3736 -188.00 -187.86 -178.98 
3737 -189.04 -187.60 -178.98 
3738 -186.38 -185.90 -178.98 
3739 -180.64 -185.52 -178.98 
3740 -184.48 -185.96 -178.98 
3741 -186.98 -187.57 -178.98 
3742 -184.44 -186.12 -178.98 
3743 -184.01 -186.74 -178.98 
3744 -185.00 -184.79 -178.98 
3745 -187.33 -179.16 -178.98 
3746 -186.47 -177.76 -178.98 
3747 -182.87 -177.97 -178.98 
3748 -184.71 -179.25 -178.98 
3749 -188.88 -177.85 -178.98 
3750 -183.39 -177.83 -178.98 
3751 -185.70 -177.84 -178.98 
3752 -185.74 -177.87 -178.98 
3753 -182.71 -178.23 -178.98 
3754 -190.37 -177.15 -178.98 
3755 -185.92 -178.73 -178.98 
3756 -191.73 -179.01 -178.98 
3757 -184.66 -179.35 -178.98 
3758 -184.51 -179.29 -178.98 
3759 -184.33 -179.18 -178.98 
3760 -183.67 -178.93 -178.98 
3761 -183.50 -178.45 -178.98 
3762 -186.67 -178.60 -178.98 
3763 -184.77 -178.59 -178.98 
3764 -186.67 -178.53 -178.98 
3765 -186.24 -178.00 -178.98 
3766 -183.77 -177.89 -178.98 
3767 -185.74 -180.35 -178.98 
3768 -185.29 -178.30 -178.98 
3769 -185.93 -178.68 -178.98 
3770 -183.44 -179.28 -178.98 
3771 -183.97 -180.05 -178.98 
3772 -182.73 -178.17 -178.98 
3773 -190.33 -178.52 -178.98 
3774 -187.29 -178.80 -178.98 
3775 -183.49 -178.88 -178.98 
3776 -183.10 -179.72 -178.98 
3777 -184.66 -179.89 -178.98 
3778 -186.58 -178.86 -178.98 
3779 -185.34 -178.75 -178.98 
3780 -187.15 -177.82 -178.98 
3781 -187.92 -178.13 -178.98 
3782 -187.82 -178.01 -178.98 
3783 -191.28 -177.77 -178.98 
3784 -186.57 -177.87 -178.98 
3785 -182.12 -179.30 -178.98 
3786 -183.89 -178.80 -178.98 
3787 -185.68 -178.84 -178.98 
3788 -186.90 -178.75 -178.98 
3789 -185.51 -179.39 -178.98 
3790 -184.19 -177.49 -178.98 
3791 -187.01 -178.82 -178.98 
3792 -183.55 -178.76 -178.98 
3793 -184.63 -178.08 -178.98 
3794 -184.93 -178.44 -178.98 
3795 -184.52 -178.80 -178.98 
3796 -184.35 -178.65 -178.98 
3797 -185.09 -178.94 -178.98 
3798 -188.17 -178.87 -178.98 
3799 -182.75 -180.20 -178.98 
3800 -187.46 -177.42 -178.98 
3801 -183.82 -179.30 -178.98 
3802 -184.84 -179.35 -178.98 
3803 -187.01 -178.54 -178.98 
3804 -185.61 -179.22 -178.98 
3805 -185.18 -179.14 -178.98 
3806 -188.87 -178.68 -178.98 
3807 -184.76 -178.47 -178.98 
3808 -187.91 -177.79 -178.98 
3809 -184.45 -177.60 -178.98 
3810 -186.61 -177.71 -178.98 
3811 -186.47 -177.94 -178.98 
3812 -188.16 -177.88 -178.98 
3813 -190.26 -178.85 -178.98 
3814 -181.79 -179.10 -178.98 
3815 -182.78 -179.45 -178.98 
3816 -185.79 -178.91 -178.98 
3817 -180.51 -178.59 -178.98 
3818 -183.13 -178.82 -178.98 
3819 -183.62 -178.67 -178.98 
3820 -186.77 -178.68 -178.98 
3821 -186.79 -178.96 -178.98 
3822 -182.54 -177.91 -178.98 
3823 -186.82 -179.59 -178.98 
3824 -187.59 -179.41 -178.98 
3825 -185.20 -182.15 -178.98 
3826 -181.89 -179.99 -178.98 
3827 -189.82 -182.06 -178.98 
3828 -186.79 -179.95 -178.98 
3829 -183.96 -178.16 -178.98 
3830 -177.02 -178.47 -178.98 
3831 -184.69 -178.06 -177.02 
3832 -185.81 -178.45 -177.02 
3833 -183.20 -178.46 -177.02 
3834 -186.46 -178.45 -177.02 
3835 -184.43 -178.79 -177.02 
3836 -184.57 -178.04 -177.02 
3837 -186.40 -178.00 -177.02 
3838 -183.72 -177.80 -177.02 
3839 -186.41 -181.47 -177.02 
3840 -186.23 -185.34 -177.02 
3841 -184.47 -179.76 -177.02 
3842 -186.81 -178.10 -177.02 
3843 -182.39 -177.92 -177.02 
3844 -184.78 -177.40 -177.02 
3845 -185.37 -177.58 -177.02 
3846 -187.32 -178.17 -177.02 
3847 -185.77 -178.19 -177.02 
3848 -189.16 -178.27 -177.02 
3849 -185.33 -178.70 -177.02 
3850 -184.86 -178.63 -177.02 
3851 -186.89 -179.53 -177.02 
3852 -187.06 -179.62 -177.02 
3853 -183.49 -178.88 -177.02 
3854 -183.89 -179.21 -177.02 
3855 -186.55 -179.06 -177.02 
3856 -188.18 -178.70 -177.02 
3857 -183.34 -178.85 -177.02 
3858 -180.24 -179.17 -177.02 
3859 -187.29 -178.63 -177.02 
3860 -187.22 -178.82 -177.02 
3861 -182.69 -178.84 -177.02 
3862 -185.90 -179.32 -177.02 
3863 -182.90 -178.86 -177.02 
3864 -185.48 -179.37 -177.02 
3865 -186.37 -179.59 -177.02 
3866 -187.22 -179.16 -177.02 
3867 -186.28 -179.36 -177.02 
3868 -185.66 -179.14 -177.02 
3869 -183.68 -178.74 -177.02 
3870 -186.02 -178.99 -177.02 
3871 -187.13 -179.03 -177.02 
3872 -187.20 -178.80 -177.02 
3873 -185.29 -178.83 -177.02 
3874 -182.18 -179.16 -177.02 
3875 -184.97 -179.71 -177.02 
3876 -185.54 -179.93 -177.02 
3877 -188.07 -179.46 -177.02 
3878 -184.93 -179.24 -177.02 
3879 -184.15 -179.42 -177.02 
3880 -185.95 -180.18 -177.02 
3881 -183.04 -180.17 -177.02 
3882 -184.35 -180.43 -177.02 
3883 -187.43 -181.16 -177.02 
3884 -183.32 -181.37 -177.02 
3885 -186.81 -182.01 -177.02 
3886 -183.48 -180.10 -177.02 
3887 -185.03 -182.02 -177.02 
3888 -186.34 -181.31 -177.02 
3889 -182.82 -179.59 -177.02 
3890 -183.25 -181.74 -177.02 
3891 -187.88 -179.97 -177.02 
3892 -186.02 -181.85 -177.02 
3893 -187.44 -181.96 -177.02 
3894 -186.43 -181.60 -177.02 
3895 -185.96 -181.49 -177.02 
3896 -184.21 -181.53 -177.02 
3897 -184.04 -181.59 -177.02 
3898 -184.18 -181.54 -177.02 
3899 -185.66 -180.99 -177.02 
3900 -182.20 -179.09 -177.02 
3901 -184.84 -181.10 -177.02 
3902 -182.60 -181.18 -177.02 
3903 -184.96 -181.07 -177.02 
3904 -187.85 -181.63 -177.02 
3905 -183.97 -181.59 -177.02 
3906 -184.55 -181.83 -177.02 
3907 -184.49 -182.01 -177.02 
3908 -186.20 -180.77 -177.02 
3909 -187.74 -181.23 -177.02 
3910 -187.45 -179.53 -177.02 
3911 -187.51 -179.92 -177.02 
3912 -184.81 -179.78 -177.02 
3913 -182.51 -179.52 -177.02 
3914 -180.14 -178.40 -177.02 
3915 -187.44 -179.98 -177.02 
3916 -185.22 -178.22 -177.02 
3917 -183.55 -180.73 -177.02 
3918 -184.36 -180.91 -177.02 
3919 -184.08 -180.83 -177.02 
3920 -184.72 -181.02 -177.02 
3921 -182.47 -182.13 -177.02 
3922 -187.78 -181.56 -177.02 
3923 -184.46 -183.36 -177.02 
3924 -188.80 -181.11 -177.02 
3925 -186.06 -183.36 -177.02 
3926 -184.78 -181.16 -177.02 
3927 -183.51 -183.11 -177.02 
3928 -184.85 -182.60 -177.02 
3929 -186.29 -182.51 -177.02 
3930 -181.95 -182.29 -177.02 
3931 -181.61 -181.75 -177.02 
3932 -183.70 -182.40 -177.02 
3933 -184.24 -181.78 -177.02 
3934 -186.37 -181.22 -177.02 
3935 -183.39 -180.82 -177.02 
3936 -188.74 -180.70 -177.02 
3937 -183.55 -180.76 -177.02 
3938 -185.58 -180.85 -177.02 
3939 -185.94 -181.24 -177.02 
3940 -187.79 -181.35 -177.02 
3941 -183.89 -181.40 -177.02 
3942 -185.77 -179.90 -177.02 
3943 -181.97 -179.91 -177.02 
3944 -185.27 -182.65 -177.02 
3945 -188.77 -183.41 -177.02 
3946 -179.11 -180.40 -177.02 
3947 -184.86 -183.09 -177.02 
3948 -185.96 -182.67 -177.02 
3949 -188.45 -180.97 -177.02 
3950 -184.14 -180.89 -177.02 
3951 -185.36 -181.13 -177.02 
3952 -183.84 -180.93 -177.02 
3953 -184.64 -179.03 -177.02 
3954 -186.70 -179.33 -177.02 
3955 -188.11 -178.80 -177.02 
3956 -185.00 -177.42 -177.02 
3957 -186.49 -179.28 -177.02 
3958 -184.84 -181.31 -177.02 
3959 -188.98 -180.59 -177.02 
3960 -186.32 -178.98 -177.02 
3961 -182.25 -180.18 -177.02 
3962 -184.60 -180.18 -177.02 
3963 -184.68 -182.34 -177.02 
3964 -184.45 -178.50 -177.02 
3965 -184.48 -180.34 -177.02 
3966 -187.05 -180.19 -177.02 
3967 -186.08 -182.00 -177.02 
3968 -184.38 -182.00 -177.02 
3969 -181.40 -182.01 -177.02 
3970 -184.82 -181.12 -177.02 
3971 -186.46 -183.34 -177.02 
3972 -186.24 -183.23 -177.02 
3973 -186.61 -181.49 -177.02 
3974 -182.61 -182.94 -177.02 
3975 -183.91 -183.47 -177.02 
3976 -186.64 -183.70 -177.02 
3977 -188.18 -184.01 -177.02 
3978 -184.85 -181.94 -177.02 
3979 -185.63 -180.53 -177.02 
3980 -184.73 -180.81 -177.02 
3981 -185.16 -180.31 -177.02 
3982 -185.09 -182.36 -177.02 
3983 -185.53 -181.66 -177.02 
3984 -186.81 -181.29 -177.02 
3985 -184.37 -179.51 -177.02 
3986 -184.16 -184.36 -177.02 
3987 -187.39 -180.76 -177.02 
3988 -182.27 -180.77 -177.02 
3989 -184.63 -181.38 -177.02 
3990 -187.54 -179.27 -177.02 
3991 -184.98 -181.02 -177.02 
3992 -185.84 -180.84 -177.02 
3993 -182.66 -181.13 -177.02 
3994 -186.51 -178.85 -177.02 
3995 -185.51 -180.23 -177.02 
3996 -185.11 -181.14 -177.02 
