Iter | Sampling Pol | Evaluation Pol | Best (Sampled) 
   0 -328.51 -533.19 -100000000.00 
   1 -337.32 -501.35 -328.51 
   2 -343.63 -550.37 -328.51 
   3 -344.74 -1033.62 -328.51 
   4 -361.07 -669.82 -328.51 
   5 -390.00 -801.50 -328.51 
   6 -340.70 -541.82 -328.51 
   7 -331.97 -579.66 -328.51 
   8 -348.09 -525.63 -328.51 
   9 -347.79 -512.70 -328.51 
  10 -328.63 -514.00 -328.51 
  11 -328.24 -506.17 -328.51 
  12 -323.38 -493.28 -328.24 
  13 -357.89 -480.98 -323.38 
  14 -336.82 -474.84 -323.38 
  15 -326.27 -470.83 -323.38 
  16 -332.78 -458.74 -323.38 
  17 -337.16 -457.61 -323.38 
  18 -330.69 -466.99 -323.38 
  19 -345.52 -486.27 -323.38 
  20 -347.63 -550.85 -323.38 
  21 -337.00 -453.73 -323.38 
  22 -316.89 -460.25 -323.38 
  23 -317.00 -478.60 -316.89 
  24 -332.43 -598.95 -316.89 
  25 -327.70 -503.61 -316.89 
  26 -322.97 -535.96 -316.89 
  27 -319.02 -646.20 -316.89 
  28 -317.21 -487.33 -316.89 
  29 -317.22 -525.89 -316.89 
  30 -311.44 -582.95 -316.89 
  31 -325.97 -550.48 -311.44 
  32 -314.21 -519.18 -311.44 
  33 -317.90 -502.80 -311.44 
  34 -321.41 -520.72 -311.44 
  35 -320.08 -579.50 -311.44 
  36 -360.43 -610.96 -311.44 
  37 -330.15 -538.70 -311.44 
  38 -320.31 -499.11 -311.44 
  39 -332.30 -485.27 -311.44 
  40 -314.10 -462.78 -311.44 
  41 -309.22 -468.78 -311.44 
  42 -304.42 -447.70 -309.22 
  43 -306.28 -412.37 -304.42 
  44 -310.24 -470.53 -304.42 
  45 -307.85 -417.27 -304.42 
  46 -300.58 -391.60 -304.42 
  47 -318.96 -401.90 -300.58 
  48 -296.56 -422.72 -300.58 
  49 -311.59 -452.25 -296.56 
  50 -330.81 -466.60 -296.56 
  51 -299.94 -450.92 -296.56 
  52 -317.46 -422.03 -296.56 
  53 -301.31 -555.95 -296.56 
  54 -308.30 -631.33 -296.56 
  55 -292.89 -621.57 -296.56 
  56 -312.69 -594.35 -292.89 
  57 -305.16 -651.56 -292.89 
  58 -289.00 -622.25 -292.89 
  59 -289.88 -643.60 -289.00 
  60 -307.30 -619.50 -289.00 
  61 -288.36 -688.40 -289.00 
  62 -296.07 -661.88 -288.36 
  63 -299.64 -597.33 -288.36 
  64 -303.41 -613.22 -288.36 
  65 -297.09 -626.26 -288.36 
  66 -293.18 -620.01 -288.36 
  67 -288.55 -507.52 -288.36 
  68 -292.73 -482.78 -288.36 
  69 -281.20 -505.08 -288.36 
  70 -283.29 -467.12 -281.20 
  71 -277.60 -465.47 -281.20 
  72 -280.79 -454.41 -277.60 
  73 -291.67 -457.20 -277.60 
  74 -283.77 -450.53 -277.60 
  75 -274.18 -467.56 -277.60 
  76 -271.11 -443.78 -274.18 
  77 -276.79 -430.35 -271.11 
  78 -293.17 -441.40 -271.11 
  79 -272.56 -433.30 -271.11 
  80 -270.88 -420.45 -271.11 
  81 -276.43 -412.86 -270.88 
  82 -267.67 -397.69 -270.88 
  83 -274.67 -405.48 -267.67 
  84 -272.15 -409.34 -267.67 
  85 -266.95 -419.90 -267.67 
  86 -275.54 -425.28 -266.95 
  87 -265.57 -419.03 -266.95 
  88 -265.48 -417.15 -265.57 
  89 -265.84 -409.04 -265.48 
  90 -260.11 -392.32 -265.48 
  91 -263.87 -390.46 -260.11 
  92 -259.28 -385.11 -260.11 
  93 -258.67 -370.52 -259.28 
  94 -251.20 -371.76 -258.67 
  95 -256.77 -375.50 -251.20 
  96 -279.14 -378.56 -251.20 
  97 -258.60 -368.42 -251.20 
  98 -269.12 -370.05 -251.20 
  99 -257.62 -351.47 -251.20 
 100 -253.21 -340.63 -251.20 
 101 -276.33 -326.18 -251.20 
 102 -255.68 -330.94 -251.20 
 103 -260.68 -338.90 -251.20 
 104 -252.97 -294.38 -251.20 
 105 -253.21 -275.30 -251.20 
 106 -247.22 -260.57 -251.20 
 107 -249.68 -250.72 -247.22 
 108 -251.82 -237.14 -247.22 
 109 -243.28 -226.32 -247.22 
 110 -245.88 -218.01 -243.28 
 111 -242.93 -214.51 -243.28 
 112 -243.76 -208.28 -242.93 
 113 -239.72 -204.82 -242.93 
 114 -236.12 -206.78 -239.72 
 115 -240.39 -202.57 -236.12 
 116 -235.70 -198.02 -236.12 
 117 -233.83 -200.13 -235.70 
 118 -236.73 -195.02 -233.83 
 119 -231.15 -196.42 -233.83 
 120 -226.85 -191.25 -231.15 
 121 -227.39 -187.01 -226.85 
 122 -223.77 -185.33 -226.85 
 123 -227.49 -186.97 -223.77 
 124 -226.64 -185.47 -223.77 
 125 -221.89 -186.56 -223.77 
 126 -216.25 -185.97 -221.89 
 127 -211.08 -183.67 -216.25 
 128 -214.00 -186.35 -211.08 
 129 -213.19 -185.07 -211.08 
 130 -213.13 -185.29 -211.08 
 131 -210.73 -184.52 -211.08 
 132 -211.64 -185.76 -210.73 
 133 -207.20 -179.58 -210.73 
 134 -202.92 -178.99 -207.20 
 135 -210.38 -179.20 -202.92 
 136 -203.64 -178.28 -202.92 
 137 -196.92 -178.71 -202.92 
 138 -197.98 -177.60 -196.92 
 139 -202.25 -177.97 -196.92 
 140 -195.31 -178.84 -196.92 
 141 -200.42 -178.98 -195.31 
 142 -198.97 -179.88 -195.31 
 143 -193.91 -180.75 -195.31 
 144 -191.41 -180.99 -193.91 
 145 -190.34 -182.48 -191.41 
 146 -189.51 -183.03 -190.34 
 147 -192.31 -182.15 -189.51 
 148 -190.38 -184.03 -189.51 
 149 -184.34 -184.45 -189.51 
 150 -185.12 -183.91 -184.34 
 151 -183.53 -182.93 -184.34 
 152 -183.36 -181.94 -183.53 
 153 -181.26 -175.41 -183.36 
 154 -182.82 -176.95 -181.26 
 155 -182.90 -176.93 -181.26 
 156 -179.08 -174.95 -181.26 
 157 -178.51 -175.52 -179.08 
 158 -176.02 -170.20 -178.51 
 159 -173.25 -171.09 -176.02 
 160 -175.83 -171.09 -173.25 
 161 -173.89 -168.97 -173.25 
 162 -171.62 -166.68 -173.25 
 163 -174.27 -163.82 -171.62 
 164 -169.73 -163.06 -171.62 
 165 -170.88 -163.63 -169.73 
 166 -167.42 -163.86 -169.73 
 167 -168.66 -163.97 -167.42 
 168 -170.60 -162.35 -167.42 
 169 -168.89 -160.48 -167.42 
 170 -166.61 -162.00 -167.42 
 171 -166.78 -160.19 -166.61 
 172 -165.64 -160.10 -166.61 
 173 -167.68 -160.09 -165.64 
 174 -163.40 -160.33 -165.64 
 175 -162.19 -160.66 -163.40 
 176 -164.23 -160.26 -162.19 
 177 -164.60 -161.39 -162.19 
 178 -164.08 -161.38 -162.19 
 179 -163.33 -161.11 -162.19 
 180 -162.54 -161.22 -162.19 
 181 -164.03 -161.46 -162.19 
 182 -162.78 -161.46 -162.19 
 183 -162.09 -162.09 -162.19 
 184 -161.22 -162.28 -162.09 
 185 -161.35 -162.63 -161.22 
 186 -160.79 -162.43 -161.22 
 187 -161.89 -162.68 -160.79 
 188 -160.32 -162.94 -160.79 
 189 -161.61 -162.69 -160.32 
 190 -160.72 -163.16 -160.32 
 191 -160.53 -163.34 -160.32 
 192 -159.75 -163.10 -160.32 
 193 -161.65 -163.19 -159.75 
 194 -159.56 -163.46 -159.75 
 195 -160.13 -163.50 -159.56 
 196 -161.85 -163.44 -159.56 
 197 -163.06 -163.40 -159.56 
 198 -162.12 -163.81 -159.56 
 199 -160.68 -163.75 -159.56 
 200 -161.30 -163.51 -159.56 
 201 -160.91 -163.13 -159.56 
 202 -160.13 -163.03 -159.56 
 203 -160.32 -163.19 -159.56 
 204 -161.23 -162.94 -159.56 
 205 -161.92 -163.16 -159.56 
 206 -160.70 -163.23 -159.56 
 207 -160.48 -162.88 -159.56 
 208 -161.80 -162.48 -159.56 
 209 -159.97 -162.72 -159.56 
 210 -160.02 -162.96 -159.56 
 211 -160.47 -162.48 -159.56 
 212 -160.62 -163.04 -159.56 
 213 -160.19 -162.17 -159.56 
 214 -161.30 -162.29 -159.56 
 215 -159.97 -162.41 -159.56 
 216 -160.70 -162.33 -159.56 
 217 -158.52 -162.36 -159.56 
 218 -158.40 -162.25 -158.52 
 219 -160.69 -162.43 -158.40 
 220 -160.79 -162.55 -158.40 
 221 -160.02 -162.42 -158.40 
 222 -160.80 -162.25 -158.40 
 223 -161.41 -162.03 -158.40 
 224 -159.77 -161.89 -158.40 
 225 -161.35 -161.65 -158.40 
 226 -159.73 -162.02 -158.40 
 227 -160.38 -161.94 -158.40 
 228 -160.87 -162.03 -158.40 
 229 -160.89 -162.23 -158.40 
 230 -160.38 -162.17 -158.40 
 231 -160.29 -162.00 -158.40 
 232 -159.86 -161.76 -158.40 
 233 -160.61 -161.87 -158.40 
 234 -161.52 -161.20 -158.40 
 235 -160.76 -161.51 -158.40 
 236 -160.89 -161.65 -158.40 
 237 -161.99 -161.43 -158.40 
 238 -162.15 -161.92 -158.40 
 239 -158.76 -162.07 -158.40 
 240 -160.85 -161.98 -158.40 
 241 -160.29 -161.91 -158.40 
 242 -160.78 -161.85 -158.40 
 243 -158.93 -161.53 -158.40 
 244 -159.66 -161.16 -158.40 
 245 -160.09 -161.36 -158.40 
 246 -160.94 -161.34 -158.40 
 247 -159.98 -161.14 -158.40 
 248 -160.86 -161.27 -158.40 
 249 -160.63 -160.90 -158.40 
 250 -159.37 -160.75 -158.40 
 251 -161.08 -160.74 -158.40 
 252 -160.27 -160.66 -158.40 
 253 -160.03 -160.88 -158.40 
 254 -161.33 -161.06 -158.40 
 255 -161.08 -161.27 -158.40 
 256 -160.66 -161.92 -158.40 
 257 -160.41 -161.62 -158.40 
 258 -160.45 -161.63 -158.40 
 259 -160.27 -161.37 -158.40 
 260 -159.80 -161.87 -158.40 
 261 -160.79 -162.06 -158.40 
 262 -158.91 -161.73 -158.40 
 263 -159.92 -161.52 -158.40 
 264 -160.03 -161.33 -158.40 
 265 -160.25 -161.18 -158.40 
 266 -159.85 -161.05 -158.40 
 267 -160.42 -161.09 -158.40 
 268 -160.93 -161.09 -158.40 
 269 -159.26 -160.98 -158.40 
 270 -159.42 -160.62 -158.40 
 271 -159.98 -160.64 -158.40 
 272 -161.33 -160.64 -158.40 
 273 -161.54 -161.05 -158.40 
 274 -159.34 -161.20 -158.40 
 275 -160.84 -161.28 -158.40 
 276 -159.65 -161.26 -158.40 
 277 -160.42 -161.45 -158.40 
 278 -159.40 -161.34 -158.40 
 279 -160.23 -161.61 -158.40 
 280 -159.60 -162.20 -158.40 
 281 -160.05 -162.23 -158.40 
 282 -159.86 -162.08 -158.40 
 283 -159.71 -162.28 -158.40 
 284 -159.47 -162.30 -158.40 
 285 -160.61 -162.39 -158.40 
 286 -159.82 -162.20 -158.40 
 287 -159.23 -162.15 -158.40 
 288 -159.54 -162.28 -158.40 
 289 -159.13 -162.71 -158.40 
 290 -160.06 -162.60 -158.40 
 291 -160.04 -162.10 -158.40 
 292 -158.69 -161.49 -158.40 
 293 -159.86 -161.14 -158.40 
 294 -158.49 -161.25 -158.40 
 295 -158.92 -161.21 -158.40 
 296 -160.04 -161.51 -158.40 
 297 -159.68 -161.51 -158.40 
 298 -159.72 -161.43 -158.40 
 299 -160.29 -160.95 -158.40 
 300 -159.65 -160.81 -158.40 
 301 -160.17 -161.12 -158.40 
 302 -158.65 -161.03 -158.40 
 303 -158.65 -160.77 -158.40 
 304 -159.05 -160.38 -158.40 
 305 -158.14 -161.00 -158.40 
 306 -160.46 -160.95 -158.14 
 307 -160.21 -161.05 -158.14 
 308 -158.87 -161.16 -158.14 
 309 -159.97 -161.14 -158.14 
 310 -158.43 -161.17 -158.14 
 311 -159.10 -161.12 -158.14 
 312 -159.42 -160.87 -158.14 
 313 -159.77 -160.62 -158.14 
 314 -158.43 -161.30 -158.14 
 315 -159.73 -161.13 -158.14 
 316 -158.50 -160.50 -158.14 
 317 -158.84 -159.81 -158.14 
 318 -159.70 -159.69 -158.14 
 319 -158.50 -159.39 -158.14 
 320 -159.81 -159.41 -158.14 
 321 -159.93 -159.82 -158.14 
 322 -159.57 -159.19 -158.14 
 323 -159.53 -159.13 -158.14 
 324 -158.91 -158.79 -158.14 
 325 -159.37 -158.63 -158.14 
 326 -158.57 -158.71 -158.14 
 327 -158.49 -158.99 -158.14 
 328 -159.68 -159.18 -158.14 
 329 -160.17 -159.44 -158.14 
 330 -158.67 -159.46 -158.14 
 331 -159.28 -159.90 -158.14 
 332 -159.98 -160.69 -158.14 
 333 -158.85 -160.38 -158.14 
 334 -158.29 -160.46 -158.14 
 335 -159.75 -160.21 -158.14 
 336 -158.68 -159.01 -158.14 
 337 -161.16 -160.46 -158.14 
 338 -158.94 -160.59 -158.14 
 339 -160.30 -160.88 -158.14 
 340 -159.51 -160.86 -158.14 
 341 -159.64 -160.93 -158.14 
 342 -158.93 -160.77 -158.14 
 343 -160.11 -160.71 -158.14 
 344 -159.92 -160.12 -158.14 
 345 -160.67 -160.27 -158.14 
 346 -158.93 -159.58 -158.14 
 347 -160.05 -159.91 -158.14 
 348 -158.53 -159.93 -158.14 
 349 -159.37 -159.35 -158.14 
 350 -160.20 -159.56 -158.14 
 351 -160.02 -159.96 -158.14 
 352 -158.69 -159.28 -158.14 
 353 -158.51 -159.98 -158.14 
 354 -160.30 -159.94 -158.14 
 355 -159.77 -160.12 -158.14 
 356 -159.64 -159.34 -158.14 
 357 -159.38 -158.65 -158.14 
 358 -159.48 -158.89 -158.14 
 359 -159.18 -158.32 -158.14 
 360 -158.92 -158.28 -158.14 
 361 -160.45 -159.19 -158.14 
 362 -158.98 -159.32 -158.14 
 363 -159.53 -159.73 -158.14 
 364 -159.46 -158.45 -158.14 
 365 -159.84 -158.98 -158.14 
 366 -159.98 -159.27 -158.14 
 367 -158.58 -158.22 -158.14 
 368 -159.39 -158.99 -158.14 
 369 -158.84 -158.31 -158.14 
 370 -158.95 -157.16 -158.14 
 371 -159.87 -157.06 -158.14 
 372 -159.04 -156.90 -158.14 
 373 -159.16 -159.17 -158.14 
 374 -159.16 -158.58 -158.14 
 375 -158.30 -157.65 -158.14 
 376 -159.60 -159.73 -158.14 
 377 -158.99 -163.57 -158.14 
 378 -159.18 -164.59 -158.14 
 379 -159.81 -161.72 -158.14 
 380 -157.97 -164.26 -158.14 
 381 -158.41 -164.22 -157.97 
 382 -157.42 -162.14 -157.97 
 383 -157.89 -164.21 -157.42 
 384 -160.93 -160.43 -157.42 
 385 -159.50 -159.33 -157.42 
 386 -159.48 -158.42 -157.42 
 387 -157.94 -158.72 -157.42 
 388 -158.97 -159.12 -157.42 
 389 -158.26 -157.83 -157.42 
 390 -158.59 -157.55 -157.42 
 391 -158.80 -160.96 -157.42 
 392 -158.47 -160.83 -157.42 
 393 -158.76 -156.80 -157.42 
 394 -157.69 -156.38 -157.42 
 395 -156.98 -159.62 -157.42 
 396 -159.56 -161.29 -156.98 
 397 -160.23 -156.47 -156.98 
 398 -158.03 -156.12 -156.98 
 399 -159.02 -157.10 -156.98 
 400 -159.16 -156.30 -156.98 
 401 -158.86 -157.44 -156.98 
 402 -156.90 -159.25 -156.98 
 403 -158.82 -156.27 -156.90 
 404 -157.98 -155.64 -156.90 
 405 -158.40 -155.56 -156.90 
 406 -158.17 -155.27 -156.90 
 407 -158.52 -155.77 -156.90 
 408 -156.89 -154.68 -156.90 
 409 -158.94 -154.76 -156.89 
 410 -159.76 -156.09 -156.89 
 411 -157.81 -156.17 -156.89 
 412 -158.47 -156.43 -156.89 
 413 -157.85 -158.41 -156.89 
 414 -159.04 -158.73 -156.89 
 415 -156.79 -160.07 -156.89 
 416 -157.32 -161.56 -156.79 
 417 -159.29 -162.12 -156.79 
 418 -156.45 -162.11 -156.79 
 419 -158.69 -161.43 -156.45 
 420 -158.51 -161.97 -156.45 
 421 -159.33 -160.83 -156.45 
 422 -158.39 -162.51 -156.45 
 423 -157.41 -161.42 -156.45 
 424 -156.70 -160.56 -156.45 
 425 -159.60 -161.29 -156.45 
 426 -158.19 -162.31 -156.45 
 427 -158.36 -160.54 -156.45 
 428 -158.57 -158.79 -156.45 
 429 -157.09 -160.08 -156.45 
 430 -157.94 -160.90 -156.45 
 431 -158.74 -164.12 -156.45 
 432 -158.72 -163.50 -156.45 
 433 -158.97 -161.04 -156.45 
 434 -157.14 -161.24 -156.45 
 435 -157.07 -161.35 -156.45 
 436 -156.49 -162.39 -156.45 
 437 -158.72 -160.72 -156.45 
 438 -157.57 -161.94 -156.45 
 439 -158.13 -160.94 -156.45 
 440 -156.61 -162.56 -156.45 
 441 -158.16 -162.99 -156.45 
 442 -157.55 -163.44 -156.45 
 443 -157.27 -161.54 -156.45 
 444 -157.88 -158.50 -156.45 
 445 -156.86 -156.80 -156.45 
 446 -156.77 -157.32 -156.45 
 447 -158.22 -157.41 -156.45 
 448 -157.39 -158.94 -156.45 
 449 -156.56 -158.43 -156.45 
 450 -157.65 -158.11 -156.45 
 451 -158.03 -155.82 -156.45 
 452 -157.37 -153.71 -156.45 
 453 -157.18 -153.71 -156.45 
 454 -156.41 -152.34 -156.45 
 455 -155.95 -153.71 -156.41 
 456 -157.17 -151.55 -155.95 
 457 -156.24 -151.41 -155.95 
 458 -156.18 -151.55 -155.95 
 459 -156.75 -151.07 -155.95 
 460 -156.31 -151.88 -155.95 
 461 -156.20 -152.27 -155.95 
 462 -156.74 -151.70 -155.95 
 463 -156.21 -151.19 -155.95 
 464 -155.52 -150.74 -155.95 
 465 -156.37 -150.77 -155.52 
 466 -155.50 -151.43 -155.52 
 467 -156.89 -150.44 -155.50 
 468 -158.10 -150.82 -155.50 
 469 -156.16 -151.31 -155.50 
 470 -156.78 -151.16 -155.50 
 471 -157.40 -151.31 -155.50 
 472 -154.67 -151.21 -155.50 
 473 -158.02 -151.55 -154.67 
 474 -156.48 -151.34 -154.67 
 475 -156.81 -151.62 -154.67 
 476 -154.52 -151.21 -154.67 
 477 -156.41 -150.91 -154.52 
 478 -156.22 -151.00 -154.52 
 479 -156.52 -151.12 -154.52 
 480 -156.46 -151.60 -154.52 
 481 -156.71 -151.68 -154.52 
 482 -156.83 -151.80 -154.52 
 483 -155.61 -151.55 -154.52 
 484 -156.37 -151.36 -154.52 
 485 -155.59 -151.25 -154.52 
 486 -155.02 -151.01 -154.52 
 487 -155.95 -151.08 -154.52 
 488 -155.34 -151.35 -154.52 
 489 -155.03 -151.44 -154.52 
 490 -156.09 -151.08 -154.52 
 491 -155.17 -150.92 -154.52 
 492 -154.90 -150.97 -154.52 
 493 -155.59 -151.27 -154.52 
 494 -154.41 -151.46 -154.52 
 495 -155.82 -151.62 -154.41 
 496 -154.53 -151.45 -154.41 
 497 -154.50 -151.13 -154.41 
 498 -155.01 -151.10 -154.41 
 499 -155.71 -151.14 -154.41 
 500 -156.82 -151.38 -154.41 
 501 -155.86 -151.28 -154.41 
 502 -155.57 -151.27 -154.41 
 503 -155.03 -151.20 -154.41 
 504 -155.44 -151.17 -154.41 
 505 -154.62 -151.20 -154.41 
 506 -153.71 -151.17 -154.41 
 507 -155.12 -151.03 -153.71 
 508 -153.29 -150.79 -153.71 
 509 -154.44 -150.70 -153.29 
 510 -152.92 -150.53 -153.29 
 511 -156.19 -150.82 -152.92 
 512 -154.47 -150.49 -152.92 
 513 -153.57 -150.16 -152.92 
 514 -154.04 -150.40 -152.92 
 515 -154.24 -150.73 -152.92 
 516 -154.52 -151.09 -152.92 
 517 -155.02 -151.18 -152.92 
 518 -153.77 -150.96 -152.92 
 519 -153.94 -150.57 -152.92 
 520 -155.38 -150.90 -152.92 
 521 -154.03 -151.12 -152.92 
 522 -153.65 -150.75 -152.92 
 523 -153.71 -150.51 -152.92 
 524 -153.59 -150.55 -152.92 
 525 -155.52 -150.75 -152.92 
 526 -154.56 -150.66 -152.92 
 527 -152.47 -150.77 -152.92 
 528 -154.88 -150.70 -152.47 
 529 -152.53 -150.72 -152.47 
 530 -153.96 -150.73 -152.47 
 531 -155.26 -150.67 -152.47 
 532 -153.31 -150.53 -152.47 
 533 -154.55 -150.55 -152.47 
 534 -153.83 -150.10 -152.47 
 535 -153.78 -149.90 -152.47 
 536 -153.51 -149.82 -152.47 
 537 -153.43 -149.88 -152.47 
 538 -154.01 -149.86 -152.47 
 539 -154.32 -149.83 -152.47 
 540 -154.01 -150.05 -152.47 
 541 -154.62 -150.06 -152.47 
 542 -153.01 -150.14 -152.47 
 543 -153.94 -150.36 -152.47 
 544 -154.08 -150.44 -152.47 
 545 -153.42 -150.37 -152.47 
 546 -154.77 -150.83 -152.47 
 547 -153.16 -150.59 -152.47 
 548 -153.61 -150.84 -152.47 
 549 -153.66 -150.90 -152.47 
 550 -154.35 -150.94 -152.47 
 551 -152.50 -150.82 -152.47 
 552 -153.52 -150.66 -152.47 
 553 -153.22 -150.44 -152.47 
 554 -152.62 -150.46 -152.47 
 555 -155.02 -150.39 -152.47 
 556 -153.96 -150.27 -152.47 
 557 -153.56 -150.27 -152.47 
 558 -153.73 -150.00 -152.47 
 559 -153.99 -150.34 -152.47 
 560 -153.51 -150.33 -152.47 
 561 -153.68 -150.41 -152.47 
 562 -153.40 -150.44 -152.47 
 563 -153.63 -150.37 -152.47 
 564 -152.07 -150.42 -152.47 
 565 -152.52 -150.36 -152.07 
 566 -151.46 -150.17 -152.07 
 567 -152.91 -150.09 -151.46 
 568 -152.61 -149.89 -151.46 
 569 -153.14 -150.11 -151.46 
 570 -152.80 -149.89 -151.46 
 571 -152.53 -149.48 -151.46 
 572 -153.28 -149.18 -151.46 
 573 -153.15 -148.82 -151.46 
 574 -151.86 -148.50 -151.46 
 575 -153.49 -149.33 -151.46 
 576 -153.26 -149.35 -151.46 
 577 -155.03 -149.88 -151.46 
 578 -152.53 -149.50 -151.46 
 579 -153.59 -148.36 -151.46 
 580 -151.93 -152.07 -151.46 
 581 -154.33 -149.78 -151.46 
 582 -153.19 -149.34 -151.46 
 583 -152.34 -149.54 -151.46 
 584 -153.42 -148.22 -151.46 
 585 -152.94 -149.09 -151.46 
 586 -152.57 -154.37 -151.46 
 587 -153.78 -150.65 -151.46 
 588 -153.69 -148.72 -151.46 
 589 -152.42 -147.94 -151.46 
 590 -152.19 -148.43 -151.46 
 591 -153.93 -148.60 -151.46 
 592 -152.75 -149.13 -151.46 
 593 -153.87 -148.82 -151.46 
 594 -153.11 -148.40 -151.46 
 595 -152.75 -149.02 -151.46 
 596 -153.14 -148.74 -151.46 
 597 -155.14 -148.79 -151.46 
 598 -154.56 -148.73 -151.46 
 599 -153.49 -149.37 -151.46 
 600 -154.29 -152.15 -151.46 
 601 -152.76 -150.28 -151.46 
 602 -153.43 -150.70 -151.46 
 603 -151.34 -150.99 -151.46 
 604 -152.22 -152.09 -151.34 
 605 -153.12 -151.30 -151.34 
 606 -153.16 -152.41 -151.34 
 607 -153.40 -151.18 -151.34 
 608 -153.17 -152.71 -151.34 
 609 -152.59 -151.49 -151.34 
 610 -154.43 -149.91 -151.34 
 611 -153.56 -148.59 -151.34 
 612 -153.16 -148.84 -151.34 
 613 -152.99 -148.71 -151.34 
 614 -152.50 -148.81 -151.34 
 615 -152.71 -148.98 -151.34 
 616 -153.40 -148.77 -151.34 
 617 -153.08 -148.62 -151.34 
 618 -153.18 -150.39 -151.34 
 619 -153.66 -149.54 -151.34 
 620 -153.48 -148.75 -151.34 
 621 -152.72 -148.46 -151.34 
 622 -153.56 -151.00 -151.34 
 623 -152.32 -148.96 -151.34 
 624 -153.14 -149.61 -151.34 
 625 -153.73 -149.32 -151.34 
 626 -153.82 -149.12 -151.34 
 627 -153.22 -148.93 -151.34 
 628 -152.68 -151.22 -151.34 
 629 -152.57 -149.82 -151.34 
 630 -153.18 -152.78 -151.34 
 631 -153.17 -153.14 -151.34 
 632 -151.99 -151.10 -151.34 
 633 -153.12 -153.81 -151.34 
 634 -152.32 -153.97 -151.34 
 635 -152.63 -152.72 -151.34 
 636 -152.03 -152.31 -151.34 
 637 -153.10 -153.19 -151.34 
 638 -152.96 -151.79 -151.34 
 639 -152.15 -148.01 -151.34 
 640 -152.40 -149.29 -151.34 
 641 -152.93 -149.27 -151.34 
 642 -152.33 -148.35 -151.34 
 643 -153.47 -151.95 -151.34 
 644 -151.95 -148.15 -151.34 
 645 -152.94 -148.20 -151.34 
 646 -152.01 -148.28 -151.34 
 647 -152.83 -148.01 -151.34 
 648 -153.06 -148.36 -151.34 
 649 -152.23 -148.10 -151.34 
 650 -153.41 -148.18 -151.34 
 651 -151.89 -147.97 -151.34 
 652 -152.35 -147.64 -151.34 
 653 -152.68 -147.63 -151.34 
 654 -152.04 -147.43 -151.34 
 655 -151.45 -147.56 -151.34 
 656 -151.41 -147.56 -151.34 
 657 -152.35 -147.88 -151.34 
 658 -152.63 -148.08 -151.34 
 659 -151.32 -147.88 -151.34 
 660 -153.20 -147.76 -151.32 
 661 -153.10 -147.66 -151.32 
 662 -152.19 -147.52 -151.32 
 663 -151.95 -147.41 -151.32 
 664 -153.77 -147.47 -151.32 
 665 -153.17 -147.40 -151.32 
 666 -152.96 -147.17 -151.32 
 667 -152.49 -147.35 -151.32 
 668 -152.41 -146.95 -151.32 
 669 -152.18 -148.42 -151.32 
 670 -152.92 -147.39 -151.32 
 671 -153.40 -147.68 -151.32 
 672 -153.00 -148.17 -151.32 
 673 -151.92 -148.21 -151.32 
 674 -152.48 -147.63 -151.32 
 675 -151.62 -147.95 -151.32 
 676 -151.69 -148.15 -151.32 
 677 -151.15 -148.22 -151.32 
 678 -151.26 -147.97 -151.15 
 679 -152.47 -148.44 -151.15 
 680 -151.74 -148.73 -151.15 
 681 -152.34 -148.66 -151.15 
 682 -152.10 -148.55 -151.15 
 683 -151.42 -147.69 -151.15 
 684 -151.96 -148.47 -151.15 
 685 -152.03 -148.43 -151.15 
 686 -152.17 -147.61 -151.15 
 687 -152.79 -147.38 -151.15 
 688 -151.53 -147.59 -151.15 
 689 -152.73 -147.19 -151.15 
 690 -151.84 -147.70 -151.15 
 691 -152.11 -147.82 -151.15 
 692 -151.43 -147.96 -151.15 
 693 -152.82 -148.11 -151.15 
 694 -151.25 -148.06 -151.15 
 695 -151.08 -148.15 -151.15 
 696 -151.64 -148.07 -151.08 
 697 -151.42 -147.93 -151.08 
 698 -151.57 -147.82 -151.08 
 699 -151.28 -147.75 -151.08 
 700 -151.65 -147.55 -151.08 
 701 -153.43 -147.48 -151.08 
 702 -153.08 -147.60 -151.08 
 703 -151.91 -147.75 -151.08 
 704 -151.37 -147.68 -151.08 
 705 -152.35 -147.67 -151.08 
 706 -152.09 -147.54 -151.08 
 707 -151.10 -147.64 -151.08 
 708 -152.38 -147.90 -151.08 
 709 -151.31 -147.76 -151.08 
 710 -151.39 -147.75 -151.08 
 711 -152.05 -147.54 -151.08 
 712 -151.92 -147.57 -151.08 
 713 -153.12 -147.38 -151.08 
 714 -151.76 -147.59 -151.08 
 715 -151.70 -147.60 -151.08 
 716 -151.90 -147.53 -151.08 
 717 -151.79 -147.78 -151.08 
 718 -150.61 -147.71 -151.08 
 719 -151.42 -147.61 -150.61 
 720 -151.03 -147.83 -150.61 
 721 -150.86 -147.62 -150.61 
 722 -150.63 -147.37 -150.61 
 723 -151.05 -147.60 -150.61 
 724 -150.49 -147.31 -150.61 
 725 -151.72 -147.28 -150.49 
 726 -151.26 -147.09 -150.49 
 727 -151.06 -147.43 -150.49 
 728 -151.04 -147.62 -150.49 
 729 -151.34 -147.64 -150.49 
 730 -151.09 -147.66 -150.49 
 731 -150.30 -147.70 -150.49 
 732 -152.00 -147.57 -150.30 
 733 -151.45 -147.51 -150.30 
 734 -151.09 -147.56 -150.30 
 735 -151.38 -147.46 -150.30 
 736 -150.31 -147.66 -150.30 
 737 -151.15 -147.67 -150.30 
 738 -151.14 -147.81 -150.30 
 739 -150.77 -147.57 -150.30 
 740 -150.17 -147.75 -150.30 
 741 -151.77 -147.98 -150.17 
 742 -150.54 -147.81 -150.17 
 743 -150.69 -147.48 -150.17 
 744 -149.41 -147.19 -150.17 
 745 -150.38 -147.24 -149.41 
 746 -151.71 -147.10 -149.41 
 747 -151.33 -146.97 -149.41 
 748 -150.86 -146.74 -149.41 
 749 -149.29 -146.67 -149.41 
 750 -150.61 -146.99 -149.29 
 751 -150.75 -146.95 -149.29 
 752 -151.13 -146.83 -149.29 
 753 -149.88 -146.49 -149.29 
 754 -150.57 -146.42 -149.29 
 755 -151.15 -145.99 -149.29 
 756 -152.04 -146.53 -149.29 
 757 -150.86 -146.63 -149.29 
 758 -150.93 -146.58 -149.29 
 759 -150.55 -146.64 -149.29 
 760 -151.41 -146.82 -149.29 
 761 -151.43 -147.17 -149.29 
 762 -150.98 -146.86 -149.29 
 763 -150.02 -146.81 -149.29 
 764 -150.35 -146.68 -149.29 
 765 -149.74 -146.74 -149.29 
 766 -150.28 -146.65 -149.29 
 767 -150.77 -146.28 -149.29 
 768 -150.31 -146.72 -149.29 
 769 -149.28 -146.26 -149.29 
 770 -150.48 -146.17 -149.28 
 771 -149.54 -146.51 -149.28 
 772 -150.80 -146.82 -149.28 
 773 -150.52 -146.97 -149.28 
 774 -149.90 -146.41 -149.28 
 775 -150.31 -146.60 -149.28 
 776 -149.57 -147.70 -149.28 
 777 -151.44 -147.46 -149.28 
 778 -151.43 -147.88 -149.28 
 779 -150.64 -147.58 -149.28 
 780 -151.77 -147.46 -149.28 
 781 -150.45 -145.73 -149.28 
 782 -148.95 -147.06 -149.28 
 783 -149.89 -147.36 -148.95 
 784 -152.20 -149.63 -148.95 
 785 -150.85 -145.52 -148.95 
 786 -150.58 -146.27 -148.95 
 787 -151.03 -146.88 -148.95 
 788 -149.66 -147.50 -148.95 
 789 -151.51 -148.17 -148.95 
 790 -149.35 -149.77 -148.95 
 791 -150.15 -147.77 -148.95 
 792 -149.63 -147.70 -148.95 
 793 -149.58 -147.59 -148.95 
 794 -151.13 -149.33 -148.95 
 795 -149.84 -147.66 -148.95 
 796 -149.96 -147.14 -148.95 
 797 -151.54 -146.89 -148.95 
 798 -150.63 -146.88 -148.95 
 799 -150.34 -149.06 -148.95 
 800 -150.39 -148.96 -148.95 
 801 -150.04 -148.69 -148.95 
 802 -149.65 -147.46 -148.95 
 803 -150.04 -147.58 -148.95 
 804 -149.25 -144.84 -148.95 
 805 -149.48 -145.90 -148.95 
 806 -150.16 -147.80 -148.95 
 807 -148.67 -146.55 -148.95 
 808 -150.90 -147.86 -148.67 
 809 -150.12 -145.68 -148.67 
 810 -150.28 -145.20 -148.67 
 811 -148.92 -145.76 -148.67 
 812 -149.61 -146.27 -148.67 
 813 -149.43 -145.61 -148.67 
 814 -150.11 -144.89 -148.67 
 815 -149.19 -144.70 -148.67 
 816 -150.18 -145.05 -148.67 
 817 -149.73 -145.08 -148.67 
 818 -150.82 -144.84 -148.67 
 819 -150.44 -146.56 -148.67 
 820 -150.20 -146.36 -148.67 
 821 -149.95 -145.71 -148.67 
 822 -150.58 -146.62 -148.67 
 823 -150.56 -147.64 -148.67 
 824 -149.05 -146.42 -148.67 
 825 -150.59 -149.20 -148.67 
 826 -150.32 -148.55 -148.67 
 827 -150.22 -145.52 -148.67 
 828 -150.89 -144.80 -148.67 
 829 -150.11 -145.18 -148.67 
 830 -150.88 -146.33 -148.67 
 831 -149.84 -147.05 -148.67 
 832 -149.77 -147.93 -148.67 
 833 -150.03 -149.56 -148.67 
 834 -150.79 -146.36 -148.67 
 835 -150.59 -146.50 -148.67 
 836 -149.62 -147.27 -148.67 
 837 -150.27 -145.50 -148.67 
 838 -151.42 -146.62 -148.67 
 839 -149.51 -146.16 -148.67 
 840 -149.83 -145.48 -148.67 
 841 -149.26 -147.55 -148.67 
 842 -149.63 -145.73 -148.67 
 843 -148.88 -145.66 -148.67 
 844 -149.26 -147.10 -148.67 
 845 -149.79 -147.95 -148.67 
 846 -149.99 -145.39 -148.67 
 847 -150.28 -146.38 -148.67 
 848 -149.68 -146.52 -148.67 
 849 -150.13 -147.06 -148.67 
 850 -151.10 -147.55 -148.67 
 851 -150.71 -147.46 -148.67 
 852 -151.74 -146.82 -148.67 
 853 -150.02 -145.88 -148.67 
 854 -151.09 -146.26 -148.67 
 855 -150.45 -147.00 -148.67 
 856 -149.98 -147.42 -148.67 
 857 -149.85 -145.84 -148.67 
 858 -149.45 -149.36 -148.67 
 859 -149.57 -147.95 -148.67 
 860 -151.76 -148.30 -148.67 
 861 -149.62 -148.22 -148.67 
 862 -149.89 -146.10 -148.67 
 863 -149.88 -145.73 -148.67 
 864 -149.74 -148.39 -148.67 
 865 -150.30 -144.99 -148.67 
 866 -150.12 -147.46 -148.67 
 867 -149.57 -147.73 -148.67 
 868 -149.96 -146.64 -148.67 
 869 -150.13 -146.11 -148.67 
 870 -151.62 -145.83 -148.67 
 871 -150.08 -145.88 -148.67 
 872 -149.41 -145.99 -148.67 
 873 -149.71 -148.77 -148.67 
 874 -149.98 -147.91 -148.67 
 875 -148.63 -148.83 -148.67 
 876 -149.46 -146.89 -148.63 
 877 -150.59 -148.04 -148.63 
 878 -149.10 -143.95 -148.63 
 879 -149.50 -146.22 -148.63 
 880 -149.26 -146.51 -148.63 
 881 -151.01 -148.75 -148.63 
 882 -148.13 -146.85 -148.63 
 883 -150.00 -146.68 -148.13 
 884 -149.63 -146.66 -148.13 
 885 -149.70 -146.01 -148.13 
 886 -149.39 -145.82 -148.13 
 887 -150.10 -149.97 -148.13 
 888 -150.60 -148.48 -148.13 
 889 -149.71 -148.57 -148.13 
 890 -150.00 -148.37 -148.13 
 891 -150.53 -148.45 -148.13 
 892 -148.96 -148.82 -148.13 
 893 -150.36 -148.81 -148.13 
 894 -149.81 -149.02 -148.13 
 895 -150.41 -149.10 -148.13 
 896 -148.99 -147.82 -148.13 
 897 -149.80 -149.15 -148.13 
 898 -150.22 -147.97 -148.13 
 899 -149.76 -149.54 -148.13 
 900 -150.13 -149.34 -148.13 
 901 -149.80 -149.32 -148.13 
 902 -149.52 -148.00 -148.13 
 903 -148.90 -147.96 -148.13 
 904 -149.65 -149.23 -148.13 
 905 -148.94 -146.36 -148.13 
 906 -149.80 -149.17 -148.13 
 907 -149.11 -146.63 -148.13 
 908 -148.27 -146.61 -148.13 
 909 -149.82 -146.75 -148.13 
 910 -149.40 -145.25 -148.13 
 911 -150.67 -145.41 -148.13 
 912 -151.74 -146.58 -148.13 
 913 -150.24 -146.51 -148.13 
 914 -150.62 -146.36 -148.13 
 915 -149.42 -147.75 -148.13 
 916 -149.75 -147.72 -148.13 
 917 -149.52 -147.25 -148.13 
 918 -149.84 -147.98 -148.13 
 919 -149.62 -148.76 -148.13 
 920 -150.33 -147.23 -148.13 
 921 -148.70 -147.38 -148.13 
 922 -149.16 -147.63 -148.13 
 923 -151.58 -145.02 -148.13 
 924 -151.14 -145.23 -148.13 
 925 -149.77 -145.65 -148.13 
 926 -149.03 -145.85 -148.13 
 927 -149.50 -145.98 -148.13 
 928 -149.11 -146.27 -148.13 
 929 -149.84 -146.21 -148.13 
 930 -149.70 -146.09 -148.13 
 931 -148.61 -146.02 -148.13 
 932 -150.19 -145.99 -148.13 
 933 -150.02 -145.98 -148.13 
 934 -151.24 -146.06 -148.13 
 935 -148.92 -146.08 -148.13 
 936 -150.03 -146.17 -148.13 
 937 -150.04 -146.13 -148.13 
 938 -150.12 -146.34 -148.13 
 939 -149.97 -146.41 -148.13 
 940 -150.06 -146.28 -148.13 
 941 -149.52 -146.27 -148.13 
 942 -149.85 -146.30 -148.13 
 943 -149.91 -146.25 -148.13 
 944 -150.78 -146.51 -148.13 
 945 -149.74 -146.45 -148.13 
 946 -148.97 -146.31 -148.13 
 947 -148.97 -146.34 -148.13 
 948 -149.70 -146.20 -148.13 
 949 -151.01 -146.41 -148.13 
 950 -150.01 -146.56 -148.13 
 951 -149.39 -146.47 -148.13 
 952 -149.93 -146.57 -148.13 
 953 -148.87 -146.58 -148.13 
 954 -149.69 -146.58 -148.13 
 955 -148.48 -146.76 -148.13 
 956 -150.19 -146.87 -148.13 
 957 -149.25 -146.84 -148.13 
 958 -148.85 -146.73 -148.13 
 959 -149.71 -146.52 -148.13 
 960 -148.73 -146.55 -148.13 
 961 -148.65 -146.67 -148.13 
 962 -149.38 -146.68 -148.13 
 963 -149.74 -146.70 -148.13 
 964 -148.97 -146.60 -148.13 
 965 -150.29 -146.62 -148.13 
 966 -148.47 -146.58 -148.13 
 967 -149.35 -146.61 -148.13 
 968 -149.36 -146.52 -148.13 
 969 -150.34 -146.48 -148.13 
 970 -149.08 -146.43 -148.13 
 971 -149.80 -146.28 -148.13 
 972 -149.57 -146.35 -148.13 
 973 -149.04 -146.23 -148.13 
 974 -149.58 -146.39 -148.13 
 975 -148.49 -146.41 -148.13 
 976 -148.81 -146.35 -148.13 
 977 -148.63 -146.47 -148.13 
 978 -149.05 -146.22 -148.13 
 979 -149.03 -146.26 -148.13 
 980 -149.17 -146.33 -148.13 
 981 -148.73 -146.37 -148.13 
 982 -149.06 -146.30 -148.13 
 983 -150.00 -146.19 -148.13 
 984 -149.68 -146.03 -148.13 
 985 -149.31 -146.07 -148.13 
 986 -150.23 -146.07 -148.13 
 987 -148.65 -146.10 -148.13 
 988 -148.52 -145.95 -148.13 
 989 -149.10 -145.97 -148.13 
 990 -148.66 -145.95 -148.13 
 991 -148.49 -145.90 -148.13 
 992 -149.17 -145.85 -148.13 
 993 -150.52 -145.77 -148.13 
 994 -150.45 -145.68 -148.13 
 995 -148.93 -145.61 -148.13 
 996 -148.28 -145.58 -148.13 
 997 -148.69 -145.69 -148.13 
 998 -148.45 -145.55 -148.13 
 999 -149.00 -145.68 -148.13 
1000 -150.41 -145.80 -148.13 
1001 -149.75 -145.43 -148.13 
1002 -149.37 -145.59 -148.13 
1003 -149.59 -145.49 -148.13 
1004 -149.12 -145.79 -148.13 
1005 -147.42 -145.66 -148.13 
1006 -150.10 -145.55 -147.42 
1007 -148.94 -145.48 -147.42 
1008 -149.38 -145.51 -147.42 
1009 -150.15 -145.60 -147.42 
1010 -149.52 -145.65 -147.42 
1011 -149.31 -145.53 -147.42 
1012 -148.68 -145.49 -147.42 
1013 -148.84 -145.46 -147.42 
1014 -148.13 -145.50 -147.42 
1015 -149.78 -145.57 -147.42 
1016 -148.52 -145.59 -147.42 
1017 -148.57 -145.61 -147.42 
1018 -150.02 -145.49 -147.42 
1019 -149.55 -145.60 -147.42 
1020 -148.64 -145.62 -147.42 
1021 -149.03 -145.54 -147.42 
1022 -149.76 -145.74 -147.42 
1023 -150.24 -145.74 -147.42 
1024 -148.39 -145.57 -147.42 
1025 -148.53 -145.64 -147.42 
1026 -148.29 -145.84 -147.42 
1027 -149.05 -145.64 -147.42 
1028 -147.69 -145.96 -147.42 
1029 -149.41 -146.03 -147.42 
1030 -149.26 -146.12 -147.42 
1031 -148.54 -145.87 -147.42 
1032 -148.03 -145.87 -147.42 
1033 -148.59 -146.03 -147.42 
1034 -148.75 -146.13 -147.42 
1035 -148.95 -146.16 -147.42 
1036 -148.34 -146.03 -147.42 
1037 -149.10 -146.01 -147.42 
1038 -148.95 -145.98 -147.42 
1039 -148.00 -145.84 -147.42 
1040 -149.00 -146.00 -147.42 
1041 -148.37 -145.82 -147.42 
1042 -148.86 -145.84 -147.42 
1043 -148.07 -145.35 -147.42 
1044 -148.31 -145.37 -147.42 
1045 -149.31 -145.19 -147.42 
1046 -147.89 -145.45 -147.42 
1047 -148.91 -145.90 -147.42 
1048 -150.28 -145.74 -147.42 
1049 -148.10 -145.57 -147.42 
1050 -147.87 -145.63 -147.42 
1051 -149.39 -145.58 -147.42 
1052 -149.10 -145.77 -147.42 
1053 -147.93 -145.84 -147.42 
1054 -148.77 -145.94 -147.42 
1055 -147.99 -145.80 -147.42 
1056 -148.99 -145.69 -147.42 
1057 -147.64 -145.63 -147.42 
1058 -148.03 -145.47 -147.42 
1059 -147.62 -145.51 -147.42 
1060 -147.80 -145.58 -147.42 
1061 -150.33 -145.65 -147.42 
1062 -148.45 -145.31 -147.42 
1063 -148.19 -145.41 -147.42 
1064 -148.45 -145.34 -147.42 
1065 -148.60 -145.12 -147.42 
1066 -149.75 -145.06 -147.42 
1067 -147.43 -144.91 -147.42 
1068 -149.46 -145.07 -147.42 
1069 -148.64 -146.27 -147.42 
1070 -148.94 -144.92 -147.42 
1071 -149.58 -144.85 -147.42 
1072 -149.39 -145.01 -147.42 
1073 -149.78 -145.21 -147.42 
1074 -147.52 -145.25 -147.42 
1075 -148.75 -146.70 -147.42 
1076 -150.04 -146.71 -147.42 
1077 -148.87 -147.09 -147.42 
1078 -147.35 -145.60 -147.42 
1079 -148.18 -145.39 -147.35 
1080 -148.84 -145.59 -147.35 
1081 -148.75 -145.61 -147.35 
1082 -147.95 -145.64 -147.35 
1083 -147.35 -145.64 -147.35 
1084 -148.77 -145.63 -147.35 
1085 -147.93 -145.77 -147.35 
1086 -149.10 -145.97 -147.35 
1087 -147.58 -145.93 -147.35 
1088 -147.90 -146.08 -147.35 
1089 -149.89 -146.31 -147.35 
1090 -148.62 -146.42 -147.35 
1091 -148.49 -146.29 -147.35 
1092 -148.59 -146.31 -147.35 
1093 -147.13 -146.43 -147.35 
1094 -148.60 -146.39 -147.13 
1095 -148.05 -146.48 -147.13 
1096 -148.10 -146.15 -147.13 
1097 -147.96 -146.19 -147.13 
1098 -148.32 -146.35 -147.13 
1099 -148.98 -146.40 -147.13 
1100 -148.39 -146.32 -147.13 
1101 -148.75 -146.48 -147.13 
1102 -149.57 -146.47 -147.13 
1103 -149.73 -146.47 -147.13 
1104 -149.79 -146.57 -147.13 
1105 -147.36 -146.50 -147.13 
1106 -148.41 -146.62 -147.13 
1107 -148.20 -146.21 -147.13 
1108 -148.88 -146.31 -147.13 
1109 -148.19 -146.57 -147.13 
1110 -149.63 -146.31 -147.13 
1111 -147.79 -146.31 -147.13 
1112 -147.30 -146.41 -147.13 
1113 -148.63 -146.29 -147.13 
1114 -148.58 -146.15 -147.13 
1115 -149.03 -146.30 -147.13 
1116 -148.18 -146.28 -147.13 
1117 -147.82 -146.06 -147.13 
1118 -148.12 -146.01 -147.13 
1119 -148.13 -146.02 -147.13 
1120 -149.01 -145.90 -147.13 
1121 -148.50 -145.92 -147.13 
1122 -148.65 -145.97 -147.13 
1123 -148.93 -146.31 -147.13 
1124 -148.95 -145.96 -147.13 
1125 -148.51 -145.99 -147.13 
1126 -147.59 -146.03 -147.13 
1127 -148.39 -146.04 -147.13 
1128 -148.38 -145.88 -147.13 
1129 -148.59 -146.01 -147.13 
1130 -146.99 -145.82 -147.13 
1131 -147.38 -146.01 -146.99 
1132 -148.60 -146.11 -146.99 
1133 -148.79 -145.88 -146.99 
1134 -148.41 -145.75 -146.99 
1135 -148.43 -145.76 -146.99 
1136 -148.37 -145.90 -146.99 
1137 -148.45 -145.69 -146.99 
1138 -148.13 -145.69 -146.99 
1139 -148.34 -146.17 -146.99 
1140 -149.68 -146.09 -146.99 
1141 -148.53 -145.76 -146.99 
1142 -148.62 -145.81 -146.99 
1143 -148.39 -145.78 -146.99 
1144 -148.65 -145.94 -146.99 
1145 -148.28 -145.79 -146.99 
1146 -147.38 -145.78 -146.99 
1147 -148.25 -145.57 -146.99 
1148 -148.71 -145.63 -146.99 
1149 -148.20 -145.61 -146.99 
1150 -147.99 -145.66 -146.99 
1151 -149.17 -145.63 -146.99 
1152 -148.61 -145.72 -146.99 
1153 -149.05 -145.81 -146.99 
1154 -147.80 -145.57 -146.99 
1155 -148.47 -145.60 -146.99 
1156 -148.15 -145.33 -146.99 
1157 -148.02 -145.47 -146.99 
1158 -147.83 -145.44 -146.99 
1159 -147.35 -145.30 -146.99 
1160 -147.91 -145.26 -146.99 
1161 -147.87 -145.42 -146.99 
1162 -147.86 -145.10 -146.99 
1163 -148.72 -145.17 -146.99 
1164 -148.07 -145.08 -146.99 
1165 -149.39 -145.23 -146.99 
1166 -147.67 -145.12 -146.99 
1167 -147.68 -145.25 -146.99 
1168 -148.00 -145.28 -146.99 
1169 -149.14 -145.30 -146.99 
1170 -147.19 -145.26 -146.99 
1171 -147.92 -146.49 -146.99 
1172 -148.06 -145.11 -146.99 
1173 -147.69 -145.12 -146.99 
1174 -148.31 -145.27 -146.99 
1175 -148.84 -145.39 -146.99 
1176 -147.28 -145.36 -146.99 
1177 -147.81 -145.28 -146.99 
1178 -147.73 -145.28 -146.99 
1179 -148.91 -145.40 -146.99 
1180 -148.53 -145.46 -146.99 
1181 -147.98 -145.47 -146.99 
1182 -148.20 -145.60 -146.99 
1183 -147.18 -145.66 -146.99 
1184 -147.87 -145.38 -146.99 
1185 -148.66 -145.63 -146.99 
1186 -147.32 -145.48 -146.99 
1187 -148.41 -145.70 -146.99 
1188 -146.97 -145.45 -146.99 
1189 -147.93 -145.65 -146.97 
1190 -148.13 -145.59 -146.97 
1191 -148.84 -145.59 -146.97 
1192 -148.25 -145.73 -146.97 
1193 -147.54 -145.70 -146.97 
1194 -148.56 -145.77 -146.97 
1195 -147.89 -145.86 -146.97 
1196 -148.10 -145.67 -146.97 
1197 -148.35 -145.57 -146.97 
1198 -147.46 -145.20 -146.97 
1199 -148.12 -145.34 -146.97 
1200 -147.85 -146.75 -146.97 
1201 -149.43 -145.48 -146.97 
1202 -147.65 -145.52 -146.97 
1203 -148.54 -145.54 -146.97 
1204 -148.00 -145.65 -146.97 
1205 -148.03 -145.82 -146.97 
1206 -148.00 -145.74 -146.97 
1207 -149.28 -145.85 -146.97 
1208 -148.77 -145.79 -146.97 
1209 -148.58 -145.59 -146.97 
1210 -149.17 -145.82 -146.97 
1211 -147.43 -145.44 -146.97 
1212 -148.11 -145.40 -146.97 
1213 -149.24 -146.84 -146.97 
1214 -148.13 -145.53 -146.97 
1215 -148.01 -145.24 -146.97 
1216 -148.92 -145.32 -146.97 
1217 -149.01 -145.38 -146.97 
1218 -147.24 -145.47 -146.97 
1219 -149.86 -145.43 -146.97 
1220 -149.18 -146.70 -146.97 
1221 -147.88 -146.68 -146.97 
1222 -149.00 -146.91 -146.97 
1223 -149.45 -145.59 -146.97 
1224 -148.31 -145.52 -146.97 
1225 -148.46 -145.67 -146.97 
1226 -148.47 -145.77 -146.97 
1227 -148.76 -145.95 -146.97 
1228 -149.16 -145.97 -146.97 
1229 -148.09 -145.86 -146.97 
1230 -148.28 -145.73 -146.97 
1231 -148.56 -145.75 -146.97 
1232 -147.22 -145.76 -146.97 
1233 -148.91 -145.92 -146.97 
1234 -147.78 -145.99 -146.97 
1235 -147.26 -146.18 -146.97 
1236 -148.70 -145.99 -146.97 
1237 -148.55 -146.05 -146.97 
1238 -148.11 -145.92 -146.97 
1239 -147.75 -145.85 -146.97 
1240 -148.52 -145.85 -146.97 
1241 -148.54 -145.97 -146.97 
1242 -147.93 -145.83 -146.97 
1243 -148.08 -145.82 -146.97 
1244 -147.48 -145.97 -146.97 
1245 -149.18 -146.05 -146.97 
1246 -147.94 -146.04 -146.97 
1247 -148.03 -146.01 -146.97 
1248 -148.28 -146.04 -146.97 
1249 -148.85 -146.11 -146.97 
1250 -148.53 -146.14 -146.97 
1251 -147.45 -146.06 -146.97 
1252 -147.93 -145.99 -146.97 
1253 -147.95 -145.99 -146.97 
1254 -147.99 -146.00 -146.97 
1255 -148.56 -145.93 -146.97 
1256 -147.97 -146.00 -146.97 
1257 -149.25 -145.96 -146.97 
1258 -148.24 -146.08 -146.97 
1259 -148.02 -145.99 -146.97 
1260 -147.75 -146.11 -146.97 
1261 -147.70 -146.16 -146.97 
1262 -148.08 -146.11 -146.97 
1263 -148.48 -146.17 -146.97 
1264 -147.81 -146.12 -146.97 
1265 -147.94 -146.12 -146.97 
1266 -148.37 -146.38 -146.97 
1267 -148.64 -146.30 -146.97 
1268 -147.92 -146.19 -146.97 
1269 -147.94 -146.24 -146.97 
1270 -148.42 -146.17 -146.97 
1271 -148.46 -146.24 -146.97 
1272 -147.83 -146.32 -146.97 
1273 -148.27 -146.25 -146.97 
1274 -149.17 -146.17 -146.97 
1275 -147.95 -146.17 -146.97 
1276 -148.79 -146.24 -146.97 
1277 -148.72 -146.04 -146.97 
1278 -147.97 -145.91 -146.97 
1279 -149.66 -146.09 -146.97 
1280 -148.90 -146.04 -146.97 
1281 -147.76 -146.02 -146.97 
1282 -147.82 -146.07 -146.97 
1283 -147.63 -146.25 -146.97 
1284 -147.80 -146.22 -146.97 
1285 -148.48 -146.08 -146.97 
1286 -149.43 -145.96 -146.97 
1287 -147.91 -146.06 -146.97 
1288 -148.15 -145.99 -146.97 
1289 -148.07 -146.12 -146.97 
1290 -147.94 -146.06 -146.97 
1291 -148.30 -146.07 -146.97 
1292 -148.05 -146.03 -146.97 
1293 -147.39 -145.93 -146.97 
1294 -148.08 -145.86 -146.97 
1295 -147.80 -145.81 -146.97 
1296 -148.12 -145.84 -146.97 
1297 -148.61 -145.75 -146.97 
1298 -147.49 -145.78 -146.97 
1299 -147.78 -145.72 -146.97 
1300 -148.45 -145.87 -146.97 
1301 -148.33 -145.89 -146.97 
1302 -148.05 -145.87 -146.97 
1303 -147.91 -145.89 -146.97 
1304 -147.52 -145.77 -146.97 
1305 -147.87 -145.80 -146.97 
1306 -147.38 -145.74 -146.97 
1307 -147.81 -145.70 -146.97 
1308 -147.53 -145.68 -146.97 
1309 -148.07 -145.64 -146.97 
1310 -148.02 -145.65 -146.97 
1311 -148.96 -145.71 -146.97 
1312 -148.47 -145.58 -146.97 
1313 -148.95 -145.60 -146.97 
1314 -147.93 -145.64 -146.97 
1315 -147.35 -145.61 -146.97 
1316 -148.52 -145.77 -146.97 
1317 -147.82 -145.70 -146.97 
1318 -147.24 -145.68 -146.97 
1319 -148.51 -145.68 -146.97 
1320 -147.74 -146.96 -146.97 
1321 -148.12 -145.44 -146.97 
1322 -147.42 -145.45 -146.97 
1323 -147.68 -145.59 -146.97 
1324 -149.00 -145.71 -146.97 
1325 -148.82 -145.68 -146.97 
1326 -147.99 -145.63 -146.97 
1327 -148.95 -145.56 -146.97 
1328 -147.75 -145.52 -146.97 
1329 -149.64 -145.48 -146.97 
1330 -148.04 -145.55 -146.97 
1331 -148.76 -145.57 -146.97 
1332 -147.61 -145.35 -146.97 
1333 -148.78 -145.46 -146.97 
1334 -149.00 -145.39 -146.97 
1335 -148.21 -145.39 -146.97 
1336 -147.76 -145.30 -146.97 
1337 -147.84 -145.31 -146.97 
1338 -148.42 -145.35 -146.97 
1339 -147.83 -146.81 -146.97 
1340 -148.30 -145.31 -146.97 
1341 -148.30 -145.30 -146.97 
1342 -147.84 -145.35 -146.97 
1343 -148.05 -145.34 -146.97 
1344 -147.41 -145.12 -146.97 
1345 -148.00 -145.18 -146.97 
1346 -147.02 -145.32 -146.97 
1347 -147.59 -145.06 -146.97 
1348 -149.53 -145.47 -146.97 
1349 -147.80 -145.30 -146.97 
1350 -148.44 -145.40 -146.97 
1351 -148.27 -145.42 -146.97 
1352 -147.51 -145.48 -146.97 
1353 -147.45 -145.50 -146.97 
1354 -149.44 -145.48 -146.97 
1355 -148.58 -145.41 -146.97 
1356 -147.58 -145.40 -146.97 
1357 -148.54 -145.40 -146.97 
1358 -148.87 -145.39 -146.97 
1359 -148.35 -145.62 -146.97 
1360 -148.01 -145.58 -146.97 
1361 -147.90 -147.14 -146.97 
1362 -147.98 -145.56 -146.97 
1363 -148.02 -145.50 -146.97 
1364 -148.56 -145.72 -146.97 
1365 -148.11 -145.70 -146.97 
1366 -147.06 -145.52 -146.97 
1367 -147.86 -145.61 -146.97 
1368 -148.32 -145.57 -146.97 
1369 -147.64 -145.56 -146.97 
1370 -148.79 -145.69 -146.97 
1371 -148.82 -145.64 -146.97 
1372 -148.16 -145.71 -146.97 
1373 -147.32 -145.57 -146.97 
1374 -147.60 -145.46 -146.97 
1375 -148.21 -145.65 -146.97 
1376 -148.51 -145.69 -146.97 
1377 -148.52 -145.59 -146.97 
1378 -149.20 -145.74 -146.97 
1379 -148.05 -145.63 -146.97 
1380 -147.86 -145.72 -146.97 
1381 -148.74 -145.71 -146.97 
1382 -149.04 -145.59 -146.97 
1383 -147.57 -145.39 -146.97 
1384 -147.83 -145.35 -146.97 
1385 -147.87 -145.28 -146.97 
1386 -148.32 -146.58 -146.97 
1387 -147.53 -145.11 -146.97 
1388 -147.66 -145.04 -146.97 
1389 -147.97 -144.91 -146.97 
1390 -147.53 -144.77 -146.97 
1391 -147.34 -144.54 -146.97 
1392 -149.00 -144.61 -146.97 
1393 -147.98 -144.68 -146.97 
1394 -148.46 -144.58 -146.97 
1395 -147.84 -144.79 -146.97 
1396 -148.87 -144.83 -146.97 
1397 -148.78 -146.17 -146.97 
1398 -147.37 -146.16 -146.97 
1399 -148.45 -144.81 -146.97 
1400 -148.54 -144.98 -146.97 
1401 -150.08 -145.04 -146.97 
1402 -147.64 -144.84 -146.97 
1403 -148.54 -145.03 -146.97 
1404 -148.12 -145.18 -146.97 
1405 -148.35 -145.01 -146.97 
1406 -148.76 -145.23 -146.97 
1407 -148.39 -144.96 -146.97 
1408 -148.75 -145.00 -146.97 
1409 -148.90 -145.09 -146.97 
1410 -149.20 -145.16 -146.97 
1411 -147.99 -145.19 -146.97 
1412 -148.39 -144.85 -146.97 
1413 -147.91 -144.81 -146.97 
1414 -147.68 -145.00 -146.97 
1415 -148.40 -145.25 -146.97 
1416 -148.43 -145.19 -146.97 
1417 -148.75 -145.02 -146.97 
1418 -148.30 -144.94 -146.97 
1419 -147.88 -144.90 -146.97 
1420 -148.27 -144.92 -146.97 
1421 -148.18 -145.04 -146.97 
1422 -148.65 -145.00 -146.97 
1423 -147.62 -144.87 -146.97 
1424 -148.28 -144.93 -146.97 
1425 -147.71 -144.75 -146.97 
1426 -148.49 -144.61 -146.97 
1427 -148.33 -146.24 -146.97 
1428 -148.74 -144.74 -146.97 
1429 -148.46 -144.76 -146.97 
1430 -149.05 -144.68 -146.97 
1431 -147.61 -144.69 -146.97 
1432 -148.10 -144.69 -146.97 
1433 -147.96 -144.63 -146.97 
1434 -148.46 -144.60 -146.97 
1435 -148.80 -144.75 -146.97 
1436 -147.40 -144.81 -146.97 
1437 -148.46 -144.83 -146.97 
1438 -148.21 -144.97 -146.97 
1439 -148.29 -144.93 -146.97 
1440 -148.72 -144.86 -146.97 
1441 -148.22 -144.73 -146.97 
1442 -148.01 -144.63 -146.97 
1443 -147.79 -144.61 -146.97 
1444 -148.22 -144.75 -146.97 
1445 -147.18 -144.96 -146.97 
1446 -148.74 -145.00 -146.97 
1447 -149.39 -145.23 -146.97 
1448 -147.99 -145.21 -146.97 
1449 -149.21 -145.35 -146.97 
1450 -149.66 -145.72 -146.97 
1451 -147.83 -145.65 -146.97 
1452 -148.44 -145.59 -146.97 
1453 -147.66 -145.77 -146.97 
1454 -147.56 -145.83 -146.97 
1455 -147.65 -145.79 -146.97 
1456 -148.94 -145.70 -146.97 
1457 -147.78 -145.45 -146.97 
1458 -147.31 -145.45 -146.97 
1459 -147.57 -145.40 -146.97 
1460 -147.56 -145.22 -146.97 
1461 -147.66 -145.29 -146.97 
1462 -148.79 -145.27 -146.97 
1463 -146.96 -145.21 -146.97 
1464 -148.57 -145.46 -146.96 
1465 -148.33 -145.55 -146.96 
1466 -148.52 -145.54 -146.96 
1467 -148.60 -145.59 -146.96 
1468 -147.97 -145.54 -146.96 
1469 -147.47 -145.66 -146.96 
1470 -147.77 -145.47 -146.96 
1471 -147.67 -145.33 -146.96 
1472 -147.55 -145.48 -146.96 
1473 -147.94 -145.49 -146.96 
1474 -147.27 -145.42 -146.96 
1475 -146.82 -145.41 -146.96 
1476 -147.75 -145.36 -146.82 
1477 -147.53 -145.29 -146.82 
1478 -147.58 -145.09 -146.82 
1479 -148.55 -145.32 -146.82 
1480 -146.12 -145.18 -146.82 
1481 -147.20 -145.07 -146.12 
1482 -147.30 -145.17 -146.12 
1483 -147.06 -144.89 -146.12 
1484 -147.42 -145.10 -146.12 
1485 -147.51 -145.11 -146.12 
1486 -148.37 -145.11 -146.12 
1487 -147.44 -145.27 -146.12 
1488 -148.37 -145.26 -146.12 
1489 -146.96 -145.10 -146.12 
1490 -148.69 -145.19 -146.12 
1491 -146.14 -144.99 -146.12 
1492 -148.33 -145.24 -146.12 
1493 -148.44 -145.23 -146.12 
1494 -148.10 -145.02 -146.12 
1495 -148.04 -145.20 -146.12 
1496 -148.03 -145.16 -146.12 
1497 -147.59 -145.26 -146.12 
1498 -148.69 -145.13 -146.12 
1499 -147.85 -145.12 -146.12 
1500 -148.39 -145.14 -146.12 
1501 -147.45 -145.19 -146.12 
1502 -147.93 -145.11 -146.12 
1503 -148.02 -145.13 -146.12 
1504 -147.72 -145.12 -146.12 
1505 -147.52 -145.11 -146.12 
1506 -147.21 -145.12 -146.12 
1507 -147.41 -145.03 -146.12 
1508 -148.03 -144.96 -146.12 
1509 -148.21 -145.04 -146.12 
1510 -147.51 -144.95 -146.12 
1511 -148.65 -145.10 -146.12 
1512 -147.46 -145.05 -146.12 
1513 -147.57 -145.12 -146.12 
1514 -147.56 -145.08 -146.12 
1515 -147.20 -145.15 -146.12 
1516 -147.22 -145.13 -146.12 
1517 -147.53 -145.23 -146.12 
1518 -147.41 -145.20 -146.12 
1519 -147.72 -145.18 -146.12 
1520 -147.74 -145.22 -146.12 
1521 -148.06 -145.15 -146.12 
1522 -147.17 -145.12 -146.12 
1523 -146.94 -145.10 -146.12 
1524 -147.32 -145.28 -146.12 
1525 -146.51 -145.10 -146.12 
1526 -147.54 -145.05 -146.12 
1527 -146.78 -144.75 -146.12 
1528 -146.74 -144.85 -146.12 
1529 -147.06 -144.87 -146.12 
1530 -148.23 -144.86 -146.12 
1531 -148.01 -144.82 -146.12 
1532 -148.84 -145.05 -146.12 
1533 -147.64 -145.09 -146.12 
1534 -148.40 -145.20 -146.12 
1535 -147.15 -145.10 -146.12 
1536 -147.09 -145.24 -146.12 
1537 -148.13 -145.16 -146.12 
1538 -147.14 -145.02 -146.12 
1539 -147.35 -145.26 -146.12 
1540 -146.82 -145.16 -146.12 
1541 -147.37 -145.16 -146.12 
1542 -147.78 -145.16 -146.12 
1543 -148.15 -145.10 -146.12 
1544 -147.91 -145.15 -146.12 
1545 -147.58 -145.00 -146.12 
1546 -148.31 -145.13 -146.12 
1547 -147.42 -145.11 -146.12 
1548 -146.86 -145.18 -146.12 
1549 -147.31 -145.21 -146.12 
1550 -147.56 -145.21 -146.12 
1551 -147.16 -145.19 -146.12 
1552 -147.31 -145.25 -146.12 
1553 -148.29 -145.44 -146.12 
1554 -147.58 -145.32 -146.12 
1555 -147.83 -145.35 -146.12 
1556 -147.85 -145.21 -146.12 
1557 -148.88 -145.27 -146.12 
1558 -147.52 -145.22 -146.12 
1559 -148.40 -145.14 -146.12 
1560 -147.28 -145.14 -146.12 
1561 -146.20 -145.04 -146.12 
1562 -147.82 -144.95 -146.12 
1563 -147.12 -145.01 -146.12 
1564 -146.94 -145.00 -146.12 
1565 -146.73 -145.06 -146.12 
1566 -148.90 -144.88 -146.12 
1567 -147.32 -144.79 -146.12 
1568 -147.16 -144.58 -146.12 
1569 -148.63 -144.91 -146.12 
1570 -147.78 -144.96 -146.12 
1571 -146.80 -144.95 -146.12 
1572 -147.12 -144.99 -146.12 
1573 -146.59 -145.14 -146.12 
1574 -147.26 -145.17 -146.12 
1575 -146.31 -145.02 -146.12 
1576 -146.94 -145.10 -146.12 
1577 -147.38 -145.00 -146.12 
1578 -146.79 -145.05 -146.12 
1579 -146.56 -144.75 -146.12 
1580 -147.42 -146.16 -146.12 
1581 -147.60 -144.94 -146.12 
1582 -147.52 -144.77 -146.12 
1583 -147.59 -144.77 -146.12 
1584 -147.70 -144.91 -146.12 
1585 -147.57 -145.06 -146.12 
1586 -146.92 -144.88 -146.12 
1587 -148.67 -144.99 -146.12 
1588 -147.10 -144.97 -146.12 
1589 -147.10 -145.07 -146.12 
1590 -147.63 -144.88 -146.12 
1591 -147.24 -144.87 -146.12 
1592 -147.11 -144.94 -146.12 
1593 -147.26 -144.92 -146.12 
1594 -147.55 -144.95 -146.12 
1595 -147.38 -144.98 -146.12 
1596 -146.48 -145.16 -146.12 
1597 -146.93 -144.86 -146.12 
1598 -146.70 -144.79 -146.12 
1599 -147.66 -144.83 -146.12 
1600 -148.16 -144.86 -146.12 
1601 -146.98 -145.00 -146.12 
1602 -146.77 -145.14 -146.12 
1603 -147.26 -144.84 -146.12 
1604 -147.45 -144.83 -146.12 
1605 -147.93 -145.11 -146.12 
1606 -147.53 -145.09 -146.12 
1607 -147.30 -145.06 -146.12 
1608 -147.18 -145.00 -146.12 
1609 -148.01 -145.16 -146.12 
1610 -147.83 -145.06 -146.12 
1611 -147.41 -145.19 -146.12 
1612 -147.77 -145.06 -146.12 
1613 -146.96 -145.03 -146.12 
1614 -147.12 -145.05 -146.12 
1615 -147.40 -144.90 -146.12 
1616 -146.57 -144.84 -146.12 
1617 -146.46 -144.72 -146.12 
1618 -146.81 -144.78 -146.12 
1619 -147.46 -144.68 -146.12 
1620 -147.80 -144.70 -146.12 
1621 -146.86 -144.72 -146.12 
1622 -147.82 -144.65 -146.12 
1623 -147.73 -144.56 -146.12 
1624 -146.25 -144.53 -146.12 
1625 -147.39 -144.58 -146.12 
1626 -146.97 -144.57 -146.12 
1627 -146.68 -144.31 -146.12 
1628 -147.51 -144.31 -146.12 
1629 -146.88 -144.20 -146.12 
1630 -147.45 -144.20 -146.12 
1631 -147.44 -144.50 -146.12 
1632 -148.35 -144.39 -146.12 
1633 -147.09 -144.23 -146.12 
1634 -148.47 -144.38 -146.12 
1635 -146.79 -144.40 -146.12 
1636 -147.03 -144.34 -146.12 
1637 -148.24 -144.33 -146.12 
1638 -146.71 -144.53 -146.12 
1639 -147.26 -144.47 -146.12 
1640 -146.99 -144.44 -146.12 
1641 -147.46 -144.47 -146.12 
1642 -146.85 -144.42 -146.12 
1643 -146.98 -144.37 -146.12 
1644 -146.59 -144.34 -146.12 
1645 -147.92 -144.34 -146.12 
1646 -147.89 -144.49 -146.12 
1647 -148.41 -144.45 -146.12 
1648 -146.59 -144.28 -146.12 
1649 -146.56 -144.30 -146.12 
1650 -147.59 -144.22 -146.12 
1651 -147.41 -144.36 -146.12 
1652 -147.50 -144.25 -146.12 
1653 -148.30 -144.22 -146.12 
1654 -147.15 -144.24 -146.12 
1655 -146.76 -144.20 -146.12 
1656 -146.76 -144.28 -146.12 
1657 -146.33 -144.27 -146.12 
1658 -147.06 -144.22 -146.12 
1659 -147.01 -144.32 -146.12 
1660 -146.40 -144.33 -146.12 
1661 -146.97 -144.31 -146.12 
1662 -147.92 -144.51 -146.12 
1663 -146.64 -144.50 -146.12 
1664 -147.60 -144.48 -146.12 
1665 -146.98 -144.46 -146.12 
1666 -148.45 -144.31 -146.12 
1667 -147.25 -144.23 -146.12 
1668 -146.41 -144.02 -146.12 
1669 -150.40 -144.06 -146.12 
1670 -147.72 -143.97 -146.12 
1671 -149.97 -144.21 -146.12 
1672 -148.38 -144.21 -146.12 
1673 -147.04 -144.02 -146.12 
1674 -146.89 -144.07 -146.12 
1675 -146.87 -144.03 -146.12 
1676 -147.04 -143.91 -146.12 
1677 -147.85 -145.26 -146.12 
1678 -147.49 -144.00 -146.12 
1679 -148.30 -143.99 -146.12 
1680 -147.53 -144.02 -146.12 
1681 -146.75 -144.20 -146.12 
1682 -147.09 -144.28 -146.12 
1683 -146.98 -144.27 -146.12 
1684 -147.94 -144.29 -146.12 
1685 -147.09 -144.10 -146.12 
1686 -147.09 -144.36 -146.12 
1687 -148.08 -144.34 -146.12 
1688 -146.38 -144.25 -146.12 
1689 -147.02 -144.30 -146.12 
1690 -147.93 -144.50 -146.12 
1691 -147.38 -144.46 -146.12 
1692 -147.33 -144.37 -146.12 
1693 -148.14 -144.37 -146.12 
1694 -147.67 -144.44 -146.12 
1695 -147.45 -144.38 -146.12 
1696 -147.45 -144.28 -146.12 
1697 -146.66 -144.14 -146.12 
1698 -146.18 -144.05 -146.12 
1699 -147.74 -144.04 -146.12 
1700 -146.64 -144.35 -146.12 
1701 -147.37 -144.30 -146.12 
1702 -147.85 -145.69 -146.12 
1703 -146.36 -144.38 -146.12 
1704 -148.10 -144.42 -146.12 
1705 -146.65 -144.06 -146.12 
1706 -146.58 -144.16 -146.12 
1707 -147.09 -144.26 -146.12 
1708 -147.47 -144.25 -146.12 
1709 -147.73 -144.26 -146.12 
1710 -147.83 -144.28 -146.12 
1711 -147.49 -144.23 -146.12 
1712 -147.73 -144.30 -146.12 
1713 -148.38 -144.32 -146.12 
1714 -146.77 -144.16 -146.12 
1715 -146.90 -145.44 -146.12 
1716 -148.48 -146.73 -146.12 
1717 -147.24 -145.28 -146.12 
1718 -147.57 -145.36 -146.12 
1719 -148.68 -145.48 -146.12 
1720 -146.71 -145.40 -146.12 
1721 -147.63 -143.99 -146.12 
1722 -146.68 -144.06 -146.12 
1723 -146.66 -145.47 -146.12 
1724 -146.26 -145.46 -146.12 
1725 -147.36 -145.47 -146.12 
1726 -146.92 -144.16 -146.12 
1727 -146.76 -144.31 -146.12 
1728 -148.06 -144.18 -146.12 
1729 -146.50 -144.01 -146.12 
1730 -147.31 -144.08 -146.12 
1731 -148.86 -144.37 -146.12 
1732 -147.36 -144.18 -146.12 
1733 -147.04 -144.12 -146.12 
1734 -147.75 -144.33 -146.12 
1735 -146.60 -144.04 -146.12 
1736 -147.61 -144.01 -146.12 
1737 -147.65 -144.25 -146.12 
1738 -148.59 -144.18 -146.12 
1739 -147.29 -144.06 -146.12 
1740 -147.38 -146.92 -146.12 
1741 -148.18 -146.95 -146.12 
1742 -146.11 -144.13 -146.12 
1743 -147.78 -146.84 -146.11 
1744 -147.15 -145.46 -146.11 
1745 -147.89 -145.65 -146.11 
1746 -146.99 -144.09 -146.11 
1747 -147.50 -144.03 -146.11 
1748 -147.46 -145.40 -146.11 
1749 -145.89 -143.93 -146.11 
1750 -147.77 -143.99 -145.89 
1751 -148.71 -144.04 -145.89 
1752 -147.79 -144.02 -145.89 
1753 -148.04 -145.26 -145.89 
1754 -147.23 -143.98 -145.89 
1755 -147.17 -144.09 -145.89 
1756 -147.11 -143.92 -145.89 
1757 -147.58 -143.94 -145.89 
1758 -146.15 -143.82 -145.89 
1759 -147.84 -143.93 -145.89 
1760 -146.15 -145.20 -145.89 
1761 -146.30 -145.18 -145.89 
1762 -147.33 -146.49 -145.89 
1763 -147.20 -145.21 -145.89 
1764 -147.32 -143.80 -145.89 
1765 -148.49 -143.95 -145.89 
1766 -147.26 -143.96 -145.89 
1767 -147.80 -143.96 -145.89 
1768 -147.26 -144.06 -145.89 
1769 -148.00 -144.11 -145.89 
1770 -146.37 -144.05 -145.89 
1771 -146.79 -143.88 -145.89 
1772 -147.31 -143.88 -145.89 
1773 -147.56 -144.11 -145.89 
1774 -147.63 -144.12 -145.89 
1775 -146.80 -144.03 -145.89 
1776 -147.74 -145.46 -145.89 
1777 -146.62 -144.03 -145.89 
1778 -146.36 -145.35 -145.89 
1779 -147.09 -143.71 -145.89 
1780 -146.48 -143.92 -145.89 
1781 -146.68 -144.02 -145.89 
1782 -147.74 -144.10 -145.89 
1783 -147.07 -144.21 -145.89 
1784 -147.54 -144.04 -145.89 
1785 -147.48 -144.18 -145.89 
1786 -145.85 -144.38 -145.89 
1787 -146.96 -144.21 -145.85 
1788 -147.62 -144.30 -145.85 
1789 -147.27 -144.13 -145.85 
1790 -147.20 -144.30 -145.85 
1791 -146.76 -144.21 -145.85 
1792 -146.81 -144.14 -145.85 
1793 -146.80 -144.12 -145.85 
1794 -147.92 -144.08 -145.85 
1795 -147.59 -144.13 -145.85 
1796 -148.06 -144.13 -145.85 
1797 -146.34 -143.95 -145.85 
1798 -147.47 -146.63 -145.85 
1799 -146.96 -146.68 -145.85 
1800 -148.47 -144.02 -145.85 
1801 -146.93 -143.95 -145.85 
1802 -147.76 -144.19 -145.85 
1803 -146.80 -144.13 -145.85 
1804 -147.76 -144.18 -145.85 
1805 -146.17 -144.12 -145.85 
1806 -148.18 -145.50 -145.85 
1807 -147.27 -144.37 -145.85 
1808 -147.06 -144.30 -145.85 
1809 -146.37 -145.73 -145.85 
1810 -146.64 -144.21 -145.85 
1811 -146.71 -144.34 -145.85 
1812 -147.03 -144.44 -145.85 
1813 -146.73 -144.40 -145.85 
1814 -147.34 -144.27 -145.85 
1815 -146.13 -144.36 -145.85 
1816 -148.28 -144.47 -145.85 
1817 -145.88 -144.33 -145.85 
1818 -147.67 -144.45 -145.85 
1819 -146.11 -144.22 -145.85 
1820 -147.18 -144.15 -145.85 
1821 -147.32 -143.96 -145.85 
1822 -146.86 -143.97 -145.85 
1823 -146.22 -143.98 -145.85 
1824 -147.16 -143.96 -145.85 
1825 -146.28 -145.34 -145.85 
1826 -147.46 -145.28 -145.85 
1827 -147.42 -144.05 -145.85 
1828 -146.64 -143.91 -145.85 
1829 -147.43 -145.36 -145.85 
1830 -147.94 -148.13 -145.85 
1831 -147.41 -144.27 -145.85 
1832 -147.39 -144.25 -145.85 
1833 -146.98 -144.28 -145.85 
1834 -146.33 -143.99 -145.85 
1835 -146.47 -146.59 -145.85 
1836 -147.64 -145.18 -145.85 
1837 -147.45 -146.69 -145.85 
1838 -146.91 -145.48 -145.85 
1839 -147.53 -144.16 -145.85 
1840 -147.16 -146.65 -145.85 
1841 -146.78 -145.41 -145.85 
1842 -146.73 -145.16 -145.85 
1843 -145.59 -145.07 -145.85 
1844 -148.31 -145.11 -145.59 
1845 -145.90 -145.08 -145.59 
1846 -146.52 -145.15 -145.59 
1847 -146.47 -146.58 -145.59 
1848 -145.81 -145.37 -145.59 
1849 -147.35 -146.58 -145.59 
1850 -147.12 -145.22 -145.59 
1851 -148.29 -146.61 -145.59 
1852 -146.68 -146.64 -145.59 
1853 -147.32 -143.86 -145.59 
1854 -146.77 -146.62 -145.59 
1855 -146.68 -145.24 -145.59 
1856 -146.30 -146.33 -145.59 
1857 -148.98 -146.37 -145.59 
1858 -146.98 -145.31 -145.59 
1859 -146.07 -145.09 -145.59 
1860 -146.33 -147.68 -145.59 
1861 -146.17 -146.14 -145.59 
1862 -146.60 -147.62 -145.59 
1863 -147.78 -146.33 -145.59 
1864 -147.72 -146.35 -145.59 
1865 -146.99 -145.08 -145.59 
1866 -147.85 -143.81 -145.59 
1867 -147.21 -143.89 -145.59 
1868 -147.21 -143.91 -145.59 
1869 -146.81 -143.86 -145.59 
1870 -148.13 -144.19 -145.59 
1871 -147.29 -144.17 -145.59 
1872 -147.22 -144.12 -145.59 
1873 -147.04 -144.10 -145.59 
1874 -146.58 -143.94 -145.59 
1875 -147.04 -144.00 -145.59 
1876 -146.44 -146.39 -145.59 
1877 -147.23 -143.74 -145.59 
1878 -146.34 -143.73 -145.59 
1879 -147.23 -143.77 -145.59 
1880 -146.86 -143.75 -145.59 
1881 -146.89 -143.95 -145.59 
1882 -146.22 -143.96 -145.59 
1883 -146.56 -144.01 -145.59 
1884 -146.23 -143.91 -145.59 
1885 -147.81 -143.84 -145.59 
1886 -147.89 -143.90 -145.59 
1887 -147.10 -143.99 -145.59 
1888 -148.17 -144.29 -145.59 
1889 -146.45 -144.14 -145.59 
1890 -146.09 -144.16 -145.59 
1891 -147.38 -144.15 -145.59 
1892 -147.19 -144.03 -145.59 
1893 -146.87 -144.14 -145.59 
1894 -146.95 -144.19 -145.59 
1895 -146.69 -144.16 -145.59 
1896 -147.25 -144.17 -145.59 
1897 -148.27 -144.04 -145.59 
1898 -145.85 -143.92 -145.59 
1899 -146.96 -145.15 -145.59 
1900 -147.46 -143.76 -145.59 
1901 -147.38 -145.21 -145.59 
1902 -147.61 -143.74 -145.59 
1903 -146.83 -143.83 -145.59 
1904 -147.03 -144.00 -145.59 
1905 -146.64 -143.91 -145.59 
1906 -146.97 -144.00 -145.59 
1907 -147.40 -143.92 -145.59 
1908 -147.09 -143.76 -145.59 
1909 -146.61 -144.97 -145.59 
1910 -147.58 -143.65 -145.59 
1911 -147.69 -143.59 -145.59 
1912 -146.76 -146.37 -145.59 
1913 -146.38 -143.72 -145.59 
1914 -146.02 -145.02 -145.59 
1915 -146.71 -145.04 -145.59 
1916 -146.83 -143.80 -145.59 
1917 -146.69 -143.74 -145.59 
1918 -147.07 -143.73 -145.59 
1919 -147.36 -145.04 -145.59 
1920 -146.25 -143.68 -145.59 
1921 -146.04 -143.63 -145.59 
1922 -146.90 -145.03 -145.59 
1923 -147.61 -143.57 -145.59 
1924 -146.67 -144.93 -145.59 
1925 -148.07 -144.93 -145.59 
1926 -145.98 -144.85 -145.59 
1927 -146.74 -143.55 -145.59 
1928 -146.68 -143.54 -145.59 
1929 -146.67 -143.57 -145.59 
1930 -147.60 -144.85 -145.59 
1931 -147.24 -144.87 -145.59 
1932 -147.43 -143.60 -145.59 
1933 -147.31 -145.03 -145.59 
1934 -146.29 -146.39 -145.59 
1935 -147.29 -145.10 -145.59 
1936 -146.90 -143.62 -145.59 
1937 -147.52 -143.73 -145.59 
1938 -146.67 -143.85 -145.59 
1939 -146.04 -143.72 -145.59 
1940 -147.14 -143.65 -145.59 
1941 -146.41 -144.86 -145.59 
1942 -147.28 -143.57 -145.59 
1943 -147.40 -143.59 -145.59 
1944 -146.42 -145.10 -145.59 
1945 -147.53 -143.78 -145.59 
1946 -146.77 -145.21 -145.59 
1947 -147.08 -143.87 -145.59 
1948 -147.52 -143.75 -145.59 
1949 -145.95 -143.69 -145.59 
1950 -147.37 -143.84 -145.59 
1951 -147.18 -143.70 -145.59 
1952 -146.99 -143.75 -145.59 
1953 -146.20 -143.75 -145.59 
1954 -147.06 -143.67 -145.59 
1955 -147.20 -143.74 -145.59 
1956 -147.86 -143.78 -145.59 
1957 -147.48 -143.82 -145.59 
1958 -146.95 -143.86 -145.59 
1959 -147.25 -143.79 -145.59 
1960 -147.27 -143.78 -145.59 
1961 -146.39 -143.78 -145.59 
1962 -147.43 -143.79 -145.59 
1963 -146.51 -143.85 -145.59 
1964 -147.49 -143.83 -145.59 
1965 -147.93 -143.93 -145.59 
1966 -147.82 -144.08 -145.59 
1967 -146.65 -144.10 -145.59 
1968 -148.46 -144.09 -145.59 
1969 -147.67 -144.12 -145.59 
1970 -146.60 -144.13 -145.59 
1971 -146.34 -144.07 -145.59 
1972 -146.63 -144.09 -145.59 
1973 -146.09 -143.93 -145.59 
1974 -147.99 -144.00 -145.59 
1975 -146.58 -143.92 -145.59 
1976 -148.01 -144.06 -145.59 
1977 -146.34 -143.76 -145.59 
1978 -147.36 -145.12 -145.59 
1979 -146.94 -143.81 -145.59 
1980 -147.60 -143.82 -145.59 
1981 -147.44 -143.61 -145.59 
1982 -147.22 -143.61 -145.59 
1983 -146.40 -143.24 -145.59 
1984 -146.47 -143.24 -145.59 
1985 -147.19 -143.55 -145.59 
1986 -145.94 -143.54 -145.59 
1987 -148.13 -143.59 -145.59 
1988 -146.84 -143.52 -145.59 
1989 -148.35 -143.74 -145.59 
1990 -147.48 -143.72 -145.59 
1991 -146.37 -143.72 -145.59 
1992 -145.42 -143.74 -145.59 
1993 -147.11 -143.83 -145.42 
1994 -148.74 -143.87 -145.42 
1995 -147.00 -144.01 -145.42 
1996 -146.82 -143.94 -145.42 
1997 -146.58 -144.08 -145.42 
1998 -146.95 -143.89 -145.42 
1999 -148.09 -143.95 -145.42 
2000 -147.50 -144.00 -145.42 
2001 -146.58 -143.91 -145.42 
2002 -146.82 -143.92 -145.42 
2003 -147.41 -144.06 -145.42 
2004 -147.03 -143.89 -145.42 
2005 -146.57 -143.94 -145.42 
2006 -147.35 -143.98 -145.42 
2007 -146.29 -143.89 -145.42 
2008 -146.64 -143.84 -145.42 
2009 -146.89 -143.85 -145.42 
2010 -146.61 -143.84 -145.42 
2011 -146.79 -143.81 -145.42 
2012 -147.17 -143.74 -145.42 
2013 -146.97 -143.80 -145.42 
2014 -147.36 -145.35 -145.42 
2015 -146.27 -143.81 -145.42 
2016 -146.18 -143.87 -145.42 
2017 -147.51 -144.02 -145.42 
2018 -146.78 -143.96 -145.42 
2019 -146.82 -143.99 -145.42 
2020 -147.67 -144.08 -145.42 
2021 -147.20 -144.13 -145.42 
2022 -146.72 -144.11 -145.42 
2023 -146.88 -144.16 -145.42 
2024 -147.43 -144.16 -145.42 
2025 -147.71 -144.09 -145.42 
2026 -146.85 -144.09 -145.42 
2027 -146.84 -144.02 -145.42 
2028 -146.66 -144.03 -145.42 
2029 -147.93 -144.17 -145.42 
2030 -146.98 -144.15 -145.42 
2031 -148.70 -144.17 -145.42 
2032 -146.04 -144.14 -145.42 
2033 -146.51 -144.06 -145.42 
2034 -147.16 -144.14 -145.42 
2035 -146.49 -144.13 -145.42 
2036 -147.18 -144.15 -145.42 
2037 -146.91 -144.06 -145.42 
2038 -147.31 -143.95 -145.42 
2039 -147.08 -143.94 -145.42 
2040 -146.59 -143.91 -145.42 
2041 -145.48 -143.87 -145.42 
2042 -145.66 -143.83 -145.42 
2043 -147.45 -143.86 -145.42 
2044 -146.56 -143.66 -145.42 
2045 -147.40 -143.74 -145.42 
2046 -146.65 -143.72 -145.42 
2047 -146.29 -143.74 -145.42 
2048 -147.11 -143.94 -145.42 
2049 -146.57 -143.76 -145.42 
2050 -146.25 -143.91 -145.42 
2051 -146.24 -145.12 -145.42 
2052 -146.63 -143.97 -145.42 
2053 -146.93 -143.85 -145.42 
2054 -146.09 -145.10 -145.42 
2055 -147.64 -145.09 -145.42 
2056 -146.49 -145.12 -145.42 
2057 -146.06 -145.18 -145.42 
2058 -146.54 -145.14 -145.42 
2059 -146.15 -143.73 -145.42 
2060 -147.00 -145.15 -145.42 
2061 -146.01 -143.71 -145.42 
2062 -147.11 -144.99 -145.42 
2063 -145.17 -143.68 -145.42 
2064 -146.96 -143.56 -145.17 
2065 -147.80 -143.64 -145.17 
2066 -147.18 -143.76 -145.17 
2067 -146.99 -143.62 -145.17 
2068 -147.11 -143.58 -145.17 
2069 -146.90 -143.73 -145.17 
2070 -145.60 -143.72 -145.17 
2071 -146.22 -143.78 -145.17 
2072 -146.24 -143.80 -145.17 
2073 -147.45 -143.79 -145.17 
2074 -146.74 -143.77 -145.17 
2075 -146.99 -143.83 -145.17 
2076 -146.66 -143.74 -145.17 
2077 -146.12 -143.76 -145.17 
2078 -146.07 -143.61 -145.17 
2079 -146.73 -143.80 -145.17 
2080 -146.32 -143.70 -145.17 
2081 -146.42 -145.17 -145.17 
2082 -146.82 -145.09 -145.17 
2083 -146.01 -145.07 -145.17 
2084 -146.49 -143.66 -145.17 
2085 -146.93 -143.64 -145.17 
2086 -147.00 -143.83 -145.17 
2087 -146.83 -143.86 -145.17 
2088 -146.56 -143.88 -145.17 
2089 -146.21 -143.79 -145.17 
2090 -146.51 -143.92 -145.17 
2091 -147.15 -143.86 -145.17 
2092 -146.78 -143.99 -145.17 
2093 -146.30 -143.85 -145.17 
2094 -147.79 -144.07 -145.17 
2095 -146.53 -144.09 -145.17 
2096 -146.44 -144.07 -145.17 
2097 -147.21 -144.10 -145.17 
2098 -146.80 -144.16 -145.17 
2099 -146.94 -144.13 -145.17 
2100 -147.63 -144.00 -145.17 
2101 -147.05 -144.01 -145.17 
2102 -147.04 -143.96 -145.17 
2103 -146.52 -143.93 -145.17 
2104 -146.39 -144.03 -145.17 
2105 -146.22 -144.04 -145.17 
2106 -146.34 -143.99 -145.17 
2107 -147.12 -144.05 -145.17 
2108 -146.22 -144.04 -145.17 
2109 -145.94 -143.94 -145.17 
2110 -146.53 -143.92 -145.17 
2111 -146.05 -143.94 -145.17 
2112 -147.04 -144.05 -145.17 
2113 -147.23 -144.07 -145.17 
2114 -147.33 -143.90 -145.17 
2115 -146.51 -143.80 -145.17 
2116 -146.35 -143.75 -145.17 
2117 -147.43 -143.68 -145.17 
2118 -146.16 -143.57 -145.17 
2119 -146.36 -146.44 -145.17 
2120 -146.22 -143.76 -145.17 
2121 -146.38 -143.77 -145.17 
2122 -147.13 -145.16 -145.17 
2123 -146.40 -144.99 -145.17 
2124 -146.36 -143.47 -145.17 
2125 -147.13 -145.00 -145.17 
2126 -147.24 -145.02 -145.17 
2127 -146.75 -143.58 -145.17 
2128 -145.98 -143.56 -145.17 
2129 -146.32 -144.85 -145.17 
2130 -146.88 -146.26 -145.17 
2131 -146.94 -144.99 -145.17 
2132 -147.33 -145.00 -145.17 
2133 -145.63 -143.55 -145.17 
2134 -146.77 -143.71 -145.17 
2135 -146.26 -143.91 -145.17 
2136 -146.61 -143.68 -145.17 
2137 -147.32 -143.71 -145.17 
2138 -147.36 -144.03 -145.17 
2139 -147.18 -143.87 -145.17 
2140 -147.46 -144.02 -145.17 
2141 -146.06 -143.96 -145.17 
2142 -146.83 -143.96 -145.17 
2143 -147.54 -144.02 -145.17 
2144 -146.81 -143.96 -145.17 
2145 -146.99 -144.09 -145.17 
2146 -146.50 -143.88 -145.17 
2147 -147.06 -143.86 -145.17 
2148 -146.23 -144.01 -145.17 
2149 -146.37 -145.32 -145.17 
2150 -147.07 -145.41 -145.17 
2151 -146.35 -145.35 -145.17 
2152 -145.93 -144.10 -145.17 
2153 -146.17 -144.12 -145.17 
2154 -146.24 -145.49 -145.17 
2155 -145.33 -145.30 -145.17 
2156 -147.02 -145.25 -145.17 
2157 -146.77 -143.88 -145.17 
2158 -147.67 -143.85 -145.17 
2159 -147.65 -143.82 -145.17 
2160 -146.39 -143.68 -145.17 
2161 -145.94 -143.84 -145.17 
2162 -146.31 -143.59 -145.17 
2163 -145.25 -143.57 -145.17 
2164 -146.71 -143.66 -145.17 
2165 -147.19 -143.69 -145.17 
2166 -146.34 -143.74 -145.17 
2167 -146.63 -143.82 -145.17 
2168 -146.31 -143.42 -145.17 
2169 -146.45 -144.71 -145.17 
2170 -147.00 -144.57 -145.17 
2171 -146.14 -146.06 -145.17 
2172 -147.35 -146.04 -145.17 
2173 -145.81 -147.41 -145.17 
2174 -145.72 -143.43 -145.17 
2175 -146.20 -143.29 -145.17 
2176 -147.36 -146.15 -145.17 
2177 -146.18 -143.35 -145.17 
2178 -146.53 -144.71 -145.17 
2179 -147.32 -144.79 -145.17 
2180 -145.71 -144.73 -145.17 
2181 -146.98 -143.41 -145.17 
2182 -146.78 -144.78 -145.17 
2183 -147.44 -143.50 -145.17 
2184 -147.32 -143.60 -145.17 
2185 -146.64 -143.77 -145.17 
2186 -146.02 -143.90 -145.17 
2187 -146.46 -143.92 -145.17 
2188 -146.45 -143.71 -145.17 
2189 -146.55 -143.64 -145.17 
2190 -146.25 -145.08 -145.17 
2191 -146.38 -143.89 -145.17 
2192 -145.35 -143.76 -145.17 
2193 -146.12 -143.74 -145.17 
2194 -146.56 -143.77 -145.17 
2195 -146.34 -143.85 -145.17 
2196 -147.08 -143.68 -145.17 
2197 -146.55 -143.80 -145.17 
2198 -148.32 -145.01 -145.17 
2199 -146.48 -145.08 -145.17 
2200 -146.19 -143.71 -145.17 
2201 -146.66 -145.14 -145.17 
2202 -146.69 -143.71 -145.17 
2203 -146.15 -145.22 -145.17 
2204 -146.55 -143.81 -145.17 
2205 -146.69 -143.98 -145.17 
2206 -146.76 -144.01 -145.17 
2207 -147.16 -143.99 -145.17 
2208 -146.99 -143.90 -145.17 
2209 -146.45 -144.03 -145.17 
2210 -145.98 -144.01 -145.17 
2211 -147.03 -144.00 -145.17 
2212 -146.68 -143.95 -145.17 
2213 -146.83 -143.92 -145.17 
2214 -145.97 -144.09 -145.17 
2215 -145.91 -144.06 -145.17 
2216 -146.81 -145.24 -145.17 
2217 -145.69 -145.29 -145.17 
2218 -147.18 -145.25 -145.17 
2219 -146.42 -145.13 -145.17 
2220 -147.35 -143.93 -145.17 
2221 -147.07 -143.74 -145.17 
2222 -146.38 -143.51 -145.17 
2223 -146.56 -143.66 -145.17 
2224 -146.80 -143.52 -145.17 
2225 -146.26 -143.48 -145.17 
2226 -146.01 -144.89 -145.17 
2227 -146.83 -143.78 -145.17 
2228 -146.30 -143.64 -145.17 
2229 -145.86 -145.25 -145.17 
2230 -147.01 -143.69 -145.17 
2231 -145.79 -145.05 -145.17 
2232 -146.38 -143.99 -145.17 
2233 -146.55 -143.62 -145.17 
2234 -146.77 -145.16 -145.17 
2235 -146.04 -143.76 -145.17 
2236 -148.67 -143.81 -145.17 
2237 -147.17 -144.00 -145.17 
2238 -146.79 -143.96 -145.17 
2239 -146.44 -143.98 -145.17 
2240 -147.08 -144.13 -145.17 
2241 -146.53 -144.20 -145.17 
2242 -146.71 -144.23 -145.17 
2243 -146.83 -145.42 -145.17 
2244 -147.10 -145.30 -145.17 
2245 -145.90 -145.33 -145.17 
2246 -145.91 -143.85 -145.17 
2247 -146.80 -143.88 -145.17 
2248 -146.89 -143.80 -145.17 
2249 -146.97 -143.79 -145.17 
2250 -146.70 -145.18 -145.17 
2251 -146.11 -143.98 -145.17 
2252 -145.96 -143.77 -145.17 
2253 -146.40 -143.77 -145.17 
2254 -146.25 -145.00 -145.17 
2255 -147.09 -143.81 -145.17 
2256 -147.01 -143.79 -145.17 
2257 -146.08 -143.82 -145.17 
2258 -146.24 -143.67 -145.17 
2259 -146.17 -143.66 -145.17 
2260 -147.86 -143.74 -145.17 
2261 -146.41 -143.90 -145.17 
2262 -146.80 -147.83 -145.17 
2263 -146.28 -146.36 -145.17 
2264 -146.76 -146.34 -145.17 
2265 -145.99 -146.36 -145.17 
2266 -147.91 -143.35 -145.17 
2267 -145.41 -144.74 -145.17 
2268 -145.17 -144.66 -145.17 
2269 -147.69 -143.19 -145.17 
2270 -146.03 -143.33 -145.17 
2271 -146.77 -143.21 -145.17 
2272 -146.71 -143.29 -145.17 
2273 -145.94 -143.33 -145.17 
2274 -146.95 -143.40 -145.17 
2275 -145.25 -144.79 -145.17 
2276 -146.67 -143.52 -145.17 
2277 -146.11 -143.50 -145.17 
2278 -146.72 -143.51 -145.17 
2279 -145.96 -143.47 -145.17 
2280 -145.96 -143.52 -145.17 
2281 -147.21 -145.06 -145.17 
2282 -146.03 -144.96 -145.17 
2283 -146.76 -145.04 -145.17 
2284 -146.38 -143.61 -145.17 
2285 -146.15 -143.74 -145.17 
2286 -145.79 -143.65 -145.17 
2287 -147.31 -143.71 -145.17 
2288 -145.65 -143.74 -145.17 
2289 -146.70 -143.60 -145.17 
2290 -145.79 -143.47 -145.17 
2291 -147.17 -143.56 -145.17 
2292 -145.54 -143.47 -145.17 
2293 -146.42 -143.47 -145.17 
2294 -146.49 -143.36 -145.17 
2295 -145.87 -143.37 -145.17 
2296 -145.85 -143.30 -145.17 
2297 -147.22 -143.30 -145.17 
2298 -147.19 -145.03 -145.17 
2299 -146.14 -144.82 -145.17 
2300 -146.65 -143.65 -145.17 
2301 -147.40 -145.09 -145.17 
2302 -146.46 -145.07 -145.17 
2303 -146.02 -143.86 -145.17 
2304 -146.50 -143.77 -145.17 
2305 -146.46 -143.93 -145.17 
2306 -146.96 -144.11 -145.17 
2307 -146.61 -144.10 -145.17 
2308 -146.88 -144.31 -145.17 
2309 -145.68 -144.32 -145.17 
2310 -145.77 -144.28 -145.17 
2311 -146.32 -144.11 -145.17 
2312 -146.54 -144.15 -145.17 
2313 -146.39 -144.18 -145.17 
2314 -145.70 -144.08 -145.17 
2315 -145.77 -144.01 -145.17 
2316 -146.97 -143.96 -145.17 
2317 -146.29 -144.05 -145.17 
2318 -148.05 -143.90 -145.17 
2319 -147.02 -144.00 -145.17 
2320 -146.53 -144.03 -145.17 
2321 -146.67 -144.01 -145.17 
2322 -146.63 -144.05 -145.17 
2323 -146.31 -143.88 -145.17 
2324 -146.32 -144.02 -145.17 
2325 -146.33 -143.93 -145.17 
2326 -145.39 -144.07 -145.17 
2327 -146.79 -144.22 -145.17 
2328 -146.02 -143.99 -145.17 
2329 -147.47 -144.14 -145.17 
2330 -146.08 -144.13 -145.17 
2331 -145.71 -144.16 -145.17 
2332 -146.04 -144.03 -145.17 
2333 -147.49 -144.04 -145.17 
2334 -147.03 -144.10 -145.17 
2335 -146.23 -144.18 -145.17 
2336 -145.56 -144.17 -145.17 
2337 -146.45 -144.27 -145.17 
2338 -145.77 -144.20 -145.17 
2339 -146.63 -144.09 -145.17 
2340 -146.18 -144.03 -145.17 
2341 -145.10 -143.92 -145.17 
2342 -146.37 -143.99 -145.10 
2343 -146.78 -144.18 -145.10 
2344 -146.82 -144.07 -145.10 
2345 -146.84 -144.13 -145.10 
2346 -147.06 -144.05 -145.10 
2347 -146.42 -144.02 -145.10 
2348 -146.58 -143.95 -145.10 
2349 -145.88 -143.94 -145.10 
2350 -146.19 -143.88 -145.10 
2351 -146.32 -143.89 -145.10 
2352 -147.01 -143.82 -145.10 
2353 -145.98 -143.73 -145.10 
2354 -145.99 -143.87 -145.10 
2355 -146.25 -143.94 -145.10 
2356 -146.95 -143.87 -145.10 
2357 -146.18 -143.81 -145.10 
2358 -145.73 -143.95 -145.10 
2359 -146.71 -143.87 -145.10 
2360 -145.64 -143.97 -145.10 
2361 -146.36 -144.06 -145.10 
2362 -146.40 -144.03 -145.10 
2363 -146.46 -144.01 -145.10 
2364 -146.15 -144.31 -145.10 
2365 -147.15 -144.34 -145.10 
2366 -145.28 -144.25 -145.10 
2367 -146.67 -144.35 -145.10 
2368 -145.61 -144.40 -145.10 
2369 -146.56 -144.34 -145.10 
2370 -145.78 -144.21 -145.10 
2371 -145.60 -144.13 -145.10 
2372 -146.56 -144.18 -145.10 
2373 -146.25 -144.01 -145.10 
2374 -147.12 -144.13 -145.10 
2375 -146.56 -144.03 -145.10 
2376 -147.09 -143.95 -145.10 
2377 -145.49 -143.82 -145.10 
2378 -146.68 -143.85 -145.10 
2379 -147.25 -143.97 -145.10 
2380 -146.35 -144.00 -145.10 
2381 -145.51 -143.89 -145.10 
2382 -146.08 -143.76 -145.10 
2383 -146.43 -143.90 -145.10 
2384 -145.95 -143.83 -145.10 
2385 -146.08 -143.87 -145.10 
2386 -146.38 -143.97 -145.10 
2387 -146.54 -143.91 -145.10 
2388 -146.69 -144.12 -145.10 
2389 -146.66 -144.20 -145.10 
2390 -146.10 -144.25 -145.10 
2391 -146.77 -144.07 -145.10 
2392 -146.10 -143.87 -145.10 
2393 -146.14 -143.92 -145.10 
2394 -147.63 -143.89 -145.10 
2395 -146.59 -143.86 -145.10 
2396 -146.09 -143.79 -145.10 
2397 -146.31 -144.03 -145.10 
2398 -145.81 -143.89 -145.10 
2399 -145.74 -143.91 -145.10 
2400 -146.54 -143.94 -145.10 
2401 -146.80 -143.85 -145.10 
2402 -145.01 -143.84 -145.10 
2403 -145.99 -143.76 -145.01 
2404 -146.82 -143.72 -145.01 
2405 -146.23 -143.71 -145.01 
2406 -146.28 -143.59 -145.01 
2407 -146.74 -143.68 -145.01 
2408 -146.10 -143.58 -145.01 
2409 -146.46 -143.43 -145.01 
2410 -146.97 -143.67 -145.01 
2411 -147.37 -143.70 -145.01 
2412 -145.48 -143.72 -145.01 
2413 -146.29 -143.60 -145.01 
2414 -145.71 -143.82 -145.01 
2415 -146.45 -143.56 -145.01 
2416 -145.54 -143.62 -145.01 
2417 -146.23 -143.54 -145.01 
2418 -146.54 -143.82 -145.01 
2419 -145.71 -143.68 -145.01 
2420 -146.89 -143.73 -145.01 
2421 -147.18 -143.85 -145.01 
2422 -146.74 -143.82 -145.01 
2423 -146.88 -143.85 -145.01 
2424 -146.47 -143.77 -145.01 
2425 -145.58 -143.74 -145.01 
2426 -146.21 -143.80 -145.01 
2427 -147.55 -143.80 -145.01 
2428 -145.91 -143.83 -145.01 
2429 -145.51 -143.84 -145.01 
2430 -146.32 -143.93 -145.01 
2431 -147.28 -143.85 -145.01 
2432 -146.35 -143.93 -145.01 
2433 -145.61 -143.81 -145.01 
2434 -145.84 -143.90 -145.01 
2435 -146.05 -143.88 -145.01 
2436 -146.64 -143.99 -145.01 
2437 -145.17 -143.77 -145.01 
2438 -146.88 -143.80 -145.01 
2439 -147.40 -143.75 -145.01 
2440 -145.71 -143.57 -145.01 
2441 -147.97 -144.01 -145.01 
2442 -145.90 -143.88 -145.01 
2443 -145.83 -144.05 -145.01 
2444 -147.04 -143.93 -145.01 
2445 -146.57 -143.94 -145.01 
2446 -145.58 -143.87 -145.01 
2447 -146.18 -143.71 -145.01 
2448 -147.58 -143.77 -145.01 
2449 -146.87 -143.84 -145.01 
2450 -146.14 -143.83 -145.01 
2451 -146.77 -143.94 -145.01 
2452 -145.82 -144.08 -145.01 
2453 -147.61 -144.12 -145.01 
2454 -146.25 -144.08 -145.01 
2455 -146.62 -144.09 -145.01 
2456 -146.27 -143.99 -145.01 
2457 -146.38 -143.99 -145.01 
2458 -147.13 -144.03 -145.01 
2459 -146.35 -143.94 -145.01 
2460 -145.24 -144.02 -145.01 
2461 -146.14 -143.91 -145.01 
2462 -146.02 -143.93 -145.01 
2463 -146.55 -144.07 -145.01 
2464 -146.64 -144.05 -145.01 
2465 -147.72 -144.13 -145.01 
2466 -146.92 -144.13 -145.01 
2467 -146.88 -144.09 -145.01 
2468 -145.44 -144.03 -145.01 
2469 -146.73 -143.95 -145.01 
2470 -145.67 -143.86 -145.01 
2471 -145.70 -143.78 -145.01 
2472 -144.91 -143.63 -145.01 
2473 -146.29 -143.60 -144.91 
2474 -146.41 -143.70 -144.91 
2475 -146.64 -143.60 -144.91 
2476 -145.86 -143.57 -144.91 
2477 -146.29 -143.71 -144.91 
2478 -146.74 -143.69 -144.91 
2479 -145.43 -143.61 -144.91 
2480 -146.39 -143.68 -144.91 
2481 -145.24 -143.63 -144.91 
2482 -146.39 -143.55 -144.91 
2483 -145.51 -143.67 -144.91 
2484 -146.49 -143.62 -144.91 
2485 -146.59 -143.57 -144.91 
2486 -146.03 -143.63 -144.91 
2487 -146.39 -143.66 -144.91 
2488 -146.74 -143.73 -144.91 
2489 -146.18 -143.82 -144.91 
2490 -146.79 -143.72 -144.91 
2491 -146.59 -143.71 -144.91 
2492 -146.57 -143.69 -144.91 
2493 -146.44 -143.70 -144.91 
2494 -145.46 -143.71 -144.91 
2495 -145.78 -143.44 -144.91 
2496 -147.19 -143.55 -144.91 
2497 -146.72 -143.74 -144.91 
2498 -146.24 -143.65 -144.91 
2499 -145.30 -143.59 -144.91 
2500 -146.11 -143.69 -144.91 
2501 -145.72 -143.61 -144.91 
2502 -145.04 -143.59 -144.91 
2503 -145.62 -143.70 -144.91 
2504 -146.17 -143.74 -144.91 
2505 -146.53 -143.91 -144.91 
2506 -146.21 -143.87 -144.91 
2507 -145.57 -143.67 -144.91 
2508 -146.53 -143.71 -144.91 
2509 -146.06 -143.78 -144.91 
2510 -146.23 -143.69 -144.91 
2511 -146.77 -143.69 -144.91 
2512 -146.19 -143.79 -144.91 
2513 -146.11 -143.83 -144.91 
2514 -145.90 -143.73 -144.91 
2515 -146.26 -143.82 -144.91 
2516 -146.52 -143.81 -144.91 
2517 -145.77 -143.83 -144.91 
2518 -144.55 -143.73 -144.91 
2519 -146.00 -143.79 -144.55 
2520 -146.53 -143.77 -144.55 
2521 -146.32 -143.81 -144.55 
2522 -145.32 -143.85 -144.55 
2523 -147.37 -143.85 -144.55 
2524 -145.81 -143.82 -144.55 
2525 -146.59 -143.86 -144.55 
2526 -145.58 -143.90 -144.55 
2527 -145.70 -143.65 -144.55 
2528 -146.37 -143.99 -144.55 
2529 -146.72 -143.91 -144.55 
2530 -145.26 -143.80 -144.55 
2531 -146.37 -143.76 -144.55 
2532 -145.88 -143.84 -144.55 
2533 -145.78 -143.78 -144.55 
2534 -146.05 -143.88 -144.55 
2535 -145.84 -143.64 -144.55 
2536 -146.32 -143.41 -144.55 
2537 -146.03 -143.50 -144.55 
2538 -145.33 -143.52 -144.55 
2539 -146.38 -143.53 -144.55 
2540 -147.32 -143.56 -144.55 
2541 -146.05 -143.60 -144.55 
2542 -147.13 -143.53 -144.55 
2543 -145.53 -143.45 -144.55 
2544 -146.33 -143.56 -144.55 
2545 -145.73 -143.55 -144.55 
2546 -146.93 -143.61 -144.55 
2547 -146.85 -144.99 -144.55 
2548 -146.34 -143.60 -144.55 
2549 -146.30 -143.59 -144.55 
2550 -146.02 -143.55 -144.55 
2551 -145.92 -143.65 -144.55 
2552 -146.64 -143.67 -144.55 
2553 -146.60 -143.57 -144.55 
2554 -146.70 -143.82 -144.55 
2555 -145.33 -143.53 -144.55 
2556 -146.37 -143.54 -144.55 
2557 -146.67 -143.46 -144.55 
2558 -145.58 -143.59 -144.55 
2559 -146.83 -143.64 -144.55 
2560 -145.83 -143.66 -144.55 
2561 -146.24 -143.71 -144.55 
2562 -146.56 -143.77 -144.55 
2563 -146.23 -143.86 -144.55 
2564 -146.45 -143.95 -144.55 
2565 -146.15 -144.03 -144.55 
2566 -145.29 -143.95 -144.55 
2567 -146.54 -143.89 -144.55 
2568 -146.14 -143.89 -144.55 
2569 -146.86 -143.91 -144.55 
2570 -146.09 -143.89 -144.55 
2571 -146.17 -143.83 -144.55 
2572 -145.98 -143.67 -144.55 
2573 -146.16 -143.73 -144.55 
2574 -145.23 -143.64 -144.55 
2575 -146.52 -143.52 -144.55 
2576 -146.09 -143.45 -144.55 
2577 -147.27 -143.45 -144.55 
2578 -145.16 -143.27 -144.55 
2579 -146.72 -143.47 -144.55 
2580 -146.30 -143.68 -144.55 
2581 -146.59 -143.78 -144.55 
2582 -146.70 -143.59 -144.55 
2583 -146.73 -145.18 -144.55 
2584 -145.66 -143.55 -144.55 
2585 -146.31 -143.46 -144.55 
2586 -146.23 -143.66 -144.55 
2587 -146.67 -143.42 -144.55 
2588 -145.63 -143.51 -144.55 
2589 -146.23 -143.43 -144.55 
2590 -146.12 -143.31 -144.55 
2591 -148.13 -143.54 -144.55 
2592 -146.36 -143.62 -144.55 
2593 -146.24 -143.70 -144.55 
2594 -146.14 -143.63 -144.55 
2595 -147.18 -143.59 -144.55 
2596 -145.80 -143.45 -144.55 
2597 -147.67 -143.43 -144.55 
2598 -146.68 -143.45 -144.55 
2599 -146.60 -143.66 -144.55 
2600 -147.00 -143.66 -144.55 
2601 -146.43 -143.75 -144.55 
2602 -146.65 -143.70 -144.55 
2603 -146.45 -143.69 -144.55 
2604 -146.55 -143.61 -144.55 
2605 -145.10 -143.35 -144.55 
2606 -145.98 -143.59 -144.55 
2607 -145.70 -143.50 -144.55 
2608 -144.93 -143.46 -144.55 
2609 -147.53 -143.59 -144.55 
2610 -145.01 -143.45 -144.55 
2611 -145.87 -143.76 -144.55 
2612 -145.54 -143.38 -144.55 
2613 -146.15 -143.48 -144.55 
2614 -145.90 -143.45 -144.55 
2615 -145.92 -143.24 -144.55 
2616 -146.18 -143.43 -144.55 
2617 -146.88 -143.50 -144.55 
2618 -145.01 -143.53 -144.55 
2619 -145.98 -143.36 -144.55 
2620 -146.56 -143.16 -144.55 
2621 -146.88 -143.24 -144.55 
2622 -145.34 -143.46 -144.55 
2623 -146.26 -143.40 -144.55 
2624 -145.75 -143.46 -144.55 
2625 -146.09 -143.44 -144.55 
2626 -147.06 -143.37 -144.55 
2627 -144.79 -143.18 -144.55 
2628 -146.75 -142.94 -144.55 
2629 -145.61 -143.06 -144.55 
2630 -145.64 -142.91 -144.55 
2631 -146.20 -142.84 -144.55 
2632 -146.46 -143.03 -144.55 
2633 -146.85 -143.09 -144.55 
2634 -146.41 -143.02 -144.55 
2635 -145.85 -143.04 -144.55 
2636 -145.56 -143.06 -144.55 
2637 -145.36 -142.93 -144.55 
2638 -144.74 -142.93 -144.55 
2639 -145.53 -142.87 -144.55 
2640 -146.29 -142.86 -144.55 
2641 -146.18 -142.69 -144.55 
2642 -145.75 -142.70 -144.55 
2643 -147.18 -142.88 -144.55 
2644 -145.80 -142.92 -144.55 
2645 -145.12 -142.89 -144.55 
2646 -145.40 -142.84 -144.55 
2647 -146.82 -143.07 -144.55 
2648 -146.07 -142.91 -144.55 
2649 -145.87 -143.01 -144.55 
2650 -145.60 -143.09 -144.55 
2651 -145.45 -143.09 -144.55 
2652 -147.18 -143.23 -144.55 
2653 -146.36 -143.08 -144.55 
2654 -145.52 -142.93 -144.55 
2655 -145.32 -142.89 -144.55 
2656 -147.15 -144.16 -144.55 
2657 -145.38 -144.23 -144.55 
2658 -146.12 -144.21 -144.55 
2659 -145.70 -142.76 -144.55 
2660 -145.68 -144.37 -144.55 
2661 -146.32 -143.01 -144.55 
2662 -145.35 -142.94 -144.55 
2663 -145.03 -142.79 -144.55 
2664 -146.65 -142.93 -144.55 
2665 -145.36 -142.89 -144.55 
2666 -145.79 -142.93 -144.55 
2667 -146.07 -142.67 -144.55 
2668 -146.10 -142.84 -144.55 
2669 -146.69 -142.94 -144.55 
2670 -145.46 -142.79 -144.55 
2671 -145.98 -142.74 -144.55 
2672 -146.38 -142.84 -144.55 
2673 -146.12 -142.89 -144.55 
2674 -145.84 -142.89 -144.55 
2675 -145.91 -142.89 -144.55 
2676 -146.35 -142.84 -144.55 
2677 -146.48 -142.93 -144.55 
2678 -145.62 -142.80 -144.55 
2679 -147.38 -142.96 -144.55 
2680 -146.45 -143.03 -144.55 
2681 -147.00 -143.30 -144.55 
2682 -145.29 -143.26 -144.55 
2683 -145.98 -143.30 -144.55 
2684 -146.35 -143.26 -144.55 
2685 -145.65 -143.10 -144.55 
2686 -146.38 -143.24 -144.55 
2687 -145.36 -143.16 -144.55 
2688 -146.28 -143.19 -144.55 
2689 -146.09 -143.06 -144.55 
2690 -147.51 -143.28 -144.55 
2691 -145.85 -143.05 -144.55 
2692 -145.61 -143.01 -144.55 
2693 -145.03 -143.12 -144.55 
2694 -146.04 -143.06 -144.55 
2695 -146.16 -143.25 -144.55 
2696 -145.84 -143.24 -144.55 
2697 -146.34 -143.12 -144.55 
2698 -146.69 -143.15 -144.55 
2699 -144.75 -143.30 -144.55 
2700 -145.94 -144.52 -144.55 
2701 -145.98 -143.16 -144.55 
2702 -146.81 -144.53 -144.55 
2703 -145.48 -143.17 -144.55 
2704 -144.78 -143.21 -144.55 
2705 -146.62 -143.20 -144.55 
2706 -145.46 -143.07 -144.55 
2707 -146.40 -143.10 -144.55 
2708 -145.62 -143.16 -144.55 
2709 -146.84 -152.75 -144.55 
2710 -145.40 -143.02 -144.55 
2711 -147.75 -143.07 -144.55 
2712 -145.56 -143.22 -144.55 
2713 -145.57 -143.05 -144.55 
2714 -146.80 -143.05 -144.55 
2715 -146.94 -143.10 -144.55 
2716 -146.61 -143.18 -144.55 
2717 -146.02 -142.95 -144.55 
2718 -145.23 -143.06 -144.55 
2719 -146.15 -143.02 -144.55 
2720 -146.03 -143.06 -144.55 
2721 -146.29 -143.35 -144.55 
2722 -145.89 -143.18 -144.55 
2723 -146.66 -143.37 -144.55 
2724 -145.48 -143.20 -144.55 
2725 -145.85 -143.13 -144.55 
2726 -145.71 -143.34 -144.55 
2727 -146.21 -143.31 -144.55 
2728 -145.05 -144.54 -144.55 
2729 -146.27 -143.46 -144.55 
2730 -146.00 -143.50 -144.55 
2731 -145.84 -143.48 -144.55 
2732 -146.82 -143.53 -144.55 
2733 -146.90 -143.47 -144.55 
2734 -146.32 -143.18 -144.55 
2735 -146.77 -143.25 -144.55 
2736 -144.99 -143.26 -144.55 
2737 -146.91 -143.35 -144.55 
2738 -145.83 -143.32 -144.55 
2739 -146.22 -143.32 -144.55 
2740 -144.83 -143.30 -144.55 
2741 -145.56 -143.19 -144.55 
2742 -145.16 -143.29 -144.55 
2743 -144.96 -143.15 -144.55 
2744 -146.29 -143.20 -144.55 
2745 -145.65 -143.38 -144.55 
2746 -145.68 -143.20 -144.55 
2747 -146.25 -144.64 -144.55 
2748 -145.54 -143.18 -144.55 
2749 -145.44 -143.22 -144.55 
2750 -146.44 -144.13 -144.55 
2751 -146.72 -143.08 -144.55 
2752 -146.16 -143.14 -144.55 
2753 -146.25 -143.15 -144.55 
2754 -144.65 -143.09 -144.55 
2755 -146.40 -143.02 -144.55 
2756 -147.40 -142.98 -144.55 
2757 -145.25 -143.03 -144.55 
2758 -146.35 -143.03 -144.55 
2759 -145.46 -143.09 -144.55 
2760 -145.85 -143.03 -144.55 
2761 -145.88 -143.06 -144.55 
2762 -146.40 -143.05 -144.55 
2763 -145.71 -143.14 -144.55 
2764 -145.40 -143.22 -144.55 
2765 -144.70 -143.02 -144.55 
2766 -145.98 -143.08 -144.55 
2767 -146.50 -143.24 -144.55 
2768 -146.38 -143.17 -144.55 
2769 -145.23 -143.23 -144.55 
2770 -147.01 -143.21 -144.55 
2771 -146.02 -143.19 -144.55 
2772 -145.26 -143.20 -144.55 
2773 -146.32 -143.19 -144.55 
2774 -145.93 -143.12 -144.55 
2775 -146.22 -143.26 -144.55 
2776 -145.97 -143.37 -144.55 
2777 -146.05 -143.16 -144.55 
2778 -145.87 -143.31 -144.55 
2779 -145.55 -143.22 -144.55 
2780 -145.18 -143.00 -144.55 
2781 -145.55 -143.10 -144.55 
2782 -145.31 -142.89 -144.55 
2783 -146.52 -143.06 -144.55 
2784 -145.21 -142.80 -144.55 
2785 -146.86 -142.78 -144.55 
2786 -145.20 -142.87 -144.55 
2787 -146.48 -142.84 -144.55 
2788 -145.57 -143.09 -144.55 
2789 -145.03 -142.80 -144.55 
2790 -145.39 -142.75 -144.55 
2791 -147.29 -142.82 -144.55 
2792 -145.96 -142.80 -144.55 
2793 -146.47 -142.95 -144.55 
2794 -144.91 -142.92 -144.55 
2795 -144.98 -142.88 -144.55 
2796 -145.86 -142.82 -144.55 
2797 -145.55 -142.80 -144.55 
2798 -145.44 -142.82 -144.55 
2799 -146.27 -142.70 -144.55 
2800 -145.55 -142.93 -144.55 
2801 -145.20 -143.17 -144.55 
2802 -146.05 -143.13 -144.55 
2803 -145.33 -143.08 -144.55 
2804 -145.76 -143.15 -144.55 
2805 -145.81 -143.12 -144.55 
2806 -145.55 -143.12 -144.55 
2807 -146.23 -143.02 -144.55 
2808 -145.29 -142.73 -144.55 
2809 -145.91 -142.80 -144.55 
2810 -145.09 -142.93 -144.55 
2811 -146.26 -142.97 -144.55 
2812 -145.72 -142.98 -144.55 
2813 -145.05 -142.89 -144.55 
2814 -147.35 -142.99 -144.55 
2815 -145.17 -142.83 -144.55 
2816 -146.67 -142.90 -144.55 
2817 -145.71 -142.98 -144.55 
2818 -146.13 -142.78 -144.55 
2819 -145.45 -142.84 -144.55 
2820 -146.10 -142.84 -144.55 
2821 -145.96 -142.75 -144.55 
2822 -145.93 -142.87 -144.55 
2823 -146.86 -144.34 -144.55 
2824 -145.30 -142.91 -144.55 
2825 -145.87 -142.85 -144.55 
2826 -145.93 -142.88 -144.55 
2827 -145.38 -142.90 -144.55 
2828 -146.21 -142.86 -144.55 
2829 -145.43 -144.28 -144.55 
2830 -146.37 -144.39 -144.55 
2831 -146.13 -142.93 -144.55 
2832 -145.92 -142.80 -144.55 
2833 -145.57 -142.90 -144.55 
2834 -145.64 -142.95 -144.55 
2835 -145.84 -142.86 -144.55 
2836 -146.73 -142.91 -144.55 
2837 -146.76 -142.95 -144.55 
2838 -145.39 -142.90 -144.55 
2839 -145.13 -142.94 -144.55 
2840 -144.67 -142.91 -144.55 
2841 -145.88 -142.99 -144.55 
2842 -146.04 -143.06 -144.55 
2843 -145.52 -142.89 -144.55 
2844 -145.19 -142.98 -144.55 
2845 -144.74 -142.97 -144.55 
2846 -146.76 -143.02 -144.55 
2847 -145.68 -142.93 -144.55 
2848 -145.96 -143.00 -144.55 
2849 -145.40 -142.95 -144.55 
2850 -145.62 -142.83 -144.55 
2851 -145.42 -142.80 -144.55 
2852 -145.52 -142.91 -144.55 
2853 -145.97 -142.92 -144.55 
2854 -145.47 -142.97 -144.55 
2855 -145.66 -142.99 -144.55 
2856 -145.37 -142.95 -144.55 
2857 -145.83 -142.90 -144.55 
2858 -145.48 -142.86 -144.55 
2859 -146.10 -142.77 -144.55 
2860 -145.11 -142.73 -144.55 
2861 -146.23 -144.08 -144.55 
2862 -145.84 -143.93 -144.55 
2863 -146.00 -144.04 -144.55 
2864 -146.27 -144.01 -144.55 
2865 -146.32 -143.93 -144.55 
2866 -146.46 -142.66 -144.55 
2867 -145.97 -142.65 -144.55 
2868 -145.30 -142.78 -144.55 
2869 -145.93 -142.71 -144.55 
2870 -146.36 -142.85 -144.55 
2871 -145.69 -142.83 -144.55 
2872 -146.26 -142.87 -144.55 
2873 -145.68 -142.91 -144.55 
2874 -144.80 -142.94 -144.55 
2875 -145.48 -142.83 -144.55 
2876 -145.57 -142.76 -144.55 
2877 -145.34 -142.72 -144.55 
2878 -145.56 -142.84 -144.55 
2879 -145.37 -142.78 -144.55 
2880 -145.84 -142.76 -144.55 
2881 -145.02 -142.67 -144.55 
2882 -145.72 -142.67 -144.55 
2883 -145.85 -142.57 -144.55 
2884 -145.63 -142.60 -144.55 
2885 -146.47 -144.03 -144.55 
2886 -145.91 -144.01 -144.55 
2887 -145.04 -143.97 -144.55 
2888 -145.84 -142.54 -144.55 
2889 -146.84 -142.63 -144.55 
2890 -145.97 -142.61 -144.55 
2891 -145.57 -142.70 -144.55 
2892 -145.24 -142.66 -144.55 
2893 -144.83 -142.65 -144.55 
2894 -145.44 -142.63 -144.55 
2895 -145.48 -142.56 -144.55 
2896 -145.15 -142.39 -144.55 
2897 -145.06 -142.44 -144.55 
2898 -145.15 -142.46 -144.55 
2899 -146.20 -142.43 -144.55 
2900 -145.55 -142.59 -144.55 
2901 -145.59 -142.41 -144.55 
2902 -145.20 -142.32 -144.55 
2903 -145.31 -142.34 -144.55 
2904 -146.63 -142.44 -144.55 
2905 -145.81 -142.47 -144.55 
2906 -144.99 -142.35 -144.55 
2907 -146.49 -142.42 -144.55 
2908 -146.51 -142.48 -144.55 
2909 -146.06 -142.51 -144.55 
2910 -145.93 -142.59 -144.55 
2911 -144.74 -142.68 -144.55 
2912 -146.29 -142.65 -144.55 
2913 -145.94 -142.77 -144.55 
2914 -146.77 -143.03 -144.55 
2915 -146.05 -142.82 -144.55 
2916 -145.09 -142.77 -144.55 
2917 -145.24 -142.77 -144.55 
2918 -146.18 -142.53 -144.55 
2919 -145.93 -142.65 -144.55 
2920 -146.00 -142.66 -144.55 
2921 -146.87 -142.73 -144.55 
2922 -146.22 -142.67 -144.55 
2923 -145.10 -142.62 -144.55 
2924 -145.20 -142.73 -144.55 
2925 -146.41 -142.72 -144.55 
2926 -144.95 -142.52 -144.55 
2927 -145.62 -142.70 -144.55 
2928 -145.47 -142.67 -144.55 
2929 -145.28 -142.58 -144.55 
2930 -146.30 -142.61 -144.55 
2931 -144.47 -142.61 -144.55 
2932 -146.14 -142.71 -144.47 
2933 -145.28 -142.63 -144.47 
2934 -145.37 -142.56 -144.47 
2935 -145.96 -142.61 -144.47 
2936 -145.54 -142.73 -144.47 
2937 -144.08 -142.59 -144.47 
2938 -145.69 -142.55 -144.08 
2939 -146.32 -142.60 -144.08 
2940 -145.47 -142.39 -144.08 
2941 -146.05 -142.48 -144.08 
2942 -144.97 -142.53 -144.08 
2943 -145.20 -142.49 -144.08 
2944 -145.39 -142.43 -144.08 
2945 -146.26 -142.63 -144.08 
2946 -144.97 -142.56 -144.08 
2947 -146.12 -142.53 -144.08 
2948 -146.41 -142.63 -144.08 
2949 -145.67 -142.72 -144.08 
2950 -145.00 -142.75 -144.08 
2951 -145.04 -142.70 -144.08 
2952 -145.85 -142.76 -144.08 
2953 -145.95 -142.75 -144.08 
2954 -145.40 -142.93 -144.08 
2955 -145.49 -142.96 -144.08 
2956 -145.79 -142.90 -144.08 
2957 -145.98 -142.71 -144.08 
2958 -145.98 -142.71 -144.08 
2959 -146.28 -142.67 -144.08 
2960 -145.91 -142.65 -144.08 
2961 -146.30 -142.73 -144.08 
2962 -146.11 -142.57 -144.08 
2963 -145.33 -142.75 -144.08 
2964 -144.60 -142.49 -144.08 
2965 -145.28 -142.42 -144.08 
2966 -144.74 -142.38 -144.08 
2967 -147.28 -142.36 -144.08 
2968 -146.39 -142.43 -144.08 
2969 -145.68 -142.39 -144.08 
2970 -145.23 -142.29 -144.08 
2971 -146.32 -142.46 -144.08 
2972 -144.79 -142.22 -144.08 
2973 -145.11 -142.08 -144.08 
2974 -146.83 -142.23 -144.08 
2975 -145.38 -142.21 -144.08 
2976 -145.57 -142.16 -144.08 
2977 -145.70 -142.23 -144.08 
2978 -144.94 -142.33 -144.08 
2979 -145.97 -142.23 -144.08 
2980 -145.94 -142.33 -144.08 
2981 -146.04 -142.32 -144.08 
2982 -145.36 -142.24 -144.08 
2983 -145.47 -142.14 -144.08 
2984 -146.20 -142.16 -144.08 
2985 -146.12 -142.16 -144.08 
2986 -144.70 -142.18 -144.08 
2987 -146.11 -142.18 -144.08 
2988 -145.77 -142.31 -144.08 
2989 -145.78 -142.35 -144.08 
2990 -146.44 -142.39 -144.08 
2991 -144.63 -143.69 -144.08 
2992 -144.57 -143.65 -144.08 
2993 -145.30 -143.72 -144.08 
2994 -145.59 -142.25 -144.08 
2995 -144.78 -142.27 -144.08 
2996 -145.94 -142.32 -144.08 
2997 -145.85 -142.38 -144.08 
2998 -145.98 -142.38 -144.08 
2999 -146.57 -142.38 -144.08 
3000 -146.25 -142.40 -144.08 
3001 -145.99 -142.46 -144.08 
3002 -145.06 -142.39 -144.08 
3003 -146.46 -142.50 -144.08 
3004 -145.82 -143.84 -144.08 
3005 -146.02 -142.43 -144.08 
3006 -145.49 -142.44 -144.08 
3007 -145.08 -142.48 -144.08 
3008 -145.87 -142.47 -144.08 
3009 -145.79 -142.52 -144.08 
3010 -145.82 -142.35 -144.08 
3011 -146.85 -142.31 -144.08 
3012 -144.95 -142.23 -144.08 
3013 -145.56 -142.18 -144.08 
3014 -145.57 -142.20 -144.08 
3015 -145.95 -142.35 -144.08 
3016 -146.99 -142.37 -144.08 
3017 -147.00 -142.45 -144.08 
3018 -145.17 -142.43 -144.08 
3019 -145.86 -142.29 -144.08 
3020 -146.23 -142.29 -144.08 
3021 -145.17 -142.51 -144.08 
3022 -146.00 -142.24 -144.08 
3023 -145.24 -142.28 -144.08 
3024 -145.17 -142.40 -144.08 
3025 -146.14 -142.45 -144.08 
3026 -145.48 -142.47 -144.08 
3027 -145.80 -142.71 -144.08 
3028 -144.84 -142.72 -144.08 
3029 -145.05 -142.74 -144.08 
3030 -145.15 -142.57 -144.08 
3031 -144.96 -142.69 -144.08 
3032 -145.58 -142.74 -144.08 
3033 -145.64 -142.86 -144.08 
3034 -145.74 -142.76 -144.08 
3035 -145.46 -142.74 -144.08 
3036 -146.32 -142.71 -144.08 
3037 -144.55 -142.61 -144.08 
3038 -145.04 -142.52 -144.08 
3039 -145.97 -142.46 -144.08 
3040 -145.23 -142.44 -144.08 
3041 -145.82 -142.44 -144.08 
3042 -144.38 -142.45 -144.08 
3043 -144.35 -142.41 -144.08 
3044 -145.71 -142.38 -144.08 
3045 -145.10 -142.40 -144.08 
3046 -145.72 -142.26 -144.08 
3047 -144.69 -142.42 -144.08 
3048 -146.21 -142.56 -144.08 
3049 -145.09 -142.64 -144.08 
3050 -145.03 -142.73 -144.08 
3051 -145.32 -142.67 -144.08 
3052 -145.35 -142.67 -144.08 
3053 -144.48 -142.58 -144.08 
3054 -145.70 -142.62 -144.08 
3055 -144.67 -142.77 -144.08 
3056 -145.43 -142.68 -144.08 
3057 -145.21 -142.68 -144.08 
3058 -146.07 -142.46 -144.08 
3059 -145.45 -142.37 -144.08 
3060 -145.07 -142.40 -144.08 
3061 -145.32 -142.44 -144.08 
3062 -145.35 -142.35 -144.08 
3063 -144.74 -142.37 -144.08 
3064 -145.76 -142.37 -144.08 
3065 -146.08 -142.46 -144.08 
3066 -145.57 -142.40 -144.08 
3067 -144.97 -142.40 -144.08 
3068 -146.31 -142.44 -144.08 
3069 -145.14 -142.51 -144.08 
3070 -144.70 -142.48 -144.08 
3071 -144.75 -142.45 -144.08 
3072 -145.90 -142.52 -144.08 
3073 -144.86 -142.59 -144.08 
3074 -145.15 -142.62 -144.08 
3075 -145.35 -142.55 -144.08 
3076 -144.99 -142.63 -144.08 
3077 -144.40 -142.78 -144.08 
3078 -144.56 -142.75 -144.08 
3079 -145.35 -142.69 -144.08 
3080 -145.41 -142.52 -144.08 
3081 -144.96 -142.51 -144.08 
3082 -145.49 -142.49 -144.08 
3083 -144.80 -142.40 -144.08 
3084 -145.73 -142.46 -144.08 
3085 -145.37 -142.49 -144.08 
3086 -144.36 -142.47 -144.08 
3087 -145.65 -142.55 -144.08 
3088 -145.98 -142.48 -144.08 
3089 -145.93 -142.58 -144.08 
3090 -146.18 -142.61 -144.08 
3091 -145.50 -142.61 -144.08 
3092 -143.78 -142.51 -144.08 
3093 -145.65 -142.45 -143.78 
3094 -145.66 -142.46 -143.78 
3095 -144.20 -142.62 -143.78 
3096 -145.69 -142.56 -143.78 
3097 -145.05 -142.45 -143.78 
3098 -144.11 -142.28 -143.78 
3099 -145.05 -142.29 -143.78 
3100 -145.43 -142.27 -143.78 
3101 -145.18 -142.25 -143.78 
3102 -145.08 -142.18 -143.78 
3103 -144.97 -142.17 -143.78 
3104 -144.44 -142.18 -143.78 
3105 -145.83 -142.27 -143.78 
3106 -144.54 -142.26 -143.78 
3107 -145.50 -142.35 -143.78 
3108 -145.45 -142.21 -143.78 
3109 -144.73 -142.38 -143.78 
3110 -145.91 -142.45 -143.78 
3111 -145.84 -142.50 -143.78 
3112 -145.67 -142.40 -143.78 
3113 -144.24 -142.59 -143.78 
3114 -145.96 -142.63 -143.78 
3115 -144.52 -142.63 -143.78 
3116 -145.34 -142.48 -143.78 
3117 -144.77 -142.46 -143.78 
3118 -145.78 -142.62 -143.78 
3119 -145.85 -142.68 -143.78 
3120 -146.28 -142.75 -143.78 
3121 -146.01 -142.71 -143.78 
3122 -146.50 -142.69 -143.78 
3123 -146.19 -142.87 -143.78 
3124 -145.21 -142.82 -143.78 
3125 -145.67 -142.70 -143.78 
3126 -145.49 -142.72 -143.78 
3127 -145.29 -142.65 -143.78 
3128 -146.17 -142.74 -143.78 
3129 -145.65 -142.73 -143.78 
3130 -145.29 -142.69 -143.78 
3131 -144.78 -142.76 -143.78 
3132 -144.90 -142.54 -143.78 
3133 -145.24 -142.65 -143.78 
3134 -144.70 -142.68 -143.78 
3135 -145.34 -142.64 -143.78 
3136 -145.53 -142.72 -143.78 
3137 -145.42 -142.86 -143.78 
3138 -143.82 -142.76 -143.78 
3139 -145.06 -142.69 -143.78 
3140 -145.52 -142.52 -143.78 
3141 -145.01 -142.60 -143.78 
3142 -145.42 -142.42 -143.78 
3143 -145.82 -142.41 -143.78 
3144 -144.46 -142.58 -143.78 
3145 -146.36 -142.47 -143.78 
3146 -145.95 -142.64 -143.78 
3147 -145.09 -142.60 -143.78 
3148 -145.34 -142.53 -143.78 
3149 -145.13 -142.58 -143.78 
3150 -144.91 -142.47 -143.78 
3151 -145.19 -142.45 -143.78 
3152 -146.19 -142.41 -143.78 
3153 -146.36 -142.38 -143.78 
3154 -146.37 -142.51 -143.78 
3155 -144.29 -142.35 -143.78 
3156 -145.40 -142.44 -143.78 
3157 -144.87 -142.58 -143.78 
3158 -145.46 -142.50 -143.78 
3159 -145.55 -142.54 -143.78 
3160 -144.70 -142.67 -143.78 
3161 -145.01 -142.46 -143.78 
3162 -145.06 -142.54 -143.78 
3163 -145.50 -142.63 -143.78 
3164 -145.64 -142.73 -143.78 
3165 -144.71 -142.72 -143.78 
3166 -145.84 -142.73 -143.78 
3167 -145.12 -142.71 -143.78 
3168 -144.54 -142.60 -143.78 
3169 -144.73 -142.60 -143.78 
3170 -144.66 -142.72 -143.78 
3171 -144.77 -142.65 -143.78 
3172 -145.49 -142.67 -143.78 
3173 -145.96 -142.70 -143.78 
3174 -145.15 -142.78 -143.78 
3175 -145.27 -142.66 -143.78 
3176 -144.61 -142.80 -143.78 
3177 -144.50 -142.74 -143.78 
3178 -145.04 -142.74 -143.78 
3179 -145.35 -142.77 -143.78 
3180 -145.58 -142.75 -143.78 
3181 -144.80 -142.71 -143.78 
3182 -145.45 -142.82 -143.78 
3183 -145.53 -142.90 -143.78 
3184 -144.71 -142.75 -143.78 
3185 -146.77 -142.85 -143.78 
3186 -144.92 -142.88 -143.78 
3187 -144.87 -142.80 -143.78 
3188 -144.75 -142.78 -143.78 
3189 -145.04 -142.87 -143.78 
3190 -145.14 -142.76 -143.78 
3191 -145.54 -142.77 -143.78 
3192 -146.24 -142.77 -143.78 
3193 -145.82 -142.71 -143.78 
3194 -144.81 -142.69 -143.78 
3195 -145.47 -142.66 -143.78 
3196 -144.87 -142.63 -143.78 
3197 -145.02 -142.59 -143.78 
3198 -145.82 -142.69 -143.78 
3199 -145.17 -142.54 -143.78 
3200 -145.29 -142.53 -143.78 
3201 -144.80 -142.57 -143.78 
3202 -145.48 -142.77 -143.78 
3203 -145.15 -142.69 -143.78 
3204 -145.80 -142.72 -143.78 
3205 -145.24 -142.68 -143.78 
3206 -145.78 -142.64 -143.78 
3207 -145.54 -142.63 -143.78 
3208 -145.11 -142.75 -143.78 
3209 -145.56 -142.59 -143.78 
3210 -145.76 -142.66 -143.78 
3211 -144.97 -142.54 -143.78 
3212 -145.16 -142.53 -143.78 
3213 -145.34 -142.43 -143.78 
3214 -144.73 -142.58 -143.78 
3215 -145.10 -142.61 -143.78 
3216 -145.53 -142.57 -143.78 
3217 -144.91 -142.55 -143.78 
3218 -144.35 -143.94 -143.78 
3219 -144.12 -142.51 -143.78 
3220 -145.51 -142.46 -143.78 
3221 -145.14 -142.48 -143.78 
3222 -144.49 -142.44 -143.78 
3223 -144.99 -143.88 -143.78 
3224 -145.17 -142.53 -143.78 
3225 -145.07 -142.74 -143.78 
3226 -145.17 -142.73 -143.78 
3227 -144.46 -142.66 -143.78 
3228 -144.54 -142.68 -143.78 
3229 -144.74 -142.86 -143.78 
3230 -145.34 -142.81 -143.78 
3231 -144.78 -142.70 -143.78 
3232 -145.94 -142.56 -143.78 
3233 -145.21 -142.43 -143.78 
3234 -145.05 -142.38 -143.78 
3235 -145.64 -142.39 -143.78 
3236 -144.87 -142.36 -143.78 
3237 -145.40 -142.40 -143.78 
3238 -146.06 -142.44 -143.78 
3239 -145.41 -142.43 -143.78 
3240 -146.27 -142.44 -143.78 
3241 -144.37 -142.39 -143.78 
3242 -144.66 -142.28 -143.78 
3243 -144.48 -142.36 -143.78 
3244 -146.02 -142.48 -143.78 
3245 -145.26 -142.50 -143.78 
3246 -145.15 -142.51 -143.78 
3247 -145.37 -142.50 -143.78 
3248 -145.32 -142.53 -143.78 
3249 -144.93 -142.48 -143.78 
3250 -144.45 -142.29 -143.78 
3251 -144.06 -142.19 -143.78 
3252 -145.18 -142.22 -143.78 
3253 -146.27 -142.27 -143.78 
3254 -145.76 -142.20 -143.78 
3255 -145.28 -142.34 -143.78 
3256 -145.47 -142.36 -143.78 
3257 -146.04 -142.29 -143.78 
3258 -145.73 -142.37 -143.78 
3259 -145.43 -142.20 -143.78 
3260 -145.59 -142.24 -143.78 
3261 -145.36 -142.13 -143.78 
3262 -145.64 -142.47 -143.78 
3263 -145.64 -142.35 -143.78 
3264 -144.70 -142.57 -143.78 
3265 -145.08 -142.60 -143.78 
3266 -144.94 -142.52 -143.78 
3267 -144.33 -142.61 -143.78 
3268 -145.24 -142.51 -143.78 
3269 -144.98 -142.37 -143.78 
3270 -145.66 -142.37 -143.78 
3271 -145.22 -142.31 -143.78 
3272 -144.79 -142.37 -143.78 
3273 -143.75 -142.10 -143.78 
3274 -145.47 -142.14 -143.75 
3275 -145.30 -142.13 -143.75 
3276 -145.35 -142.14 -143.75 
3277 -144.78 -141.71 -143.75 
3278 -146.48 -141.76 -143.75 
3279 -144.09 -141.76 -143.75 
3280 -144.36 -141.84 -143.75 
3281 -144.39 -141.93 -143.75 
3282 -144.01 -141.87 -143.75 
3283 -144.43 -142.07 -143.75 
3284 -144.95 -141.97 -143.75 
3285 -145.41 -142.02 -143.75 
3286 -146.58 -142.07 -143.75 
3287 -145.48 -141.88 -143.75 
3288 -145.23 -141.95 -143.75 
3289 -145.53 -141.96 -143.75 
3290 -145.40 -142.08 -143.75 
3291 -145.46 -141.97 -143.75 
3292 -144.98 -142.01 -143.75 
3293 -145.40 -142.00 -143.75 
3294 -145.33 -141.86 -143.75 
3295 -145.49 -141.80 -143.75 
3296 -144.84 -141.78 -143.75 
3297 -143.64 -141.74 -143.75 
3298 -145.72 -141.84 -143.64 
3299 -145.63 -142.07 -143.64 
3300 -145.15 -142.07 -143.64 
3301 -144.42 -142.28 -143.64 
3302 -145.35 -142.21 -143.64 
3303 -145.06 -142.29 -143.64 
3304 -145.37 -142.19 -143.64 
3305 -144.71 -142.05 -143.64 
3306 -145.49 -141.98 -143.64 
3307 -143.77 -141.96 -143.64 
3308 -145.83 -142.04 -143.64 
3309 -144.64 -141.98 -143.64 
3310 -144.57 -141.81 -143.64 
3311 -145.42 -141.96 -143.64 
3312 -145.15 -142.04 -143.64 
3313 -145.48 -142.09 -143.64 
3314 -145.73 -142.10 -143.64 
3315 -144.91 -141.98 -143.64 
3316 -144.92 -143.38 -143.64 
3317 -144.37 -141.77 -143.64 
3318 -145.38 -141.93 -143.64 
3319 -146.35 -143.41 -143.64 
3320 -145.63 -142.11 -143.64 
3321 -146.23 -142.17 -143.64 
3322 -145.82 -142.10 -143.64 
3323 -145.43 -142.18 -143.64 
3324 -144.15 -142.14 -143.64 
3325 -145.42 -142.06 -143.64 
3326 -144.52 -142.04 -143.64 
3327 -144.16 -142.05 -143.64 
3328 -144.84 -142.03 -143.64 
3329 -145.94 -142.10 -143.64 
3330 -144.15 -142.09 -143.64 
3331 -144.98 -141.91 -143.64 
3332 -145.16 -141.92 -143.64 
3333 -145.76 -141.99 -143.64 
3334 -144.72 -141.90 -143.64 
3335 -145.91 -141.91 -143.64 
3336 -145.20 -141.92 -143.64 
3337 -145.11 -141.91 -143.64 
3338 -144.99 -141.98 -143.64 
3339 -144.34 -142.06 -143.64 
3340 -144.89 -141.99 -143.64 
3341 -144.83 -141.87 -143.64 
3342 -145.13 -141.77 -143.64 
3343 -145.01 -141.86 -143.64 
3344 -145.31 -141.80 -143.64 
3345 -144.61 -141.82 -143.64 
3346 -145.05 -141.79 -143.64 
3347 -144.32 -141.83 -143.64 
3348 -145.38 -141.73 -143.64 
3349 -145.32 -141.60 -143.64 
3350 -144.62 -141.62 -143.64 
3351 -145.13 -141.60 -143.64 
3352 -145.19 -141.60 -143.64 
3353 -144.89 -141.59 -143.64 
3354 -144.47 -141.66 -143.64 
3355 -145.00 -141.56 -143.64 
3356 -144.64 -141.55 -143.64 
3357 -144.88 -141.59 -143.64 
3358 -145.20 -141.65 -143.64 
3359 -145.15 -141.58 -143.64 
3360 -145.32 -141.65 -143.64 
3361 -144.83 -141.75 -143.64 
3362 -145.16 -141.62 -143.64 
3363 -144.55 -141.63 -143.64 
3364 -144.73 -141.76 -143.64 
3365 -145.47 -141.99 -143.64 
3366 -144.80 -141.80 -143.64 
3367 -144.86 -142.01 -143.64 
3368 -144.51 -141.73 -143.64 
3369 -146.29 -141.81 -143.64 
3370 -145.05 -141.87 -143.64 
3371 -144.74 -141.59 -143.64 
3372 -146.37 -141.75 -143.64 
3373 -144.24 -141.83 -143.64 
3374 -145.42 -141.81 -143.64 
3375 -145.35 -141.66 -143.64 
3376 -144.62 -141.67 -143.64 
3377 -145.77 -143.09 -143.64 
3378 -144.79 -143.08 -143.64 
3379 -144.47 -141.67 -143.64 
3380 -146.11 -143.37 -143.64 
3381 -144.51 -141.99 -143.64 
3382 -146.65 -141.88 -143.64 
3383 -144.55 -141.80 -143.64 
3384 -146.32 -141.87 -143.64 
3385 -145.39 -141.92 -143.64 
3386 -145.44 -141.91 -143.64 
3387 -145.56 -141.80 -143.64 
3388 -144.91 -141.81 -143.64 
3389 -144.02 -141.77 -143.64 
3390 -144.63 -141.59 -143.64 
3391 -144.00 -141.53 -143.64 
3392 -145.57 -143.12 -143.64 
3393 -145.17 -145.85 -143.64 
3394 -144.30 -142.98 -143.64 
3395 -144.70 -144.56 -143.64 
3396 -144.66 -143.01 -143.64 
3397 -146.10 -143.12 -143.64 
3398 -145.12 -141.85 -143.64 
3399 -145.41 -141.84 -143.64 
3400 -145.84 -142.05 -143.64 
3401 -145.93 -141.99 -143.64 
3402 -144.85 -142.05 -143.64 
3403 -144.43 -141.96 -143.64 
3404 -144.25 -141.84 -143.64 
3405 -144.30 -141.86 -143.64 
3406 -145.91 -141.98 -143.64 
3407 -144.31 -142.02 -143.64 
3408 -145.65 -142.06 -143.64 
3409 -144.56 -142.03 -143.64 
3410 -146.49 -141.90 -143.64 
3411 -144.94 -142.20 -143.64 
3412 -144.52 -142.08 -143.64 
3413 -144.68 -142.10 -143.64 
3414 -144.37 -142.20 -143.64 
3415 -145.50 -142.07 -143.64 
3416 -145.72 -141.94 -143.64 
3417 -144.82 -141.79 -143.64 
3418 -145.16 -142.00 -143.64 
3419 -144.61 -141.99 -143.64 
3420 -145.15 -141.93 -143.64 
3421 -145.53 -141.88 -143.64 
3422 -144.74 -141.95 -143.64 
3423 -144.50 -141.94 -143.64 
3424 -144.64 -141.88 -143.64 
3425 -143.55 -141.72 -143.64 
3426 -145.83 -141.60 -143.55 
3427 -144.77 -141.69 -143.55 
3428 -144.92 -141.88 -143.55 
3429 -145.52 -141.90 -143.55 
3430 -145.60 -141.92 -143.55 
3431 -145.75 -141.83 -143.55 
3432 -144.82 -141.97 -143.55 
3433 -144.55 -141.78 -143.55 
3434 -145.09 -141.75 -143.55 
3435 -144.31 -141.80 -143.55 
3436 -144.48 -141.71 -143.55 
3437 -145.44 -141.75 -143.55 
3438 -145.84 -141.98 -143.55 
3439 -144.64 -141.77 -143.55 
3440 -144.81 -141.48 -143.55 
3441 -144.98 -141.48 -143.55 
3442 -144.65 -141.50 -143.55 
3443 -144.96 -141.44 -143.55 
3444 -144.86 -141.36 -143.55 
3445 -145.32 -141.50 -143.55 
3446 -144.09 -141.51 -143.55 
3447 -144.75 -141.32 -143.55 
3448 -146.10 -141.66 -143.55 
3449 -144.41 -141.69 -143.55 
3450 -145.68 -141.89 -143.55 
3451 -143.77 -141.86 -143.55 
3452 -145.33 -141.90 -143.55 
3453 -144.31 -141.82 -143.55 
3454 -144.08 -141.83 -143.55 
3455 -145.10 -141.67 -143.55 
3456 -143.72 -141.49 -143.55 
3457 -145.15 -141.74 -143.55 
3458 -144.66 -141.84 -143.55 
3459 -144.77 -141.95 -143.55 
3460 -144.64 -141.85 -143.55 
3461 -145.33 -141.70 -143.55 
3462 -143.58 -141.63 -143.55 
3463 -145.95 -141.61 -143.55 
3464 -144.79 -141.55 -143.55 
3465 -144.91 -141.32 -143.55 
3466 -144.61 -141.35 -143.55 
3467 -143.41 -141.36 -143.55 
3468 -145.68 -141.39 -143.41 
3469 -145.72 -141.24 -143.41 
3470 -145.42 -141.51 -143.41 
3471 -144.21 -141.51 -143.41 
3472 -145.28 -141.38 -143.41 
3473 -144.68 -141.50 -143.41 
3474 -145.26 -141.50 -143.41 
3475 -144.66 -141.47 -143.41 
3476 -143.81 -141.49 -143.41 
3477 -145.25 -141.40 -143.41 
3478 -144.30 -141.48 -143.41 
3479 -145.85 -141.53 -143.41 
3480 -144.27 -141.57 -143.41 
3481 -145.33 -141.52 -143.41 
3482 -144.94 -141.61 -143.41 
3483 -144.99 -141.58 -143.41 
3484 -145.06 -141.52 -143.41 
3485 -145.23 -141.69 -143.41 
3486 -144.48 -141.60 -143.41 
3487 -144.63 -141.60 -143.41 
3488 -144.36 -141.64 -143.41 
3489 -144.85 -141.66 -143.41 
3490 -144.89 -141.65 -143.41 
3491 -144.30 -141.64 -143.41 
3492 -144.54 -141.72 -143.41 
3493 -145.64 -141.62 -143.41 
3494 -145.40 -141.79 -143.41 
3495 -144.30 -141.83 -143.41 
3496 -145.40 -141.61 -143.41 
3497 -145.10 -141.68 -143.41 
3498 -145.31 -141.82 -143.41 
3499 -144.78 -141.66 -143.41 
3500 -143.62 -141.72 -143.41 
3501 -144.61 -141.70 -143.41 
3502 -145.55 -141.73 -143.41 
3503 -144.33 -141.65 -143.41 
3504 -144.77 -141.68 -143.41 
3505 -144.44 -141.68 -143.41 
3506 -144.82 -141.67 -143.41 
3507 -145.27 -141.62 -143.41 
3508 -144.73 -141.58 -143.41 
3509 -144.34 -141.52 -143.41 
3510 -145.49 -141.62 -143.41 
3511 -144.30 -141.62 -143.41 
3512 -144.94 -141.64 -143.41 
3513 -144.95 -141.70 -143.41 
3514 -144.58 -141.66 -143.41 
3515 -145.19 -141.72 -143.41 
3516 -146.02 -141.64 -143.41 
3517 -144.38 -141.70 -143.41 
3518 -144.86 -141.56 -143.41 
3519 -145.08 -141.63 -143.41 
3520 -144.95 -141.69 -143.41 
3521 -144.65 -141.72 -143.41 
3522 -143.14 -141.67 -143.41 
3523 -145.12 -141.66 -143.14 
3524 -145.71 -141.67 -143.14 
3525 -144.40 -141.62 -143.14 
3526 -145.37 -141.59 -143.14 
3527 -144.38 -141.54 -143.14 
3528 -144.51 -141.51 -143.14 
3529 -145.69 -141.62 -143.14 
3530 -143.95 -141.50 -143.14 
3531 -144.58 -141.53 -143.14 
3532 -144.51 -141.58 -143.14 
3533 -146.29 -141.51 -143.14 
3534 -145.24 -141.40 -143.14 
3535 -144.87 -141.42 -143.14 
3536 -144.92 -141.43 -143.14 
3537 -144.20 -142.83 -143.14 
3538 -145.72 -141.46 -143.14 
3539 -144.52 -141.54 -143.14 
3540 -144.23 -141.53 -143.14 
3541 -146.68 -141.50 -143.14 
3542 -145.10 -141.45 -143.14 
3543 -145.39 -141.44 -143.14 
3544 -144.48 -141.44 -143.14 
3545 -144.92 -141.38 -143.14 
3546 -145.67 -141.56 -143.14 
3547 -145.76 -141.60 -143.14 
3548 -145.07 -141.53 -143.14 
3549 -146.01 -141.62 -143.14 
3550 -146.05 -141.61 -143.14 
3551 -145.76 -141.49 -143.14 
3552 -143.95 -141.36 -143.14 
3553 -145.07 -141.69 -143.14 
3554 -145.04 -141.58 -143.14 
3555 -145.15 -141.65 -143.14 
3556 -145.07 -141.54 -143.14 
3557 -145.09 -141.46 -143.14 
3558 -144.53 -141.57 -143.14 
3559 -145.02 -141.62 -143.14 
3560 -144.85 -141.62 -143.14 
3561 -144.95 -141.63 -143.14 
3562 -144.55 -141.60 -143.14 
3563 -145.76 -141.70 -143.14 
3564 -146.70 -141.77 -143.14 
3565 -145.86 -142.03 -143.14 
3566 -144.06 -141.65 -143.14 
3567 -145.63 -141.58 -143.14 
3568 -144.82 -141.53 -143.14 
3569 -145.04 -141.60 -143.14 
3570 -145.15 -141.44 -143.14 
3571 -144.79 -141.47 -143.14 
3572 -144.76 -141.44 -143.14 
3573 -144.82 -141.69 -143.14 
3574 -145.24 -141.40 -143.14 
3575 -145.52 -141.48 -143.14 
3576 -144.93 -141.59 -143.14 
3577 -146.13 -141.57 -143.14 
3578 -145.20 -141.84 -143.14 
3579 -144.91 -141.86 -143.14 
3580 -144.96 -141.82 -143.14 
3581 -144.75 -141.62 -143.14 
3582 -144.18 -141.86 -143.14 
3583 -145.28 -141.83 -143.14 
3584 -145.37 -141.60 -143.14 
3585 -145.02 -141.59 -143.14 
3586 -145.67 -141.60 -143.14 
3587 -144.96 -141.52 -143.14 
3588 -145.66 -141.66 -143.14 
3589 -144.50 -141.70 -143.14 
3590 -145.03 -141.57 -143.14 
3591 -145.67 -141.79 -143.14 
3592 -146.05 -141.69 -143.14 
3593 -144.85 -141.70 -143.14 
3594 -145.48 -141.72 -143.14 
3595 -145.16 -141.79 -143.14 
3596 -145.82 -141.71 -143.14 
3597 -145.36 -141.67 -143.14 
3598 -145.53 -141.55 -143.14 
3599 -145.70 -141.62 -143.14 
3600 -145.95 -141.63 -143.14 
3601 -145.01 -141.71 -143.14 
3602 -143.54 -141.50 -143.14 
3603 -145.51 -141.55 -143.14 
3604 -145.33 -142.82 -143.14 
3605 -144.73 -141.51 -143.14 
3606 -144.91 -142.96 -143.14 
3607 -144.52 -141.33 -143.14 
3608 -145.61 -141.35 -143.14 
3609 -144.47 -143.12 -143.14 
3610 -143.95 -141.58 -143.14 
3611 -144.65 -141.53 -143.14 
3612 -145.97 -141.61 -143.14 
3613 -145.11 -141.76 -143.14 
3614 -145.44 -141.90 -143.14 
3615 -146.15 -141.96 -143.14 
3616 -145.61 -141.94 -143.14 
3617 -144.68 -141.83 -143.14 
3618 -145.78 -141.96 -143.14 
3619 -145.05 -141.68 -143.14 
3620 -144.57 -141.81 -143.14 
3621 -145.90 -141.77 -143.14 
3622 -144.18 -141.72 -143.14 
3623 -144.66 -141.64 -143.14 
3624 -144.27 -141.75 -143.14 
3625 -144.72 -141.64 -143.14 
3626 -144.94 -141.65 -143.14 
3627 -145.21 -141.73 -143.14 
3628 -145.21 -141.86 -143.14 
3629 -145.39 -141.95 -143.14 
3630 -144.85 -141.94 -143.14 
3631 -144.11 -141.81 -143.14 
3632 -144.81 -141.78 -143.14 
3633 -145.54 -141.68 -143.14 
3634 -144.65 -141.64 -143.14 
3635 -144.85 -141.88 -143.14 
3636 -143.68 -141.82 -143.14 
3637 -145.09 -141.90 -143.14 
3638 -145.37 -141.89 -143.14 
3639 -144.95 -141.84 -143.14 
3640 -144.58 -141.93 -143.14 
3641 -144.12 -141.92 -143.14 
3642 -144.09 -141.82 -143.14 
3643 -144.02 -141.84 -143.14 
3644 -145.06 -141.87 -143.14 
3645 -144.88 -141.89 -143.14 
3646 -145.34 -141.94 -143.14 
3647 -143.86 -142.01 -143.14 
3648 -145.14 -141.90 -143.14 
3649 -145.64 -141.90 -143.14 
3650 -145.11 -141.98 -143.14 
3651 -144.87 -141.96 -143.14 
3652 -144.19 -141.94 -143.14 
3653 -144.46 -141.87 -143.14 
3654 -146.77 -141.91 -143.14 
3655 -145.07 -141.94 -143.14 
3656 -144.82 -141.93 -143.14 
3657 -145.59 -142.15 -143.14 
3658 -144.05 -142.09 -143.14 
3659 -144.45 -142.13 -143.14 
3660 -145.76 -142.24 -143.14 
3661 -144.57 -142.26 -143.14 
3662 -145.40 -142.35 -143.14 
3663 -144.57 -142.26 -143.14 
3664 -145.17 -142.35 -143.14 
3665 -143.87 -142.36 -143.14 
3666 -145.34 -142.45 -143.14 
3667 -144.86 -142.35 -143.14 
3668 -145.94 -142.46 -143.14 
3669 -143.95 -142.37 -143.14 
3670 -144.30 -142.11 -143.14 
3671 -144.61 -141.94 -143.14 
3672 -145.25 -142.06 -143.14 
3673 -145.00 -142.11 -143.14 
3674 -144.77 -142.01 -143.14 
3675 -144.62 -142.10 -143.14 
3676 -144.37 -141.99 -143.14 
3677 -143.84 -141.77 -143.14 
3678 -144.45 -141.75 -143.14 
3679 -144.64 -141.81 -143.14 
3680 -144.76 -141.82 -143.14 
3681 -145.47 -142.03 -143.14 
3682 -145.59 -142.10 -143.14 
3683 -145.83 -142.14 -143.14 
3684 -144.91 -142.02 -143.14 
3685 -144.76 -141.95 -143.14 
3686 -144.37 -142.14 -143.14 
3687 -143.38 -141.99 -143.14 
3688 -145.40 -141.99 -143.14 
3689 -145.10 -141.99 -143.14 
3690 -143.98 -141.83 -143.14 
3691 -145.27 -141.85 -143.14 
3692 -144.02 -141.82 -143.14 
3693 -145.02 -141.78 -143.14 
3694 -144.32 -141.91 -143.14 
3695 -143.44 -141.92 -143.14 
3696 -145.23 -141.88 -143.14 
3697 -145.17 -141.87 -143.14 
3698 -144.76 -141.88 -143.14 
3699 -145.67 -141.91 -143.14 
3700 -144.51 -141.79 -143.14 
3701 -144.22 -141.78 -143.14 
3702 -143.78 -141.76 -143.14 
3703 -145.44 -141.80 -143.14 
3704 -144.16 -141.81 -143.14 
3705 -145.18 -141.84 -143.14 
3706 -144.37 -141.85 -143.14 
3707 -144.64 -141.84 -143.14 
3708 -144.09 -141.87 -143.14 
3709 -144.72 -141.85 -143.14 
3710 -144.33 -141.89 -143.14 
3711 -145.15 -141.84 -143.14 
3712 -144.82 -141.79 -143.14 
3713 -145.26 -141.71 -143.14 
3714 -143.30 -141.73 -143.14 
3715 -145.40 -141.77 -143.14 
3716 -144.20 -141.85 -143.14 
3717 -144.24 -141.88 -143.14 
3718 -144.44 -141.77 -143.14 
3719 -144.76 -141.71 -143.14 
3720 -143.98 -141.63 -143.14 
3721 -144.99 -141.70 -143.14 
3722 -144.84 -142.99 -143.14 
3723 -143.48 -143.09 -143.14 
3724 -144.73 -144.54 -143.14 
3725 -145.12 -141.58 -143.14 
3726 -144.34 -142.94 -143.14 
3727 -144.80 -143.13 -143.14 
3728 -144.40 -143.02 -143.14 
3729 -145.04 -143.02 -143.14 
3730 -145.33 -143.06 -143.14 
3731 -144.35 -142.96 -143.14 
3732 -143.82 -143.01 -143.14 
3733 -144.58 -141.54 -143.14 
3734 -145.11 -141.66 -143.14 
3735 -144.35 -141.67 -143.14 
3736 -144.83 -141.87 -143.14 
3737 -144.62 -141.79 -143.14 
3738 -145.31 -141.74 -143.14 
3739 -145.18 -141.60 -143.14 
3740 -144.56 -141.58 -143.14 
3741 -144.84 -141.73 -143.14 
3742 -146.12 -141.65 -143.14 
3743 -145.78 -141.65 -143.14 
3744 -145.28 -141.78 -143.14 
3745 -144.57 -141.70 -143.14 
3746 -145.75 -141.64 -143.14 
3747 -143.82 -141.73 -143.14 
3748 -143.99 -141.68 -143.14 
3749 -145.03 -141.83 -143.14 
3750 -143.89 -141.76 -143.14 
3751 -144.60 -141.76 -143.14 
3752 -144.11 -141.76 -143.14 
3753 -145.12 -141.79 -143.14 
3754 -144.50 -141.80 -143.14 
3755 -145.18 -141.82 -143.14 
3756 -144.50 -141.72 -143.14 
3757 -143.72 -141.63 -143.14 
3758 -144.56 -141.55 -143.14 
3759 -144.32 -141.50 -143.14 
3760 -145.02 -141.51 -143.14 
3761 -144.26 -141.49 -143.14 
3762 -145.28 -141.61 -143.14 
3763 -145.16 -141.53 -143.14 
3764 -145.05 -141.61 -143.14 
3765 -144.04 -141.72 -143.14 
3766 -144.63 -141.69 -143.14 
3767 -144.56 -141.60 -143.14 
3768 -144.05 -141.60 -143.14 
3769 -144.71 -141.57 -143.14 
3770 -145.15 -141.59 -143.14 
3771 -144.86 -141.65 -143.14 
3772 -144.65 -141.61 -143.14 
3773 -144.85 -141.53 -143.14 
3774 -144.07 -141.50 -143.14 
3775 -144.96 -141.52 -143.14 
3776 -144.22 -141.54 -143.14 
3777 -145.09 -141.67 -143.14 
3778 -144.81 -141.62 -143.14 
3779 -144.94 -141.60 -143.14 
3780 -144.45 -141.58 -143.14 
3781 -144.60 -141.73 -143.14 
3782 -143.69 -141.71 -143.14 
3783 -144.52 -141.74 -143.14 
3784 -144.34 -141.65 -143.14 
3785 -143.81 -141.62 -143.14 
3786 -144.74 -141.64 -143.14 
3787 -145.68 -141.74 -143.14 
3788 -145.68 -141.75 -143.14 
3789 -144.52 -141.86 -143.14 
3790 -144.34 -141.72 -143.14 
3791 -144.22 -141.63 -143.14 
3792 -145.44 -141.57 -143.14 
3793 -144.55 -141.55 -143.14 
3794 -144.64 -141.47 -143.14 
3795 -144.19 -141.50 -143.14 
3796 -144.41 -141.60 -143.14 
3797 -144.39 -141.63 -143.14 
3798 -144.36 -141.50 -143.14 
3799 -143.66 -141.59 -143.14 
3800 -144.13 -141.50 -143.14 
3801 -144.65 -141.43 -143.14 
3802 -143.57 -141.42 -143.14 
3803 -144.97 -141.44 -143.14 
3804 -145.28 -141.64 -143.14 
3805 -144.60 -141.62 -143.14 
3806 -144.50 -141.69 -143.14 
3807 -144.47 -141.70 -143.14 
3808 -144.73 -141.67 -143.14 
3809 -144.54 -141.56 -143.14 
3810 -144.64 -141.68 -143.14 
3811 -144.86 -141.65 -143.14 
3812 -144.57 -141.64 -143.14 
3813 -144.49 -141.60 -143.14 
3814 -144.78 -141.80 -143.14 
3815 -144.27 -141.69 -143.14 
3816 -144.51 -141.71 -143.14 
3817 -144.48 -141.83 -143.14 
3818 -144.78 -141.77 -143.14 
3819 -144.46 -141.69 -143.14 
3820 -144.29 -141.74 -143.14 
3821 -145.44 -141.76 -143.14 
3822 -144.12 -141.77 -143.14 
3823 -144.34 -141.67 -143.14 
3824 -144.85 -141.60 -143.14 
3825 -143.90 -141.79 -143.14 
3826 -144.49 -141.70 -143.14 
3827 -143.93 -141.64 -143.14 
3828 -144.96 -141.78 -143.14 
3829 -145.60 -141.65 -143.14 
3830 -145.02 -141.74 -143.14 
3831 -144.16 -141.64 -143.14 
3832 -144.65 -141.74 -143.14 
3833 -144.42 -141.72 -143.14 
3834 -144.09 -141.66 -143.14 
3835 -144.70 -141.66 -143.14 
3836 -144.12 -141.73 -143.14 
3837 -144.34 -141.80 -143.14 
3838 -143.60 -141.74 -143.14 
3839 -145.36 -141.81 -143.14 
3840 -144.85 -141.77 -143.14 
3841 -145.35 -141.72 -143.14 
3842 -144.84 -141.72 -143.14 
3843 -145.01 -141.65 -143.14 
3844 -144.16 -141.66 -143.14 
3845 -143.61 -141.55 -143.14 
3846 -144.97 -141.58 -143.14 
3847 -145.59 -141.61 -143.14 
3848 -144.55 -141.57 -143.14 
3849 -144.00 -141.56 -143.14 
3850 -144.63 -141.47 -143.14 
3851 -144.89 -141.60 -143.14 
3852 -144.60 -141.65 -143.14 
3853 -144.41 -141.56 -143.14 
3854 -143.96 -141.58 -143.14 
3855 -144.75 -141.61 -143.14 
3856 -143.82 -141.44 -143.14 
3857 -143.73 -141.56 -143.14 
3858 -144.75 -141.59 -143.14 
3859 -144.80 -141.62 -143.14 
3860 -144.49 -141.66 -143.14 
3861 -144.72 -141.55 -143.14 
3862 -145.24 -141.73 -143.14 
3863 -144.52 -141.69 -143.14 
3864 -144.01 -141.52 -143.14 
3865 -144.80 -141.51 -143.14 
3866 -144.01 -141.48 -143.14 
3867 -143.94 -141.58 -143.14 
3868 -143.83 -141.60 -143.14 
3869 -144.66 -141.53 -143.14 
3870 -145.26 -141.59 -143.14 
3871 -145.19 -141.59 -143.14 
3872 -144.26 -141.58 -143.14 
3873 -143.73 -141.61 -143.14 
3874 -144.30 -141.68 -143.14 
3875 -144.11 -141.78 -143.14 
3876 -144.97 -141.56 -143.14 
3877 -144.58 -141.82 -143.14 
3878 -144.63 -141.77 -143.14 
3879 -144.78 -141.72 -143.14 
3880 -145.08 -141.69 -143.14 
3881 -144.97 -141.68 -143.14 
3882 -144.83 -141.71 -143.14 
3883 -145.29 -141.58 -143.14 
3884 -145.46 -141.68 -143.14 
3885 -144.55 -141.54 -143.14 
3886 -145.62 -141.67 -143.14 
3887 -144.66 -141.69 -143.14 
3888 -143.94 -141.62 -143.14 
3889 -144.06 -141.70 -143.14 
3890 -144.39 -141.54 -143.14 
3891 -144.06 -141.58 -143.14 
3892 -144.95 -141.68 -143.14 
3893 -145.11 -141.66 -143.14 
3894 -144.26 -141.57 -143.14 
3895 -144.95 -141.61 -143.14 
3896 -144.53 -141.69 -143.14 
3897 -145.14 -141.53 -143.14 
3898 -145.25 -141.52 -143.14 
3899 -145.42 -141.55 -143.14 
3900 -144.84 -141.51 -143.14 
3901 -145.30 -141.51 -143.14 
3902 -144.57 -141.48 -143.14 
3903 -144.28 -141.51 -143.14 
3904 -143.84 -141.61 -143.14 
3905 -144.87 -141.59 -143.14 
3906 -144.43 -141.60 -143.14 
3907 -144.53 -141.48 -143.14 
3908 -144.81 -141.43 -143.14 
3909 -145.37 -141.62 -143.14 
3910 -144.69 -141.57 -143.14 
3911 -145.00 -141.37 -143.14 
3912 -144.32 -141.53 -143.14 
3913 -143.97 -141.68 -143.14 
3914 -144.13 -141.65 -143.14 
3915 -145.21 -141.62 -143.14 
3916 -144.10 -141.60 -143.14 
3917 -144.30 -141.65 -143.14 
3918 -145.07 -141.80 -143.14 
3919 -144.16 -141.73 -143.14 
3920 -144.24 -141.49 -143.14 
3921 -144.15 -141.62 -143.14 
3922 -144.36 -141.56 -143.14 
3923 -143.39 -141.64 -143.14 
3924 -144.58 -141.66 -143.14 
3925 -144.36 -141.62 -143.14 
3926 -144.64 -141.48 -143.14 
3927 -143.44 -141.51 -143.14 
3928 -145.37 -141.53 -143.14 
3929 -144.79 -141.58 -143.14 
3930 -144.82 -141.67 -143.14 
3931 -144.56 -141.71 -143.14 
3932 -144.65 -141.84 -143.14 
3933 -144.54 -141.79 -143.14 
3934 -145.47 -141.80 -143.14 
3935 -144.14 -141.79 -143.14 
3936 -145.17 -141.77 -143.14 
3937 -144.80 -141.81 -143.14 
3938 -144.15 -141.89 -143.14 
3939 -144.26 -141.89 -143.14 
3940 -143.57 -141.64 -143.14 
3941 -143.96 -141.72 -143.14 
3942 -145.88 -141.59 -143.14 
3943 -145.57 -141.83 -143.14 
3944 -144.09 -141.74 -143.14 
3945 -144.68 -141.83 -143.14 
3946 -144.70 -141.82 -143.14 
3947 -143.93 -141.82 -143.14 
3948 -145.81 -141.64 -143.14 
3949 -143.92 -141.51 -143.14 
3950 -145.19 -141.44 -143.14 
3951 -145.29 -141.55 -143.14 
3952 -144.83 -141.62 -143.14 
3953 -144.26 -141.64 -143.14 
3954 -144.42 -141.59 -143.14 
3955 -144.68 -141.51 -143.14 
3956 -144.23 -141.51 -143.14 
3957 -144.44 -141.50 -143.14 
3958 -144.92 -141.47 -143.14 
3959 -144.20 -141.59 -143.14 
3960 -144.65 -141.47 -143.14 
3961 -144.53 -141.35 -143.14 
3962 -144.25 -141.26 -143.14 
3963 -144.60 -141.31 -143.14 
3964 -145.48 -141.35 -143.14 
3965 -143.84 -141.43 -143.14 
3966 -145.21 -141.48 -143.14 
3967 -144.47 -141.59 -143.14 
3968 -144.39 -141.60 -143.14 
3969 -144.57 -141.54 -143.14 
3970 -143.89 -141.61 -143.14 
3971 -144.43 -141.56 -143.14 
3972 -144.34 -141.42 -143.14 
3973 -143.92 -141.52 -143.14 
3974 -145.66 -141.71 -143.14 
3975 -144.96 -141.75 -143.14 
3976 -144.19 -141.78 -143.14 
3977 -143.98 -141.66 -143.14 
3978 -145.08 -141.71 -143.14 
3979 -144.72 -141.68 -143.14 
3980 -143.50 -141.62 -143.14 
3981 -144.75 -141.46 -143.14 
3982 -144.09 -141.41 -143.14 
3983 -144.74 -141.53 -143.14 
3984 -145.11 -141.69 -143.14 
3985 -144.19 -141.71 -143.14 
3986 -144.90 -141.63 -143.14 
3987 -144.75 -141.73 -143.14 
3988 -144.86 -141.63 -143.14 
3989 -143.79 -141.61 -143.14 
3990 -144.91 -141.71 -143.14 
3991 -144.41 -141.69 -143.14 
3992 -145.35 -141.72 -143.14 
3993 -144.94 -141.64 -143.14 
3994 -144.40 -141.49 -143.14 
3995 -145.48 -141.51 -143.14 
3996 -144.58 -141.54 -143.14 
