iteration,time_sampling,stoc_pol_mean,stoc_pol_std,stoc_pol_max,stoc_pol_min,rollout_success,alpha,delta,time_vpg,time_npg,kl_dist,surr_improvement,running_score,rwd_sparse,rwd_dense,success_percentage,num_samples,time_VF,VF_error_before,VF_error_after,eval_score,eval_success
0,1.7487125396728516,-219.43985815713904,0.8814710276089734,-217.14131209493374,-221.6188056240221,0.0,8.279441814467322,0.1,0.06615090370178223,0.31209373474121094,0.22769064,-0.0036161789,-219.43985815713904,-1.0970079493673925,-1.0970079493673925,0.0,19200,1.7282218933105469,0.9992819522187716,0.0068152616609183925,-213.0145786860997,0.0
1,1.402885913848877,-214.60871698997525,0.9304940484954131,-212.5372264796933,-216.9419825191837,0.0,7.4906291637385225,0.1,0.011693477630615234,0.32872724533081055,0.04924863,0.011828928,-218.95674404042268,-1.0729268284901534,-1.0729268284901534,0.0,19200,1.7251462936401367,0.012512149347575533,0.0039035692165503826,-212.8678785169178,0.0
2,1.4133172035217285,-213.7164260602443,0.9437609402568309,-211.56393866214185,-216.3332148416706,0.0,7.369538376821773,0.1,0.011058568954467773,0.3171873092651367,0.050164524,0.013346643,-218.43271224240485,-1.068486670594032,-1.068486670594032,0.0,19200,2.226839303970337,0.01367939763519177,0.0012189950258479387,-213.89062053146785,0.0
3,1.482762098312378,-214.44255471684582,0.8968489093289852,-211.07251801392528,-216.7782956327554,0.0,4.717878807252496,0.1,0.011127471923828125,0.32993268966674805,0.052184273,0.020615356,-218.03369648984895,-1.0721195896938078,-1.0721195896938078,0.0,19200,2.333101511001587,0.006020622705674345,0.00040332777192517415,-214.76645054215268,0.0
4,1.4591636657714844,-215.23095631415677,0.7313936110919385,-213.60495540506187,-217.43668897502627,0.0,6.682062309374659,0.1,0.011419057846069336,0.25815701484680176,0.049099993,0.014789954,-217.75342247227974,-1.0760756171663866,-1.0760756171663866,0.0,19200,2.3758130073547363,0.0027008162509134493,0.00016440010830505363,-215.1388619984718,0.0
5,1.447453260421753,-215.46997638921974,0.6663008865837913,-213.78886781584535,-217.2836725207421,0.0,6.1319245134661875,0.1,0.011655092239379883,0.31488871574401855,0.05424364,0.0150523605,-217.52507786397373,-1.0772741200885312,-1.0772741200885312,0.0,19200,2.4796066284179688,0.00032686693225613366,6.152958789403013e-05,-214.98590801416864,0.0
6,1.4743585586547852,-215.23556797763933,0.5837380562978876,-213.83190648872235,-216.68911288070677,0.0,6.304440711096717,0.1,0.011216402053833008,0.3226761817932129,0.052246246,0.01524464,-217.29612687534032,-1.0761175252372228,-1.0761175252372228,0.0,19200,2.5285136699676514,0.00016339650227488047,2.5946607568667796e-05,-214.4624076774685,0.0
7,1.5874528884887695,-214.4962618818574,0.5052718022281867,-213.2593358270871,-215.64394927449578,0.0,5.7021907130782905,0.1,0.010896921157836914,0.3329606056213379,0.053492356,0.017157635,-217.01614037599202,-1.0724371146935956,-1.0724371146935956,0.0,19200,2.550287961959839,5.186266404693978e-05,2.103703985299352e-05,-214.04377874189908,0.0
8,1.4766361713409424,-213.86737763535396,0.4656516417327158,-212.80073161221836,-215.06756698340254,0.0,5.377526358864324,0.1,0.011097192764282227,0.3223845958709717,0.054698583,0.017130988,-216.70126410192822,-1.0693002227877069,-1.0693002227877069,0.0,19200,2.560393810272217,3.3303589430405156e-05,1.6166338524989546e-05,-213.51143963834824,0.0
9,1.5034143924713135,-213.28747273894692,0.40800788725276793,-212.36059690437426,-214.31343173998934,0.0,6.377453989731775,0.1,0.010809898376464844,0.33427977561950684,0.050208163,0.015045473,-216.3598849656301,-1.0664076370845048,-1.0664076370845048,0.0,19200,2.554262399673462,2.2365125013380724e-05,1.4886994117556693e-05,-212.92809251793187,0.0
10,1.495037317276001,-212.6699874970258,0.36331459222572837,-211.65829052822636,-213.4623834711328,0.0,6.696811373582282,0.1,0.011961221694946289,0.32288265228271484,0.054085355,0.014322937,-215.99089521876965,-1.0633231799304632,-1.0633231799304632,0.0,19200,2.545650005340576,1.8718814944560283e-05,1.4007778322282038e-05,-212.5192013451827,0.0
11,1.4763569831848145,-212.37437229133138,0.3032122725702641,-211.35979971263703,-213.3340059860774,0.0,7.916777170727506,0.1,0.01107168197631836,0.316697359085083,0.05316393,0.011908248,-215.62924292602585,-1.0618469521134843,-1.0618469521134843,0.0,19200,2.638493061065674,1.7425722421204418e-05,1.060594602543004e-05,-212.25850571305352,0.0
12,1.496793508529663,-211.993503433886,0.2635752504873594,-211.3185329212191,-212.59010912493093,0.0,5.824488308036922,0.1,0.011369943618774414,0.32454681396484375,0.058040332,0.015590134,-215.26566897681187,-1.0599429867843728,-1.0599429867843728,0.0,19200,2.6981594562530518,1.2566657073583924e-05,1.4058849037105028e-05,-212.0875070879639,0.0
13,1.5084021091461182,-211.73156985598516,0.28612856270608245,-211.0971243734723,-212.4497614960859,0.0,8.65546111581434,0.1,0.010994672775268555,0.3276081085205078,0.052013934,0.01072932,-214.9122590647292,-1.0586330714408716,-1.0586330714408716,0.0,19200,2.6503024101257324,1.5656167626649944e-05,1.1379268960770289e-05,-212.4481292607498,0.0
14,1.4591832160949707,-211.99550685776663,0.24994135844549015,-211.21001844258294,-212.55685087177187,0.0,6.108794198305488,0.1,0.011499404907226562,0.3196847438812256,0.049666688,0.014212963,-214.62058384403295,-1.0599525855091925,-1.0599525855091925,0.0,19200,2.6043686866760254,1.920285982196728e-05,1.1818317786439361e-05,-212.61556288048646,0.0
15,1.4743459224700928,-211.88481653017334,0.22186119594771253,-211.16322459934446,-212.24892680452132,0.0,7.575726455448649,0.1,0.011288166046142578,0.33049654960632324,0.048110668,0.012263366,-214.347007112647,-1.0593988692916496,-1.0593988692916496,0.0,19200,2.65143084526062,1.1252575836776294e-05,1.1194526959427845e-05,-212.98832351314962,0.0
16,1.6733412742614746,-212.182806683395,0.19345994874064987,-211.67397892750853,-212.7093012122829,0.0,10.554609104418343,0.1,0.011756658554077148,0.31813979148864746,0.045188703,0.008064886,-214.1305870697218,-1.0608880316720994,-1.0608880316720994,0.0,19200,2.705888509750366,1.563599659115995e-05,9.930976639231111e-06,-213.00793833556122,0.0
17,1.4494960308074951,-212.27077423150863,0.17149736683495403,-211.77306561210438,-212.7360457093811,0.0,10.13552770249803,0.1,0.010950088500976562,0.3373293876647949,0.048891038,0.008817244,-213.94460578590048,-1.0613282732705869,-1.0613282732705869,0.0,19200,2.6503398418426514,9.829744053594138e-06,5.817922514844755e-06,-213.03132932642973,0.0
18,1.4493236541748047,-212.29942509891387,0.16337029789011845,-211.89400542108072,-212.64669188348054,0.0,7.865226661204308,0.1,0.011234521865844727,0.33231592178344727,0.050295666,0.011869644,-213.7800877172018,-1.0614707323404173,-1.0614707323404173,0.0,19200,2.6344332695007324,5.632715974087882e-06,4.259155953543293e-06,-212.9565019537357,0.0
19,1.454430103302002,-212.10288327542503,0.18065870364052966,-211.69586037643876,-212.65940659706084,0.0,10.057951192624293,0.1,0.011956453323364258,0.3125641345977783,0.045421198,0.008033466,-213.61236727302415,-1.0604879042968205,-1.0604879042968205,0.0,19200,2.54347825050354,5.455113501470063e-06,4.086116831943893e-06,-212.96001505098795,0.0
20,1.442556381225586,-212.17273280274034,0.17809357722826108,-211.72664587955848,-212.52535741659096,0.0,7.902302378435445,0.1,0.010949373245239258,0.2955498695373535,0.041826412,0.011287932,-213.46840382599578,-1.0608370223129004,-1.0608370223129004,0.0,19200,2.503720283508301,4.976847764742174e-06,3.1564293240665823e-06,-212.88630721959214,0.0
21,1.457427740097046,-212.1107230446972,0.16649373526896394,-211.66428297089965,-212.47923047050227,0.0,6.71663839689143,0.1,0.011217117309570312,0.3268909454345703,0.04687481,0.0119658755,-213.33263574786594,-1.0605271354963002,-1.0605271354963002,0.0,19200,2.5934300422668457,2.839568224177225e-06,3.2153251846627895e-06,-212.83639621352108,0.0
22,1.508253574371338,-212.1734102764249,0.15252008993175895,-211.76733331653853,-212.51803976097446,0.0,7.99987924372388,0.1,0.011514902114868164,0.32657432556152344,0.050285637,0.011656599,-213.2167132007218,-1.0608401619222991,-1.0608401619222991,0.0,19200,2.491339921951294,3.4296965130753266e-06,2.8150327022442203e-06,-212.7086482857821,0.0
23,1.6884489059448242,-212.03280271533083,0.15792758824406855,-211.6678601745373,-212.3838377311808,0.0,8.618777249109554,0.1,0.011191844940185547,0.3213789463043213,0.038491137,0.008855928,-213.09832215218273,-1.0601372654869818,-1.0601372654869818,0.0,19200,2.458811044692993,2.501534887809434e-06,2.819437214584192e-06,-212.63883423458554,0.0
24,1.4840607643127441,-212.0554967374842,0.136847361378685,-211.65896197711768,-212.36040449488158,0.0,5.722273323778996,0.1,0.011340141296386719,0.32624125480651855,0.04265095,0.012039353,-212.9940396107129,-1.0602507422585978,-1.0602507422585978,0.0,19200,2.5077946186065674,2.4322132385145117e-06,5.9398993857009285e-06,-212.4130976241895,0.0
25,1.4556503295898438,-211.84291378198523,0.17189953369144348,-211.4643980927322,-212.23237166291793,0.0,8.552028124957646,0.1,0.011377334594726562,0.32770323753356934,0.037472323,0.010946937,-212.87892702784012,-1.0591876377044036,-1.0591876377044036,0.0,19200,2.5670390129089355,1.1405795810089917e-05,4.905483393264062e-06,-212.04750718478076,0.0
26,1.46630859375,-211.5657089407772,0.19644549457408456,-210.98282058017566,-212.02400910929916,0.0,6.489045569830009,0.1,0.011012554168701172,0.33008837699890137,0.04816762,0.011704852,-212.74760521913385,-1.0578016618495563,-1.0578016618495563,0.0,19200,2.5350074768066406,9.790754097490645e-06,4.33193678963152e-06,-212.1710690551335,0.0
27,1.4634106159210205,-211.71005277443726,0.16142618650948184,-211.15413393844636,-212.0718386418996,0.0,9.088585548656653,0.1,0.010908126831054688,0.32611703872680664,0.04978843,0.010446605,-212.6438499746642,-1.0585233614276293,-1.0585233614276293,0.0,19200,2.408797264099121,4.744850049172088e-06,4.7344744425536855e-06,-212.08470531930857,0.0
28,1.5074057579040527,-211.63255225225058,0.16626012727401196,-211.18191678803126,-212.04018885215046,0.0,7.4586615637282705,0.1,0.011546611785888672,0.2586374282836914,0.050213587,0.014641684,-212.54272020242286,-1.0581359167020403,-1.0581359167020403,0.0,19200,2.3527560234069824,4.371078497717547e-06,4.391471823888802e-06,-212.0397492159032,0.0
29,1.5060527324676514,-211.61146257488483,0.18436066719215957,-211.17854738835328,-211.98309745639176,0.0,6.954892852212655,0.1,0.012176752090454102,0.3278625011444092,0.05122823,0.013005106,-212.44959443966906,-1.0580304224897572,-1.0580304224897572,0.0,19200,2.3442509174346924,4.917115096090819e-06,4.8065525009869305e-06,-211.98138780846313,0.0
30,1.4548099040985107,-211.53976876784682,0.17708516794984192,-211.10447954699697,-211.95615907837336,0.0,9.059442478280578,0.1,0.011101007461547852,0.32341718673706055,0.050748967,0.010664705,-212.35861187248685,-1.0576717452291768,-1.0576717452291768,0.0,19200,2.309695243835449,5.135195207557152e-06,3.862302272785507e-06,-211.91380286393164,0.0
31,1.6101086139678955,-211.50229282742305,0.19315104369126293,-210.9941073041567,-211.8954023667662,0.0,6.907556049964187,0.1,0.011136293411254883,0.32749271392822266,0.043942977,0.015042259,-212.2729799679805,-1.0574841461531692,-1.0574841461531692,0.0,19200,2.3557963371276855,4.615462518643951e-06,4.257228507251752e-06,-211.88089135468653,0.0
32,1.6690447330474854,-211.48365734623178,0.2102968545039968,-210.70850347836102,-211.91592804066266,0.0,9.341429946543439,0.1,0.010998010635375977,0.32911014556884766,0.051138908,0.013853572,-212.19404770580562,-1.0573908127571214,-1.0573908127571214,0.0,19200,2.3044793605804443,4.788541171495468e-06,3.777967076151066e-06,-211.6740878300925,0.0
33,1.4522645473480225,-211.27001103345117,0.1991086183570323,-210.7266394932631,-211.72394195936158,0.0,7.029797371510894,0.1,0.012197017669677734,0.32352328300476074,0.051892452,0.01521216,-212.10164403857019,-1.0563225960453244,-1.0563225960453244,0.0,19200,2.3194782733917236,7.45922971920298e-06,3.7127641635706126e-06,-211.34482174507156,0.0
34,1.5024468898773193,-210.8961632064504,0.23281937516746373,-210.13619755198866,-211.3627230809832,0.0,6.2231288416583785,0.1,0.011642217636108398,0.3248140811920166,0.050426252,0.01733841,-211.9810959553582,-1.0544536716762718,-1.0544536716762718,0.0,19200,2.238262176513672,8.277365439770088e-06,5.9673999042790765e-06,-211.14406905257115,0.0
35,1.455232858657837,-210.65993986115294,0.2639352084816719,-209.94472105958369,-211.2760078420845,0.0,7.261763340511701,0.1,0.011309385299682617,0.3205101490020752,0.05287539,0.013254303,-211.8489803459377,-1.0532726819200213,-1.0532726819200213,0.0,19200,2.254420042037964,6.902215326735522e-06,5.847691541313978e-06,-210.55312156125694,0.0
36,1.4530847072601318,-210.21301501923526,0.22002026459686408,-209.70575952986715,-210.6860562024852,0.0,7.457973311546808,0.1,0.010917901992797852,0.32159948348999023,0.050418492,0.011629002,-211.68538381326744,-1.0510379189210424,-1.0510379189210424,0.0,19200,2.3508691787719727,8.593045609878224e-06,6.853873224234112e-06,-210.20444155809332,0.0
37,1.5203180313110352,-209.81995655227544,0.26489186350868427,-209.00796493158663,-210.41841643394946,0.0,8.294534371279575,0.1,0.011023521423339844,0.32039761543273926,0.05021701,0.012194597,-211.49884108716824,-1.0490726035088744,-1.0490726035088744,0.0,19200,2.3247134685516357,1.260317418365212e-05,5.904601620408974e-06,-209.53583911091937,0.0
38,1.5505671501159668,-209.27957030073992,0.31626441418969053,-208.50767444714333,-210.13110437915932,0.0,7.0127555775332056,0.1,0.011234760284423828,0.32840585708618164,0.048611246,0.01350815,-211.2769140085254,-1.0463707407789578,-1.0463707407789578,0.0,19200,2.4770779609680176,1.8514888020955614e-05,6.622637087612099e-06,-208.46521237617927,0.0
39,1.4901621341705322,-208.38916010746289,0.33136587220992314,-207.67396040825096,-209.049403853111,0.0,9.435964469077039,0.1,0.011170625686645508,0.33219194412231445,0.04143374,0.008784719,-210.98813861841916,-1.0419185919224985,-1.0419185919224985,0.0,19200,2.4605512619018555,5.635607261444785e-05,8.312225101958775e-06,-208.0389876902076,0.0
40,1.6435365676879883,-208.02744715331144,0.3089264995409687,-206.9664199921565,-208.8448958768087,0.0,8.699325787595821,0.1,0.01134800910949707,0.32706642150878906,0.05224532,0.01089671,-210.69206947190838,-1.0401100731342832,-1.0401100731342832,0.0,19200,2.3265674114227295,9.758032883854362e-06,7.085525273303847e-06,-207.2575827368077,0.0
41,1.4882001876831055,-207.40042265195464,0.2880796562099894,-206.6079136010978,-208.27724020123907,0.0,13.367035496299229,0.1,0.012167692184448242,0.3252887725830078,0.046854503,0.0062363013,-210.36290478991302,-1.036974920974935,-1.036974920974935,0.0,19200,2.2471368312835693,2.8926131229766397e-05,5.908213254850524e-06,-207.27059048351128,0.0
42,1.5051109790802002,-207.3251605044334,0.32616311583697133,-206.45140696054352,-207.99578783133,0.0,8.14583573607422,0.1,0.01123809814453125,0.32302188873291016,0.05429336,0.011430085,-210.05913036136505,-1.0365985001672076,-1.0365985001672076,0.0,19200,2.24509596824646,6.834466964994291e-06,7.0764386133634296e-06,-206.57043461664563,0.0
43,1.479947566986084,-206.86068669496183,0.28722266855285156,-206.10288775440355,-207.47843594474293,0.0,9.152334443041905,0.1,0.010743141174316406,0.2534768581390381,0.04668081,0.012118314,-209.73928599472475,-1.0342760356911025,-1.0342760356911025,0.0,19200,2.1472008228302,1.925524007654594e-05,1.0129598480777253e-05,-206.15950478958985,0.0
44,1.5376169681549072,-206.51425926651862,0.2878782214570815,-205.66526132504507,-207.18326807158599,0.0,9.621075171676424,0.1,0.011139392852783203,0.2777864933013916,0.04530951,0.010472709,-209.41678332190415,-1.0325437730182068,-1.0325437730182068,0.0,19200,2.024993896484375,8.277823954378629e-06,6.163919913772685e-06,-206.2615940184979,0.0
45,1.4566872119903564,-206.54395251329865,0.3097888247414224,-205.55863923510404,-207.29279693298244,0.0,7.908100034202537,0.1,0.011438369750976562,0.3263213634490967,0.051043417,0.011544347,-209.12950024104362,-1.0326922454996876,-1.0326922454996876,0.0,19200,2.1239802837371826,7.107376624771873e-06,1.0061134122584689e-05,-205.7554324121982,0.0
46,1.4740006923675537,-206.18368214961626,0.29216114521106823,-205.51747567000052,-206.83931172509187,0.0,7.957306029178321,0.1,0.010814428329467773,0.281832218170166,0.05570984,0.012076726,-208.8349184319009,-1.0308908242295427,-1.0308908242295427,0.0,19200,2.1360647678375244,7.800005579345815e-06,5.963609191059387e-06,-205.42570520188065,0.0
47,1.6460697650909424,-205.9402675449477,0.3299499659506988,-205.1803236651019,-206.91164730006037,0.0,10.408152393702021,0.1,0.010775566101074219,0.32085227966308594,0.050577357,0.009272463,-208.54545334320557,-1.0296738899781352,-1.0296738899781352,0.0,19200,2.276914596557617,1.2135202819791587e-05,7.839767545186208e-06,-204.22192367973645,0.0
48,1.5041944980621338,-205.0613149352276,0.27521948929539924,-204.4983820888167,-205.72781413360403,0.0,9.507068585910874,0.1,0.010831832885742188,0.3199765682220459,0.048482344,0.009928627,-208.19703950240776,-1.0252791061348017,-1.0252791061348017,0.0,19200,2.2890126705169678,3.5562891454027434e-05,4.969901597322981e-06,-204.04940359398773,0.0
49,1.4901645183563232,-204.9843774868807,0.2977639630183554,-204.04497453438017,-206.05806892355855,0.0,8.025823578783688,0.1,0.011251211166381836,0.31903624534606934,0.05208396,0.01002865,-207.87577330085506,-1.0248944414807009,-1.0248944414807009,0.0,19200,2.2455384731292725,6.8303909039634945e-06,1.7318137323175694e-05,-203.7517415390772,0.0
50,1.5567257404327393,-204.5791788054876,0.2653239754272612,-203.92444603157628,-205.22607952419963,0.0,8.053872002502072,0.1,0.011457443237304688,0.3188910484313965,0.03880955,0.00867394,-207.54611385131832,-1.0228683455128333,-1.0228683455128333,0.0,19200,2.2436177730560303,3.719864514601409e-05,4.8974763272836784e-06,-203.48363326809886,0.0
51,1.525615930557251,-204.35136761852172,0.2359622540134591,-203.84539340512214,-204.8523056882729,0.0,6.846140791395862,0.1,0.01137685775756836,0.26079654693603516,0.05077569,0.012672193,-207.22663922803866,-1.0217293081195509,-1.0217293081195509,0.0,19200,2.1999237537384033,8.451392204332653e-06,4.162825636198568e-06,-203.18514031740153,0.0
52,1.4620394706726074,-203.98603199348562,0.2517069992861523,-203.45299453013178,-204.6193212155659,0.0,9.297101526490424,0.1,0.011082649230957031,0.25217294692993164,0.048472412,0.00807364,-206.90257850458337,-1.0199025942678288,-1.0199025942678288,0.0,19200,2.168523073196411,1.1507272643234944e-05,4.340059233483553e-06,-203.3915191649844,0.0
53,1.5392937660217285,-204.0470258264772,0.23058662065981647,-203.57815430615685,-204.80143985714471,0.0,7.820481070947772,0.1,0.01145792007446289,0.3148159980773926,0.048908107,0.013739044,-206.61702323677278,-1.0202075735230585,-1.0202075735230585,0.0,19200,2.1831002235412598,3.9274225870923975e-06,5.147896612029933e-06,-203.37167330300625,0.0
54,1.5472559928894043,-203.94106132139095,0.1975463640313204,-203.49656015481204,-204.41091464026402,0.0,8.158368249166426,0.1,0.011670112609863281,0.32486748695373535,0.049151476,0.011939656,-206.3494270452346,-1.0196776829502967,-1.0196776829502967,0.0,19200,2.268954038619995,5.507630467213304e-06,3.2320847787041296e-06,-203.40435872662718,0.0
55,1.691077470779419,-203.8820616678854,0.17416838294607717,-203.42247082765854,-204.31711902539132,0.0,7.326167739256559,0.1,0.010908365249633789,0.32928037643432617,0.04577046,0.016733712,-206.10269050749966,-1.0193826662252834,-1.0193826662252834,0.0,19200,2.1958911418914795,2.6974297842985205e-06,1.357779760532237e-05,-203.32183451330343,0.0
56,1.4660885334014893,-203.81372387691604,0.18663293007791218,-203.36743537104553,-204.3917239604917,0.0,6.321812048647115,0.1,0.01095438003540039,0.30828261375427246,0.048135538,0.013183061,-205.8737938444413,-1.0190409777489533,-1.0190409777489533,0.0,19200,2.0666942596435547,1.697779699349503e-05,3.077449635787892e-06,-202.9672643043823,0.0
57,1.5089976787567139,-203.43678633900905,0.17954750971895544,-203.00024399186051,-204.01442791719543,0.0,7.3085201715760695,0.1,0.011119842529296875,0.3218977451324463,0.052688852,0.01667124,-205.6300930938981,-1.017156274019542,-1.017156274019542,0.0,19200,2.065645933151245,1.1677938896687951e-05,5.849750171959506e-06,-203.0722057342166,0.0
58,1.4723927974700928,-203.45362518788502,0.1663783402781892,-203.0545868227765,-203.88910315159634,0.0,6.922341787727294,0.1,0.011192798614501953,0.25264835357666016,0.04933135,0.013468468,-205.4124463032968,-1.0172404549597263,-1.0172404549597263,0.0,19200,2.11361026763916,6.277434631834232e-06,4.608684980955975e-06,-203.07003380419442,0.0
59,1.5316572189331055,-203.4623686836144,0.15979228097972462,-203.01509209369357,-203.8010990108758,0.0,9.306998264065337,0.1,0.010935783386230469,0.32863497734069824,0.04949262,0.011416673,-205.21743854132856,-1.01728416741349,-1.01728416741349,0.0,19200,2.109726667404175,5.587558757011165e-06,4.8396050991194666e-06,-202.86820661999218,0.0
60,1.4846136569976807,-203.2576189698386,0.15950487053232215,-202.88423611912071,-203.7854368666883,0.0,8.046499270524109,0.1,0.011397600173950195,0.31879711151123047,0.049849212,0.012405424,-205.02145658417956,-1.0162603670277415,-1.0162603670277415,0.0,19200,2.0640926361083984,6.223991400362699e-06,2.338211029865673e-06,-202.7043750575072,0.0
61,1.4816629886627197,-203.06441716992776,0.14028067700437571,-202.77309251869144,-203.52608527432284,0.0,12.935345580220531,0.1,0.010922431945800781,0.3305354118347168,0.049666367,0.0065756897,-204.82575264275437,-1.0152943298537318,-1.0152943298537318,0.0,19200,2.0662472248077393,3.842507466581133e-06,3.1458240238400483e-06,-202.6823005867222,0.0
62,1.6588304042816162,-202.97726580663402,0.1369963122837994,-202.57719445172796,-203.384291613844,0.0,8.05429592979652,0.1,0.011641740798950195,0.3241913318634033,0.051362354,0.008100242,-204.64090395914235,-1.0148585657198634,-1.0148585657198634,0.0,19200,1.9188454151153564,4.618123735841165e-06,2.075015045076114e-06,-202.95944640047088,0.0
63,1.4538609981536865,-203.2208907282064,0.1308538056680647,-202.89498882145458,-203.50519854153865,0.0,6.503670470912437,0.1,0.011124134063720703,0.3235809803009033,0.050050955,0.0053146984,-204.49890263604874,-1.0160767610133712,-1.0160767610133712,0.0,19200,1.9510700702667236,5.251073573887594e-06,1.9470515450461754e-06,-203.03565491114736,0.0
64,1.5243430137634277,-203.26131213203246,0.13223595790187018,-202.96709368053808,-203.74696114355672,0.0,7.50202717047203,0.1,0.012777566909790039,0.3703432083129883,0.0479844,0.009616557,-204.37514358564712,-1.0162789025111831,-1.0162789025111831,0.0,19200,1.9442498683929443,2.382576071662878e-06,1.9246047982880336e-06,-202.77258632505755,0.0
65,1.501183032989502,-203.03821371456982,0.12495884021613149,-202.80156615189702,-203.32986404028932,0.0,6.581535379066939,0.1,0.011412858963012695,0.32255005836486816,0.050454535,0.008399806,-204.24145059853942,-1.0151634766255582,-1.0151634766255582,0.0,19200,1.9682509899139404,4.611884123857272e-06,2.0345810810403267e-06,-202.75206141217814,0.0
66,1.4561741352081299,-202.99583400241065,0.14037166441497792,-202.69678307104385,-203.34996019750304,0.0,9.147798142079829,0.1,0.010646581649780273,0.31920480728149414,0.04913695,0.010299039,-204.11688893892654,-1.0149514805711102,-1.0149514805711102,0.0,19200,1.956348180770874,2.5871877380065994e-06,7.516745866103229e-06,-202.64638757377745,0.0
67,1.4703834056854248,-202.85083932245956,0.12757754366186658,-202.5441379927007,-203.11180630532945,0.0,7.755665784424622,0.1,0.011311054229736328,0.3241441249847412,0.052481815,0.014543879,-203.99028397727983,-1.0142266246900198,-1.0142266246900198,0.0,19200,2.0359394550323486,1.8817731401299886e-05,3.2423385420059476e-06,-202.87007440228462,0.0
68,1.512829303741455,-203.06638024272374,0.10285693855644937,-202.7624007700644,-203.3115332782704,0.0,8.009064201254654,0.1,0.011185407638549805,0.32095766067504883,0.051461134,0.011650172,-203.89789360382423,-1.0153042192120194,-1.0153042192120194,0.0,19200,2.054602861404419,6.973693813788224e-06,1.7596311897323394e-06,-202.87392679009264,0.0
69,1.6198997497558594,-203.08183733473834,0.12760811459818905,-202.8235722884638,-203.46381579074324,0.0,7.907215845461157,0.1,0.011140584945678711,0.2559475898742676,0.04951266,0.011552106,-203.81628797691565,-1.015381353572945,-1.015381353572945,0.0,19200,2.11259388923645,2.361544864789601e-06,3.16375924433803e-06,-202.93080760136473,0.0
70,1.6440463066101074,-203.15302707907767,0.11527725380384639,-202.90197641364585,-203.62131145118667,0.0,9.676255944609002,0.1,0.011101245880126953,0.32849812507629395,0.052018624,0.010592174,-203.74996188713186,-1.0157373062066415,-1.0157373062066415,0.0,19200,2.166262149810791,4.414957103677012e-06,2.6643484976425966e-06,-202.7895539736007,0.0
71,1.5449976921081543,-203.0002671392405,0.09796546262569455,-202.68216453609045,-203.21106981887334,0.0,6.651668780065135,0.1,0.011350631713867188,0.3178255558013916,0.049468547,0.020178601,-203.67499241234273,-1.0149734521938127,-1.0149734521938127,0.0,19200,2.1122376918792725,4.627552317732419e-06,3.095498029251091e-06,-202.76235023195517,0.0
72,1.498140811920166,-202.95791791309884,0.10439833526768989,-202.70530577629748,-203.299333963534,0.0,7.494112145454147,0.1,0.010969400405883789,0.3130321502685547,0.04832476,0.010615556,-203.60328496241834,-1.0147616949068095,-1.0147616949068095,0.0,19200,2.161534547805786,4.311732400829987e-06,8.53112200305836e-06,-202.97661117836225,0.0
73,1.474675178527832,-203.17902842000467,0.10824695577944858,-202.82681926092286,-203.5030762401932,0.0,8.294001627113973,0.1,0.011191129684448242,0.3223404884338379,0.05013328,0.011812587,-203.560859308177,-1.01586732694453,-1.01586732694453,0.0,19200,2.0542688369750977,1.4727778652399766e-05,5.226285491293893e-06,-202.74428872631586,0.0
74,1.5069406032562256,-202.94339457644352,0.12090205374888996,-202.644138642398,-203.32824230286556,0.0,8.451325547950532,0.1,0.012475728988647461,0.33327579498291016,0.050766397,0.0098235635,-203.49911283500364,-1.0146891038430523,-1.0146891038430523,0.0,19200,2.041262149810791,1.2086584216446788e-05,2.182451300618916e-06,-202.68684322034701,0.0
75,1.4534573554992676,-202.86813314413018,0.10786466802242906,-202.5960287979779,-203.1005605772259,0.0,7.065078802005371,0.1,0.01114797592163086,0.3267223834991455,0.049058255,0.01149668,-203.43601486591632,-1.014312820732966,-1.014312820732966,0.0,19200,1.9661459922790527,1.5626215724150953e-06,1.823058700559348e-06,-202.66890949475274,0.0
76,1.4933531284332275,-202.81853729180352,0.10561077267778138,-202.633497581126,-203.08213130071564,0.0,6.301036309460075,0.1,0.011237144470214844,0.33517909049987793,0.047314987,0.011492805,-203.37426710850502,-1.0140648910775556,-1.0140648910775556,0.0,19200,1.9914357662200928,3.067809474498269e-06,6.201197063516733e-06,-202.87331429594764,0.0
77,1.6087710857391357,-203.02820734630595,0.10506762659144754,-202.76667646393003,-203.2712314376752,0.0,9.336141588016634,0.1,0.011482954025268555,0.31627821922302246,0.04735429,0.008007601,-203.3396611322851,-1.0151131626655523,-1.0151131626655523,0.0,19200,2.069983720779419,1.3949461042671866e-05,2.133019180597426e-06,-203.04459834068837,0.0
78,1.6775758266448975,-203.18846245710893,0.10314383307482552,-202.91494996644008,-203.43608792255523,0.0,7.396463553574588,0.1,0.011217117309570312,0.2943427562713623,0.050975766,0.013711653,-203.32454126476748,-1.0159144242623823,-1.0159144242623823,0.0,19200,2.0429399013519287,3.902106309672956e-06,1.5434886594775258e-06,-202.96253661911726,0.0
79,1.473179817199707,-203.11156277745056,0.10878069282633578,-202.86948589644877,-203.37861881367,0.0,7.733289078103358,0.1,0.010946512222290039,0.3037693500518799,0.049823534,0.013516495,-203.3032434160358,-1.0155299571705274,-1.0155299571705274,0.0,19200,2.122833490371704,1.5242141795947705e-06,4.663914522095228e-06,-203.04487852822558,0.0
80,1.4770898818969727,-203.16296166727307,0.09397275679168807,-202.98269897439133,-203.4036028384562,0.0,8.32962029895303,0.1,0.011011838912963867,0.3171417713165283,0.051838927,0.011360769,-203.28921524115952,-1.0157868637784666,-1.0157868637784666,0.0,19200,2.191758632659912,3.076093661203991e-06,3.2778500380705056e-06,-203.05133671284452,0.0
81,1.4714465141296387,-203.1826044244162,0.09430114467145283,-202.84078836934498,-203.44661018512542,0.0,8.266596113518762,0.1,0.011678218841552734,0.2664945125579834,0.04799443,0.009634552,-203.2785541594852,-1.015885043976695,-1.015885043976695,0.0,19200,2.1618261337280273,3.789564568915614e-06,1.4958098770264455e-06,-202.87703143131796,0.0
82,1.5042495727539062,-203.00372937463024,0.10916557737958706,-202.66498306351752,-203.2983444652251,0.0,8.470667811928292,0.1,0.011230707168579102,0.32381558418273926,0.04998761,0.008234606,-203.2510716809997,-1.0149907191256127,-1.0149907191256127,0.0,19200,2.1922688484191895,2.200336285765621e-06,1.8897566284807978e-06,-202.92603027277252,0.0
83,1.49196195602417,-203.06489782100775,0.10527741615832314,-202.75365948468908,-203.28975946007188,0.0,5.75590190972308,0.1,0.011605024337768555,0.25569677352905273,0.050643064,0.01830457,-203.2324542950005,-1.0152964498352584,-1.0152964498352584,0.0,19200,2.0942065715789795,2.180845703107226e-06,1.7917301445432387e-06,-203.05884187423626,0.0
84,1.4734234809875488,-203.20663772641606,0.08671589361853656,-202.984929726304,-203.46018510303315,0.0,9.159189358231135,0.1,0.012970685958862305,0.3000960350036621,0.047660086,0.009598817,-203.22987263814207,-1.0160051851208907,-1.0160051851208907,0.0,19200,2.03997540473938,2.6384523927568742e-06,2.6027787213075328e-06,-202.9413530511381,0.0
85,1.5088798999786377,-203.07761601025052,0.09456824572959216,-202.87664591893187,-203.2579382493158,0.0,8.27362771741607,0.1,0.011887550354003906,0.3085930347442627,0.04929407,0.009532349,-203.2146469753529,-1.0153599949709784,-1.0153599949709784,0.0,19200,1.972379207611084,2.0736095068910485e-06,1.6224025496381838e-06,-203.13664237197938,0.0
86,1.6402597427368164,-203.28099294780472,0.09044717359955365,-203.0930780661533,-203.50533838744656,0.0,7.8021209376098035,0.1,0.01259922981262207,0.35085487365722656,0.05039138,0.014555424,-203.22128157259812,-1.0163770301310528,-1.0163770301310528,0.0,19200,2.8127191066741943,2.4769097665659705e-06,3.1207700814757357e-06,-203.16439812033428,0.0
87,1.4915544986724854,-203.30089516046587,0.09669477340357677,-203.06125706399612,-203.64154173675274,0.0,11.722056707398155,0.1,0.011499881744384766,0.26490235328674316,0.05346526,0.0073662694,-203.2292429313849,-1.0164764603652332,-1.0164764603652332,0.0,19200,2.190739154815674,3.0050322581056796e-06,3.2415479687621337e-06,-203.05896677654403,0.0
88,1.4785819053649902,-203.1779670014357,0.10198208771176616,-202.91167500501055,-203.4392221880562,0.0,7.719450736124906,0.1,0.011054039001464844,0.30971240997314453,0.049995694,0.013999104,-203.22411533838996,-1.015861901401478,-1.015861901401478,0.0,19200,2.070728063583374,4.804141764465597e-06,1.4201021095334094e-06,-203.00807294494274,0.0
89,1.491668701171875,-203.140987126233,0.09791443444305849,-202.91044850500495,-203.37967854231317,0.0,8.951163881589608,0.1,0.01120138168334961,0.2588222026824951,0.049014483,0.01108249,-203.21580251717427,-1.0156769335528633,-1.0156769335528633,0.0,19200,2.087947130203247,1.575714328988646e-06,6.614838291780782e-06,-203.03246534804194,0.0
90,1.5033621788024902,-203.15251502034357,0.10561427139813129,-202.86186113519346,-203.42022722641755,0.0,9.879127827818394,0.1,0.010751962661743164,0.30747008323669434,0.050268047,0.007752754,-203.2094737674912,-1.0157346722954044,-1.0157346722954044,0.0,19200,2.082444429397583,7.530634785391722e-06,1.5363123214210458e-06,-203.12844612157093,0.0
91,1.4800350666046143,-203.24904519655274,0.09668569701114904,-203.06024221506908,-203.5260378474301,0.0,7.030371321621848,0.1,0.011222124099731445,0.30605125427246094,0.048712377,0.01622353,-203.2134309103974,-1.0162172872837025,-1.0162172872837025,0.0,19200,2.0839786529541016,2.364076985353726e-06,2.1015093213082433e-06,-203.25860827560763,0.0
92,1.4843027591705322,-203.38928418941964,0.08584697181805424,-203.14805440803315,-203.57077537399235,0.0,7.681661026995171,0.1,0.01158285140991211,0.32244348526000977,0.049340673,0.01643767,-203.23101623829965,-1.0169185470840427,-1.0169185470840427,0.0,19200,2.0743930339813232,1.8435446713669746e-06,3.013269701450908e-06,-203.22236753145216,0.0
93,1.6589281558990479,-203.35311698431022,0.08688824990530603,-203.07211343607952,-203.6709490785312,0.0,10.307220533040807,0.1,0.01107645034790039,0.3032050132751465,0.047904763,0.008156039,-203.2432263129007,-1.0167378171200305,-1.0167378171200305,0.0,19200,2.0780227184295654,2.699562031034065e-06,3.0548948657090014e-06,-203.2459558385454,0.0
94,1.4648828506469727,-203.3752894466153,0.09531709302718629,-203.12042258314423,-203.57872686137975,0.0,8.052621898059439,0.1,0.01125645637512207,0.32158398628234863,0.049040575,0.013519104,-203.25643262627216,-1.0168485360100792,-1.0168485360100792,0.0,19200,2.01452374458313,4.614737785808138e-06,2.4980943550295142e-06,-203.15186838681427,0.0
95,1.4979462623596191,-203.28243781560786,0.10476185277093529,-202.98799527421414,-203.5341056686964,0.0,10.605533241812413,0.1,0.011586666107177734,0.32054877281188965,0.051548317,0.010310227,-203.25903314520573,-1.0163843387397324,-1.0163843387397324,0.0,19200,2.0496277809143066,1.7277836239524333e-06,3.4671958048515058e-06,-203.23730086859965,0.0
96,1.5288290977478027,-203.3465383897247,0.08618894183269524,-203.1323399831445,-203.6067451064885,0.0,5.532549539509945,0.1,0.010509490966796875,0.2538142204284668,0.05128023,0.013991906,-203.26778366965766,-1.0167048086964725,-1.0167048086964725,0.0,19200,2.131938934326172,4.643793308603047e-06,2.5131393976133355e-06,-203.31813469082547,0.0
97,1.4715640544891357,-203.4325141694264,0.08388218829253218,-203.25337920654349,-203.59686779006913,0.0,9.538092953403982,0.1,0.011327743530273438,0.33034253120422363,0.051577345,0.011035037,-203.28425671963456,-1.017134543975862,-1.017134543975862,0.0,19200,2.15991473197937,4.838019639760065e-06,1.3903660596912971e-06,-203.44141172492874,0.0
98,1.4831314086914062,-203.5512803827071,0.09242075871283355,-203.31708738419516,-203.8927339943032,0.0,7.510638509824474,0.1,0.010764122009277344,0.31246447563171387,0.049228705,0.015242297,-203.31095908594182,-1.0177283774475763,-1.0177283774475763,0.0,19200,2.043213367462158,2.590636100633737e-06,1.447166791174776e-06,-203.52353765129408,0.0
99,1.4716100692749023,-203.62658148303103,0.09954280882623925,-203.3588631533447,-203.85082557578855,0.0,7.250585450935234,0.1,0.010919809341430664,0.31900858879089355,0.050494984,0.012988189,-203.34252132565075,-1.0181048646697735,-1.0181048646697735,0.0,19200,2.0166304111480713,1.4996210400067658e-06,2.178409356138844e-06,-203.4544310251352,0.0
100,1.4921190738677979,-203.54557705272205,0.09259226976208787,-203.2622595343981,-203.79565764581645,0.0,12.592158982829805,0.1,0.011984109878540039,0.3233327865600586,0.04867074,0.0085571315,-203.3628268983579,-1.017699827448807,-1.017699827448807,0.0,19200,2.1247775554656982,2.298404822009678e-06,2.7709742413395347e-06,-203.46059701182602,0.0
101,1.9946327209472656,-203.55430539951706,0.07836378461593835,-203.36099315531288,-203.71332822073677,0.0,7.896004478564692,0.1,0.011234045028686523,0.32821011543273926,0.048608724,0.01270009,-203.3819747484738,-1.0177434134318168,-1.0177434134318168,0.0,19200,2.1336920261383057,2.6876074634727697e-06,1.2138361502396146e-06,-203.50886861485304,0.0
102,1.4744868278503418,-203.6173038779705,0.09066690113810824,-203.31729032815025,-203.8179999890444,0.0,7.821870136355673,0.1,0.010935068130493164,0.3324573040008545,0.050681125,0.013792903,-203.40550766142348,-1.0180582776064004,-1.0180582776064004,0.0,19200,2.035632848739624,1.6282945634523768e-06,1.1786138588833375e-06,-203.44438669469713,0.0
103,1.5041747093200684,-203.54752394498618,0.09137771147956454,-203.316698045726,-203.84644757679175,0.0,6.937993717473501,0.1,0.012209415435791016,0.33302736282348633,0.050862476,0.011396115,-203.41970928977975,-1.0177096308601223,-1.0177096308601223,0.0,19200,2.0850470066070557,1.2784770262908125e-06,2.554380428962029e-06,-203.4264577987225,0.0
104,1.4628736972808838,-203.54041384791705,0.0854184649298895,-203.33072908714664,-203.77445760026845,0.0,5.567786709379667,0.1,0.011243820190429688,0.32581448554992676,0.05056735,0.017372487,-203.4317797455935,-1.0176739420732426,-1.0176739420732426,0.0,19200,2.1193954944610596,2.058922629515298e-06,4.541540090125214e-06,-203.506721424747,0.0
105,1.471752643585205,-203.62021600912558,0.10275888899196359,-203.35639623763157,-203.8642132995046,0.0,7.470283825041854,0.1,0.011590003967285156,0.33855628967285156,0.04821722,0.019302245,-203.4506233719467,-1.0180730080438092,-1.0180730080438092,0.0,19200,2.1010489463806152,6.803829502143441e-06,1.2293730176650078e-06,-203.38399469638034,0.0
106,1.499629259109497,-203.47924360692096,0.09611042559448488,-203.25114477701456,-203.7558504548591,0.0,9.969494171901488,0.1,0.015430927276611328,0.36710453033447266,0.049960278,0.010081961,-203.45348539544415,-1.0173682912135054,-1.0173682912135054,0.0,19200,2.756098508834839,2.456961040086229e-06,1.3688483715545562e-06,-203.36108444661437,0.0
107,1.516524076461792,-203.46866267005603,0.09201904246361675,-203.3103523854447,-203.69142345328783,0.0,7.069849240077442,0.1,0.011234521865844727,0.3278656005859375,0.04899726,0.01431459,-203.45500312290534,-1.0173153461859161,-1.0173153461859161,0.0,19200,2.0527682304382324,1.3826269976544025e-06,1.7900981727392372e-06,-203.4658244737709,0.0
108,1.4783391952514648,-203.59606912110021,0.10158307074684231,-203.36027118772955,-203.89716885448405,0.0,6.702626018101655,0.1,0.011171340942382812,0.3288698196411133,0.04759655,0.015897814,-203.46910972272482,-1.0179521108012102,-1.0179521108012102,0.0,19200,2.0419836044311523,3.940412695836437e-06,1.3850193808775362e-06,-203.47102336366424,0.0
109,1.6316454410552979,-203.5904998685011,0.11137014354703519,-203.33523962379667,-203.95240852768856,0.0,9.341130562456978,0.1,0.011059999465942383,0.27178478240966797,0.049923673,0.009977309,-203.48124873730245,-1.0179243848851927,-1.0179243848851927,0.0,19200,2.053593397140503,1.5069613861775583e-06,2.1404750993862776e-06,-203.37349689508835,0.0
110,1.4620320796966553,-203.48261369769872,0.10427976233887314,-203.1779338392405,-203.75105251576414,0.0,7.8981751393845485,0.1,0.012150049209594727,0.3101637363433838,0.051872812,0.014391287,-203.4813852333421,-1.0173848929203428,-1.0173848929203428,0.0,19200,2.061640977859497,3.3263791808439424e-06,1.515993542798741e-06,-203.35148852538018,0.0
111,1.4637644290924072,-203.4591078966943,0.0944590308606155,-203.16872347248238,-203.67174876455192,0.0,7.893753148973199,0.1,0.011345863342285156,0.31961941719055176,0.049550164,0.012935745,-203.47915749967734,-1.0172673070893212,-1.0172673070893212,0.0,19200,2.1126160621643066,1.599346885097137e-06,1.4277505831769576e-06,-203.30632442199817,0.0
112,1.5152232646942139,-203.39861031509645,0.09304274886070399,-203.1578848396962,-203.62266916268212,0.0,7.785069382419303,0.1,0.011030435562133789,0.3266716003417969,0.0501273,0.013792205,-203.47110278121926,-1.016964732911541,-1.016964732911541,0.0,19200,2.2582294940948486,1.6803713749437999e-06,1.870181255209427e-06,-203.20377604024497,0.0
113,1.49690842628479,-203.3115857544727,0.10465815689891321,-203.03740913909704,-203.56873179008755,0.0,7.66146697878046,0.1,0.011299610137939453,0.33088231086730957,0.05084236,0.013643957,-203.4551510785446,-1.016529565701686,-1.016529565701686,0.0,19200,2.089606285095215,1.9394671244873014e-06,1.936177538774515e-06,-203.1763368625027,0.0
114,1.491018533706665,-203.26961859946945,0.08794665369019249,-202.9978688825183,-203.46330148743422,0.0,9.59761679731635,0.1,0.0111541748046875,0.3194763660430908,0.049046777,0.008034147,-203.43659783063708,-1.0163197393477563,-1.0163197393477563,0.0,19200,2.0689351558685303,1.8671295930911869e-06,1.2500908869687845e-06,-203.1348328624072,0.0
115,1.4799168109893799,-203.25253443008012,0.09534587468173779,-203.01364121924553,-203.4553113344712,0.0,6.928425280666105,0.1,0.01118326187133789,0.30381131172180176,0.05015654,0.015905602,-203.4181914905814,-1.0162341998843527,-1.0162341998843527,0.0,19200,2.058459758758545,1.2476708041792105e-06,1.3882233273936833e-06,-203.09121719637932,0.0
116,1.6070287227630615,-203.19258689532535,0.08568892068639902,-203.02341280088734,-203.40087407965788,0.0,8.773999881411637,0.1,0.011293649673461914,0.25942468643188477,0.049471866,0.013137165,-203.3956310310558,-1.0159345566192546,-1.0159345566192546,0.0,19200,2.099273681640625,1.2223903718487324e-06,1.3654619127189461e-06,-203.21111258664018,0.0
117,1.694049596786499,-203.31454636201934,0.08871158547087302,-203.07692590082326,-203.54541281066142,0.0,9.525247354284435,0.1,0.011687994003295898,0.2894573211669922,0.049185548,0.009228275,-203.38752256415216,-1.0165443177166364,-1.0165443177166364,0.0,19200,2.115083694458008,2.4299741708434993e-06,2.6986149878116453e-06,-203.11063755106147,0.0
118,1.5270476341247559,-203.21663076150563,0.07776985400267011,-203.07019356098232,-203.41784996100358,0.0,8.984582718097105,0.1,0.012536048889160156,0.2816319465637207,0.049947657,0.012261582,-203.37043338388753,-1.0160543711270378,-1.0160543711270378,0.0,19200,2.0920772552490234,2.2205474082459015e-06,1.2181066422933855e-06,-203.0480088997732,0.0
119,1.5030221939086914,-203.14528584312598,0.08431756425713155,-202.9383843245797,-203.3344811104147,0.0,11.880651732633815,0.1,0.011823892593383789,0.3211698532104492,0.051124353,0.009313458,-203.34791862981137,-1.0156979261367969,-1.0156979261367969,0.0,19200,2.0069189071655273,1.7035842827439857e-06,1.2756708598943651e-06,-203.04504969338765,0.0
120,1.5000576972961426,-203.15345192209102,0.08772924869764775,-202.91234867090535,-203.36149244676497,0.0,4.977737755440517,0.1,0.010810613632202148,0.2529773712158203,0.05103624,0.022990962,-203.32847195903935,-1.015738715742584,-1.015738715742584,0.0,19200,2.0441927909851074,1.3099553226150148e-06,2.227929057222832e-06,-203.16866420560453,0.0
121,1.5142040252685547,-203.2619330714417,0.08011992900114487,-203.06459866281477,-203.4689475655306,0.0,7.435974193997593,0.1,0.013602018356323242,0.364532470703125,0.0484332,0.01684547,-203.3218180702796,-1.0162811246329564,-1.0162811246329564,0.0,19200,2.8170406818389893,1.6494597386780383e-06,1.2252196335635953e-06,-203.06016896343678,0.0
122,1.4672772884368896,-203.16165400545492,0.08144849106210329,-202.9887081255347,-203.40257901577573,0.0,9.12205839946079,0.1,0.011405467987060547,0.25603818893432617,0.045219418,0.0106011545,-203.30580166379713,-1.0157798183891462,-1.0157798183891462,0.0,19200,2.12709379196167,1.1975799224491083e-06,1.175435113469888e-06,-203.0961150391289,0.0
123,1.4878089427947998,-203.21625826687793,0.07683535159822068,-202.97385265372583,-203.398281358266,0.0,7.302593919090698,0.1,0.011095523834228516,0.32974720001220703,0.051307287,0.020365797,-203.29684732410522,-1.0160526408669843,-1.0160526408669843,0.0,19200,2.1440188884735107,1.5624067995671805e-06,1.6847835659664167e-06,-203.23129775103018,0.0
124,1.4952666759490967,-203.3417332507861,0.08734246048145473,-203.07539578819518,-203.5186248462408,0.0,5.329282964181966,0.1,0.01275944709777832,0.32883644104003906,0.050152652,0.011920609,-203.3013359167733,-1.0166799709455632,-1.0166799709455632,0.0,19200,2.022014617919922,3.6896680443700388e-06,1.3625765245188927e-06,-203.09417197919328,0.0
125,1.6706199645996094,-203.21190727132827,0.08372583632919854,-203.000913176632,-203.38756941287247,0.0,5.61994664230713,0.1,0.011089801788330078,0.25586533546447754,0.051066846,0.015176845,-203.2923930522288,-1.0160307641805284,-1.0160307641805284,0.0,19200,2.0380051136016846,1.3000370606550974e-06,5.802434817281557e-06,-203.18076732009257,0.0
126,1.491539716720581,-203.30012934886122,0.08652744333677682,-203.09913967014288,-203.50185386039104,0.0,8.204432725937524,0.1,0.011224985122680664,0.3244328498840332,0.05189719,0.01597917,-203.29316668189205,-1.016471829127143,-1.016471829127143,0.0,19200,2.0716958045959473,4.567475778682903e-06,1.7768583863048566e-06,-203.28173327067867,0.0
127,1.4738414287567139,-203.38774284514855,0.09537544277952707,-203.13219488964893,-203.60788090236164,0.0,9.363317169147196,0.1,0.011348724365234375,0.2686648368835449,0.04915568,0.013119248,-203.30262429821772,-1.0169097036973112,-1.0169097036973112,0.0,19200,2.1236608028411865,1.4020920867699576e-06,1.6446410890804143e-06,-203.22095724912444,0.0
128,1.4608759880065918,-203.32313530767888,0.09352553111751828,-203.10960322178934,-203.6609959850674,0.0,8.694903086090221,0.1,0.011677742004394531,0.3252420425415039,0.049676824,0.008880099,-203.30467539916384,-1.0165863312334498,-1.0165863312334498,0.0,19200,2.0559380054473877,2.4205904425694823e-06,1.2634458752587147e-06,-203.08876711455326,0.0
129,1.458739995956421,-203.18814016320664,0.08696014873051569,-203.00459222903558,-203.4239079735491,0.0,6.89280289219579,0.1,0.01096343994140625,0.3344852924346924,0.04548676,0.017052582,-203.29302187556812,-1.015911347543978,-1.015911347543978,0.0,19200,2.065324544906616,2.296916902524777e-06,1.4296352470297926e-06,-203.06245822048564,0.0
130,1.5132179260253906,-203.15104646801578,0.09023095337734606,-202.93294562458365,-203.46156717415988,0.0,5.053232845617148,0.1,0.011314630508422852,0.2993910312652588,0.049170505,0.019365903,-203.2788243348129,-1.0157263418753155,-1.0157263418753155,0.0,19200,2.091883420944214,1.2938432167732298e-06,1.332816848598516e-06,-202.91187520229505,0.0
131,1.492870569229126,-203.01206446366538,0.09267829575842175,-202.7460082217104,-203.27057624875965,0.0,8.795110063053865,0.1,0.011327981948852539,0.25581908226013184,0.045847543,0.010315623,-203.25214834769815,-1.0150314291887914,-1.0150314291887914,0.0,19200,2.133863925933838,2.0461456908781446e-06,2.943429727913285e-06,-202.94148392643157,0.0
132,1.5036308765411377,-203.0422503424007,0.07951100247630143,-202.7716080348766,-203.2119350883549,0.0,9.624666467194709,0.1,0.01120138168334961,0.32771992683410645,0.05002299,0.010393937,-203.2311585471684,-1.0151820443092168,-1.0151820443092168,0.0,19200,2.223210334777832,2.3809239016130656e-06,1.0376261223072133e-06,-202.86241755735375,0.0
133,1.644334077835083,-202.9754028879428,0.086448929154902,-202.77150116735316,-203.22803917828566,0.0,9.196714524133759,0.1,0.01098322868347168,0.3123800754547119,0.051929306,0.008314999,-203.20558298124587,-1.0148479616945736,-1.0148479616945736,0.0,19200,2.19417405128479,1.475428938690787e-06,1.2894187002441494e-06,-202.83481749890484,0.0
134,1.5334975719451904,-202.96437419163775,0.10623937389346755,-202.68044826509535,-203.1848897408659,0.0,7.009166592480498,0.1,0.010999441146850586,0.33469462394714355,0.05221787,0.016668046,-203.18146210228505,-1.0147928070461718,-1.0147928070461718,0.0,19200,2.2153658866882324,1.4624916074352738e-06,1.5533899585597185e-06,-202.82416156934465,0.0
135,1.4837381839752197,-202.9328666906255,0.09075709105984832,-202.74476606019942,-203.1631621946058,0.0,7.117914938655222,0.1,0.010929346084594727,0.2531754970550537,0.05170045,0.016137661,-203.15660256111912,-1.0146352067396711,-1.0146352067396711,0.0,19200,2.1459240913391113,1.264750621649794e-06,1.6904195270829276e-06,-202.94779896735403,0.0
136,1.4902749061584473,-203.04759290147194,0.093453007890565,-202.77325107649156,-203.32434667272366,0.0,8.19484820471272,0.1,0.01123046875,0.3331773281097412,0.048406687,0.013184604,-203.1457015951544,-1.0152088914432973,-1.0152088914432973,0.0,19200,2.1490318775177,2.857331234760506e-06,1.5485451847526132e-06,-202.9449044874711,0.0
137,1.4752142429351807,-203.04757292833747,0.09028722674420558,-202.81578783497457,-203.25462856309872,0.0,7.460460129323738,0.1,0.011484146118164062,0.3231804370880127,0.0511757,0.010288109,-203.13588872847274,-1.0152084787462943,-1.0152084787462943,0.0,19200,2.253295421600342,1.56740043888784e-06,1.8116081799401448e-06,-202.8938114710505,0.0
138,1.479990005493164,-203.00726798608153,0.09413116720347564,-202.8415458524917,-203.31882606490055,0.0,8.110976191792458,0.1,0.01218271255493164,0.33530664443969727,0.052742876,0.012156257,-203.12302665423363,-1.0150068296964898,-1.0150068296964898,0.0,19200,2.290712833404541,1.7607895102827593e-06,2.5704730031179428e-06,-202.9923087348384,0.0
139,1.5115084648132324,-203.12366089674993,0.09039003032356327,-202.90376998344482,-203.37701189052623,0.0,7.600606522179712,0.1,0.010709524154663086,0.29181337356567383,0.048867993,0.0140802,-203.1230900784853,-1.0155889307206705,-1.0155889307206705,0.0,19200,2.0971879959106445,2.2643380171043822e-06,1.1367430970710432e-06,-203.00997543971317,0.0
140,1.5039095878601074,-203.13275626205942,0.09582373314324877,-202.84057971907214,-203.39748705618925,0.0,6.6137033057835515,0.1,0.011779069900512695,0.3314645290374756,0.048301395,0.011934791,-203.12405669684273,-1.0156343917031727,-1.0156343917031727,0.0,19200,2.16298770904541,1.2830269785248003e-06,1.692461561068307e-06,-202.95322634000712,0.0
141,1.677088975906372,-203.06772508892232,0.09305786574373989,-202.83904717948917,-203.28591350791763,0.0,9.441929978626817,0.1,0.011054039001464844,0.2700767517089844,0.050779432,0.0092684915,-203.1184235360507,-1.0153094128382765,-1.0153094128382765,0.0,19200,2.1674530506134033,1.9104458135713055e-06,2.4634508109225378e-06,-203.06174145063872,0.0
142,1.5364024639129639,-203.147458131152,0.0855384454412904,-202.94773558344002,-203.35282610477358,0.0,7.4906856772032056,0.1,0.011181116104125977,0.32901453971862793,0.052430652,0.013163729,-203.12132699556082,-1.0157082614105994,-1.0157082614105994,0.0,19200,2.224184274673462,3.4575285601409317e-06,2.654615345352187e-06,-203.13037299497503,0.0
143,1.486037015914917,-203.27430485676436,0.10483956257968949,-203.02687196201725,-203.46184357995264,0.0,6.832043753710406,0.1,0.011013984680175781,0.32317137718200684,0.04816273,0.014522653,-203.13662478168118,-1.0163422527890524,-1.0163422527890524,0.0,19200,2.1464662551879883,3.0600976594708824e-06,1.230731728875309e-06,-203.10268370880848,0.0
144,1.4862422943115234,-203.20511913263246,0.08863090201617375,-202.93624718783917,-203.4356529667945,0.0,10.483004589876929,0.1,0.011239290237426758,0.3247714042663574,0.050161887,0.006839628,-203.14347421677633,-1.0159963992044856,-1.0159963992044856,0.0,19200,2.161494016647339,1.3542287245635834e-06,1.157714331911934e-06,-203.06014521686473,0.0
145,1.4914231300354004,-203.1409073806689,0.09805385379658059,-202.91546071826116,-203.38899565071165,0.0,7.490595647699212,0.1,0.011160135269165039,0.32837438583374023,0.04878794,0.012633023,-203.14321753316557,-1.0156754624749207,-1.0156754624749207,0.0,19200,2.235947608947754,1.1800024636572949e-06,1.839227196861228e-06,-203.0107011529609,0.0
146,1.4824445247650146,-203.07182774368064,0.09700655186152368,-202.81947601385681,-203.29734319162503,0.0,6.611333323370653,0.1,0.010833501815795898,0.3150618076324463,0.04998325,0.0123615805,-203.13607855421708,-1.0153300427552359,-1.0153300427552359,0.0,19200,2.189955472946167,2.602131579442719e-06,1.6779303697851532e-06,-202.95784345347244,0.0
147,1.4824466705322266,-203.03753419293722,0.08466294925400931,-202.8721440262611,-203.24530253892942,0.0,8.894761127669575,0.1,0.011985063552856445,0.3261449337005615,0.048288032,0.01598199,-203.12622411808908,-1.0151586885900068,-1.0151586885900068,0.0,19200,2.1381425857543945,2.1476118058396086e-06,2.7179946388124413e-06,-202.9014785123741,0.0
148,1.462897777557373,-202.96617924306142,0.08386438545310468,-202.77343182192152,-203.1484765564754,0.0,6.436565266014681,0.1,0.011086225509643555,0.3269157409667969,0.051420245,0.008892946,-203.1102196305863,-1.0148019363943412,-1.0148019363943412,0.0,19200,2.2302467823028564,3.5359820564523705e-06,1.0743270679809498e-06,-202.90031353515548,0.0
149,1.6482338905334473,-202.97844432126033,0.09536525334545966,-202.71467225570728,-203.2041540827822,0.0,6.96939371634924,0.1,0.0108489990234375,0.30426478385925293,0.049354065,0.012728772,-203.0970420996537,-1.0148632240766589,-1.0148632240766589,0.0,19200,2.109583854675293,1.3006573977366773e-06,2.821097864878102e-06,-202.9495343145568,0.0
150,1.4926111698150635,-203.0345994301157,0.09258756734088344,-202.7830802323683,-203.3725699290857,0.0,13.030337911187242,0.1,0.010984420776367188,0.32664990425109863,0.050227966,0.0102452785,-203.0907978326999,-1.015143971513863,-1.015143971513863,0.0,19200,2.0037901401519775,3.2824839264171623e-06,1.3153675561133546e-06,-202.93666648252747,0.0
151,1.4858989715576172,-203.00499596610885,0.0912416322600297,-202.79212934818943,-203.24922362648448,0.0,9.241726317364074,0.1,0.01119232177734375,0.31705737113952637,0.049479213,0.0116037065,-203.0822176460408,-1.0149958099151861,-1.0149958099151861,0.0,19200,2.002213478088379,1.6044342469473174e-06,1.1996373793969434e-06,-202.95078819727388,0.0
152,1.5120584964752197,-203.0174149674281,0.09248206325262698,-202.79040835606162,-203.29203156566808,0.0,5.7927898223306435,0.1,0.011156320571899414,0.31580400466918945,0.047417898,0.0143226925,-203.07573737817953,-1.0150579627495746,-1.0150579627495746,0.0,19200,2.0157837867736816,1.2827194682490911e-06,1.1532813687169914e-06,-202.8625605758483,0.0
153,1.4932961463928223,-202.94040390744763,0.08589741489084565,-202.75544706714723,-203.11774361555837,0.0,7.381229575848984,0.1,0.011019706726074219,0.31272149085998535,0.047869295,0.01511852,-203.06220403110632,-1.0146727925370096,-1.0146727925370096,0.0,19200,2.173872232437134,1.326946947473438e-06,1.3085254330247663e-06,-202.70725025771065,0.0
154,1.449821949005127,-202.7759318300247,0.09291383134194464,-202.56903811822912,-202.97228093805637,0.0,6.013839582783786,0.1,0.010757207870483398,0.34754467010498047,0.049990147,0.016187737,-203.03357681099817,-1.013850530254525,-1.013850530254525,0.0,19200,2.1915087699890137,2.554725538289203e-06,1.2580271263034021e-06,-202.79194105406165,0.0
155,1.4553840160369873,-202.87088998816577,0.0869826745478382,-202.6328852972191,-203.06424057936636,0.0,6.745562287698335,0.1,0.010913848876953125,0.3122999668121338,0.050262496,0.013744591,-203.01730812871494,-1.0143250942021866,-1.0143250942021866,0.0,19200,2.159409284591675,1.3339708806592261e-06,1.1928976781123328e-06,-202.93455308010397,0.0
156,1.5813868045806885,-203.01016150761134,0.08998201610868176,-202.8059026415733,-203.28022465770115,0.0,8.066099663996374,0.1,0.01117086410522461,0.3206460475921631,0.050418183,0.01181385,-203.0165934666046,-1.0150214806813322,-1.0150214806813322,0.0,19200,2.0517795085906982,1.8173556376849596e-06,1.3784754794055072e-06,-202.91310784931056,0.0
157,1.6193716526031494,-202.9857256635613,0.0918923720953345,-202.74742730246987,-203.27143964299495,0.0,8.373193946867302,0.1,0.01123952865600586,0.2557950019836426,0.0495466,0.010060495,-203.0135066863003,-1.0148990884342826,-1.0148990884342826,0.0,19200,2.1407876014709473,1.2744228422363149e-06,3.429900376152034e-06,-202.7903717669149,0.0
158,1.4596102237701416,-202.8671870967788,0.08544205518502225,-202.6907759094335,-203.0951558497257,0.0,8.65653476195963,0.1,0.01257777214050293,0.3601231575012207,0.049216896,0.010398431,-202.99887472734815,-1.0143063313674467,-1.0143063313674467,0.0,19200,2.7773141860961914,1.683430101028317e-06,3.7288517406543146e-06,-202.62057934220041,0.0
159,1.4689109325408936,-202.67977733060675,0.08333886299090715,-202.48584384429722,-202.90433069060333,0.0,8.881987198625627,0.1,0.012514114379882812,0.35546374320983887,0.04762379,0.008633782,-202.96696498767403,-1.0133694338040091,-1.0133694338040091,0.0,19200,2.7193658351898193,1.7842202579547975e-06,1.4417276221166556e-06,-202.65512855228712,0.0
160,1.4525988101959229,-202.73179710440763,0.09383907160662486,-202.48899824880033,-202.9906353217613,0.0,7.930735062029419,0.1,0.011292457580566406,0.3242969512939453,0.04957023,0.0101068625,-202.9434481993474,-1.013629288051524,-1.013629288051524,0.0,19200,2.056128740310669,1.1709202974297825e-06,2.84036606267288e-06,-202.80143627742024,0.0
161,1.479811191558838,-202.88169290430335,0.09206181786514475,-202.57182562560638,-203.1181572598397,0.0,8.214926930408643,0.1,0.012090921401977539,0.3242068290710449,0.049540464,0.0115405135,-202.937272669843,-1.0143786945595388,-1.0143786945595388,0.0,19200,2.187100887298584,4.771132001621124e-06,3.4026973592677263e-06,-202.85733658415444,0.0
162,1.4563629627227783,-202.91952113273473,0.08880424847917151,-202.67075649556284,-203.13976839627642,0.0,7.258694642166746,0.1,0.011527299880981445,0.3217172622680664,0.049542513,0.012445225,-202.9354975161322,-1.0145680495828888,-1.0145680495828888,0.0,19200,2.2324302196502686,4.033693706089601e-06,1.3383975257062385e-06,-202.74346253623872,0.0
163,1.4562828540802002,-202.79450530278314,0.0983914135736442,-202.57145824779124,-203.0401510853909,0.0,12.35424214284292,0.1,0.011054039001464844,0.32459259033203125,0.0491166,0.007617979,-202.92139829479729,-1.0139429973004181,-1.0139429973004181,0.0,19200,2.178605556488037,3.03693419135907e-06,1.255093154781317e-06,-202.632167982307,0.0
164,1.6375401020050049,-202.6913389658632,0.08493453775598554,-202.50134707418235,-202.95503680544508,0.0,7.127613375075744,0.1,0.010888814926147461,0.3204762935638428,0.05079651,0.016081017,-202.89839236190386,-1.013427122572385,-1.013427122572385,0.0,19200,2.236562967300415,1.282786399533814e-06,1.7248108630185944e-06,-202.78066069052008,0.0
165,1.4466989040374756,-202.84695732035755,0.08504333969557637,-202.643310468733,-203.04520552948821,0.0,9.214476880170139,0.1,0.010946273803710938,0.3215157985687256,0.050467,0.010569316,-202.89324885774926,-1.014205360961708,-1.014205360961708,0.0,19200,2.2393524646759033,2.173594722103882e-06,6.823452535153186e-06,-202.77424627863553,0.0
166,1.4504163265228271,-202.83432114827883,0.0820189532824522,-202.6361777129104,-203.00892270864097,0.0,5.510975052439326,0.1,0.010694503784179688,0.3146228790283203,0.05152337,0.01725,-202.8873560868022,-1.014142261808382,-1.014142261808382,0.0,19200,2.1761560440063477,6.330797250789048e-06,2.1757258014254787e-06,-202.78693399002972,0.0
167,1.442167043685913,-202.86205940861385,0.09045781481932008,-202.6453910407549,-203.09351604084247,0.0,6.048481074332242,0.1,0.010813713073730469,0.24971580505371094,0.049947247,0.020042883,-202.88482641898338,-1.0142806087385792,-1.0142806087385792,0.0,19200,2.1999058723449707,1.789565955302901e-06,1.0973531894741049e-06,-202.86593845248635,0.0
168,1.4697778224945068,-202.9191255267683,0.08955943922275117,-202.71799999388986,-203.16874125454336,0.0,8.845430510672804,0.1,0.010676383972167969,0.32375502586364746,0.04917802,0.011331363,-202.88825632976187,-1.0145662313261434,-1.0145662313261434,0.0,19200,2.196859359741211,1.4099564424620777e-06,1.5319339861031482e-06,-202.89400617234142,0.0
169,1.4712669849395752,-202.96619247242026,0.07823688994369417,-202.74728324633423,-203.1830382032524,0.0,7.240399364659136,0.1,0.011160135269165039,0.32544493675231934,0.045326397,0.011099383,-202.89604994402774,-1.0148015677890136,-1.0148015677890136,0.0,19200,2.241978883743286,2.026241433392244e-06,1.7737275321034064e-06,-202.99005359386675,0.0
170,1.446720838546753,-203.05501070897392,0.0975376803009731,-202.83540712628692,-203.26769112326662,0.0,8.262962401822701,0.1,0.011064529418945312,0.2552661895751953,0.050788037,0.010953502,-202.91194602052235,-1.015245442104855,-1.015245442104855,0.0,19200,2.2725257873535156,3.0574070493479592e-06,1.1095193008208436e-06,-202.89878632655822,0.0
171,1.5752477645874023,-202.97899540606377,0.06861971092706261,-202.78932977827884,-203.143650819841,0.0,8.395036960512062,0.1,0.011730194091796875,0.3199119567871094,0.050997414,0.011798555,-202.9186509590765,-1.0148653313323976,-1.0148653313323976,0.0,19200,2.145078659057617,1.2179728943468417e-06,1.4754200693654781e-06,-202.97448148041758,0.0
172,1.619755506515503,-203.0402903052021,0.09608038201923563,-202.820422206587,-203.30546819790518,0.0,9.223082301792507,0.1,0.012401819229125977,0.34076690673828125,0.04819538,0.011271856,-202.93081489368907,-1.0151720967048596,-1.0151720967048596,0.0,19200,2.108213186264038,1.7347477068332186e-06,1.1934707933542668e-06,-202.8424426018468,0.0
173,1.4782731533050537,-202.90483169524086,0.08995308937593412,-202.6984605319957,-203.11218986351878,0.0,10.30046956873833,0.1,0.010968923568725586,0.3164784908294678,0.049324155,0.009629944,-202.92821657384425,-1.0144948784260623,-1.0144948784260623,0.0,19200,2.0999293327331543,2.253312680925872e-06,2.206465780015624e-06,-202.82122308358285,0.0
174,1.5044057369232178,-202.90084295309376,0.08846294077520378,-202.62479851716336,-203.09383245579755,0.0,7.148138977103086,0.1,0.015475749969482422,0.3007519245147705,0.049485564,0.009541552,-202.92547921176921,-1.0144749263998893,-1.0144749263998893,0.0,19200,2.079575538635254,2.007500483712497e-06,1.2992723359234257e-06,-202.9428065343956,0.0
175,1.4567370414733887,-203.00604049997182,0.08534453253597517,-202.80316608538905,-203.20248144490404,0.0,10.38675303294449,0.1,0.011429071426391602,0.32203054428100586,0.05118612,0.010599935,-202.9335353405895,-1.0150008800703743,-1.0150008800703743,0.0,19200,2.0227956771850586,2.381791355800422e-06,2.4930501996461915e-06,-202.929530220566,0.0
176,1.471308946609497,-202.9782676466159,0.09776541869900916,-202.62407098431618,-203.28979389585191,0.0,6.90915506829436,0.1,0.01147317886352539,0.33400917053222656,0.051272027,0.013581968,-202.93800857119214,-1.014862157421849,-1.014862157421849,0.0,19200,2.1923866271972656,2.765000753932844e-06,1.131217880135893e-06,-202.90706111719467,0.0
177,1.450498342514038,-202.9576266904651,0.07469010487456908,-202.7480225883692,-203.11138152931116,0.0,6.926779961565812,0.1,0.01082611083984375,0.33153295516967773,0.05092364,0.014300424,-202.93997038311943,-1.0147593238639143,-1.0147593238639143,0.0,19200,2.166097402572632,9.64677644458105e-07,1.5034356132464703e-06,-203.0208483612385,0.0
178,1.4435899257659912,-203.04387619599916,0.09433046332702598,-202.8499967011333,-203.2982426457761,0.0,8.89355053294829,0.1,0.010948657989501953,0.31689906120300293,0.047884986,0.011193183,-202.9503609644074,-1.015190435632574,-1.015190435632574,0.0,19200,2.12579083442688,1.3909873869313257e-06,1.9051254188106788e-06,-203.02614285482497,0.0
179,1.4726955890655518,-203.05452137479617,0.08769182103190484,-202.82899138695564,-203.27279683586502,0.0,8.840568969772491,0.1,0.012623310089111328,0.3587610721588135,0.04858718,0.011538889,-202.9607770054463,-1.0152438614228456,-1.0152438614228456,0.0,19200,2.831785202026367,1.8928603629106986e-06,1.1721762959787314e-06,-203.08495420835138,0.0
180,1.6484653949737549,-203.11995515951116,0.0852486391031161,-202.92663014578122,-203.2982803566817,0.0,14.12890724875282,0.1,0.012572526931762695,0.32662272453308105,0.05072252,0.00511668,-202.97669482085277,-1.0155709296481914,-1.0155709296481914,0.0,19200,2.234645128250122,1.4743491411955154e-06,1.1718384463110318e-06,-203.0974121122908,0.0
181,1.445972204208374,-203.14564799980573,0.085205337906174,-202.94484257481875,-203.3764658224852,0.0,6.674572949029352,0.1,0.0122833251953125,0.3376474380493164,0.0519778,0.014531882,-202.99359013874806,-1.015699355582923,-1.015699355582923,0.0,19200,2.190943479537964,1.1494640846389687e-06,2.10333122223376e-06,-203.16923629185433,0.0
182,1.4604637622833252,-203.20205169378605,0.07683227524523858,-203.02230942155614,-203.4348459086219,0.0,8.731953297357629,0.1,0.011229991912841797,0.311077356338501,0.04956623,0.00578901,-203.01443629425185,-1.015981335953091,-1.015981335953091,0.0,19200,2.1174509525299072,2.4501277030561844e-06,1.0555015483924206e-06,-203.17570704747845,0.0
183,1.4582316875457764,-203.22208652677648,0.09808526444638303,-202.9850146137543,-203.52915425008374,0.0,9.525122600972713,0.1,0.01110076904296875,0.25467944145202637,0.049031507,0.011050137,-203.03520131750432,-1.0160811722879675,-1.0160811722879675,0.0,19200,2.028289318084717,1.285094730024218e-06,2.725856515786405e-06,-203.14715246988817,0.0
184,1.4779088497161865,-203.2194018004675,0.07768312562939354,-203.0671738915726,-203.46382681465386,0.0,9.110073906333922,0.1,0.010921001434326172,0.3120591640472412,0.04925852,0.010168334,-203.05362136580067,-1.0160677711762587,-1.0160677711762587,0.0,19200,2.107409954071045,2.0321768655829857e-06,1.7290583648208825e-06,-203.08563365644184,0.0
185,1.5162532329559326,-203.15344269147226,0.08772350505986944,-202.9079084461989,-203.37483176478327,0.0,9.032066262784799,0.1,0.01064753532409668,0.28546953201293945,0.051865928,0.011993763,-203.06360349836783,-1.0157381214576293,-1.0157381214576293,0.0,19200,2.1120991706848145,1.2687058172350153e-06,2.5603996900141895e-06,-203.12555939616522,0.0
186,1.5179519653320312,-203.17197881617483,0.08209549867812066,-202.95323264005327,-203.37141208784715,0.0,5.934674670591218,0.1,0.010755300521850586,0.3217122554779053,0.050670315,0.016554607,-203.07444103014853,-1.0158309120327178,-1.0158309120327178,0.0,19200,2.135099411010742,1.8328017051377307e-06,2.422132309317335e-06,-203.15277728083225,0.0
187,1.4494707584381104,-203.1945984661837,0.0799632365039013,-202.9959893899043,-203.40259288574876,0.0,5.993130117892389,0.1,0.011225700378417969,0.3210175037384033,0.048139118,0.011417985,-203.08645677375205,-1.0159437805878166,-1.0159437805878166,0.0,19200,1.981053352355957,2.6788623225185445e-06,2.3156112138076385e-06,-203.03201889802696,0.0
188,1.6178395748138428,-203.05356358923646,0.08618137163592902,-202.8432494381127,-203.2141080179438,0.0,7.869959177680954,0.1,0.011090993881225586,0.32123756408691406,0.050858393,0.0142728845,-203.0831674553005,-1.015238599861684,-1.015238599861684,0.0,19200,2.032846212387085,2.049511604658889e-06,2.3687227913465797e-06,-203.06518165788185,0.0
189,1.457167148590088,-203.06470826478576,0.0740401053183364,-202.82396879970108,-203.19943747311393,0.0,6.322493945328804,0.1,0.011077404022216797,0.32611846923828125,0.04833324,0.017748987,-203.08132153624902,-1.0152943141579671,-1.0152943141579671,0.0,19200,2.036612033843994,2.20515361809502e-06,1.1980049297624717e-06,-203.01615824150196,0.0
190,1.4922537803649902,-203.04272243618152,0.08782673325468124,-202.822009315554,-203.2956197395512,0.0,7.894135681876925,0.1,0.012432336807250977,0.3295133113861084,0.05040311,0.009957703,-203.07746162624227,-1.0151841199249054,-1.0151841199249054,0.0,19200,2.047868013381958,1.0966956368697384e-06,1.0575586031294301e-06,-202.9942297519782,0.0
191,1.472365140914917,-203.0008217936438,0.0765222143645218,-202.81270624850742,-203.17481509154263,0.0,9.718989364969,0.1,0.010924339294433594,0.320084810256958,0.049731877,0.009811384,-203.06979764298242,-1.0149748310382474,-1.0149748310382474,0.0,19200,2.0793166160583496,1.0557212939070103e-06,1.1049493207475487e-06,-203.006615571475,0.0
192,1.451158046722412,-203.04016451961024,0.07087773115717452,-202.8812565778964,-203.19790195773268,0.0,8.40880771748964,0.1,0.01137542724609375,0.31790852546691895,0.049572524,0.012207575,-203.0668343306452,-1.0151713970516658,-1.0151713970516658,0.0,19200,2.2417962551116943,1.31628237758641e-06,1.1523315641977876e-06,-203.0450318402635,0.0
193,1.4468498229980469,-203.06792783822175,0.08447884619856674,-202.89059391396646,-203.29959180676832,0.0,11.49598003152003,0.1,0.010806798934936523,0.31873512268066406,0.046955705,0.0064193998,-203.06694368140288,-1.015310204157307,-1.015310204157307,0.0,19200,2.220144033432007,1.4900920020100754e-06,1.706623226689089e-06,-203.02087487328419,0.0
194,1.452984094619751,-203.05074849725557,0.07867994291881648,-202.8398231969865,-203.24092444465643,0.0,7.618758143232726,0.1,0.011525392532348633,0.34128856658935547,0.050568916,0.012655322,-203.06532416298813,-1.015224205946621,-1.015224205946621,0.0,19200,2.1406030654907227,1.9554078891793246e-06,3.3080908506746768e-06,-203.11365075004693,0.0
195,1.634455680847168,-203.10646324496062,0.08326193969189491,-202.85144661203975,-203.34723689917897,0.0,5.017318036364167,0.1,0.010876655578613281,0.31909680366516113,0.048541445,0.018850515,-203.0694380711854,-1.0155026422408973,-1.0155026422408973,0.0,19200,2.1714534759521484,4.081161750536594e-06,2.0591823637013837e-06,-202.97266118783372,0.0
196,1.4474942684173584,-202.96411940354588,0.0815898434974447,-202.76059164922813,-203.1414207807339,0.0,4.771894424246253,0.1,0.011083126068115234,0.3216123580932617,0.047961604,0.015762828,-203.05890620442148,-1.014790789768745,-1.014790789768745,0.0,19200,2.231293201446533,3.891832602864347e-06,2.324212211945017e-06,-202.88798001812165,0.0
197,1.4410808086395264,-202.89620815239007,0.07909659261072452,-202.7240421878462,-203.12564739797335,0.0,9.679125498621733,0.1,0.010787010192871094,0.32009267807006836,0.05041973,0.01372024,-203.04263639921834,-1.0144512470532943,-1.0144512470532943,0.0,19200,2.256862163543701,2.410675017827287e-06,2.356091498949187e-06,-202.96489682840297,0.0
198,1.4746360778808594,-202.98514452312534,0.086339065201682,-202.81994258132684,-203.22669565483693,0.0,6.347456887261151,0.1,0.012669086456298828,0.33858633041381836,0.050319605,0.01432785,-203.03688721160904,-1.014895826519082,-1.014895826519082,0.0,19200,2.2351577281951904,2.35147308053451e-06,5.63367406974471e-06,-202.97768173804025,0.0
199,1.45768404006958,-202.98942223009672,0.0959014685696556,-202.76101257495878,-203.24917671927616,0.0,8.109005540746352,0.1,0.010924816131591797,0.3262331485748291,0.049708225,0.016469982,-203.0321407134578,-1.014917273420358,-1.014917273420358,0.0,19200,2.1777491569519043,6.137806349741079e-06,1.4055752894793353e-06,-202.98903666199408,0.0
200,1.5011448860168457,-203.01437999776104,0.08382449040144681,-202.8135612088474,-203.24573868234376,0.0,7.949090291615882,0.1,0.011150121688842773,0.3188314437866211,0.04940166,0.0112685505,-203.03036464188816,-1.0150416571752936,-1.0150416571752936,0.0,19200,2.12849760055542,1.2327043694458078e-06,1.2543271073038034e-06,-202.98750481168688,0.0
201,1.4392359256744385,-203.00983858425252,0.07522712711988787,-202.83980929253772,-203.19333329841749,0.0,7.75105883368133,0.1,0.012015581130981445,0.32056093215942383,0.050544802,0.012757515,-203.0283120361246,-1.0150186743093828,-1.0150186743093828,0.0,19200,2.1535189151763916,1.204810522375233e-06,4.411176081172503e-06,-203.0532277469684,0.0
202,1.6035070419311523,-203.07568035770473,0.08170366916640127,-202.8449700002405,-203.2761271900913,0.0,10.115770326247281,0.1,0.010916948318481445,0.2495098114013672,0.049231593,0.010329442,-203.0330488682826,-1.015347586295514,-1.015347586295514,0.0,19200,2.2091073989868164,3.3312355877846286e-06,2.8172455891322888e-06,-203.00450181424725,0.0
203,1.6403858661651611,-203.03444365708833,0.07725458556877553,-202.80130054075556,-203.19994958947876,0.0,12.592887745273538,0.1,0.012680768966674805,0.33960866928100586,0.04965556,0.00863019,-203.0331883471632,-1.0151414722995729,-1.0151414722995729,0.0,19200,2.20839262008667,2.3989366308704116e-06,1.2337003344043262e-06,-202.92391348827883,0.0
204,1.4580233097076416,-202.96366289272396,0.08145938346206284,-202.69332928593772,-203.18029467199975,0.0,7.405939103946716,0.1,0.01308751106262207,0.3542449474334717,0.04814439,0.015818326,-203.02623580171928,-1.0147877057130474,-1.0147877057130474,0.0,19200,2.119083881378174,1.8031169172914823e-06,1.101719409872849e-06,-202.8111069700483,0.0
205,1.5458157062530518,-202.84218571473284,0.09160530617997613,-202.55022377384194,-203.059086768803,0.0,9.071732919805786,0.1,0.011216163635253906,0.2531778812408447,0.048295043,0.01204387,-203.00783079302064,-1.0141805941041377,-1.0141805941041377,0.0,19200,2.0798463821411133,1.3665351441860272e-06,1.3165676168604636e-06,-202.75155538594817,0.0
206,1.5085327625274658,-202.79904116902534,0.07615088199651092,-202.6024843565021,-202.9862979961835,0.0,7.979683863823776,0.1,0.011261701583862305,0.3087739944458008,0.04894768,0.009977035,-202.98695183062114,-1.0139648478705225,-1.0139648478705225,0.0,19200,2.0166285037994385,1.2079101993457128e-06,1.0722184034290292e-06,-202.74013909131185,0.0
207,1.5012893676757812,-202.78563240377852,0.07989859374215333,-202.59549607889346,-202.93124086584035,0.0,7.334129755101356,0.1,0.01085662841796875,0.2715578079223633,0.051844966,0.0146917505,-202.96681988793688,-1.0138975952715157,-1.0138975952715157,0.0,19200,2.022294282913208,1.0788893445645151e-06,1.3927393085290488e-06,-202.90544587027043,0.0
208,1.4611070156097412,-202.96018869913345,0.0761066725600851,-202.72594304438013,-203.14088543135745,0.0,8.976396477469812,0.1,0.010864496231079102,0.32773923873901367,0.05011867,0.010832069,-202.96615676905654,-1.0147700030747877,-1.0147700030747877,0.0,19200,2.0279955863952637,1.3078748134148376e-06,1.0950106868887395e-06,-202.87497004386094,0.0
209,1.4695396423339844,-202.91123110717697,0.07796451231348851,-202.7104533596059,-203.05988115898225,0.0,6.481924416412282,0.1,0.01113438606262207,0.24729609489440918,0.048184734,0.017057084,-202.9606642028686,-1.0145256494442816,-1.0145256494442816,0.0,19200,2.210010290145874,9.946385868923494e-07,1.1455063273234351e-06,-202.76043561748327,0.0
210,1.631521224975586,-202.8268048143768,0.07263695589630492,-202.66925959235297,-203.03309886916722,0.0,8.012190373156171,0.1,0.010938644409179688,0.31328272819519043,0.04986813,0.012815014,-202.94727826401942,-1.0141031755605665,-1.0141031755605665,0.0,19200,2.243772506713867,8.550442334530194e-07,1.0205914590533813e-06,-202.89275404043002,0.0
211,1.6457669734954834,-202.92991006842794,0.0810111434756852,-202.6986767202309,-203.08412567488887,0.0,8.860497829050189,0.1,0.011005401611328125,0.3193819522857666,0.045324314,0.008388982,-202.94554144446028,-1.014618451105499,-1.014618451105499,0.0,19200,2.237545967102051,1.3391129076330768e-06,1.636962192128107e-06,-202.7898319168678,0.0
212,1.4839551448822021,-202.839476098491,0.08322260647721938,-202.67473460614718,-203.00314136006776,0.0,8.041152541895903,0.1,0.01235055923461914,0.3683202266693115,0.048183907,0.012347059,-202.93493490986336,-1.0141665844568728,-1.0141665844568728,0.0,19200,2.2391245365142822,2.9455142235735244e-06,1.5219695336584884e-06,-202.64853158308787,0.0
213,1.4519448280334473,-202.71532758347635,0.08977497252665588,-202.4571954275259,-202.95232784006086,0.0,9.34631050023959,0.1,0.011153697967529297,0.3246457576751709,0.05048003,0.011526508,-202.91297417722467,-1.0135457938991217,-1.0135457938991217,0.0,19200,2.165994167327881,1.0462438298971056e-06,1.4104785688673228e-06,-202.7936339132926,0.0
214,1.4557809829711914,-202.84615699891876,0.08165885697153691,-202.59153397076588,-203.02973157402693,0.0,8.64304962365543,0.1,0.011362075805664062,0.33282899856567383,0.04360668,0.0102425795,-202.90629245939408,-1.01419995871664,-1.01419995871664,0.0,19200,2.179140329360962,1.0343776426800239e-06,2.0880816769057874e-06,-202.7703774186415,0.0
215,1.483252763748169,-202.81916509252878,0.07408722777355291,-202.66759718391276,-203.08189481152462,0.0,8.066787979700445,0.1,0.010854005813598633,0.31537961959838867,0.046581894,0.013236772,-202.89757972270755,-1.014065198909418,-1.014065198909418,0.0,19200,2.126094341278076,2.361143315967871e-06,1.946755979233019e-06,-202.78634729063958,0.0
216,1.4645371437072754,-202.83482342935739,0.08570940464307535,-202.5696260571552,-202.97884888849754,0.0,9.632070238128046,0.1,0.01106405258178711,0.326998233795166,0.047356524,0.012736199,-202.89130409337253,-1.0141434537906442,-1.0141434537906442,0.0,19200,2.023967742919922,2.037876570713706e-06,1.0371204398347348e-06,-202.88019035211397,0.0
217,1.4957845211029053,-202.93627402222478,0.08929841051058629,-202.68949604146565,-203.1397456300813,0.0,6.154236324918342,0.1,0.012624025344848633,0.26587581634521484,0.049520243,0.0182191,-202.89580108625776,-1.0146505190891795,-1.0146505190891795,0.0,19200,1.9332914352416992,1.5644584906665332e-06,1.6506754370057254e-06,-202.79852426715624,0.0
218,1.607264757156372,-202.84826137408905,0.08102613221875239,-202.61110370065634,-203.01295942958706,0.0,8.139980360011922,0.1,0.010764122009277344,0.24885225296020508,0.04880699,0.015276479,-202.8910471150409,-1.014210786654101,-1.014210786654101,0.0,19200,2.0998001098632812,2.9927623480486673e-06,1.2264406666068548e-06,-202.78656686536982,0.0
219,1.6723945140838623,-202.82994071292785,0.07934673203284423,-202.62021747899206,-202.98413939325744,0.0,10.048698148020035,0.1,0.010917425155639648,0.31746578216552734,0.049237568,0.007511733,-202.8849364748296,-1.0141188752748276,-1.0141188752748276,0.0,19200,2.1090123653411865,1.1617861665293059e-06,1.957766480184249e-06,-202.67496924119118,0.0
220,1.4748990535736084,-202.72626402340748,0.08502435681213302,-202.55457501743135,-202.92407232237326,0.0,14.047263872616762,0.1,0.015995025634765625,0.4025003910064697,0.04753538,0.0069660232,-202.8690692296874,-1.0136001020989152,-1.0136001020989152,0.0,19200,2.0709283351898193,2.414046476212485e-06,1.0208632948460136e-06,-202.7460831283305,0.0
221,1.4772191047668457,-202.79612386910992,0.08522331728983178,-202.56829724410628,-202.99880926710458,0.0,9.896215862781434,0.1,0.010918140411376953,0.3268587589263916,0.050281975,0.008548004,-202.86177469362966,-1.0139493854684305,-1.0139493854684305,0.0,19200,2.138094902038574,1.2480378720050607e-06,1.1725565303296249e-06,-202.8234042862345,0.0
222,1.4800350666046143,-202.86746396008198,0.06998605627368489,-202.63325637150226,-203.03498979180284,0.0,10.507899340723343,0.1,0.010671138763427734,0.3165283203125,0.048591956,0.008543791,-202.86234362027488,-1.0143057309372023,-1.0143057309372023,0.0,19200,2.2019007205963135,1.5965793791543253e-06,8.880354619750734e-07,-202.7545669380164,0.0
223,1.481130838394165,-202.78237300769214,0.08823523618042725,-202.53016539462817,-203.02441449768995,0.0,8.817320465185693,0.1,0.010926008224487305,0.26950550079345703,0.049240842,0.008145083,-202.85434655901662,-1.0138802433671656,-1.0138802433671656,0.0,19200,2.1353509426116943,1.5170364606073774e-06,1.4161924819220776e-06,-202.83690473295331,0.0
224,1.4846701622009277,-202.8917996974599,0.08236159162876944,-202.67364341365874,-203.08435590203194,0.0,7.998117992014883,0.1,0.011169910430908203,0.3225243091583252,0.047950972,0.014346493,-202.85809187286094,-1.0144272481415495,-1.0144272481415495,0.0,19200,2.2523622512817383,2.476487189652454e-06,2.642152685902086e-06,-202.79345558285283,0.0
225,1.4471814632415771,-202.84762671298722,0.08125465082858453,-202.62786687256178,-203.02966686622082,0.0,8.449676035614788,0.1,0.012732982635498047,0.3531930446624756,0.05243947,0.014081948,-202.85704535687358,-1.0142064991393316,-1.0142064991393316,0.0,19200,2.8435490131378174,2.9188481501417123e-06,9.475381297161531e-07,-202.85801129599753,0.0
226,1.6430878639221191,-202.91233470610868,0.07607886537946333,-202.72947635194316,-203.143595709656,0.0,9.127105673552087,0.1,0.012792825698852539,0.3485293388366699,0.052496176,0.01188206,-202.8625742917971,-1.0145299545694713,-1.0145299545694713,0.0,19200,2.8371422290802,8.339210151417153e-07,8.473618253703167e-07,-202.99058180713382,0.0
227,1.4475481510162354,-203.02469092825686,0.0797164417351682,-202.85044411038177,-203.21433248608182,0.0,8.017681993875287,0.1,0.012538671493530273,0.358048677444458,0.052504595,0.011984017,-202.8787859554431,-1.0150914398468522,-1.0150914398468522,0.0,19200,2.956249713897705,1.5668185821295573e-06,1.0520239292894347e-06,-203.12873716658922,0.0
228,1.4557311534881592,-203.1701484204718,0.08076378186362228,-202.9237961306811,-203.4104566556388,0.0,8.11499863886346,0.1,0.012315750122070312,0.37044858932495117,0.047791675,0.013650869,-202.90792220194598,-1.015818548461157,-1.015818548461157,0.0,19200,2.9715816974639893,1.2337055462464645e-06,1.4532894880813288e-06,-203.09983947261546,0.0
229,1.4453048706054688,-203.12936266575937,0.07438613950985674,-202.93350592849205,-203.35739375486165,0.0,8.236762307068707,0.1,0.011291027069091797,0.3247215747833252,0.050587203,0.006604153,-202.93006624832734,-1.0156148347646938,-1.0156148347646938,0.0,19200,2.28934907913208,1.253786334471124e-06,1.1565575741264981e-06,-203.09948545582665,0.0
230,1.4396247863769531,-203.13584320907748,0.07180812578505454,-202.95518254554818,-203.29790975207436,0.0,8.420076029876165,0.1,0.011155843734741211,0.3300356864929199,0.048698634,0.013384502,-202.95064394440234,-1.0156472114618096,-1.0156472114618096,0.0,19200,2.2711353302001953,1.2233925591194795e-06,1.1601371391787894e-06,-203.0247211362084,0.0
231,1.4486567974090576,-203.06999482236847,0.08066362146444665,-202.83155518500038,-203.24714801827832,0.0,8.182259001923708,0.1,0.011166810989379883,0.25262951850891113,0.04955256,0.01200642,-202.96257903219896,-1.0153180463210012,-1.0153180463210012,0.0,19200,2.1840994358062744,9.228004192871716e-07,2.474284578619299e-06,-202.97222091702073,0.0
232,1.4533061981201172,-203.021481624525,0.06859966917296899,-202.8721280407209,-203.18531650872023,0.0,6.649739688776284,0.1,0.011378049850463867,0.3171977996826172,0.052508328,0.011268452,-202.96846929143157,-1.0150751957870974,-1.0150751957870974,0.0,19200,2.237654209136963,2.6002690825930656e-06,1.0592081532855575e-06,-203.08527977931936,0.0
233,1.451939344406128,-203.13906921636772,0.08991539648654209,-202.94583224728257,-203.36566986454278,0.0,9.458843239914069,0.1,0.01147150993347168,0.27225399017333984,0.049973067,0.010773106,-202.9855292839252,-1.0156633549672789,-1.0156633549672789,0.0,19200,2.195789098739624,1.9338501306288427e-06,1.0695544789308925e-06,-203.10906351717668,0.0
234,1.5602483749389648,-203.14224642372696,0.0844684241384909,-202.95219860765727,-203.39869962111996,0.0,6.560402070987358,0.1,0.010685920715332031,0.3243398666381836,0.04795799,0.015990239,-203.00120099790536,-1.0156792733110465,-1.0156792733110465,0.0,19200,2.1281754970550537,1.0215362206750084e-06,1.5476392008758712e-06,-202.97971634594887,0.0
235,1.6116352081298828,-203.0160672694377,0.07763719188095929,-202.77461972149317,-203.16788986687095,0.0,8.756430428068505,0.1,0.010841846466064453,0.322437047958374,0.049575083,0.012187027,-203.00268762505863,-1.0150482037652273,-1.0150482037652273,0.0,19200,2.089989423751831,1.1239558448817696e-06,1.30118375824463e-06,-203.0288593870381,0.0
236,1.4661309719085693,-203.04604969229922,0.09112102858811166,-202.68567705432824,-203.2518819196381,0.0,9.377501092495994,0.1,0.012802362442016602,0.30474209785461426,0.050156645,0.012026561,-203.0070238317827,-1.0151977554076728,-1.0151977554076728,0.0,19200,2.0037612915039062,1.621865581925446e-06,1.2453278990164105e-06,-203.09795413246064,0.0
237,1.4792053699493408,-203.1251185842796,0.07764993690393245,-202.91729738504898,-203.29048968659245,0.0,9.161378989267286,0.1,0.010699748992919922,0.31792473793029785,0.0487718,0.0116569875,-203.0188333070324,-1.0155928886258345,-1.0155928886258345,0.0,19200,2.025035858154297,1.0718335275935113e-06,2.693670282303723e-06,-203.02220332272265,0.0
238,1.4657323360443115,-203.05294528710007,0.08083146628609209,-202.85217210200534,-203.27396974947953,0.0,8.519171616564385,0.1,0.010935068130493164,0.32964658737182617,0.04923854,0.012714636,-203.02224450503917,-1.0152322383400085,-1.0152322383400085,0.0,19200,2.1765553951263428,3.7986099162538616e-06,6.6007233866331005e-06,-202.97078880224058,0.0
239,1.5272326469421387,-203.00626717958474,0.08481037553083438,-202.76740031712328,-203.20894516465725,0.0,4.713310106656037,0.1,0.010922670364379883,0.32995128631591797,0.047903087,0.020553809,-203.02064677249373,-1.014998623591859,-1.014998623591859,0.0,19200,2.234241485595703,6.575453167835156e-06,8.925000098514425e-07,-202.93026536904267,0.0
240,1.4954044818878174,-202.96882980173675,0.08094554964520699,-202.73719992891162,-203.15669157370232,0.0,7.063830664319313,0.1,0.011272192001342773,0.24953579902648926,0.05109804,0.016470265,-203.01546507541804,-1.0148110142668347,-1.0148110142668347,0.0,19200,2.181231737136841,9.524625091149322e-07,2.289719756398683e-06,-202.86014642889523,0.0
241,1.5182452201843262,-202.9043710135201,0.06790319258820894,-202.734911118767,-203.11231452988372,0.0,10.486360340341397,0.1,0.011268854141235352,0.2502884864807129,0.049448416,0.00980303,-203.00435566922826,-1.0144885754366257,-1.0144885754366257,0.0,19200,2.158238410949707,2.7020152966487626e-06,1.0602559760824095e-06,-202.79794900442062,0.0
242,1.6142590045928955,-202.83475927051242,0.08714178169208048,-202.6261124488107,-203.06227441846275,0.0,14.745659316837918,0.1,0.010895013809204102,0.32256579399108887,0.04875676,0.0051305294,-202.98739602935666,-1.0141401461977535,-1.0141401461977535,0.0,19200,2.1587371826171875,1.1814099668819747e-06,2.8866922112137094e-06,-202.84493748197423,0.0
243,1.4680500030517578,-202.88668037699708,0.0871640669023035,-202.68578127310968,-203.07671153591858,0.0,6.7380039869301465,0.1,0.011400699615478516,0.2970728874206543,0.050937504,0.013978552,-202.97732446412073,-1.0143997524090507,-1.0143997524090507,0.0,19200,2.1245172023773193,3.689550394429679e-06,1.8168241237305118e-06,-202.85700460309903,0.0
244,1.517822504043579,-202.8936677279418,0.08210603165773835,-202.66322070861227,-203.11430675763717,0.0,9.414368760002416,0.1,0.011239290237426758,0.3203248977661133,0.05095819,0.012665236,-202.96895879050285,-1.0144344262032012,-1.0144344262032012,0.0,19200,2.189493417739868,1.8884889135863305e-06,1.0350157664256597e-06,-202.93024472677735,0.0
245,1.482102870941162,-202.96791373888536,0.08219789167048051,-202.77581972500226,-203.16945675964936,0.0,9.217145767383679,0.1,0.011329174041748047,0.32459306716918945,0.048695404,0.007920639,-202.9688542853411,-1.0148050944429239,-1.0148050944429239,0.0,19200,2.193154811859131,1.437378412413637e-06,6.933160656239299e-06,-202.89698558266016,0.0
246,1.4565069675445557,-202.92406893716307,0.09042177547105751,-202.659643052162,-203.14488064379427,0.0,10.705480609687363,0.1,0.01096796989440918,0.32844066619873047,0.049228095,0.008757467,-202.96437575052332,-1.0145857515054086,-1.0145857515054086,0.0,19200,2.2357001304626465,8.289695195387405e-06,1.1835574867770195e-06,-202.91871489711252,0.0
247,1.5060241222381592,-202.96429634109776,0.08096427749348256,-202.80192116317284,-203.18611716148195,0.0,8.820473582021833,0.1,0.01158595085144043,0.3245093822479248,0.048409745,0.014912367,-202.96436780958078,-1.0147870397768228,-1.0147870397768228,0.0,19200,2.200251340866089,1.2911868404906128e-06,1.3411727278220379e-06,-202.88894498961645,0.0
248,1.455334186553955,-202.91626241580408,0.07111373947346505,-202.76685937552458,-203.1047530756473,0.0,8.142862312960863,0.1,0.011132240295410156,0.3033769130706787,0.048687465,0.012544355,-202.95955727020313,-1.0145464616478064,-1.0145464616478064,0.0,19200,2.2287540435791016,1.0487054941918363e-06,1.5806143111632991e-06,-202.8222996470098,0.0
249,1.4467921257019043,-202.85415866757293,0.07245148124692323,-202.70101675127705,-203.04363195102928,0.0,6.298438629254508,0.1,0.010736703872680664,0.32087278366088867,0.05021511,0.017765822,-202.94901740994013,-1.0142357673548148,-1.0142357673548148,0.0,19200,2.243060827255249,1.5865503698986986e-06,1.3406230690065207e-06,-202.80983143162206,0.0
250,1.6578168869018555,-202.85768547104908,0.07696771333589049,-202.66906868315962,-203.08104572336958,0.0,7.996419807988781,0.1,0.01133871078491211,0.32506442070007324,0.048756182,0.0110497745,-202.939884216051,-1.0142532572667742,-1.0142532572667742,0.0,19200,2.267777442932129,1.2682706069601507e-06,8.656332123467195e-07,-202.83089581391863,0.0
251,1.4834504127502441,-202.86476572726087,0.07815219118903488,-202.6767457708396,-203.08231763827922,0.0,8.141533564438117,0.1,0.01069951057434082,0.32141804695129395,0.049324136,0.01439301,-202.932372367172,-1.0142888847395988,-1.0142888847395988,0.0,19200,2.228153705596924,9.793566045866108e-07,2.2891908075076525e-06,-202.81442401140143,0.0
252,1.4750468730926514,-202.84822353608877,0.0898970074674241,-202.62792156163914,-203.05411389199588,0.0,6.807886669108358,0.1,0.01060342788696289,0.32700443267822266,0.049788132,0.013771242,-202.9239574840637,-1.0142058461768466,-1.0142058461768466,0.0,19200,2.136178493499756,2.205842744599456e-06,3.2530441750515846e-06,-202.75579499753732,0.0
253,1.4570705890655518,-202.78363392879874,0.0723748564459808,-202.62713337093712,-203.00302574394684,0.0,6.15036318164067,0.1,0.010977745056152344,0.325742244720459,0.04731797,0.016385585,-202.9099251285372,-1.0138827800168084,-1.0138827800168084,0.0,19200,2.0577354431152344,3.936721385941094e-06,2.2702658280024456e-06,-202.59641637470585,0.0
254,1.4516105651855469,-202.6387461955686,0.07564091598820022,-202.4798134939506,-202.86032900510682,0.0,12.033918335448023,0.1,0.011007070541381836,0.3203434944152832,0.049157336,0.010583227,-202.88280723524036,-1.01315824508591,-1.01315824508591,0.0,19200,2.0473577976226807,4.013026987771111e-06,8.59392884921611e-07,-202.59610634200786,0.0
255,1.4575135707855225,-202.63711275447358,0.07761092330360451,-202.42495508596454,-202.8392883367299,0.0,7.415841165122833,0.1,0.010765314102172852,0.28042173385620117,0.05089061,0.013165942,-202.8582377871637,-1.0131499180932673,-1.0131499180932673,0.0,19200,1.9990568161010742,8.717670670692217e-07,9.323162915891269e-07,-202.6900743691101,0.0
256,1.4555883407592773,-202.70899928214757,0.08101377877188908,-202.4984182067924,-202.881618800823,0.0,6.645407839703311,0.1,0.010740995407104492,0.25306057929992676,0.047811925,0.009204062,-202.84331393666207,-1.0135091104600011,-1.0135091104600011,0.0,19200,1.9772367477416992,1.1694219732352075e-06,1.6669361454842975e-06,-202.56133233317195,0.0
257,1.4572465419769287,-202.6123762619455,0.08129038980159671,-202.32782066662025,-202.74903806111328,0.0,8.391746202956037,0.1,0.010869741439819336,0.32129430770874023,0.049395885,0.013470926,-202.8202201691904,-1.0130260430166325,-1.0130260430166325,0.0,19200,2.0213582515716553,1.381455601078469e-06,8.449624331346562e-07,-202.68148626713085,0.0
258,1.4483232498168945,-202.71628080155958,0.07367860350164719,-202.55407085627016,-202.930536510209,0.0,8.267891317217236,0.1,0.010634660720825195,0.3218367099761963,0.047284853,0.0138841355,-202.80982623242733,-1.0135455555708843,-1.0135455555708843,0.0,19200,2.150555372238159,1.3508502930489838e-06,8.834911364041254e-07,-202.69928846476947,0.0
259,1.6347355842590332,-202.74943736289367,0.07696027230251296,-202.59162536090943,-202.936792082753,0.0,7.564426835718848,0.1,0.011109352111816406,0.319718599319458,0.053023327,0.019206204,-202.80378734547398,-1.0137115810245378,-1.0137115810245378,0.0,19200,2.1951098442077637,9.205388077092263e-07,1.1405228026009939e-06,-202.78395413461476,0.0
260,1.451747179031372,-202.80434641768753,0.07109066149846185,-202.64556990959787,-202.95870887333066,0.0,7.832326316854303,0.1,0.010772943496704102,0.3284034729003906,0.048269805,0.014046102,-202.80384325269534,-1.0139856370559113,-1.0139856370559113,0.0,19200,2.1719563007354736,8.820252083239139e-07,2.500328318589279e-06,-202.72164824319435,0.0
261,1.4839446544647217,-202.7595057123708,0.07238950790336693,-202.54625304179848,-202.90699419108424,0.0,8.087505886481987,0.1,0.011021852493286133,0.32264113426208496,0.05152839,0.011471135,-202.7994094986629,-1.0137613031464847,-1.0137613031464847,0.0,19200,2.1213810443878174,1.973176680389852e-06,1.1203230828708756e-06,-202.72456754685794,0.0
262,1.456334114074707,-202.7470998811211,0.07811622017638438,-202.5543422949209,-202.92394025081956,0.0,7.7696952460280135,0.1,0.010621786117553711,0.2515413761138916,0.05165929,0.0075916084,-202.79417853690873,-1.0136986383504956,-1.0136986383504956,0.0,19200,2.134488105773926,9.519754050254529e-07,9.015584703842057e-07,-202.85641013008637,0.0
263,1.45261549949646,-202.87792870265392,0.08062563062459731,-202.7051995474285,-203.06094882745333,0.0,7.416409540791495,0.1,0.011051177978515625,0.3283705711364746,0.050999057,0.01348433,-202.80255355348328,-1.0143525099471766,-1.0143525099471766,0.0,19200,2.1440935134887695,1.3441495799918418e-06,5.7189450310949846e-06,-202.83833615814132,0.0
264,1.4601647853851318,-202.85857234661225,0.07621095834827497,-202.64063870702896,-203.04521547549274,0.0,8.354731945695447,0.1,0.010955095291137695,0.32259130477905273,0.047471568,0.010313455,-202.80815543279618,-1.0142555071320163,-1.0142555071320163,0.0,19200,2.163020372390747,5.4459499634679475e-06,2.5521013192591513e-06,-202.82117642493233,0.0
265,1.4487626552581787,-202.8437132013753,0.07309673739792859,-202.64401374538255,-202.99529574439453,0.0,7.4876758531752845,0.1,0.010512828826904297,0.3222634792327881,0.047375493,0.007741323,-202.8117112096541,-1.0141808759471025,-1.0141808759471025,0.0,19200,2.238257884979248,2.5383032886549953e-06,1.087472056659261e-06,-202.6953504879216,0.0
266,1.611220121383667,-202.7166582515866,0.08547078975280072,-202.52942758326878,-202.9287734274744,0.0,6.913291716105651,0.1,0.010796785354614258,0.32303714752197266,0.04856238,0.0102970665,-202.80220591384736,-1.0135457404426758,-1.0135457404426758,0.0,19200,2.2579472064971924,1.7813200319273166e-06,1.7476398292424852e-06,-202.61308700973316,0.0
267,1.615661859512329,-202.61929012330287,0.06777069952064192,-202.46859509369875,-202.83969303960785,0.0,5.015687608966713,0.1,0.011098623275756836,0.32906198501586914,0.053474464,0.011393267,-202.7839143347929,-1.013059131641228,-1.013059131641228,0.0,19200,2.2585229873657227,2.9975867104774557e-06,7.667915339932911e-07,-202.7831158300092,0.0
268,1.4885914325714111,-202.7979601359117,0.08590425317806241,-202.5514568768338,-203.05353486630537,0.0,5.749270743612026,0.1,0.010557889938354492,0.2716846466064453,0.05057515,0.013742564,-202.7853189149048,-1.0139521287417057,-1.0139521287417057,0.0,19200,2.1436831951141357,1.8039784763612334e-06,2.336490579200596e-06,-202.847942121399,0.0
269,1.5387780666351318,-202.86467183099907,0.07430480040420036,-202.6884765044813,-203.06107731836426,0.0,7.493691050554015,0.1,0.011219024658203125,0.3352696895599365,0.046039224,0.010166934,-202.79325420651423,-1.0142853451145595,-1.0142853451145595,0.0,19200,2.123229742050171,3.1646619288155677e-06,2.8219540903897863e-06,-202.7671791112797,0.0
270,1.5115382671356201,-202.7860653503135,0.07637818849396068,-202.60885499199725,-202.98761271562242,0.0,6.0182092752359155,0.1,0.010971784591674805,0.314497709274292,0.048726734,0.016077986,-202.79253532089416,-1.01389212834039,-1.01389212834039,0.0,19200,2.1320202350616455,3.3410569574869932e-06,1.7814008263745989e-06,-202.7765730701164,0.0
271,1.489001989364624,-202.80294024181708,0.07378721899454727,-202.62226236293725,-203.07440321617565,0.0,5.884080972418186,0.1,0.010970354080200195,0.28018689155578613,0.0480649,0.0145577,-202.79357581298646,-1.013976258707943,-1.013976258707943,0.0,19200,2.161313772201538,2.2042514627240426e-06,8.314140238908151e-07,-202.84120301635193,0.0
272,1.4653575420379639,-202.8704303229771,0.0808943779749332,-202.64302044226795,-203.08638990464985,0.0,6.404512213699206,0.1,0.010712623596191406,0.3222076892852783,0.047998868,0.014519769,-202.8012612639855,-1.0143138281245856,-1.0143138281245856,0.0,19200,2.15606427192688,1.0386431882832818e-06,7.912992673180295e-07,-202.71911511111063,0.0
273,1.4991869926452637,-202.7328213636337,0.07188560368661062,-202.52610553279547,-202.96270313225426,0.0,7.527565413151457,0.1,0.011252880096435547,0.32546520233154297,0.045493,0.011787737,-202.79441727395033,-1.0136258594730492,-1.0136258594730492,0.0,19200,2.2314186096191406,1.4763766576227129e-06,2.4457036949658325e-06,-202.5939482597304,0.0
274,1.4952852725982666,-202.6083607105758,0.06606005748551294,-202.44980113399026,-202.75393901667113,0.0,7.852788041548005,0.1,0.010932683944702148,0.28705668449401855,0.04895956,0.014733193,-202.77581161761287,-1.013003739343293,-1.013003739343293,0.0,19200,2.309464931488037,4.56819830350209e-06,8.049082897181047e-07,-202.58706165378717,0.0
275,1.6629576683044434,-202.59633917602068,0.07684847848658807,-202.4070861226132,-202.80229383338872,0.0,7.173495889303239,0.1,0.010918617248535156,0.32341599464416504,0.04620955,0.011959042,-202.75786437345366,-1.012943505146163,-1.012943505146163,0.0,19200,2.259002208709717,8.310556196722849e-07,2.1308750570655682e-06,-202.4791628647366,0.0
276,1.4825022220611572,-202.52656035525888,0.07847364749750434,-202.31822548057053,-202.7262786609869,0.0,7.755191715134643,0.1,0.011069059371948242,0.33658599853515625,0.05151327,0.015040385,-202.73473397163417,-1.0125944101547708,-1.0125944101547708,0.0,19200,2.232146739959717,2.900258790406775e-06,4.525487950834529e-06,-202.6125510878391,0.0
277,1.525803565979004,-202.64915532134987,0.08645900624308371,-202.4503433647659,-202.8629372249772,0.0,9.958057581846935,0.1,0.011056184768676758,0.31913280487060547,0.049984943,0.010697442,-202.72617610660575,-1.0132071104731626,-1.0132071104731626,0.0,19200,2.346961498260498,4.071331194876734e-06,9.565112527627348e-07,-202.5422733963136,0.0
278,1.4713292121887207,-202.5849453971554,0.07827683387853439,-202.41855360667702,-202.7960202963508,0.0,6.949675102490019,0.1,0.010970830917358398,0.32195448875427246,0.04704223,0.016365401,-202.71205303566072,-1.012886131110715,-1.012886131110715,0.0,19200,2.3277230262756348,1.184323287260046e-06,1.3516335657391582e-06,-202.41181579511743,0.0
279,1.4603571891784668,-202.4497036528381,0.07146072148725195,-202.2612769576406,-202.61916415361125,0.0,7.665278016035138,0.1,0.010807991027832031,0.31164073944091797,0.04510393,0.006720865,-202.68581809737847,-1.0122101041123128,-1.0122101041123128,0.0,19200,2.2908577919006348,1.1096027391318392e-06,9.58633020557487e-07,-202.23360070797634,0.0
280,1.4486820697784424,-202.3118898903241,0.06907053226390006,-202.15072798711822,-202.52314445865488,0.0,8.67392032018415,0.1,0.010895967483520508,0.31377434730529785,0.05246165,0.008983308,-202.64842527667304,-1.0115211069445869,-1.0115211069445869,0.0,19200,2.2951929569244385,1.7019099307434823e-06,1.0048581368581489e-06,-202.16872924694763,0.0
281,1.4674851894378662,-202.22103407711543,0.08032253981631135,-201.9636160993271,-202.38777598733873,0.0,6.525483535047628,0.1,0.010531902313232422,0.32039785385131836,0.05345316,-0.0018205929,-202.6056861567173,-1.0110667862076215,-1.0110667862076215,0.0,19200,2.230419397354126,8.603075034613912e-07,8.410078547048366e-07,-202.34788174192985,0.0
282,1.4651117324829102,-202.4014428197473,0.07733352946414535,-202.18084764817783,-202.57925131198365,0.0,7.412208217132146,0.1,0.010993242263793945,0.3183448314666748,0.05094703,0.012965398,-202.5852618230203,-1.0119686723838177,-1.0119686723838177,0.0,19200,2.210834264755249,1.768506524279792e-06,1.0235353046360387e-06,-202.42122595736612,0.0
283,1.6199567317962646,-202.46239663989323,0.0736205091627479,-202.31091406110758,-202.70317734668637,0.0,7.357329906807506,0.1,0.01116800308227539,0.3162236213684082,0.05011399,0.01743588,-202.57297530470757,-1.0122735174920277,-1.0122735174920277,0.0,19200,2.1778407096862793,1.3451842814220823e-06,2.4158158783520765e-06,-202.54301296114883,0.0
284,1.4489068984985352,-202.59335741716382,0.07381777951764461,-202.33148689450607,-202.75821453699004,0.0,7.6475850437162975,0.1,0.010877847671508789,0.3180348873138428,0.04633913,0.014668766,-202.57501351595317,-1.0129277582644878,-1.0129277582644878,0.0,19200,2.2546443939208984,1.3242571540451752e-06,1.02189097840356e-05,-202.3961333756228,0.0
285,1.4566900730133057,-202.4428101305106,0.07712113931571715,-202.28626552221448,-202.6777016714361,0.0,6.8537746883459825,0.1,0.011055231094360352,0.31935691833496094,0.048706584,0.01480026,-202.5617931774089,-1.0121751375015895,-1.0121751375015895,0.0,19200,2.2581841945648193,1.4729570956132456e-05,1.416557437147319e-06,-202.4034055004807,0.0
286,1.5276906490325928,-202.4573169622066,0.07406685398683897,-202.3107256547159,-202.63024636993507,0.0,6.722383224792629,0.1,0.01123666763305664,0.31194448471069336,0.04927882,0.010387196,-202.5513455558887,-1.012247477315151,-1.012247477315151,0.0,19200,2.229400873184204,1.6911372545264863e-06,1.5133121545787205e-06,-202.3316239951053,0.0
287,1.4711344242095947,-202.3865983151571,0.08046027078226976,-202.13840691622153,-202.53545254081158,0.0,9.377325417319293,0.1,0.011092185974121094,0.26450085639953613,0.04669192,0.015025856,-202.53487083181557,-1.0118938367902572,-1.0118938367902572,0.0,19200,2.262779474258423,2.1276773385765047e-06,7.997668043732645e-07,-202.21097925419195,0.0
288,1.6817891597747803,-202.24836381191503,0.07573887654158534,-202.04370280113704,-202.3985538429484,0.0,8.13392802513456,0.1,0.010902881622314453,0.3145883083343506,0.050525904,0.014853515,-202.50622012982552,-1.0112025594041805,-1.0112025594041805,0.0,19200,2.201716661453247,1.2937398018602143e-06,1.4484743101717505e-06,-202.26707948523693,0.0
289,1.4954862594604492,-202.34268445490002,0.0874439755817963,-202.1192543594096,-202.53709228922952,0.0,7.899708752660828,0.1,0.011126279830932617,0.3169369697570801,0.05019276,0.0118238,-202.48986656233296,-1.0116741242887028,-1.0116741242887028,0.0,19200,2.111135244369507,1.798571347781261e-06,9.343926116288891e-07,-202.34297040694796,0.0
290,1.5108380317687988,-202.40418623345235,0.08930795431184574,-202.22090551035353,-202.61246639890433,0.0,8.918667657601182,0.1,0.010947704315185547,0.30577707290649414,0.04795996,0.011977409,-202.48129852944493,-1.0119813692195987,-1.0119813692195987,0.0,19200,2.1166818141937256,9.945914287901835e-07,1.6641577747567833e-06,-202.1795221269433,0.0
291,1.5395424365997314,-202.2332528996121,0.08209856011052642,-202.0284630587347,-202.50758143292316,0.0,6.870063664448874,0.1,0.010754823684692383,0.31699252128601074,0.05546919,0.0055935257,-202.45649396646166,-1.0111267755309967,-1.0111267755309967,0.0,19200,2.115990161895752,3.769032204719932e-06,1.343657429116767e-06,-202.36191334582463,0.0
292,1.4956061840057373,-202.41554069535815,0.08164831247650052,-202.19922060159914,-202.6722809751883,0.0,6.999303069916561,0.1,0.010783195495605469,0.3157157897949219,0.050686684,0.015264316,-202.45239863935132,-1.012037899372877,-1.012037899372877,0.0,19200,2.2451281547546387,9.624640306805049e-07,1.4980522688284427e-06,-202.50004471171445,0.0
293,1.4553358554840088,-202.5564909868189,0.08625087586007801,-202.34239580280016,-202.8229025599216,0.0,9.621901062546362,0.1,0.010668754577636719,0.3168764114379883,0.05200224,0.009797038,-202.46280787409808,-1.0127421526998488,-1.0127421526998488,0.0,19200,2.3823459148406982,1.0096025378293825e-06,4.168229436800472e-06,-202.54510830915962,0.0
294,1.4495506286621094,-202.59576027555727,0.08225311802625139,-202.40073992373158,-202.81746284444242,0.0,7.179385804592712,0.1,0.012450695037841797,0.26207900047302246,0.049391188,0.014453505,-202.476103114244,-1.0129382929576307,-1.0129382929576307,0.0,19200,2.297802448272705,5.212860447896097e-06,8.859268389406817e-07,-202.35177731738236,0.0
295,1.588111400604248,-202.4037043829654,0.0806223010217868,-202.18894316238266,-202.63560337499516,0.0,8.932253592360151,0.1,0.010988950729370117,0.31487560272216797,0.05430361,0.009881902,-202.46886324111614,-1.0119780966958958,-1.0119780966958958,0.0,19200,2.2288975715637207,1.5953574856409598e-06,8.700099779060925e-07,-202.39411483158133,0.0
296,1.479893684387207,-202.44077482950237,0.09305940740727232,-202.20605694841254,-202.66132034146878,0.0,8.134052385385424,0.1,0.01102137565612793,0.3247976303100586,0.047533035,0.01328432,-202.46605439995477,-1.0121635953534216,-1.0121635953534216,0.0,19200,2.1796324253082275,9.0414700302188e-07,2.1746955427515772e-06,-202.29788739514896,0.0
297,1.439321517944336,-202.36957375150533,0.08333906862963744,-202.20391040770943,-202.57148882001852,0.0,8.987983010392634,0.1,0.01072835922241211,0.3107471466064453,0.05108839,0.011031218,-202.45640633510982,-1.0118071887636766,-1.0118071887636766,0.0,19200,2.167478561401367,2.189804508483471e-06,8.833455507308435e-07,-202.35333318617703,0.0
298,1.4787709712982178,-202.39888014658678,0.07827065296852045,-202.18887442897423,-202.61666582669127,0.0,10.902659714763981,0.1,0.011002779006958008,0.3119983673095703,0.04737832,0.010279365,-202.4506537162575,-1.0119534273507385,-1.0119534273507385,0.0,19200,2.2209231853485107,8.313838741495424e-07,1.2258173870348783e-06,-202.3221328800161,0.0
299,1.6337330341339111,-202.37548469771136,0.06669418412093907,-202.21732228404085,-202.55382688427136,0.0,6.5215868226555385,0.1,0.010833024978637695,0.31890058517456055,0.052297086,0.015655242,-202.4431368144029,-1.0118363812427524,-1.0118363812427524,0.0,19200,2.2205262184143066,1.3357285792977012e-06,1.956512708291653e-06,-202.42956217687697,0.0
300,1.4799492359161377,-202.4851029231917,0.08113487088499964,-202.31887519471556,-202.73458629611952,0.0,7.835010891112956,0.1,0.01133871078491211,0.3141653537750244,0.047298897,0.006626315,-202.44733342528178,-1.0123842763581028,-1.0123842763581028,0.0,19200,2.1717586517333984,2.6244454984725655e-06,9.576785136826504e-07,-202.4465238915024,0.0
301,1.4353327751159668,-202.48617264097948,0.08459416391592894,-202.23232514944448,-202.65525544174278,0.0,6.682535075030958,0.1,0.011164188385009766,0.3107757568359375,0.047951084,0.018221384,-202.45121734685156,-1.0123895556770586,-1.0123895556770586,0.0,19200,2.160855770111084,8.719690903561283e-07,8.782027570488093e-07,-202.43193669320385,0.0
302,1.4786241054534912,-202.4848611055371,0.08993328440365714,-202.2102018462428,-202.6787126083745,0.0,7.414070399523436,0.1,0.013230562210083008,0.3448328971862793,0.04625702,0.014298496,-202.45458172272015,-1.0123830330087307,-1.0123830330087307,0.0,19200,2.877476930618286,8.985221891472747e-07,2.035448198575543e-06,-202.34902640934143,0.0
303,1.5378117561340332,-202.4016992286084,0.089497505199793,-202.17039524499762,-202.594159407499,0.0,8.461128709510952,0.1,0.012384414672851562,0.3041391372680664,0.04928124,0.009009707,-202.44929347330898,-1.011966854659369,-1.011966854659369,0.0,19200,2.262514352798462,2.316460216246939e-06,8.430321506671762e-07,-202.2376085448458,0.0
304,1.7982544898986816,-202.3106881093871,0.0827087497354335,-202.14116903512405,-202.50076179349304,0.0,7.418971464112098,0.1,0.012157678604125977,0.3163120746612549,0.049266323,0.014225164,-202.4354329369168,-1.0115124347849893,-1.0115124347849893,0.0,19200,2.2842111587524414,9.337569552332395e-07,2.4173217188087563e-06,-202.30167416238265,0.0
305,1.7878880500793457,-202.36731617477867,0.0976330454122734,-202.13639349868896,-202.63476162969948,0.0,10.78093253545011,0.1,0.011976003646850586,0.3190484046936035,0.049166214,0.009436619,-202.42862126070298,-1.0117950923699446,-1.0117950923699446,0.0,19200,2.2955362796783447,3.425854440796314e-06,4.442746594256421e-06,-202.3704955458248,0.0
306,1.6481730937957764,-202.4346694441798,0.08500977869193994,-202.187651212517,-202.61222086718078,0.0,8.31247360321251,0.1,0.011920928955078125,0.3195345401763916,0.047107153,0.012574467,-202.42922607905066,-1.0121316462726726,-1.0121316462726726,0.0,19200,2.193272590637207,5.013470586774176e-06,1.3988881858001563e-06,-202.28229663582925,0.0
307,1.4555411338806152,-202.3437760619626,0.07454229774418838,-202.14321725907647,-202.52676727961838,0.0,5.45324221788106,0.1,0.01069784164428711,0.3206353187561035,0.04792179,0.016255533,-202.42068107734187,-1.011677411247056,-1.011677411247056,0.0,19200,2.2089266777038574,8.353783846097788e-07,1.842046511002188e-06,-202.25607884884943,0.0
308,1.4720799922943115,-202.31477930902284,0.09107242141360249,-202.0731369079076,-202.53992147216675,0.0,8.510595042049953,0.1,0.011350393295288086,0.3211803436279297,0.044612274,0.012224395,-202.41009090050997,-1.0115321566177122,-1.0115321566177122,0.0,19200,2.194074869155884,2.161078594337209e-06,1.3009651642041933e-06,-202.15760281624665,0.0
309,1.469102144241333,-202.24583296761628,0.07521194037404613,-202.06900828807525,-202.43905231963998,0.0,5.685442948318808,0.1,0.011142730712890625,0.3346121311187744,0.053879686,0.021052852,-202.3936651072206,-1.0111876871278602,-1.0111876871278602,0.0,19200,2.208219051361084,1.0764564706697418e-06,2.083115485112605e-06,-202.23915781004055,0.0
310,1.4670658111572266,-202.3183462479864,0.08238366380133018,-202.15384399184552,-202.51063762324154,0.0,8.796904528430025,0.1,0.011383295059204102,0.25126123428344727,0.049349777,0.011947702,-202.3861332212972,-1.0115499374597683,-1.0115499374597683,0.0,19200,2.2803359031677246,2.8093804333815814e-06,1.6312054814182295e-06,-202.19501618919682,0.0
311,1.5106298923492432,-202.27296377180758,0.07127781967284778,-202.07017242180115,-202.41486562795745,0.0,6.89891924049575,0.1,0.010982513427734375,0.3219006061553955,0.051554248,0.014873061,-202.37481627634824,-1.0113233853500176,-1.0113233853500176,0.0,19200,2.2538657188415527,1.161029167404035e-06,4.470777923940357e-06,-202.3343481972516,0.0
312,1.4838178157806396,-202.4070434567452,0.08345079244011093,-202.21279053947868,-202.6707529740321,0.0,8.267610714839773,0.1,0.012645244598388672,0.35447120666503906,0.04789688,0.013245121,-202.37803899438794,-1.0119932849074782,-1.0119932849074782,0.0,19200,2.9803102016448975,3.1182665210128565e-06,8.307646850802248e-07,-202.35512997182366,0.0
313,1.4978337287902832,-202.41643142249026,0.0747821060653193,-202.25759164976776,-202.59862677031228,0.0,6.908805308116201,0.1,0.011308670043945312,0.3361949920654297,0.04841654,0.015862264,-202.38187823719815,-1.0120404028333796,-1.0120404028333796,0.0,19200,2.328911304473877,7.926373206697604e-07,9.243445050339576e-07,-202.36944268856587,0.0
314,1.641770362854004,-202.42459743343056,0.07870256189240576,-202.23728022579562,-202.59323173342693,0.0,8.286272457634508,0.1,0.011055946350097656,0.33472442626953125,0.047592435,0.010406339,-202.3861501568214,-1.0120812213347357,-1.0120812213347357,0.0,19200,2.2731916904449463,1.035016104963055e-06,1.2031533961398129e-06,-202.24680012728632,0.0
315,1.4939978122711182,-202.30840977020765,0.07575547310934866,-202.14108551777824,-202.49129182417514,0.0,9.787823200531667,0.1,0.01131296157836914,0.3299684524536133,0.049945842,0.009526714,-202.37837611816002,-1.0115002643950168,-1.0115002643950168,0.0,19200,2.253528118133545,2.0967203410628026e-06,2.066161915196979e-06,-202.14136516375268,0.0
316,1.5159633159637451,-202.2049401694479,0.08000045733043139,-201.9757827194573,-202.38473961860612,0.0,8.008699101585734,0.1,0.011092185974121094,0.32291626930236816,0.046409756,0.0125694815,-202.36103252328883,-1.0109830588465443,-1.0109830588465443,0.0,19200,2.202287435531616,2.731440539993594e-06,9.453557107652772e-07,-202.07091844110957,0.0
317,1.6290459632873535,-202.13627967109926,0.07040908405833088,-201.93633136045315,-202.29558711937742,0.0,7.165080570784962,0.1,0.010787010192871094,0.32637572288513184,0.047598787,0.012072093,-202.33855723806988,-1.0106401573782378,-1.0106401573782378,0.0,19200,2.0974936485290527,1.169438527349155e-06,1.0613831070098918e-06,-201.96556894233373,0.0
318,1.5239367485046387,-202.02908631012906,0.07173578560858285,-201.83484290537092,-202.2379280815218,0.0,8.46981497751175,0.1,0.012473106384277344,0.3608512878417969,0.05920527,0.017062861,-202.30761014527582,-1.0101041820312382,-1.0101041820312382,0.0,19200,2.8552639484405518,1.6136322224089916e-06,1.2217446939079815e-06,-202.15320380464,0.0
319,1.5198407173156738,-202.2072444484805,0.07083332174356972,-202.00839100663146,-202.3681988844825,0.0,8.183963521352162,0.1,0.01082754135131836,0.3263368606567383,0.04865927,0.012995814,-202.2975735755963,-1.0109946790487025,-1.0109946790487025,0.0,19200,2.2423720359802246,1.4770295108448278e-06,2.7395122542321387e-06,-202.10701154324875,0.0
320,1.596513271331787,-202.18059682718544,0.07435929090313267,-202.0257870549983,-202.40741883108004,0.0,6.072299805230753,0.1,0.010785341262817383,0.3319582939147949,0.048788678,0.01803081,-202.2858759007552,-1.0108615687796185,-1.0108615687796185,0.0,19200,2.2301430702209473,2.9444250553250392e-06,1.2096574054051733e-06,-202.14255180534855,0.0
321,1.5818490982055664,-202.2298203551496,0.0768662415932851,-202.0615464496873,-202.45557023303093,0.0,7.5116799139056285,0.1,0.011237144470214844,0.3287966251373291,0.04997829,0.01317355,-202.28027034619464,-1.011107754134672,-1.011107754134672,0.0,19200,2.2880871295928955,1.288766286359171e-06,3.737165633385119e-06,-202.13618860599757,0.0
322,1.6871719360351562,-202.2207143444051,0.07410690047230759,-202.0146889186082,-202.38986548267945,0.0,9.466707540711681,0.1,0.012735843658447266,0.37226200103759766,0.04716309,0.009090217,-202.2743147460157,-1.0110618407365155,-1.0110618407365155,0.0,19200,2.91070818901062,4.653804198747596e-06,1.0768109845117494e-06,-202.13903173008322,0.0
323,1.4925932884216309,-202.1924945594369,0.0816551007758574,-201.97170682440296,-202.44820716073707,0.0,10.086145146126867,0.1,0.011047124862670898,0.3206937313079834,0.04983607,0.008153144,-202.26613272735784,-1.0109204232430824,-1.0109204232430824,0.0,19200,2.255110025405884,1.3060559652025657e-06,2.860507400926996e-06,-202.23319736037456,0.0
324,1.4784605503082275,-202.29696405026334,0.07111351548512294,-202.09699412675488,-202.48281529116363,0.0,6.957438701856964,0.1,0.011089801788330078,0.32247066497802734,0.0458498,0.014059706,-202.2692158596484,-1.011442787781419,-1.011442787781419,0.0,19200,2.2412376403808594,1.7291395154340993e-06,3.847857630279531e-06,-202.1040885526331,0.0
325,1.6025352478027344,-202.17347566083913,0.07187111794810794,-201.99190123340003,-202.38736854128476,0.0,8.9322610591913,0.1,0.011040687561035156,0.3403604030609131,0.05051971,0.014485938,-202.25964183976748,-1.0108254931091498,-1.0108254931091498,0.0,19200,2.270914077758789,5.507082740704892e-06,7.791020825261297e-07,-202.18328348586326,0.0
326,1.6707966327667236,-202.2575802831681,0.0694849446318661,-202.05567120916425,-202.44432226049358,0.0,10.81974275554837,0.1,0.010814666748046875,0.3315541744232178,0.04991713,0.011524196,-202.25943568410756,-1.011245872776299,-1.011245872776299,0.0,19200,2.2902183532714844,8.551340285376822e-07,1.6207184334044064e-06,-202.24900099521284,0.0
327,1.495297908782959,-202.30610061561728,0.08655753627895206,-202.09147277652923,-202.64088006818702,0.0,8.438453009578541,0.1,0.01096343994140625,0.32636260986328125,0.049565803,0.009640411,-202.26410217725854,-1.0114885110624605,-1.0114885110624605,0.0,19200,2.26764178276062,2.0668602824239232e-06,8.619295578554605e-07,-202.26994383763443,0.0
328,1.501871109008789,-202.33266317500588,0.07284130117015028,-202.1084679334107,-202.5353852700014,0.0,7.290719793717718,0.1,0.011298656463623047,0.3335299491882324,0.047765974,0.012654071,-202.27095827703326,-1.0116209392941695,-1.0116209392941695,0.0,19200,2.3381850719451904,8.53315990783435e-07,2.1890975573059414e-06,-202.23431351490666,0.0
329,1.7455778121948242,-202.31301235690034,0.07669296255658195,-202.13259450228693,-202.51887753583006,0.0,9.567964039562703,0.1,0.011119842529296875,0.32349634170532227,0.04887079,0.010530729,-202.27516368501998,-1.011522802646755,-1.011522802646755,0.0,19200,2.310476779937744,2.0513808411299482e-06,9.083189864069795e-07,-202.22544658773214,0.0
330,1.5115966796875,-202.28880484722922,0.08111778167458812,-202.07014600455935,-202.47386146470015,0.0,8.326157541234785,0.1,0.011097192764282227,0.3358144760131836,0.04505238,0.011018643,-202.2765278012409,-1.01140177005749,-1.01140177005749,0.0,19200,2.2202274799346924,8.8216353035116e-07,1.1183848445381889e-06,-202.30552042759206,0.0
331,1.490328073501587,-202.36403839034668,0.09445028818093226,-202.15083010933708,-202.6382127789336,0.0,6.432626032187656,0.1,0.011470794677734375,0.3273472785949707,0.045134526,0.0207807,-202.28527886015146,-1.011777865903433,-1.011777865903433,0.0,19200,2.2115209102630615,1.7395212739790649e-06,1.785383332115729e-06,-202.09889903184614,0.0
332,1.5518412590026855,-202.15950446884128,0.05943700492143685,-202.03472011951482,-202.31177170880886,0.0,7.993199387178093,0.1,0.013094186782836914,0.3253633975982666,0.049474213,0.012179388,-202.27270142102046,-1.0107553471750794,-1.0107553471750794,0.0,19200,2.8733417987823486,3.9736612560420245e-06,1.0713510100687539e-06,-202.04349778014242,0.0
333,1.6413440704345703,-202.10832089333817,0.07143272878058235,-201.91637481564788,-202.30897350118232,0.0,10.144374792065468,0.1,0.011249780654907227,0.32149815559387207,0.047076985,0.008596465,-202.25626336825223,-1.01049962646881,-1.01049962646881,0.0,19200,2.1692123413085938,9.610450564346162e-07,1.1559339570623425e-06,-201.9570146319876,0.0
334,1.4853885173797607,-202.03138294788505,0.057843567816556425,-201.88477283030574,-202.18364022423768,0.0,9.930862022080264,0.1,0.01156163215637207,0.32364726066589355,0.04490486,0.011495192,-202.23377532621552,-1.010114963491079,-1.010114963491079,0.0,19200,2.262702703475952,9.554516444000178e-07,1.690719105492358e-06,-201.9199696062076,0.0
335,1.7090160846710205,-201.97676202466928,0.06448959935395508,-201.8176903269281,-202.19341666475722,0.0,7.38235388996184,0.1,0.01108551025390625,0.3241260051727295,0.05641769,0.01264152,-202.2080739960609,-1.009841791693848,-1.009841791693848,0.0,19200,2.239175796508789,1.7374272367139456e-06,3.385921462575013e-06,-202.12517371620572,0.0
336,1.560349464416504,-202.183354285612,0.07349125249871376,-202.03764409791165,-202.39351564126682,0.0,8.385142306429447,0.1,0.010916709899902344,0.32665467262268066,0.05126253,0.009108167,-202.20560202501602,-1.0108744276308124,-1.0108744276308124,0.0,19200,2.286191463470459,7.095666095345072e-06,6.968436172209698e-06,-202.21997109748287,0.0
337,1.657219409942627,-202.27631350875822,0.06928142724211761,-202.14403686308864,-202.5050648990116,0.0,11.20203948878923,0.1,0.011160612106323242,0.32877659797668457,0.05188457,0.007865395,-202.21267317339027,-1.0113391086815933,-1.0113391086815933,0.0,19200,2.2588977813720703,8.220226984097915e-06,1.1434348104995173e-06,-202.25063410563985,0.0
338,1.4873340129852295,-202.3278676490942,0.08072469705295027,-202.11445255290164,-202.48614694256347,0.0,6.556243026495126,0.1,0.010973215103149414,0.3159058094024658,0.047246426,0.014762269,-202.22419262096065,-1.011596567179952,-1.011596567179952,0.0,19200,2.206103563308716,1.5744117463318656e-06,2.0889285333654605e-06,-202.1385258862222,0.0
339,1.472151756286621,-202.20652412317307,0.07645871976011948,-202.03265365209637,-202.41009407876342,0.0,5.0105270016519805,0.1,0.011129617691040039,0.33368349075317383,0.04998078,0.018380448,-202.22242577118192,-1.0109899248070358,-1.0109899248070358,0.0,19200,2.239112377166748,1.5217822814697083e-06,1.82963306367191e-06,-202.06136013737654,0.0
340,1.4915862083435059,-202.13014057183784,0.06715588706749842,-201.9811946858828,-202.3156245442517,0.0,8.50322505958192,0.1,0.011144638061523438,0.32938146591186523,0.045771725,0.0133583695,-202.21319725124752,-1.0106080803571216,-1.0106080803571216,0.0,19200,2.251276731491089,1.6611078590323468e-06,7.825742702509521e-07,-201.99375390438564,0.0
341,1.4999198913574219,-202.07742228540096,0.07075882275726773,-201.8947754024873,-202.24907528739587,0.0,7.637969577279359,0.1,0.010879039764404297,0.3253819942474365,0.04374037,0.0101829795,-202.19961975466288,-1.0103443984918103,-1.0103443984918103,0.0,19200,2.2751667499542236,9.078780322089256e-07,2.256235361676421e-06,-201.89340189869966,0.0
342,1.5096399784088135,-201.96085863332942,0.061336190133888455,-201.82565223782316,-202.11415879204384,0.0,9.382439393794089,0.1,0.01132965087890625,0.32636427879333496,0.048752565,0.010879744,-202.17574364252954,-1.0097618270192332,-1.0097618270192332,0.0,19200,2.343757390975952,3.840411308387516e-06,8.279805170049645e-07,-201.8844758975262,0.0
