Iter | Sampling Pol | Evaluation Pol | Best (Sampled) 
   0 -3.25 -111.63 -100000000.00 
   1 69.28 -76.26 -3.25 
   2 195.01 145.11 69.28 
   3 242.11 223.63 195.01 
   4 310.13 513.55 242.11 
   5 367.84 575.33 310.13 
   6 420.06 590.23 367.84 
   7 459.40 603.55 420.06 
   8 491.83 598.10 459.40 
   9 550.57 618.26 491.83 
  10 575.30 634.25 550.57 
  11 580.69 652.25 575.30 
  12 604.70 679.85 580.69 
  13 631.38 681.07 604.70 
  14 639.15 683.63 631.38 
  15 628.04 691.25 639.15 
  16 649.17 691.77 639.15 
  17 659.84 699.75 649.17 
  18 654.01 705.55 659.84 
  19 684.56 704.08 659.84 
  20 667.83 709.63 684.56 
  21 685.82 712.71 684.56 
  22 680.40 718.04 685.82 
  23 690.23 718.52 685.82 
  24 688.98 719.15 690.23 
  25 696.99 722.22 690.23 
  26 693.51 724.83 696.99 
  27 697.88 725.31 696.99 
  28 703.12 729.05 697.88 
  29 706.79 725.57 703.12 
  30 711.61 727.93 706.79 
  31 711.32 730.89 711.61 
  32 714.59 730.80 711.61 
  33 718.08 731.43 714.59 
  34 714.02 731.77 718.08 
  35 717.25 730.44 718.08 
  36 714.02 731.23 718.08 
  37 715.08 731.54 718.08 
  38 718.21 732.15 718.08 
  39 720.26 733.68 718.21 
  40 722.61 734.94 720.26 
  41 723.36 734.53 722.61 
  42 723.28 733.78 723.36 
  43 718.59 735.10 723.36 
  44 722.76 734.59 723.36 
  45 721.16 735.81 723.36 
  46 728.90 736.11 723.36 
  47 722.69 738.67 728.90 
  48 733.03 740.07 728.90 
  49 718.01 739.69 733.03 
  50 725.33 740.91 733.03 
  51 730.12 739.41 733.03 
  52 729.80 739.45 733.03 
  53 726.78 740.31 733.03 
  54 730.41 740.88 733.03 
  55 729.61 740.08 733.03 
  56 735.20 740.80 733.03 
  57 734.52 741.37 735.20 
  58 738.82 742.06 735.20 
  59 730.41 741.50 738.82 
  60 731.73 742.46 738.82 
  61 733.18 742.25 738.82 
  62 733.01 743.25 738.82 
  63 736.18 744.01 738.82 
  64 741.88 743.80 738.82 
  65 739.05 743.95 741.88 
  66 735.81 743.97 741.88 
  67 740.46 744.19 741.88 
  68 744.16 745.36 741.88 
  69 739.77 743.31 744.16 
  70 737.31 742.16 744.16 
  71 737.94 742.84 744.16 
  72 737.40 742.54 744.16 
  73 746.49 742.18 744.16 
  74 742.70 743.10 746.49 
  75 743.87 743.72 746.49 
  76 742.50 742.99 746.49 
  77 740.48 743.68 746.49 
  78 745.59 743.49 746.49 
  79 739.34 745.37 746.49 
  80 746.50 744.45 746.49 
  81 739.59 745.56 746.50 
  82 739.64 745.97 746.50 
  83 743.41 745.56 746.50 
  84 747.23 745.37 746.50 
  85 745.77 745.26 747.23 
  86 744.51 744.70 747.23 
  87 751.04 744.43 747.23 
  88 746.26 744.82 751.04 
  89 753.12 745.23 751.04 
  90 746.97 745.13 753.12 
  91 743.71 743.64 753.12 
  92 738.78 745.27 753.12 
  93 745.48 745.39 753.12 
  94 745.96 744.75 753.12 
  95 747.93 743.62 753.12 
  96 741.08 742.58 753.12 
  97 747.36 742.11 753.12 
  98 744.25 742.28 753.12 
  99 745.46 742.88 753.12 
 100 745.40 743.25 753.12 
 101 746.22 743.55 753.12 
 102 748.69 744.50 753.12 
 103 746.90 744.16 753.12 
 104 747.24 743.90 753.12 
 105 748.11 745.62 753.12 
 106 748.91 744.50 753.12 
 107 747.19 745.49 753.12 
 108 740.43 744.85 753.12 
 109 744.50 745.03 753.12 
 110 748.64 745.08 753.12 
 111 749.58 745.07 753.12 
 112 750.89 745.35 753.12 
 113 749.52 744.76 753.12 
 114 746.63 744.09 753.12 
 115 748.14 745.92 753.12 
 116 751.10 745.76 753.12 
 117 752.19 744.58 753.12 
 118 753.93 745.01 753.12 
 119 753.37 744.83 753.93 
 120 748.68 745.50 753.93 
 121 748.96 745.65 753.93 
 122 749.08 746.30 753.93 
 123 748.38 745.94 753.93 
 124 755.15 746.68 753.93 
 125 750.08 746.03 755.15 
 126 754.32 746.00 755.15 
 127 750.80 745.74 755.15 
 128 749.42 745.70 755.15 
 129 748.02 745.43 755.15 
 130 747.66 744.90 755.15 
 131 750.13 745.15 755.15 
 132 749.42 744.96 755.15 
 133 746.85 744.13 755.15 
 134 745.79 743.75 755.15 
 135 745.23 744.36 755.15 
 136 752.19 744.04 755.15 
 137 744.84 745.21 755.15 
 138 751.14 744.31 755.15 
 139 750.56 745.45 755.15 
 140 751.02 746.21 755.15 
 141 747.81 744.70 755.15 
 142 752.36 744.89 755.15 
 143 749.04 745.46 755.15 
 144 751.23 745.49 755.15 
 145 749.57 744.66 755.15 
 146 748.69 745.17 755.15 
 147 742.23 744.39 755.15 
 148 750.08 743.19 755.15 
 149 754.08 743.54 755.15 
 150 754.52 743.25 755.15 
 151 750.50 744.05 755.15 
 152 747.40 746.04 755.15 
 153 747.88 745.82 755.15 
 154 750.49 744.90 755.15 
 155 749.52 744.23 755.15 
 156 749.61 745.01 755.15 
 157 752.80 744.77 755.15 
 158 750.75 745.18 755.15 
 159 750.79 742.46 755.15 
 160 747.13 743.48 755.15 
 161 751.70 743.78 755.15 
 162 753.60 744.80 755.15 
 163 754.37 744.69 755.15 
 164 751.62 744.76 755.15 
 165 750.01 744.93 755.15 
 166 745.54 744.92 755.15 
 167 749.47 745.27 755.15 
 168 753.85 744.99 755.15 
 169 747.70 745.07 755.15 
 170 751.85 745.11 755.15 
 171 756.80 744.43 755.15 
 172 750.82 745.79 756.80 
 173 754.88 746.34 756.80 
 174 754.98 746.05 756.80 
 175 746.00 745.81 756.80 
 176 750.76 746.00 756.80 
 177 752.13 746.18 756.80 
 178 750.84 746.25 756.80 
 179 745.02 746.34 756.80 
 180 747.70 745.78 756.80 
 181 752.07 745.89 756.80 
 182 750.14 745.70 756.80 
 183 753.34 745.73 756.80 
 184 752.08 745.69 756.80 
 185 752.14 745.84 756.80 
 186 752.22 746.13 756.80 
 187 758.35 745.45 756.80 
 188 747.02 745.47 758.35 
 189 753.55 745.67 758.35 
 190 753.43 746.27 758.35 
 191 752.83 745.60 758.35 
 192 757.08 745.86 758.35 
 193 751.68 746.15 758.35 
 194 753.95 745.77 758.35 
 195 749.35 745.55 758.35 
 196 751.72 745.73 758.35 
 197 756.54 745.60 758.35 
 198 749.06 745.56 758.35 
 199 751.92 745.93 758.35 
 200 751.91 745.90 758.35 
 201 754.09 745.87 758.35 
 202 752.37 746.04 758.35 
 203 752.11 745.96 758.35 
 204 758.09 746.02 758.35 
 205 755.54 746.53 758.35 
 206 753.55 746.73 758.35 
 207 747.78 746.59 758.35 
 208 754.92 746.19 758.35 
 209 749.00 746.28 758.35 
 210 756.24 746.07 758.35 
 211 748.30 746.35 758.35 
 212 754.21 746.26 758.35 
 213 752.90 745.99 758.35 
 214 752.31 745.39 758.35 
 215 759.23 745.66 758.35 
 216 751.49 745.53 759.23 
 217 752.14 745.48 759.23 
 218 751.86 745.33 759.23 
 219 756.14 744.89 759.23 
 220 754.40 744.22 759.23 
 221 752.34 745.05 759.23 
 222 753.62 745.63 759.23 
 223 747.77 745.78 759.23 
 224 747.78 745.42 759.23 
 225 753.41 745.37 759.23 
 226 759.15 744.46 759.23 
 227 760.03 744.08 759.23 
 228 748.47 744.79 760.03 
 229 751.13 744.64 760.03 
 230 753.54 743.95 760.03 
 231 751.87 744.21 760.03 
 232 752.73 745.53 760.03 
 233 757.38 743.84 760.03 
 234 747.73 744.33 760.03 
 235 751.61 743.75 760.03 
 236 753.62 744.14 760.03 
 237 751.59 743.05 760.03 
 238 752.87 743.74 760.03 
 239 756.44 745.05 760.03 
 240 755.65 745.71 760.03 
 241 750.83 745.83 760.03 
 242 744.89 745.75 760.03 
 243 751.22 746.31 760.03 
 244 747.77 745.96 760.03 
 245 745.77 745.56 760.03 
 246 746.78 745.20 760.03 
 247 756.56 745.93 760.03 
 248 750.60 745.62 760.03 
 249 752.34 745.83 760.03 
 250 751.21 745.66 760.03 
 251 754.21 745.65 760.03 
 252 748.04 745.68 760.03 
 253 753.13 745.76 760.03 
 254 753.79 745.80 760.03 
 255 752.28 745.21 760.03 
 256 753.77 745.18 760.03 
 257 749.25 745.73 760.03 
 258 751.76 745.46 760.03 
 259 753.88 745.45 760.03 
 260 755.11 745.03 760.03 
 261 752.89 745.10 760.03 
 262 750.61 745.23 760.03 
 263 753.50 745.01 760.03 
 264 749.72 745.05 760.03 
 265 754.77 745.18 760.03 
 266 752.35 744.51 760.03 
 267 756.94 745.09 760.03 
 268 749.54 745.03 760.03 
 269 752.17 744.84 760.03 
 270 757.01 745.54 760.03 
 271 750.09 745.37 760.03 
 272 752.59 743.96 760.03 
 273 755.13 744.86 760.03 
 274 751.58 746.04 760.03 
 275 749.27 745.61 760.03 
 276 752.85 746.00 760.03 
 277 746.80 745.95 760.03 
 278 751.59 745.09 760.03 
 279 748.65 745.20 760.03 
 280 754.98 745.54 760.03 
 281 753.57 745.30 760.03 
 282 753.40 744.85 760.03 
 283 755.73 744.81 760.03 
 284 752.44 745.01 760.03 
 285 752.82 743.92 760.03 
 286 750.32 743.46 760.03 
 287 761.89 743.73 760.03 
 288 762.26 743.22 761.89 
 289 747.68 742.70 762.26 
 290 751.98 742.62 762.26 
 291 751.54 742.95 762.26 
 292 752.71 742.88 762.26 
 293 751.33 743.61 762.26 
 294 754.36 743.96 762.26 
 295 753.48 743.41 762.26 
 296 744.75 744.04 762.26 
 297 753.07 743.44 762.26 
 298 745.53 732.11 762.26 
 299 741.99 728.92 762.26 
 300 750.24 730.32 762.26 
 301 751.63 737.50 762.26 
 302 753.44 744.42 762.26 
 303 755.80 744.74 762.26 
 304 750.69 744.71 762.26 
 305 755.23 744.75 762.26 
 306 746.03 744.47 762.26 
 307 751.67 745.00 762.26 
 308 756.05 744.85 762.26 
 309 751.73 744.00 762.26 
 310 753.10 744.44 762.26 
 311 753.10 744.73 762.26 
 312 751.09 744.57 762.26 
 313 755.15 744.66 762.26 
 314 749.91 743.83 762.26 
 315 758.06 743.45 762.26 
 316 756.82 742.56 762.26 
 317 759.48 742.46 762.26 
 318 751.06 742.75 762.26 
 319 749.93 743.55 762.26 
 320 746.49 743.63 762.26 
 321 750.64 743.29 762.26 
 322 755.32 743.84 762.26 
 323 757.27 743.62 762.26 
 324 760.21 743.62 762.26 
 325 751.99 743.24 762.26 
 326 748.13 744.13 762.26 
 327 753.38 743.42 762.26 
 328 755.77 743.91 762.26 
 329 749.77 744.17 762.26 
 330 753.12 744.52 762.26 
 331 754.38 744.38 762.26 
 332 749.64 743.94 762.26 
 333 755.00 744.29 762.26 
 334 751.28 743.61 762.26 
 335 750.23 743.89 762.26 
 336 756.84 745.20 762.26 
 337 754.81 745.63 762.26 
 338 752.85 744.95 762.26 
 339 753.17 745.95 762.26 
 340 756.71 745.82 762.26 
 341 749.85 745.63 762.26 
 342 757.13 745.20 762.26 
 343 749.32 745.93 762.26 
 344 757.12 746.41 762.26 
 345 750.62 745.95 762.26 
 346 757.92 746.06 762.26 
 347 750.36 745.94 762.26 
 348 750.71 745.91 762.26 
 349 750.67 745.57 762.26 
 350 752.44 745.74 762.26 
 351 756.23 745.67 762.26 
 352 761.07 746.06 762.26 
 353 754.27 745.92 762.26 
 354 749.47 746.28 762.26 
 355 750.10 746.28 762.26 
 356 753.83 746.20 762.26 
 357 756.75 746.48 762.26 
 358 752.40 746.44 762.26 
 359 759.33 746.28 762.26 
 360 758.15 746.31 762.26 
 361 759.44 746.24 762.26 
 362 753.50 746.88 762.26 
 363 755.13 746.78 762.26 
 364 755.01 746.67 762.26 
 365 757.16 746.77 762.26 
 366 754.85 746.66 762.26 
 367 749.64 746.51 762.26 
 368 759.85 746.89 762.26 
 369 753.58 746.71 762.26 
 370 748.66 746.47 762.26 
 371 755.05 746.79 762.26 
 372 757.59 747.28 762.26 
 373 756.27 747.00 762.26 
 374 758.62 746.76 762.26 
 375 755.14 746.32 762.26 
 376 757.52 746.98 762.26 
 377 751.99 746.29 762.26 
 378 758.29 746.43 762.26 
 379 752.82 746.07 762.26 
 380 753.88 747.07 762.26 
 381 755.89 745.76 762.26 
 382 756.74 746.43 762.26 
 383 756.96 745.64 762.26 
 384 747.05 745.57 762.26 
 385 753.79 746.07 762.26 
 386 751.14 745.69 762.26 
 387 756.32 745.74 762.26 
 388 749.90 745.77 762.26 
 389 754.63 743.82 762.26 
 390 758.01 745.37 762.26 
 391 756.31 745.91 762.26 
 392 758.69 745.91 762.26 
 393 755.54 746.05 762.26 
 394 757.93 746.66 762.26 
 395 751.39 746.53 762.26 
 396 758.25 746.44 762.26 
 397 748.52 745.98 762.26 
 398 754.79 746.00 762.26 
 399 754.56 746.10 762.26 
 400 748.45 746.15 762.26 
 401 750.11 746.75 762.26 
 402 754.23 746.43 762.26 
 403 748.29 746.30 762.26 
 404 753.50 746.34 762.26 
 405 758.15 746.05 762.26 
 406 753.63 746.29 762.26 
 407 755.77 746.26 762.26 
 408 755.40 746.24 762.26 
 409 758.69 746.34 762.26 
 410 755.63 746.17 762.26 
 411 748.25 746.21 762.26 
 412 753.65 746.46 762.26 
 413 748.72 746.37 762.26 
 414 758.13 746.30 762.26 
 415 755.19 746.56 762.26 
 416 752.06 746.36 762.26 
 417 749.51 746.58 762.26 
 418 751.96 746.37 762.26 
 419 757.06 746.36 762.26 
 420 754.63 746.51 762.26 
 421 749.75 746.45 762.26 
 422 754.25 746.59 762.26 
 423 754.32 746.93 762.26 
 424 755.95 746.91 762.26 
 425 753.25 746.75 762.26 
 426 752.80 746.59 762.26 
 427 754.89 746.81 762.26 
 428 753.28 746.48 762.26 
 429 751.69 746.58 762.26 
 430 754.15 746.26 762.26 
 431 751.00 746.33 762.26 
 432 754.99 746.17 762.26 
 433 754.08 746.14 762.26 
 434 754.36 746.38 762.26 
 435 752.23 746.28 762.26 
 436 750.61 746.83 762.26 
 437 754.91 746.69 762.26 
 438 748.58 747.23 762.26 
 439 755.65 747.17 762.26 
 440 759.18 746.77 762.26 
 441 753.95 746.86 762.26 
 442 751.35 746.80 762.26 
 443 754.07 746.58 762.26 
 444 755.58 746.81 762.26 
 445 763.93 746.22 762.26 
 446 752.57 746.93 763.93 
 447 758.08 746.54 763.93 
 448 753.90 746.73 763.93 
 449 756.50 746.35 763.93 
 450 755.64 746.94 763.93 
 451 755.02 747.24 763.93 
 452 755.41 747.19 763.93 
 453 756.89 745.70 763.93 
 454 758.69 746.47 763.93 
 455 751.17 747.22 763.93 
 456 759.43 747.48 763.93 
 457 751.94 747.55 763.93 
 458 757.37 747.72 763.93 
 459 756.39 747.82 763.93 
 460 751.43 747.59 763.93 
 461 755.45 747.60 763.93 
 462 753.57 747.73 763.93 
 463 755.42 747.57 763.93 
 464 755.57 747.54 763.93 
 465 753.91 747.08 763.93 
 466 756.41 747.31 763.93 
 467 760.15 746.91 763.93 
 468 748.71 746.89 763.93 
 469 755.56 746.52 763.93 
 470 744.00 746.55 763.93 
 471 758.33 746.43 763.93 
 472 750.10 746.30 763.93 
 473 755.86 746.83 763.93 
 474 756.85 746.57 763.93 
 475 751.77 746.71 763.93 
 476 751.05 746.84 763.93 
 477 749.18 746.08 763.93 
 478 750.49 746.40 763.93 
 479 755.32 746.15 763.93 
 480 753.27 745.80 763.93 
 481 755.87 745.74 763.93 
 482 754.74 746.18 763.93 
 483 757.60 746.47 763.93 
 484 758.31 746.55 763.93 
 485 753.01 746.35 763.93 
 486 754.56 746.51 763.93 
 487 758.16 746.47 763.93 
 488 758.68 746.40 763.93 
 489 760.98 746.28 763.93 
 490 750.84 746.48 763.93 
 491 759.67 746.70 763.93 
 492 756.02 746.54 763.93 
 493 752.03 746.43 763.93 
 494 754.48 746.18 763.93 
 495 760.14 746.36 763.93 
 496 754.57 746.81 763.93 
 497 750.70 746.99 763.93 
 498 756.51 746.55 763.93 
 499 755.27 746.75 763.93 
 500 757.53 747.05 763.93 
 501 753.62 747.11 763.93 
 502 761.39 747.60 763.93 
 503 748.73 747.72 763.93 
 504 759.81 747.45 763.93 
 505 756.86 747.62 763.93 
 506 756.24 747.29 763.93 
 507 753.74 747.48 763.93 
 508 754.16 747.15 763.93 
 509 756.10 747.15 763.93 
 510 758.56 746.86 763.93 
 511 753.69 747.38 763.93 
 512 752.43 747.00 763.93 
 513 752.86 747.31 763.93 
 514 756.78 747.39 763.93 
 515 760.91 746.53 763.93 
 516 756.02 746.41 763.93 
 517 754.51 747.00 763.93 
 518 754.23 747.07 763.93 
 519 756.19 747.21 763.93 
 520 754.99 747.23 763.93 
 521 757.64 747.64 763.93 
 522 755.77 747.56 763.93 
 523 759.55 747.29 763.93 
 524 755.13 747.45 763.93 
 525 754.60 747.45 763.93 
 526 754.22 747.37 763.93 
 527 751.55 747.29 763.93 
 528 754.36 747.36 763.93 
 529 756.90 747.35 763.93 
 530 757.60 747.01 763.93 
 531 757.28 747.24 763.93 
 532 750.95 747.08 763.93 
 533 754.40 747.24 763.93 
 534 753.89 746.73 763.93 
 535 755.85 746.90 763.93 
 536 755.52 746.91 763.93 
 537 759.96 747.05 763.93 
 538 753.62 747.31 763.93 
 539 753.09 746.63 763.93 
 540 755.92 746.98 763.93 
 541 755.65 747.57 763.93 
 542 757.72 747.76 763.93 
 543 754.67 747.63 763.93 
 544 755.80 747.67 763.93 
 545 752.37 747.63 763.93 
 546 755.64 746.67 763.93 
 547 755.70 746.73 763.93 
 548 753.45 746.49 763.93 
 549 759.95 745.28 763.93 
 550 751.26 745.83 763.93 
 551 753.42 747.19 763.93 
 552 754.14 746.91 763.93 
 553 754.95 746.79 763.93 
 554 749.50 745.70 763.93 
 555 759.47 746.00 763.93 
 556 754.44 746.16 763.93 
 557 754.92 746.71 763.93 
 558 748.94 746.38 763.93 
 559 756.34 746.39 763.93 
 560 756.43 746.14 763.93 
 561 759.25 745.76 763.93 
 562 751.61 745.96 763.93 
 563 754.58 745.96 763.93 
 564 749.22 746.09 763.93 
 565 752.04 745.65 763.93 
 566 758.52 745.88 763.93 
 567 754.58 746.42 763.93 
 568 754.90 746.08 763.93 
 569 757.24 745.37 763.93 
 570 760.11 745.84 763.93 
 571 756.06 746.46 763.93 
 572 754.61 746.19 763.93 
 573 754.11 746.22 763.93 
 574 754.73 746.38 763.93 
 575 753.57 745.72 763.93 
 576 758.39 745.48 763.93 
 577 755.04 744.80 763.93 
 578 752.65 744.01 763.93 
 579 756.07 745.09 763.93 
 580 757.67 744.70 763.93 
 581 759.53 745.54 763.93 
 582 758.02 745.80 763.93 
 583 755.60 746.15 763.93 
 584 751.52 746.13 763.93 
 585 750.44 746.17 763.93 
 586 755.37 745.84 763.93 
 587 753.11 745.32 763.93 
 588 758.32 745.88 763.93 
 589 753.70 745.57 763.93 
 590 752.20 745.25 763.93 
 591 755.28 745.70 763.93 
 592 752.09 745.24 763.93 
 593 751.54 744.93 763.93 
 594 750.53 745.30 763.93 
 595 753.04 745.52 763.93 
 596 755.69 745.09 763.93 
 597 751.85 745.27 763.93 
 598 755.13 745.53 763.93 
 599 755.72 746.20 763.93 
 600 751.17 746.75 763.93 
 601 752.76 746.63 763.93 
 602 759.54 746.44 763.93 
 603 756.64 745.51 763.93 
 604 753.81 745.83 763.93 
 605 753.10 746.07 763.93 
 606 756.59 746.34 763.93 
 607 756.80 746.45 763.93 
 608 750.71 746.21 763.93 
 609 754.79 745.75 763.93 
 610 756.31 745.68 763.93 
 611 754.46 745.77 763.93 
 612 755.28 745.61 763.93 
 613 753.64 746.31 763.93 
 614 754.09 746.53 763.93 
 615 753.11 746.31 763.93 
 616 751.55 746.75 763.93 
 617 750.14 746.84 763.93 
 618 753.68 746.13 763.93 
 619 752.33 745.46 763.93 
 620 748.97 745.55 763.93 
 621 760.75 745.98 763.93 
 622 757.25 745.65 763.93 
 623 762.23 745.65 763.93 
 624 750.72 745.92 763.93 
 625 752.77 746.20 763.93 
 626 754.04 746.21 763.93 
 627 751.51 745.73 763.93 
 628 759.04 745.39 763.93 
 629 754.55 746.14 763.93 
 630 756.49 745.43 763.93 
 631 756.07 745.64 763.93 
 632 758.78 745.28 763.93 
 633 750.92 744.95 763.93 
 634 758.93 744.92 763.93 
 635 754.52 744.99 763.93 
 636 749.98 745.17 763.93 
 637 754.97 745.83 763.93 
 638 756.39 745.86 763.93 
 639 757.78 745.67 763.93 
 640 749.38 745.43 763.93 
 641 754.46 745.38 763.93 
 642 757.43 745.01 763.93 
 643 754.27 744.21 763.93 
 644 754.62 743.61 763.93 
 645 752.53 744.79 763.93 
 646 753.30 745.13 763.93 
 647 749.04 745.04 763.93 
 648 755.88 744.48 763.93 
 649 753.39 745.02 763.93 
 650 753.32 744.77 763.93 
 651 756.17 742.75 763.93 
 652 755.11 743.39 763.93 
 653 762.48 742.41 763.93 
 654 757.47 742.50 763.93 
 655 752.83 742.83 763.93 
 656 760.98 742.32 763.93 
 657 752.60 743.53 763.93 
 658 752.49 744.54 763.93 
 659 755.92 745.04 763.93 
 660 754.21 743.69 763.93 
 661 754.05 743.98 763.93 
 662 756.16 745.77 763.93 
 663 752.47 745.63 763.93 
 664 750.32 745.90 763.93 
 665 749.76 745.14 763.93 
 666 753.96 745.81 763.93 
 667 754.17 745.29 763.93 
 668 751.65 744.60 763.93 
 669 757.86 744.28 763.93 
 670 755.66 744.18 763.93 
 671 759.04 745.49 763.93 
 672 755.38 744.92 763.93 
 673 749.59 746.19 763.93 
 674 749.90 745.38 763.93 
 675 753.00 746.18 763.93 
 676 759.98 747.25 763.93 
 677 760.15 747.31 763.93 
 678 752.54 746.91 763.93 
 679 749.23 746.92 763.93 
 680 757.19 747.44 763.93 
 681 752.55 747.34 763.93 
 682 754.74 747.02 763.93 
 683 756.18 747.19 763.93 
 684 759.00 747.28 763.93 
 685 757.72 747.24 763.93 
 686 755.63 746.72 763.93 
 687 759.70 746.80 763.93 
 688 756.39 746.84 763.93 
 689 752.49 746.87 763.93 
 690 757.60 746.81 763.93 
 691 752.36 746.82 763.93 
 692 756.76 746.70 763.93 
 693 755.22 746.30 763.93 
 694 749.79 746.80 763.93 
 695 758.16 746.44 763.93 
 696 757.12 745.86 763.93 
 697 757.28 746.21 763.93 
 698 760.42 745.51 763.93 
 699 756.27 745.37 763.93 
 700 758.27 745.37 763.93 
 701 753.70 746.70 763.93 
 702 754.74 746.45 763.93 
 703 754.78 746.43 763.93 
 704 751.58 746.55 763.93 
 705 752.81 746.03 763.93 
 706 754.58 746.83 763.93 
 707 755.60 747.21 763.93 
 708 752.04 747.31 763.93 
 709 758.06 747.17 763.93 
 710 753.10 747.29 763.93 
 711 753.93 747.11 763.93 
 712 751.89 747.37 763.93 
 713 756.24 747.52 763.93 
 714 749.93 747.67 763.93 
 715 761.34 747.77 763.93 
 716 756.96 747.53 763.93 
 717 756.63 747.21 763.93 
 718 753.52 747.45 763.93 
 719 754.81 747.46 763.93 
 720 756.85 747.24 763.93 
 721 752.05 747.09 763.93 
 722 753.23 746.79 763.93 
 723 757.21 747.24 763.93 
 724 752.77 747.39 763.93 
 725 748.19 746.96 763.93 
 726 757.32 746.80 763.93 
 727 762.09 746.68 763.93 
 728 755.96 746.91 763.93 
 729 757.62 746.88 763.93 
 730 757.55 747.31 763.93 
 731 753.05 747.03 763.93 
 732 756.71 747.36 763.93 
 733 755.96 747.05 763.93 
 734 753.78 746.92 763.93 
 735 754.89 746.73 763.93 
 736 752.10 747.42 763.93 
 737 758.16 746.83 763.93 
 738 755.38 747.07 763.93 
 739 759.48 747.08 763.93 
 740 754.97 746.58 763.93 
 741 755.07 747.42 763.93 
 742 755.94 747.31 763.93 
 743 758.56 747.10 763.93 
 744 757.13 747.23 763.93 
 745 759.32 746.85 763.93 
 746 751.74 746.59 763.93 
 747 751.57 746.78 763.93 
 748 755.41 746.83 763.93 
 749 755.45 746.78 763.93 
 750 755.74 746.93 763.93 
 751 753.25 746.97 763.93 
 752 757.51 745.99 763.93 
 753 750.73 745.55 763.93 
 754 749.23 744.27 763.93 
 755 755.70 745.74 763.93 
 756 753.98 745.44 763.93 
 757 755.99 745.43 763.93 
 758 757.07 745.85 763.93 
 759 758.70 745.65 763.93 
 760 751.82 746.65 763.93 
 761 757.05 745.34 763.93 
 762 759.58 744.42 763.93 
 763 755.26 745.54 763.93 
 764 754.38 746.52 763.93 
 765 754.42 747.06 763.93 
 766 752.09 747.30 763.93 
 767 757.23 747.61 763.93 
 768 750.03 746.27 763.93 
 769 756.46 747.20 763.93 
 770 757.07 747.20 763.93 
 771 756.44 746.99 763.93 
 772 757.76 746.23 763.93 
 773 761.25 745.11 763.93 
 774 755.76 744.38 763.93 
 775 753.87 745.16 763.93 
 776 756.06 745.77 763.93 
 777 757.05 745.93 763.93 
 778 760.05 746.20 763.93 
 779 759.00 746.26 763.93 
 780 757.58 746.55 763.93 
 781 752.80 746.78 763.93 
 782 754.29 747.36 763.93 
 783 756.37 746.69 763.93 
 784 757.47 747.23 763.93 
 785 758.57 747.14 763.93 
 786 755.50 746.71 763.93 
 787 754.21 746.67 763.93 
 788 755.58 747.06 763.93 
 789 756.05 746.78 763.93 
 790 751.88 746.58 763.93 
 791 752.31 746.85 763.93 
 792 754.83 746.72 763.93 
 793 756.05 746.85 763.93 
 794 755.72 746.72 763.93 
 795 755.54 746.85 763.93 
 796 755.70 746.99 763.93 
 797 754.67 747.42 763.93 
 798 750.05 747.08 763.93 
 799 755.16 746.64 763.93 
 800 759.92 746.20 763.93 
 801 754.54 746.00 763.93 
 802 758.49 746.91 763.93 
 803 754.84 746.23 763.93 
 804 753.12 745.80 763.93 
 805 758.13 745.74 763.93 
 806 749.30 746.15 763.93 
 807 754.62 745.98 763.93 
 808 760.16 745.31 763.93 
 809 754.33 744.07 763.93 
 810 756.22 745.19 763.93 
 811 759.24 745.58 763.93 
 812 752.47 745.78 763.93 
 813 756.76 744.57 763.93 
 814 753.27 745.01 763.93 
 815 753.82 745.51 763.93 
 816 754.96 746.38 763.93 
 817 758.99 744.86 763.93 
 818 751.93 746.08 763.93 
 819 754.08 746.25 763.93 
 820 752.85 746.21 763.93 
 821 750.58 746.42 763.93 
 822 753.13 745.35 763.93 
 823 754.78 745.93 763.93 
 824 753.44 746.99 763.93 
 825 759.02 746.88 763.93 
 826 753.69 746.89 763.93 
 827 757.63 746.35 763.93 
 828 753.06 746.38 763.93 
 829 756.23 746.75 763.93 
 830 757.78 745.99 763.93 
 831 755.16 745.58 763.93 
 832 756.53 745.52 763.93 
 833 755.41 745.59 763.93 
 834 750.75 746.28 763.93 
 835 755.88 746.32 763.93 
 836 753.37 746.97 763.93 
 837 753.89 747.44 763.93 
 838 756.29 747.55 763.93 
 839 756.08 747.36 763.93 
 840 756.32 747.36 763.93 
 841 754.39 747.30 763.93 
 842 755.33 747.44 763.93 
 843 754.85 747.15 763.93 
 844 757.04 747.14 763.93 
 845 749.48 747.08 763.93 
 846 751.88 747.18 763.93 
 847 753.47 746.88 763.93 
 848 752.64 747.14 763.93 
 849 757.80 746.85 763.93 
 850 757.18 746.89 763.93 
 851 754.97 746.71 763.93 
 852 753.45 746.71 763.93 
 853 751.94 746.82 763.93 
 854 757.94 746.67 763.93 
 855 757.51 746.75 763.93 
 856 748.98 746.98 763.93 
 857 757.23 746.57 763.93 
 858 752.81 746.64 763.93 
 859 748.88 746.65 763.93 
 860 758.02 746.47 763.93 
 861 754.91 746.58 763.93 
 862 752.64 746.61 763.93 
 863 757.21 746.80 763.93 
 864 757.69 746.60 763.93 
 865 755.15 746.71 763.93 
 866 753.55 746.78 763.93 
 867 751.40 746.75 763.93 
 868 751.42 746.12 763.93 
 869 751.75 746.32 763.93 
 870 754.05 746.18 763.93 
 871 754.94 746.14 763.93 
 872 754.08 745.72 763.93 
 873 748.64 745.72 763.93 
 874 753.22 745.52 763.93 
 875 757.75 745.60 763.93 
 876 753.50 745.60 763.93 
 877 757.79 745.76 763.93 
 878 756.96 746.03 763.93 
 879 754.63 746.05 763.93 
 880 749.58 746.36 763.93 
 881 755.23 746.17 763.93 
 882 757.26 746.25 763.93 
 883 756.01 746.05 763.93 
 884 757.25 746.00 763.93 
 885 749.50 746.28 763.93 
 886 754.27 745.89 763.93 
 887 761.18 745.69 763.93 
 888 755.59 745.86 763.93 
 889 755.84 746.24 763.93 
 890 750.20 746.72 763.93 
 891 751.99 747.46 763.93 
 892 757.68 747.36 763.93 
 893 752.40 746.96 763.93 
 894 758.04 747.22 763.93 
 895 752.58 747.39 763.93 
 896 752.73 747.69 763.93 
 897 752.99 747.28 763.93 
 898 760.04 746.90 763.93 
 899 755.28 747.09 763.93 
 900 756.59 747.22 763.93 
 901 751.67 747.22 763.93 
 902 758.27 747.01 763.93 
 903 755.89 746.74 763.93 
 904 754.17 746.81 763.93 
 905 752.78 746.53 763.93 
 906 744.95 746.51 763.93 
 907 751.35 746.77 763.93 
 908 754.57 746.39 763.93 
 909 759.60 746.29 763.93 
 910 756.77 746.43 763.93 
 911 755.44 746.79 763.93 
 912 747.89 746.61 763.93 
 913 753.01 746.58 763.93 
 914 756.21 746.58 763.93 
 915 754.17 746.55 763.93 
 916 751.30 746.12 763.93 
 917 753.85 746.63 763.93 
 918 752.99 747.07 763.93 
 919 749.89 746.83 763.93 
 920 753.83 747.03 763.93 
 921 747.89 747.18 763.93 
 922 760.01 746.65 763.93 
 923 757.53 747.28 763.93 
 924 759.75 746.35 763.93 
 925 750.58 746.16 763.93 
 926 759.76 746.28 763.93 
 927 756.03 747.09 763.93 
 928 752.20 747.18 763.93 
 929 751.09 747.14 763.93 
 930 752.51 746.44 763.93 
 931 752.41 746.07 763.93 
 932 759.55 746.08 763.93 
 933 758.06 745.93 763.93 
 934 755.35 745.83 763.93 
 935 753.26 745.84 763.93 
 936 756.21 745.76 763.93 
 937 751.80 745.59 763.93 
 938 758.56 745.50 763.93 
 939 757.20 745.54 763.93 
 940 752.10 745.45 763.93 
 941 751.40 745.57 763.93 
 942 751.21 745.59 763.93 
 943 759.29 745.73 763.93 
 944 751.16 745.75 763.93 
 945 756.67 745.69 763.93 
 946 753.62 745.91 763.93 
 947 760.39 745.29 763.93 
 948 754.85 745.70 763.93 
 949 755.74 745.81 763.93 
 950 753.67 745.82 763.93 
 951 761.49 745.95 763.93 
 952 758.69 746.10 763.93 
 953 757.56 746.47 763.93 
 954 756.94 746.40 763.93 
 955 751.10 746.84 763.93 
 956 752.19 746.46 763.93 
 957 751.41 746.16 763.93 
 958 754.33 746.32 763.93 
 959 754.74 746.19 763.93 
 960 749.92 745.66 763.93 
 961 759.16 745.40 763.93 
 962 754.75 745.87 763.93 
 963 754.32 745.84 763.93 
 964 759.67 746.04 763.93 
 965 755.09 746.04 763.93 
 966 754.98 745.77 763.93 
 967 748.12 746.14 763.93 
 968 757.08 746.55 763.93 
 969 753.86 747.38 763.93 
 970 753.82 747.18 763.93 
 971 757.84 747.15 763.93 
 972 750.49 747.39 763.93 
 973 751.52 747.02 763.93 
 974 756.02 746.94 763.93 
 975 752.23 746.92 763.93 
 976 756.81 747.03 763.93 
 977 753.64 746.90 763.93 
 978 759.95 746.88 763.93 
 979 755.51 747.06 763.93 
 980 755.16 747.14 763.93 
 981 756.22 747.10 763.93 
 982 751.76 747.09 763.93 
 983 758.02 746.99 763.93 
 984 756.36 746.87 763.93 
 985 758.34 746.81 763.93 
 986 757.98 747.02 763.93 
 987 756.22 747.00 763.93 
 988 752.68 747.08 763.93 
 989 753.77 746.89 763.93 
 990 755.81 747.01 763.93 
 991 758.90 746.95 763.93 
 992 750.10 747.07 763.93 
 993 757.74 747.04 763.93 
 994 751.47 746.97 763.93 
 995 748.80 747.21 763.93 
 996 750.02 747.05 763.93 
 997 754.54 746.64 763.93 
 998 754.48 746.95 763.93 
 999 758.58 747.05 763.93 
1000 752.17 746.38 763.93 
1001 757.80 745.84 763.93 
1002 756.17 745.65 763.93 
1003 757.22 745.15 763.93 
1004 755.52 745.28 763.93 
1005 757.70 745.71 763.93 
1006 753.71 745.52 763.93 
1007 755.03 746.43 763.93 
1008 763.41 746.49 763.93 
1009 757.36 746.94 763.93 
1010 756.46 746.71 763.93 
1011 759.88 746.87 763.93 
1012 755.44 746.86 763.93 
1013 756.30 746.83 763.93 
1014 765.44 746.54 763.93 
1015 755.55 746.74 765.44 
1016 760.03 746.79 765.44 
1017 754.86 746.84 765.44 
1018 756.28 746.97 765.44 
1019 754.47 746.91 765.44 
1020 755.59 746.92 765.44 
1021 753.88 746.67 765.44 
1022 755.36 746.76 765.44 
1023 756.60 746.71 765.44 
1024 759.54 746.65 765.44 
1025 749.62 746.64 765.44 
1026 748.37 746.79 765.44 
1027 755.15 746.49 765.44 
1028 753.01 746.74 765.44 
1029 750.09 746.75 765.44 
1030 752.03 746.90 765.44 
1031 757.33 746.79 765.44 
1032 753.10 746.71 765.44 
1033 748.28 746.65 765.44 
1034 754.58 746.92 765.44 
1035 756.47 746.99 765.44 
1036 749.66 746.76 765.44 
1037 757.95 746.91 765.44 
1038 755.07 746.51 765.44 
1039 756.45 746.45 765.44 
1040 756.83 746.21 765.44 
1041 746.47 746.25 765.44 
1042 754.67 746.99 765.44 
1043 755.24 747.10 765.44 
1044 753.51 747.16 765.44 
1045 753.84 747.13 765.44 
1046 761.42 747.06 765.44 
1047 756.71 747.25 765.44 
1048 751.05 747.31 765.44 
1049 753.58 747.40 765.44 
1050 752.40 747.22 765.44 
1051 756.18 746.86 765.44 
1052 755.84 746.59 765.44 
1053 756.65 746.99 765.44 
1054 759.61 746.94 765.44 
1055 744.65 747.31 765.44 
1056 753.47 746.87 765.44 
1057 752.90 746.88 765.44 
1058 751.70 746.97 765.44 
1059 755.07 746.98 765.44 
1060 754.35 746.98 765.44 
1061 751.73 747.11 765.44 
1062 751.42 746.75 765.44 
1063 751.67 746.86 765.44 
1064 753.91 747.01 765.44 
1065 754.22 746.88 765.44 
1066 753.50 746.78 765.44 
1067 755.90 747.12 765.44 
1068 754.92 746.93 765.44 
1069 753.57 747.14 765.44 
1070 755.32 747.35 765.44 
1071 752.33 747.40 765.44 
1072 751.41 747.56 765.44 
1073 754.30 746.87 765.44 
1074 754.21 747.31 765.44 
1075 749.00 746.92 765.44 
1076 748.81 747.00 765.44 
1077 755.07 747.19 765.44 
1078 755.77 747.11 765.44 
1079 752.21 747.12 765.44 
1080 754.50 746.94 765.44 
1081 754.09 746.91 765.44 
1082 754.92 747.02 765.44 
1083 753.52 746.95 765.44 
1084 756.09 746.71 765.44 
1085 755.37 747.18 765.44 
1086 753.33 746.72 765.44 
1087 754.64 747.00 765.44 
1088 749.07 746.59 765.44 
1089 757.41 747.05 765.44 
1090 758.63 746.77 765.44 
1091 753.52 746.76 765.44 
1092 754.22 746.53 765.44 
1093 755.18 746.93 765.44 
1094 754.18 747.00 765.44 
1095 753.38 747.10 765.44 
1096 753.55 747.08 765.44 
1097 755.67 747.05 765.44 
1098 751.14 747.11 765.44 
1099 753.85 747.11 765.44 
1100 756.95 747.39 765.44 
1101 754.71 747.23 765.44 
1102 754.75 747.47 765.44 
1103 755.80 746.79 765.44 
1104 754.91 747.36 765.44 
1105 756.69 746.73 765.44 
1106 753.01 747.25 765.44 
1107 751.65 746.76 765.44 
1108 754.47 746.47 765.44 
1109 754.34 746.80 765.44 
1110 756.72 746.66 765.44 
1111 757.68 746.61 765.44 
1112 758.44 745.92 765.44 
1113 755.12 746.29 765.44 
1114 760.90 745.97 765.44 
1115 753.36 745.59 765.44 
1116 750.16 745.71 765.44 
1117 758.80 745.66 765.44 
1118 749.01 746.23 765.44 
1119 750.65 746.10 765.44 
1120 758.23 745.18 765.44 
1121 751.04 744.85 765.44 
1122 754.43 745.09 765.44 
1123 750.16 745.12 765.44 
1124 746.27 745.85 765.44 
1125 754.79 746.16 765.44 
1126 755.18 746.77 765.44 
1127 752.65 746.23 765.44 
1128 754.57 745.94 765.44 
1129 755.26 745.63 765.44 
1130 753.14 745.33 765.44 
1131 751.49 743.95 765.44 
1132 757.48 743.80 765.44 
1133 749.67 745.65 765.44 
1134 753.45 745.67 765.44 
1135 753.08 745.45 765.44 
1136 751.20 746.00 765.44 
1137 753.29 745.79 765.44 
1138 754.74 745.93 765.44 
1139 755.96 746.19 765.44 
1140 755.01 746.26 765.44 
1141 757.23 746.41 765.44 
1142 754.61 746.54 765.44 
1143 746.65 746.71 765.44 
1144 748.92 746.75 765.44 
1145 752.64 746.84 765.44 
1146 751.54 746.84 765.44 
1147 759.98 747.20 765.44 
1148 755.21 747.14 765.44 
1149 752.38 747.01 765.44 
1150 752.95 747.12 765.44 
1151 754.05 746.71 765.44 
1152 750.06 746.99 765.44 
1153 752.04 746.89 765.44 
1154 753.78 746.81 765.44 
1155 754.72 746.83 765.44 
1156 752.55 746.85 765.44 
1157 752.96 746.94 765.44 
1158 757.78 747.04 765.44 
1159 756.80 747.02 765.44 
1160 756.22 746.90 765.44 
1161 756.79 747.15 765.44 
1162 756.19 747.05 765.44 
1163 756.04 746.73 765.44 
1164 751.81 746.79 765.44 
1165 752.01 746.75 765.44 
1166 754.66 746.92 765.44 
1167 753.00 746.82 765.44 
1168 754.28 746.84 765.44 
1169 756.17 746.71 765.44 
1170 754.45 746.99 765.44 
1171 751.49 746.85 765.44 
1172 755.66 746.81 765.44 
1173 751.97 746.83 765.44 
1174 756.50 746.68 765.44 
1175 755.41 746.56 765.44 
1176 755.32 746.55 765.44 
1177 755.27 746.56 765.44 
1178 754.54 746.63 765.44 
1179 752.73 746.51 765.44 
1180 757.11 746.45 765.44 
1181 755.13 745.54 765.44 
1182 754.60 745.31 765.44 
1183 756.45 746.23 765.44 
1184 756.59 746.15 765.44 
1185 754.53 745.95 765.44 
1186 749.51 745.85 765.44 
1187 752.99 745.84 765.44 
1188 754.68 745.84 765.44 
1189 753.48 746.08 765.44 
1190 750.80 746.13 765.44 
1191 750.70 746.20 765.44 
1192 757.18 746.25 765.44 
1193 754.24 746.28 765.44 
1194 752.23 746.33 765.44 
1195 754.12 746.01 765.44 
1196 754.05 746.25 765.44 
1197 752.45 746.09 765.44 
1198 758.38 746.21 765.44 
1199 756.98 746.00 765.44 
1200 756.31 746.08 765.44 
1201 755.05 746.21 765.44 
1202 750.78 746.15 765.44 
1203 754.71 746.14 765.44 
1204 754.01 746.47 765.44 
1205 756.94 746.57 765.44 
1206 756.91 746.46 765.44 
1207 751.50 746.27 765.44 
1208 756.57 746.29 765.44 
1209 754.05 746.65 765.44 
1210 755.48 746.05 765.44 
1211 756.48 745.68 765.44 
1212 750.21 746.24 765.44 
1213 752.75 746.27 765.44 
1214 758.36 746.11 765.44 
1215 753.09 746.73 765.44 
1216 755.07 746.24 765.44 
1217 753.54 746.31 765.44 
1218 757.67 746.73 765.44 
1219 757.98 746.95 765.44 
1220 755.53 746.75 765.44 
1221 755.79 746.72 765.44 
1222 757.24 746.71 765.44 
1223 752.70 746.54 765.44 
1224 758.28 746.74 765.44 
1225 758.26 746.25 765.44 
1226 747.98 746.50 765.44 
1227 754.07 746.57 765.44 
1228 756.70 746.52 765.44 
1229 751.92 746.51 765.44 
1230 752.25 746.59 765.44 
1231 753.95 746.50 765.44 
1232 756.42 746.33 765.44 
1233 751.24 746.46 765.44 
1234 757.14 746.04 765.44 
1235 749.83 746.65 765.44 
1236 753.87 746.89 765.44 
1237 750.85 747.18 765.44 
1238 752.43 747.12 765.44 
1239 752.41 746.69 765.44 
1240 755.09 746.40 765.44 
1241 753.78 746.51 765.44 
1242 761.14 746.97 765.44 
1243 752.94 746.83 765.44 
1244 760.05 746.47 765.44 
1245 755.71 746.78 765.44 
1246 761.73 746.56 765.44 
1247 750.67 746.92 765.44 
1248 752.87 746.94 765.44 
1249 753.63 747.07 765.44 
1250 751.95 746.84 765.44 
1251 756.34 746.59 765.44 
1252 754.60 746.71 765.44 
1253 756.78 747.15 765.44 
1254 746.98 747.03 765.44 
1255 753.99 746.94 765.44 
1256 758.09 747.20 765.44 
1257 755.01 747.42 765.44 
1258 756.26 747.33 765.44 
1259 752.25 747.35 765.44 
1260 755.59 747.29 765.44 
1261 754.37 747.32 765.44 
1262 756.38 747.32 765.44 
1263 755.33 747.01 765.44 
1264 754.52 746.92 765.44 
1265 757.03 747.17 765.44 
1266 751.16 747.10 765.44 
1267 755.78 746.84 765.44 
1268 756.84 746.76 765.44 
1269 763.02 747.17 765.44 
1270 761.66 747.25 765.44 
1271 753.31 747.19 765.44 
1272 752.73 747.11 765.44 
1273 754.64 746.79 765.44 
1274 757.29 746.84 765.44 
1275 753.17 746.81 765.44 
1276 754.93 747.29 765.44 
1277 749.77 747.48 765.44 
1278 753.76 747.10 765.44 
1279 750.03 746.62 765.44 
1280 759.45 746.74 765.44 
1281 756.49 746.92 765.44 
1282 746.60 746.85 765.44 
1283 753.90 746.76 765.44 
1284 753.63 746.68 765.44 
1285 755.94 746.55 765.44 
1286 750.26 746.42 765.44 
1287 751.79 746.39 765.44 
1288 753.71 746.59 765.44 
1289 760.53 746.31 765.44 
1290 754.44 746.61 765.44 
1291 751.16 746.44 765.44 
1292 756.55 747.02 765.44 
1293 759.19 746.83 765.44 
1294 753.52 746.80 765.44 
1295 754.81 746.85 765.44 
1296 753.75 746.98 765.44 
1297 754.74 746.72 765.44 
1298 760.44 746.75 765.44 
1299 753.91 746.66 765.44 
1300 753.34 746.55 765.44 
1301 754.33 746.82 765.44 
1302 753.65 746.73 765.44 
1303 754.68 746.98 765.44 
1304 755.84 747.02 765.44 
1305 750.59 747.38 765.44 
1306 755.24 746.89 765.44 
1307 755.20 747.45 765.44 
1308 756.60 747.64 765.44 
1309 756.98 747.42 765.44 
1310 756.58 746.68 765.44 
1311 754.45 746.84 765.44 
1312 753.61 747.46 765.44 
1313 752.71 747.44 765.44 
1314 757.67 747.10 765.44 
1315 753.89 747.40 765.44 
1316 758.49 746.53 765.44 
1317 751.27 747.20 765.44 
1318 754.12 746.57 765.44 
1319 757.44 746.42 765.44 
1320 755.41 745.96 765.44 
1321 751.24 746.32 765.44 
1322 753.68 745.44 765.44 
1323 753.97 745.12 765.44 
1324 757.68 745.32 765.44 
1325 751.63 745.15 765.44 
1326 751.03 744.76 765.44 
1327 759.54 745.07 765.44 
1328 753.60 743.78 765.44 
1329 750.31 745.16 765.44 
1330 751.67 746.31 765.44 
1331 753.15 746.10 765.44 
1332 756.05 746.87 765.44 
1333 756.79 746.37 765.44 
1334 755.89 745.92 765.44 
1335 753.01 745.23 765.44 
1336 752.91 743.50 765.44 
1337 757.14 743.66 765.44 
1338 757.95 743.95 765.44 
1339 756.50 743.43 765.44 
1340 755.91 744.66 765.44 
1341 745.55 744.40 765.44 
1342 755.67 745.06 765.44 
1343 753.42 744.67 765.44 
1344 755.55 744.83 765.44 
1345 755.05 745.67 765.44 
1346 752.33 744.81 765.44 
1347 751.90 745.37 765.44 
1348 756.20 744.22 765.44 
1349 750.32 745.32 765.44 
1350 747.79 745.55 765.44 
1351 756.83 743.97 765.44 
1352 751.87 743.90 765.44 
1353 756.32 745.26 765.44 
1354 749.95 745.33 765.44 
1355 744.17 745.53 765.44 
1356 754.12 743.92 765.44 
1357 758.23 743.00 765.44 
1358 755.22 742.01 765.44 
1359 752.71 741.43 765.44 
1360 750.34 741.00 765.44 
1361 752.11 742.39 765.44 
1362 754.92 741.06 765.44 
1363 755.00 740.53 765.44 
1364 756.52 740.71 765.44 
1365 751.96 738.95 765.44 
1366 753.18 739.09 765.44 
1367 747.27 738.59 765.44 
1368 750.85 738.24 765.44 
1369 752.94 740.57 765.44 
1370 752.45 741.48 765.44 
1371 754.60 742.19 765.44 
1372 752.69 742.16 765.44 
1373 753.41 741.80 765.44 
1374 749.19 742.26 765.44 
1375 753.14 741.97 765.44 
1376 752.67 742.14 765.44 
1377 753.13 743.22 765.44 
1378 753.79 743.59 765.44 
1379 751.98 743.32 765.44 
1380 748.26 744.83 765.44 
1381 748.43 744.24 765.44 
1382 751.04 744.43 765.44 
1383 757.34 744.49 765.44 
1384 758.45 744.39 765.44 
1385 757.44 745.05 765.44 
1386 756.20 745.53 765.44 
1387 754.28 745.94 765.44 
1388 751.85 745.76 765.44 
1389 747.80 745.94 765.44 
1390 750.40 745.75 765.44 
1391 756.33 745.61 765.44 
1392 751.14 745.47 765.44 
1393 752.46 746.54 765.44 
1394 754.05 746.20 765.44 
1395 743.42 745.35 765.44 
1396 755.88 745.04 765.44 
1397 755.47 745.68 765.44 
1398 755.13 746.74 765.44 
1399 755.56 745.56 765.44 
1400 754.59 743.60 765.44 
1401 756.66 743.94 765.44 
1402 755.60 745.23 765.44 
1403 754.28 743.84 765.44 
1404 751.98 744.47 765.44 
1405 758.74 744.03 765.44 
1406 751.76 744.34 765.44 
1407 754.47 744.29 765.44 
1408 748.59 742.99 765.44 
1409 750.29 743.96 765.44 
1410 757.69 744.61 765.44 
1411 750.44 744.46 765.44 
1412 750.29 744.30 765.44 
1413 753.81 744.27 765.44 
1414 752.66 743.71 765.44 
1415 753.31 744.40 765.44 
1416 753.19 744.68 765.44 
1417 754.82 744.81 765.44 
1418 751.77 744.63 765.44 
1419 753.78 744.44 765.44 
1420 752.38 744.50 765.44 
1421 751.99 745.84 765.44 
1422 754.69 744.52 765.44 
1423 754.05 744.06 765.44 
1424 755.65 745.58 765.44 
1425 756.16 745.64 765.44 
1426 756.60 745.27 765.44 
1427 751.42 745.24 765.44 
1428 751.35 745.19 765.44 
1429 758.36 744.45 765.44 
1430 753.43 744.67 765.44 
1431 757.84 745.02 765.44 
1432 758.92 745.57 765.44 
1433 748.44 745.51 765.44 
1434 752.58 745.85 765.44 
1435 755.40 744.84 765.44 
1436 754.45 745.17 765.44 
1437 758.35 745.20 765.44 
1438 748.14 745.39 765.44 
1439 757.45 745.91 765.44 
1440 751.12 746.16 765.44 
1441 755.15 746.24 765.44 
1442 757.35 745.96 765.44 
1443 753.33 745.58 765.44 
1444 755.43 745.18 765.44 
1445 755.55 745.41 765.44 
1446 756.35 745.07 765.44 
1447 747.51 744.90 765.44 
1448 758.19 743.64 765.44 
1449 752.07 744.01 765.44 
1450 754.50 743.76 765.44 
1451 759.89 743.43 765.44 
1452 754.10 743.27 765.44 
1453 753.59 743.46 765.44 
1454 749.40 743.47 765.44 
1455 754.68 743.00 765.44 
1456 753.41 743.08 765.44 
1457 743.67 742.74 765.44 
1458 759.04 743.34 765.44 
1459 756.07 742.31 765.44 
1460 752.66 743.01 765.44 
1461 749.83 742.36 765.44 
1462 753.76 742.18 765.44 
1463 751.11 741.69 765.44 
1464 752.91 741.39 765.44 
1465 753.34 741.54 765.44 
1466 755.23 741.83 765.44 
1467 757.54 741.75 765.44 
1468 753.48 741.28 765.44 
1469 750.13 741.20 765.44 
1470 754.10 741.99 765.44 
1471 753.43 742.73 765.44 
1472 754.12 742.45 765.44 
1473 755.72 742.86 765.44 
1474 755.88 743.63 765.44 
1475 750.00 743.39 765.44 
1476 749.87 742.40 765.44 
1477 756.29 742.74 765.44 
1478 755.98 742.72 765.44 
1479 753.68 743.48 765.44 
1480 751.57 743.64 765.44 
1481 754.94 743.32 765.44 
1482 755.41 741.64 765.44 
1483 758.56 741.32 765.44 
1484 754.45 742.80 765.44 
1485 753.71 740.82 765.44 
1486 749.88 742.94 765.44 
1487 752.63 744.02 765.44 
1488 749.88 744.70 765.44 
1489 751.96 743.94 765.44 
1490 756.54 743.57 765.44 
1491 751.08 743.26 765.44 
1492 755.49 744.47 765.44 
1493 752.50 744.68 765.44 
1494 754.20 744.67 765.44 
1495 756.37 744.05 765.44 
1496 753.81 742.89 765.44 
1497 750.92 743.53 765.44 
1498 755.06 743.78 765.44 
1499 750.41 743.32 765.44 
1500 755.05 742.82 765.44 
1501 757.51 743.14 765.44 
1502 751.19 742.99 765.44 
1503 756.30 744.24 765.44 
1504 755.70 744.68 765.44 
1505 754.99 744.80 765.44 
1506 754.84 744.20 765.44 
1507 753.71 744.15 765.44 
1508 754.07 744.07 765.44 
1509 757.73 743.42 765.44 
1510 757.05 742.75 765.44 
1511 751.07 744.02 765.44 
1512 749.48 743.87 765.44 
1513 752.77 743.30 765.44 
1514 752.41 744.26 765.44 
1515 752.03 744.06 765.44 
1516 751.99 744.23 765.44 
1517 756.12 744.53 765.44 
1518 755.22 744.59 765.44 
1519 750.55 744.59 765.44 
1520 754.34 744.09 765.44 
1521 752.26 744.51 765.44 
1522 753.98 745.16 765.44 
1523 755.19 744.92 765.44 
1524 757.94 744.66 765.44 
1525 754.26 745.93 765.44 
1526 751.07 745.97 765.44 
1527 756.75 745.64 765.44 
1528 751.68 745.30 765.44 
1529 756.96 745.24 765.44 
1530 752.75 745.23 765.44 
1531 752.37 744.99 765.44 
1532 754.03 744.88 765.44 
1533 753.08 745.13 765.44 
1534 745.48 745.32 765.44 
1535 749.89 745.56 765.44 
1536 751.75 745.60 765.44 
1537 746.49 746.31 765.44 
1538 753.05 746.11 765.44 
1539 751.06 745.97 765.44 
1540 757.99 745.31 765.44 
1541 750.90 745.70 765.44 
1542 748.38 745.21 765.44 
1543 754.70 745.38 765.44 
1544 754.82 746.16 765.44 
1545 754.14 745.62 765.44 
1546 753.58 745.48 765.44 
1547 754.57 745.98 765.44 
1548 753.97 745.26 765.44 
1549 748.56 745.31 765.44 
1550 752.05 744.97 765.44 
1551 755.23 745.93 765.44 
1552 755.19 746.19 765.44 
1553 755.72 745.26 765.44 
1554 746.38 745.35 765.44 
1555 749.64 746.02 765.44 
1556 753.59 745.41 765.44 
1557 747.73 745.87 765.44 
1558 755.19 746.05 765.44 
1559 752.25 745.56 765.44 
1560 759.22 745.25 765.44 
1561 755.48 746.01 765.44 
1562 753.78 745.37 765.44 
1563 759.92 744.90 765.44 
1564 753.96 744.96 765.44 
1565 750.55 744.71 765.44 
1566 749.76 745.10 765.44 
1567 750.21 745.46 765.44 
1568 753.53 745.73 765.44 
1569 757.77 745.71 765.44 
1570 756.31 745.95 765.44 
1571 754.63 746.43 765.44 
1572 750.21 747.06 765.44 
1573 754.30 746.67 765.44 
1574 756.08 746.80 765.44 
1575 750.33 746.83 765.44 
1576 752.81 746.44 765.44 
1577 756.25 746.79 765.44 
1578 755.16 747.18 765.44 
1579 758.96 746.69 765.44 
1580 752.50 746.67 765.44 
1581 755.57 746.74 765.44 
1582 752.13 746.49 765.44 
1583 755.86 746.05 765.44 
1584 752.01 746.39 765.44 
1585 754.13 746.55 765.44 
1586 756.69 746.54 765.44 
1587 752.00 746.41 765.44 
1588 756.76 746.70 765.44 
1589 751.83 746.24 765.44 
1590 756.90 746.11 765.44 
1591 756.35 746.26 765.44 
1592 757.15 746.47 765.44 
1593 754.94 746.72 765.44 
1594 752.11 746.68 765.44 
1595 760.79 746.92 765.44 
1596 754.51 746.55 765.44 
1597 761.31 746.68 765.44 
1598 752.69 746.71 765.44 
1599 755.59 746.75 765.44 
1600 751.44 745.93 765.44 
1601 753.88 746.12 765.44 
1602 757.47 746.54 765.44 
1603 752.06 746.20 765.44 
1604 755.31 746.19 765.44 
1605 754.71 746.52 765.44 
1606 754.90 746.29 765.44 
1607 750.68 745.53 765.44 
1608 755.16 745.73 765.44 
1609 759.59 745.78 765.44 
1610 758.22 745.45 765.44 
1611 753.62 746.30 765.44 
1612 751.83 746.25 765.44 
1613 753.82 746.11 765.44 
1614 758.77 746.11 765.44 
1615 753.98 745.80 765.44 
1616 755.90 746.07 765.44 
1617 751.98 746.32 765.44 
1618 756.03 746.04 765.44 
1619 756.55 745.89 765.44 
1620 751.72 746.58 765.44 
1621 758.39 745.89 765.44 
1622 760.94 746.22 765.44 
1623 754.06 745.85 765.44 
1624 755.74 746.14 765.44 
1625 754.90 746.38 765.44 
1626 751.58 746.59 765.44 
1627 754.42 747.38 765.44 
1628 754.12 747.35 765.44 
1629 760.86 747.65 765.44 
1630 752.23 747.59 765.44 
1631 755.96 747.45 765.44 
1632 755.62 747.35 765.44 
1633 755.25 747.52 765.44 
1634 751.53 746.92 765.44 
1635 757.63 746.92 765.44 
1636 757.84 746.91 765.44 
1637 760.31 747.09 765.44 
1638 758.56 747.02 765.44 
1639 754.37 746.78 765.44 
1640 752.21 746.95 765.44 
1641 753.64 747.06 765.44 
1642 749.17 747.31 765.44 
1643 759.56 747.24 765.44 
1644 756.42 747.22 765.44 
1645 753.44 747.66 765.44 
1646 758.74 747.93 765.44 
1647 751.24 748.31 765.44 
1648 756.25 747.96 765.44 
1649 756.19 748.08 765.44 
1650 753.14 748.32 765.44 
1651 756.27 748.27 765.44 
1652 752.68 747.82 765.44 
1653 756.14 748.12 765.44 
1654 754.63 748.60 765.44 
1655 759.82 748.72 765.44 
1656 751.90 748.92 765.44 
1657 753.60 748.66 765.44 
1658 748.44 748.77 765.44 
1659 756.63 748.56 765.44 
1660 753.78 748.56 765.44 
1661 752.81 748.43 765.44 
1662 749.15 748.16 765.44 
1663 753.04 748.10 765.44 
1664 753.39 747.78 765.44 
1665 757.29 747.68 765.44 
1666 755.55 747.37 765.44 
1667 757.43 747.84 765.44 
1668 753.73 747.34 765.44 
1669 754.38 747.32 765.44 
1670 753.22 747.16 765.44 
1671 753.54 747.23 765.44 
1672 754.07 747.30 765.44 
1673 757.69 747.14 765.44 
1674 752.14 747.88 765.44 
1675 755.06 747.95 765.44 
1676 754.66 748.11 765.44 
1677 759.98 748.10 765.44 
1678 756.76 747.57 765.44 
1679 753.08 747.65 765.44 
1680 755.45 748.00 765.44 
1681 748.94 747.77 765.44 
1682 756.37 748.08 765.44 
1683 759.06 747.94 765.44 
1684 751.71 748.04 765.44 
1685 759.83 747.70 765.44 
1686 752.39 747.74 765.44 
1687 752.91 747.74 765.44 
1688 757.47 747.76 765.44 
1689 755.98 747.41 765.44 
1690 757.61 747.47 765.44 
1691 757.52 747.63 765.44 
1692 753.29 747.46 765.44 
1693 753.94 747.13 765.44 
1694 750.82 747.12 765.44 
1695 752.97 747.23 765.44 
1696 756.27 747.33 765.44 
1697 754.24 747.23 765.44 
1698 758.60 747.15 765.44 
1699 750.02 747.28 765.44 
1700 755.42 747.09 765.44 
1701 757.02 747.26 765.44 
1702 756.09 747.10 765.44 
1703 758.03 747.14 765.44 
1704 748.81 747.36 765.44 
1705 754.52 747.38 765.44 
1706 753.84 747.33 765.44 
1707 756.58 747.35 765.44 
1708 753.99 746.78 765.44 
1709 760.21 747.08 765.44 
1710 751.81 747.28 765.44 
1711 753.92 746.78 765.44 
1712 753.71 747.03 765.44 
1713 752.39 747.21 765.44 
1714 756.85 746.82 765.44 
1715 752.41 746.83 765.44 
1716 755.86 746.40 765.44 
1717 755.84 746.00 765.44 
1718 754.06 745.63 765.44 
1719 754.91 746.03 765.44 
1720 758.64 745.00 765.44 
1721 758.60 745.71 765.44 
1722 760.08 744.79 765.44 
1723 763.57 745.77 765.44 
1724 754.10 745.97 765.44 
1725 755.10 744.95 765.44 
1726 754.98 745.94 765.44 
1727 752.58 745.81 765.44 
1728 757.79 745.91 765.44 
1729 754.52 746.06 765.44 
1730 758.57 746.35 765.44 
1731 754.31 746.53 765.44 
1732 755.86 746.31 765.44 
1733 754.53 746.43 765.44 
1734 757.81 746.45 765.44 
1735 757.44 746.84 765.44 
1736 755.48 746.87 765.44 
1737 755.27 747.27 765.44 
1738 755.01 747.20 765.44 
1739 754.78 747.42 765.44 
1740 757.53 747.31 765.44 
1741 753.04 747.45 765.44 
1742 751.93 747.15 765.44 
1743 753.32 747.42 765.44 
1744 755.93 747.20 765.44 
1745 755.46 747.25 765.44 
1746 755.18 746.68 765.44 
1747 756.94 746.76 765.44 
1748 753.99 746.78 765.44 
1749 758.34 746.63 765.44 
1750 755.47 746.30 765.44 
1751 751.74 746.84 765.44 
1752 751.13 746.87 765.44 
1753 752.11 747.12 765.44 
1754 753.62 747.24 765.44 
1755 756.76 747.08 765.44 
1756 756.54 746.41 765.44 
1757 751.25 746.67 765.44 
1758 753.10 746.53 765.44 
1759 754.87 746.22 765.44 
1760 755.81 746.17 765.44 
1761 757.69 746.04 765.44 
1762 753.82 746.30 765.44 
1763 756.00 746.08 765.44 
1764 753.28 746.32 765.44 
1765 752.28 746.44 765.44 
1766 753.75 746.30 765.44 
1767 753.18 746.39 765.44 
1768 757.29 746.60 765.44 
1769 759.90 746.10 765.44 
1770 755.89 746.05 765.44 
1771 752.84 746.65 765.44 
1772 750.87 746.38 765.44 
1773 755.32 746.68 765.44 
1774 754.45 746.56 765.44 
1775 751.58 746.40 765.44 
1776 751.87 746.25 765.44 
1777 758.49 746.08 765.44 
1778 758.40 746.07 765.44 
1779 755.89 746.12 765.44 
1780 757.77 745.94 765.44 
1781 755.34 745.81 765.44 
1782 757.20 745.79 765.44 
1783 752.15 746.13 765.44 
1784 753.11 746.06 765.44 
1785 754.86 746.09 765.44 
1786 761.80 745.88 765.44 
1787 756.49 745.91 765.44 
1788 752.44 746.16 765.44 
1789 750.45 746.08 765.44 
1790 754.53 746.01 765.44 
1791 753.69 745.83 765.44 
1792 751.93 745.89 765.44 
1793 755.99 745.95 765.44 
1794 757.67 746.18 765.44 
1795 749.68 746.04 765.44 
1796 752.98 746.34 765.44 
1797 755.79 746.07 765.44 
1798 758.08 746.17 765.44 
1799 750.79 745.97 765.44 
1800 754.15 745.88 765.44 
1801 754.97 745.51 765.44 
1802 756.33 745.32 765.44 
1803 755.24 745.08 765.44 
1804 757.20 744.92 765.44 
1805 756.97 745.18 765.44 
1806 755.10 745.32 765.44 
1807 755.74 745.61 765.44 
1808 757.41 745.07 765.44 
1809 752.77 745.00 765.44 
1810 754.47 745.15 765.44 
1811 755.38 745.30 765.44 
1812 759.31 744.98 765.44 
1813 752.51 744.78 765.44 
1814 756.16 744.49 765.44 
1815 760.90 745.24 765.44 
1816 754.49 745.28 765.44 
1817 754.11 745.13 765.44 
1818 753.33 745.26 765.44 
1819 756.38 745.27 765.44 
1820 758.97 745.46 765.44 
1821 749.49 745.55 765.44 
1822 757.51 745.06 765.44 
1823 755.83 745.78 765.44 
1824 755.13 745.76 765.44 
1825 754.82 745.62 765.44 
1826 755.74 745.34 765.44 
1827 755.38 745.26 765.44 
1828 753.58 745.32 765.44 
1829 753.11 745.11 765.44 
1830 748.13 745.30 765.44 
1831 744.64 745.40 765.44 
1832 756.07 744.94 765.44 
1833 756.43 745.24 765.44 
1834 755.07 745.22 765.44 
1835 759.09 745.15 765.44 
1836 753.65 745.25 765.44 
1837 754.37 745.38 765.44 
1838 752.91 745.36 765.44 
1839 755.44 744.70 765.44 
1840 753.99 745.52 765.44 
1841 757.97 745.65 765.44 
1842 753.94 745.61 765.44 
1843 752.71 745.60 765.44 
1844 751.42 745.93 765.44 
1845 756.56 746.04 765.44 
1846 754.15 745.60 765.44 
1847 752.60 745.89 765.44 
1848 751.44 746.14 765.44 
1849 757.01 745.67 765.44 
1850 749.98 745.95 765.44 
1851 752.90 746.18 765.44 
1852 754.54 746.14 765.44 
1853 755.71 746.24 765.44 
1854 753.88 746.09 765.44 
1855 754.19 746.05 765.44 
1856 759.48 745.69 765.44 
1857 752.97 746.07 765.44 
1858 755.45 745.80 765.44 
1859 751.69 745.84 765.44 
1860 758.53 745.85 765.44 
1861 757.48 745.75 765.44 
1862 755.86 745.69 765.44 
1863 756.95 745.63 765.44 
1864 753.73 745.61 765.44 
1865 757.68 745.69 765.44 
1866 756.24 745.36 765.44 
1867 756.79 744.31 765.44 
1868 758.06 744.75 765.44 
1869 751.73 744.83 765.44 
1870 756.85 744.49 765.44 
1871 758.11 745.03 765.44 
1872 759.64 744.80 765.44 
1873 754.56 744.76 765.44 
1874 759.05 744.41 765.44 
1875 753.49 744.38 765.44 
1876 749.71 744.14 765.44 
1877 755.66 744.45 765.44 
1878 755.21 743.18 765.44 
1879 755.60 743.39 765.44 
1880 755.35 744.23 765.44 
1881 756.84 743.90 765.44 
1882 752.76 743.45 765.44 
1883 751.22 744.43 765.44 
1884 754.71 744.50 765.44 
1885 751.75 744.57 765.44 
1886 758.91 745.49 765.44 
1887 756.24 745.46 765.44 
1888 750.27 745.37 765.44 
1889 754.34 745.88 765.44 
1890 754.56 745.90 765.44 
1891 760.79 745.97 765.44 
1892 754.04 745.85 765.44 
1893 758.12 745.80 765.44 
1894 753.95 745.76 765.44 
1895 752.45 745.70 765.44 
1896 759.59 745.97 765.44 
1897 752.88 745.89 765.44 
1898 754.91 746.03 765.44 
1899 754.90 745.97 765.44 
1900 756.04 745.87 765.44 
1901 760.16 745.77 765.44 
1902 753.48 746.04 765.44 
1903 752.82 746.24 765.44 
1904 763.19 746.18 765.44 
1905 755.18 745.90 765.44 
1906 756.85 745.76 765.44 
1907 757.53 745.91 765.44 
1908 756.84 746.03 765.44 
1909 757.50 746.13 765.44 
1910 752.44 745.80 765.44 
1911 753.58 746.07 765.44 
1912 759.20 745.96 765.44 
1913 760.20 746.05 765.44 
1914 758.52 746.02 765.44 
1915 754.35 746.38 765.44 
1916 760.37 746.01 765.44 
1917 760.17 745.50 765.44 
1918 758.71 745.62 765.44 
1919 756.98 745.36 765.44 
1920 753.67 745.62 765.44 
1921 753.76 745.72 765.44 
1922 752.36 746.11 765.44 
1923 757.29 746.79 765.44 
1924 759.67 746.80 765.44 
1925 756.91 745.66 765.44 
1926 755.30 745.65 765.44 
1927 749.86 745.99 765.44 
1928 753.46 746.35 765.44 
1929 754.64 744.94 765.44 
1930 753.51 745.20 765.44 
1931 751.86 745.54 765.44 
1932 751.32 745.61 765.44 
1933 751.20 745.72 765.44 
1934 758.63 746.13 765.44 
1935 750.04 746.27 765.44 
1936 757.14 746.07 765.44 
1937 753.68 745.77 765.44 
1938 755.36 745.80 765.44 
1939 754.01 745.09 765.44 
1940 753.90 745.15 765.44 
1941 757.02 744.83 765.44 
1942 756.86 745.18 765.44 
1943 755.24 744.44 765.44 
1944 754.30 744.98 765.44 
1945 755.26 744.04 765.44 
1946 755.52 744.09 765.44 
1947 756.43 745.24 765.44 
1948 755.48 745.23 765.44 
1949 755.04 744.65 765.44 
1950 753.95 745.33 765.44 
1951 756.20 745.07 765.44 
1952 758.72 745.51 765.44 
1953 755.44 745.32 765.44 
1954 747.99 744.97 765.44 
1955 757.61 745.95 765.44 
1956 751.96 745.29 765.44 
1957 754.56 744.72 765.44 
1958 753.82 745.87 765.44 
1959 757.25 746.08 765.44 
1960 757.15 745.76 765.44 
1961 756.90 745.48 765.44 
1962 759.72 746.18 765.44 
1963 752.48 745.60 765.44 
1964 755.05 746.00 765.44 
1965 757.10 745.53 765.44 
1966 754.69 745.34 765.44 
1967 757.04 745.66 765.44 
1968 751.21 745.90 765.44 
1969 754.35 745.91 765.44 
1970 750.27 745.76 765.44 
1971 755.49 745.12 765.44 
1972 755.25 745.34 765.44 
1973 750.68 745.27 765.44 
1974 760.96 745.47 765.44 
1975 756.63 745.88 765.44 
1976 755.53 745.38 765.44 
1977 754.74 744.91 765.44 
1978 753.71 744.92 765.44 
1979 758.73 745.03 765.44 
1980 748.68 744.93 765.44 
1981 753.59 744.60 765.44 
1982 752.78 744.61 765.44 
1983 753.02 744.52 765.44 
1984 754.68 744.94 765.44 
1985 754.62 744.48 765.44 
1986 754.47 744.97 765.44 
1987 747.88 745.12 765.44 
1988 750.75 745.19 765.44 
1989 753.82 745.46 765.44 
1990 757.54 745.93 765.44 
1991 756.88 745.28 765.44 
1992 755.29 745.38 765.44 
1993 749.67 745.13 765.44 
1994 753.72 745.74 765.44 
1995 754.49 745.99 765.44 
1996 759.04 746.11 765.44 
1997 754.49 745.79 765.44 
1998 753.62 745.89 765.44 
1999 758.28 746.15 765.44 
2000 754.12 746.53 765.44 
2001 760.04 746.17 765.44 
2002 755.06 746.18 765.44 
2003 755.21 746.24 765.44 
2004 757.77 745.93 765.44 
2005 754.14 745.16 765.44 
2006 755.82 744.48 765.44 
2007 753.58 744.35 765.44 
2008 757.50 745.56 765.44 
2009 753.74 745.69 765.44 
2010 755.21 746.49 765.44 
2011 749.89 746.14 765.44 
2012 759.80 746.12 765.44 
2013 748.69 745.15 765.44 
2014 759.05 745.83 765.44 
2015 749.32 746.03 765.44 
2016 757.20 745.74 765.44 
2017 753.62 745.93 765.44 
2018 753.36 746.28 765.44 
2019 754.00 746.30 765.44 
2020 753.88 746.41 765.44 
2021 754.12 746.18 765.44 
2022 753.83 746.44 765.44 
2023 754.63 746.28 765.44 
2024 758.23 746.36 765.44 
2025 756.18 746.28 765.44 
2026 749.90 746.46 765.44 
2027 755.61 746.46 765.44 
2028 749.36 746.49 765.44 
2029 753.79 746.32 765.44 
2030 753.64 746.26 765.44 
2031 757.30 746.03 765.44 
2032 754.07 746.14 765.44 
2033 749.26 746.10 765.44 
2034 755.57 746.26 765.44 
2035 753.35 746.15 765.44 
2036 751.72 746.08 765.44 
2037 749.13 746.03 765.44 
2038 748.23 746.11 765.44 
2039 755.80 745.95 765.44 
2040 751.19 746.00 765.44 
2041 756.97 745.81 765.44 
2042 753.08 745.54 765.44 
2043 751.89 746.13 765.44 
2044 752.53 745.68 765.44 
2045 752.77 745.52 765.44 
2046 752.79 745.81 765.44 
2047 756.59 746.37 765.44 
2048 751.73 746.31 765.44 
2049 746.69 746.23 765.44 
2050 753.39 746.11 765.44 
2051 759.62 745.73 765.44 
2052 753.55 745.56 765.44 
2053 751.72 745.30 765.44 
2054 758.39 745.64 765.44 
2055 751.49 745.59 765.44 
2056 754.01 745.83 765.44 
2057 751.14 744.70 765.44 
2058 755.83 745.72 765.44 
2059 754.75 746.19 765.44 
2060 758.93 746.02 765.44 
2061 758.65 746.00 765.44 
2062 751.43 746.30 765.44 
2063 755.12 746.37 765.44 
2064 750.32 746.36 765.44 
2065 751.65 746.29 765.44 
2066 755.55 746.25 765.44 
2067 757.51 746.48 765.44 
2068 753.59 746.44 765.44 
2069 754.32 746.54 765.44 
2070 754.88 746.64 765.44 
2071 750.48 746.80 765.44 
2072 756.84 746.55 765.44 
2073 754.84 746.49 765.44 
2074 760.32 746.51 765.44 
2075 754.83 746.52 765.44 
2076 755.00 746.56 765.44 
2077 760.14 746.62 765.44 
2078 758.54 746.92 765.44 
2079 754.22 746.78 765.44 
2080 754.50 746.88 765.44 
2081 760.80 746.79 765.44 
2082 748.31 746.61 765.44 
2083 758.59 746.70 765.44 
2084 754.63 746.61 765.44 
2085 752.23 746.88 765.44 
2086 757.30 746.04 765.44 
2087 756.01 746.09 765.44 
2088 760.33 746.17 765.44 
2089 758.36 746.50 765.44 
2090 756.97 746.60 765.44 
2091 759.17 747.32 765.44 
2092 755.31 746.58 765.44 
2093 760.71 746.44 765.44 
2094 759.40 746.71 765.44 
2095 751.71 747.18 765.44 
2096 755.13 747.52 765.44 
2097 751.74 747.40 765.44 
2098 753.41 747.54 765.44 
2099 753.36 747.45 765.44 
2100 751.83 747.70 765.44 
2101 759.40 747.64 765.44 
2102 753.48 746.93 765.44 
2103 754.98 746.07 765.44 
2104 755.46 745.54 765.44 
2105 752.66 744.57 765.44 
2106 754.82 744.15 765.44 
2107 753.18 744.96 765.44 
2108 758.64 745.34 765.44 
2109 756.11 745.02 765.44 
2110 755.85 744.68 765.44 
2111 756.64 744.50 765.44 
2112 755.94 744.50 765.44 
2113 758.06 744.65 765.44 
2114 755.05 745.09 765.44 
2115 755.33 745.40 765.44 
2116 754.76 745.35 765.44 
2117 748.37 744.84 765.44 
2118 751.59 744.76 765.44 
2119 754.32 744.54 765.44 
2120 753.51 744.62 765.44 
2121 754.45 744.71 765.44 
2122 750.58 744.90 765.44 
2123 751.98 746.28 765.44 
2124 757.83 745.56 765.44 
2125 758.52 745.26 765.44 
2126 753.25 745.55 765.44 
2127 759.22 744.42 765.44 
2128 748.92 745.09 765.44 
2129 760.25 744.18 765.44 
2130 759.00 745.45 765.44 
2131 752.67 745.02 765.44 
2132 757.57 744.51 765.44 
2133 753.26 744.86 765.44 
2134 757.06 744.89 765.44 
2135 757.58 744.93 765.44 
2136 749.19 744.69 765.44 
2137 753.76 743.95 765.44 
2138 754.82 744.26 765.44 
2139 755.28 744.36 765.44 
2140 757.13 744.17 765.44 
2141 757.01 745.63 765.44 
2142 755.42 745.83 765.44 
2143 753.99 744.37 765.44 
2144 756.98 745.31 765.44 
2145 759.38 745.21 765.44 
2146 755.48 743.83 765.44 
2147 753.80 744.15 765.44 
2148 751.77 744.10 765.44 
2149 755.77 744.80 765.44 
2150 747.42 743.94 765.44 
2151 758.83 744.35 765.44 
2152 752.00 744.93 765.44 
2153 756.24 744.36 765.44 
2154 752.02 744.43 765.44 
2155 754.40 745.96 765.44 
2156 753.80 745.14 765.44 
2157 754.05 745.37 765.44 
2158 754.86 745.72 765.44 
2159 758.40 746.07 765.44 
2160 755.89 746.22 765.44 
2161 757.44 747.49 765.44 
2162 748.38 746.92 765.44 
2163 751.48 747.45 765.44 
2164 754.81 748.09 765.44 
2165 751.47 747.82 765.44 
2166 757.99 747.38 765.44 
2167 749.14 747.55 765.44 
2168 760.03 748.11 765.44 
2169 756.05 747.52 765.44 
2170 753.77 746.96 765.44 
2171 754.70 747.28 765.44 
2172 756.17 746.77 765.44 
2173 762.89 746.34 765.44 
2174 749.97 746.62 765.44 
2175 757.31 746.48 765.44 
2176 755.41 746.59 765.44 
2177 759.55 746.80 765.44 
2178 751.17 746.86 765.44 
2179 760.23 746.61 765.44 
2180 754.49 744.05 765.44 
2181 755.54 743.71 765.44 
2182 755.48 744.66 765.44 
2183 756.40 745.39 765.44 
2184 750.38 746.48 765.44 
2185 752.70 746.55 765.44 
2186 758.91 746.56 765.44 
2187 759.99 746.88 765.44 
2188 758.22 746.94 765.44 
2189 754.42 747.71 765.44 
2190 755.97 747.55 765.44 
2191 755.96 747.03 765.44 
2192 759.02 747.09 765.44 
2193 754.10 746.20 765.44 
2194 756.03 746.91 765.44 
2195 757.58 745.82 765.44 
2196 751.21 747.42 765.44 
2197 758.79 747.46 765.44 
2198 753.03 747.35 765.44 
2199 754.18 747.32 765.44 
2200 753.62 746.74 765.44 
2201 759.31 746.06 765.44 
2202 752.29 745.86 765.44 
2203 754.53 745.94 765.44 
2204 758.62 746.04 765.44 
2205 757.26 746.11 765.44 
2206 753.54 746.13 765.44 
2207 751.02 745.92 765.44 
2208 749.65 745.79 765.44 
2209 751.20 746.13 765.44 
2210 761.50 745.71 765.44 
2211 756.31 746.29 765.44 
2212 753.89 746.10 765.44 
2213 760.01 746.04 765.44 
2214 756.06 746.77 765.44 
2215 758.86 745.61 765.44 
2216 754.94 745.11 765.44 
2217 760.47 744.99 765.44 
2218 754.74 745.20 765.44 
2219 749.10 745.50 765.44 
2220 757.92 745.88 765.44 
2221 752.62 745.70 765.44 
2222 749.40 745.90 765.44 
2223 756.72 746.10 765.44 
2224 753.82 746.04 765.44 
2225 752.16 746.65 765.44 
2226 749.65 746.14 765.44 
2227 758.06 746.01 765.44 
2228 750.24 746.40 765.44 
2229 757.58 746.48 765.44 
2230 751.28 746.50 765.44 
2231 747.58 746.32 765.44 
2232 750.31 745.95 765.44 
2233 752.52 745.65 765.44 
2234 755.00 745.99 765.44 
2235 750.79 746.32 765.44 
2236 748.86 746.36 765.44 
2237 754.77 745.94 765.44 
2238 759.61 746.80 765.44 
2239 760.63 746.74 765.44 
2240 753.85 746.89 765.44 
2241 754.33 746.75 765.44 
2242 754.60 746.65 765.44 
2243 751.10 746.62 765.44 
2244 754.29 746.79 765.44 
2245 755.76 746.59 765.44 
2246 755.82 745.55 765.44 
2247 754.92 746.48 765.44 
2248 762.79 745.34 765.44 
2249 762.25 746.23 765.44 
2250 755.21 746.48 765.44 
2251 754.28 746.36 765.44 
2252 752.77 746.41 765.44 
2253 755.53 746.62 765.44 
2254 755.24 746.32 765.44 
2255 752.24 746.41 765.44 
2256 754.28 746.73 765.44 
2257 758.18 746.25 765.44 
2258 749.72 747.21 765.44 
2259 753.37 746.69 765.44 
2260 754.59 747.44 765.44 
2261 756.83 747.17 765.44 
2262 753.10 747.09 765.44 
2263 755.04 746.24 765.44 
2264 759.27 746.24 765.44 
2265 757.83 746.31 765.44 
2266 761.24 746.11 765.44 
2267 759.84 745.96 765.44 
2268 756.18 746.02 765.44 
2269 752.59 746.14 765.44 
2270 754.71 745.94 765.44 
2271 755.57 745.84 765.44 
2272 756.70 745.92 765.44 
2273 755.49 745.74 765.44 
2274 753.11 745.98 765.44 
2275 750.81 745.68 765.44 
2276 750.62 745.47 765.44 
2277 754.73 745.49 765.44 
2278 753.18 745.23 765.44 
2279 750.41 744.83 765.44 
2280 753.20 745.40 765.44 
2281 753.14 745.25 765.44 
2282 755.76 745.83 765.44 
2283 752.66 745.27 765.44 
2284 754.43 745.73 765.44 
2285 754.77 746.00 765.44 
2286 755.21 745.95 765.44 
2287 756.19 746.20 765.44 
2288 760.36 746.53 765.44 
2289 752.78 746.37 765.44 
2290 750.21 746.43 765.44 
2291 756.59 746.37 765.44 
2292 752.69 746.89 765.44 
2293 750.85 746.82 765.44 
2294 752.98 746.57 765.44 
2295 759.49 747.04 765.44 
2296 748.46 747.02 765.44 
2297 760.19 747.14 765.44 
2298 754.23 747.16 765.44 
2299 755.71 747.16 765.44 
2300 753.02 746.88 765.44 
2301 756.11 746.86 765.44 
2302 751.89 746.77 765.44 
2303 756.76 746.71 765.44 
2304 753.99 746.44 765.44 
2305 760.90 746.35 765.44 
2306 756.00 746.77 765.44 
2307 758.63 746.90 765.44 
2308 755.30 746.56 765.44 
2309 753.11 747.00 765.44 
2310 756.58 746.70 765.44 
2311 751.15 746.76 765.44 
2312 757.57 746.63 765.44 
2313 758.74 746.40 765.44 
2314 752.55 745.95 765.44 
2315 759.31 746.09 765.44 
2316 751.49 746.34 765.44 
2317 756.78 746.56 765.44 
2318 755.89 746.68 765.44 
2319 752.48 746.72 765.44 
2320 757.73 746.73 765.44 
2321 754.38 746.74 765.44 
2322 760.17 746.49 765.44 
2323 758.71 746.45 765.44 
2324 750.90 746.41 765.44 
2325 759.61 746.12 765.44 
2326 753.19 746.04 765.44 
2327 750.44 746.06 765.44 
2328 754.61 746.10 765.44 
2329 754.37 746.47 765.44 
2330 748.63 746.43 765.44 
2331 755.40 746.61 765.44 
2332 751.22 746.81 765.44 
2333 752.34 746.88 765.44 
2334 758.13 746.94 765.44 
2335 748.35 746.66 765.44 
2336 753.21 746.63 765.44 
2337 758.66 746.69 765.44 
2338 759.52 746.70 765.44 
2339 754.31 746.88 765.44 
2340 756.44 746.63 765.44 
2341 750.71 746.56 765.44 
2342 757.35 746.20 765.44 
2343 755.54 746.37 765.44 
2344 755.06 746.47 765.44 
2345 754.77 746.47 765.44 
2346 755.48 746.10 765.44 
2347 752.07 745.70 765.44 
2348 753.82 745.74 765.44 
2349 759.61 745.60 765.44 
2350 754.88 745.79 765.44 
2351 749.64 745.87 765.44 
2352 758.06 745.50 765.44 
2353 749.44 745.60 765.44 
2354 760.49 745.79 765.44 
2355 752.20 745.80 765.44 
2356 748.97 745.96 765.44 
2357 760.83 745.84 765.44 
2358 753.94 745.74 765.44 
2359 753.86 745.79 765.44 
2360 754.29 745.78 765.44 
2361 756.79 745.83 765.44 
2362 752.84 746.01 765.44 
2363 756.21 745.76 765.44 
2364 749.97 746.00 765.44 
2365 758.13 745.35 765.44 
2366 756.68 745.63 765.44 
2367 754.99 745.55 765.44 
2368 751.32 745.32 765.44 
2369 758.40 744.96 765.44 
2370 755.11 745.15 765.44 
2371 756.34 745.20 765.44 
2372 752.04 745.40 765.44 
2373 753.25 744.99 765.44 
2374 757.66 745.25 765.44 
2375 755.88 745.38 765.44 
2376 751.80 745.23 765.44 
2377 753.28 745.01 765.44 
2378 754.70 744.83 765.44 
2379 758.22 744.86 765.44 
2380 758.94 745.02 765.44 
2381 754.55 745.28 765.44 
2382 751.85 745.94 765.44 
2383 752.67 745.85 765.44 
2384 755.11 745.59 765.44 
2385 754.56 745.17 765.44 
2386 749.57 745.44 765.44 
2387 756.70 746.07 765.44 
2388 757.24 746.39 765.44 
2389 751.76 746.33 765.44 
2390 751.45 746.22 765.44 
2391 753.32 746.47 765.44 
2392 757.06 746.53 765.44 
2393 757.17 746.27 765.44 
2394 757.93 746.29 765.44 
2395 752.86 746.56 765.44 
2396 756.34 746.70 765.44 
2397 759.24 746.72 765.44 
2398 751.37 746.94 765.44 
2399 756.36 746.97 765.44 
2400 759.93 746.80 765.44 
2401 756.83 746.78 765.44 
2402 755.72 746.69 765.44 
2403 755.85 746.74 765.44 
2404 755.77 746.91 765.44 
2405 753.43 746.97 765.44 
2406 757.31 746.71 765.44 
2407 755.39 746.55 765.44 
2408 755.95 746.49 765.44 
2409 753.75 746.33 765.44 
2410 754.97 746.20 765.44 
2411 754.36 746.37 765.44 
2412 753.59 746.58 765.44 
2413 759.00 746.36 765.44 
2414 753.49 746.43 765.44 
2415 755.48 746.53 765.44 
2416 761.69 746.28 765.44 
2417 757.66 746.11 765.44 
2418 751.92 746.16 765.44 
2419 760.00 746.24 765.44 
2420 755.08 746.21 765.44 
2421 754.86 746.11 765.44 
2422 756.17 746.35 765.44 
2423 756.36 746.21 765.44 
2424 752.00 746.02 765.44 
2425 758.35 746.23 765.44 
2426 755.79 745.99 765.44 
2427 757.57 746.03 765.44 
2428 756.31 746.36 765.44 
2429 756.63 746.20 765.44 
2430 755.66 745.54 765.44 
2431 758.95 746.07 765.44 
2432 760.56 745.96 765.44 
2433 759.88 745.54 765.44 
2434 749.55 746.04 765.44 
2435 755.61 745.75 765.44 
2436 752.08 745.55 765.44 
2437 754.16 745.07 765.44 
2438 752.67 745.06 765.44 
2439 754.20 745.06 765.44 
2440 757.81 745.21 765.44 
2441 754.10 745.30 765.44 
2442 752.83 745.32 765.44 
2443 758.18 745.14 765.44 
2444 758.08 745.30 765.44 
2445 757.58 745.41 765.44 
2446 752.23 745.08 765.44 
2447 751.96 744.74 765.44 
2448 749.79 744.79 765.44 
2449 753.45 744.97 765.44 
2450 756.31 744.92 765.44 
2451 754.03 745.18 765.44 
2452 751.73 744.55 765.44 
2453 755.99 745.38 765.44 
2454 752.00 745.76 765.44 
2455 761.34 745.63 765.44 
2456 757.38 746.15 765.44 
2457 760.65 746.63 765.44 
2458 755.56 746.71 765.44 
2459 756.55 747.21 765.44 
2460 756.17 747.03 765.44 
2461 759.90 746.62 765.44 
2462 753.73 746.59 765.44 
2463 755.32 745.91 765.44 
2464 755.11 745.66 765.44 
2465 755.46 745.88 765.44 
2466 752.02 744.66 765.44 
2467 750.82 744.80 765.44 
2468 749.59 745.30 765.44 
2469 757.93 745.05 765.44 
2470 756.37 744.84 765.44 
2471 757.17 744.17 765.44 
2472 755.46 745.09 765.44 
2473 753.04 745.05 765.44 
2474 757.50 744.79 765.44 
2475 759.22 744.93 765.44 
2476 754.96 746.22 765.44 
2477 750.30 745.82 765.44 
2478 752.51 745.97 765.44 
2479 752.95 746.49 765.44 
2480 756.62 746.33 765.44 
2481 756.37 746.37 765.44 
2482 747.90 745.97 765.44 
2483 764.80 746.43 765.44 
2484 756.63 745.33 765.44 
2485 757.27 745.60 765.44 
2486 751.11 745.67 765.44 
2487 758.32 746.19 765.44 
2488 752.39 746.13 765.44 
2489 754.24 747.07 765.44 
2490 756.61 746.56 765.44 
2491 751.82 745.95 765.44 
2492 755.89 745.50 765.44 
2493 751.98 745.48 765.44 
2494 757.07 745.62 765.44 
2495 752.57 745.21 765.44 
2496 759.12 745.52 765.44 
2497 754.90 745.59 765.44 
2498 761.57 745.35 765.44 
2499 750.74 746.54 765.44 
2500 758.99 746.22 765.44 
2501 756.08 746.31 765.44 
2502 757.02 746.41 765.44 
2503 753.74 746.17 765.44 
2504 754.40 746.08 765.44 
2505 756.82 746.17 765.44 
2506 758.60 745.84 765.44 
2507 758.42 745.88 765.44 
2508 757.76 745.70 765.44 
2509 762.55 746.33 765.44 
2510 749.08 745.02 765.44 
2511 758.11 745.98 765.44 
2512 756.34 745.36 765.44 
2513 750.80 745.14 765.44 
2514 753.98 744.61 765.44 
2515 755.36 744.80 765.44 
2516 757.31 744.73 765.44 
2517 751.87 745.46 765.44 
2518 756.69 744.65 765.44 
2519 755.14 745.84 765.44 
2520 752.80 746.13 765.44 
2521 754.30 745.83 765.44 
2522 757.08 746.85 765.44 
2523 756.30 747.89 765.44 
2524 757.81 747.67 765.44 
2525 747.30 747.32 765.44 
2526 753.68 746.71 765.44 
2527 759.45 747.14 765.44 
2528 752.28 747.10 765.44 
2529 754.83 746.92 765.44 
2530 756.22 746.71 765.44 
2531 753.57 746.96 765.44 
2532 758.18 746.99 765.44 
2533 750.41 746.33 765.44 
2534 750.60 746.95 765.44 
2535 751.25 747.32 765.44 
2536 754.74 747.24 765.44 
2537 747.66 747.50 765.44 
2538 758.62 747.86 765.44 
2539 752.09 747.73 765.44 
2540 756.47 747.00 765.44 
2541 758.59 746.16 765.44 
2542 750.29 746.30 765.44 
2543 753.07 746.24 765.44 
2544 753.76 745.50 765.44 
2545 758.74 745.40 765.44 
2546 752.04 744.90 765.44 
2547 757.23 745.75 765.44 
2548 751.48 746.42 765.44 
2549 748.14 746.40 765.44 
2550 753.94 748.16 765.44 
2551 757.34 747.72 765.44 
2552 756.49 747.60 765.44 
2553 756.48 747.56 765.44 
2554 751.25 747.83 765.44 
2555 754.36 747.73 765.44 
2556 754.28 748.08 765.44 
2557 755.79 747.81 765.44 
2558 755.84 747.58 765.44 
2559 756.60 747.55 765.44 
2560 751.65 747.91 765.44 
2561 748.70 747.96 765.44 
2562 757.10 748.50 765.44 
2563 755.50 748.50 765.44 
2564 753.43 748.31 765.44 
2565 757.36 748.71 765.44 
2566 756.67 749.13 765.44 
2567 756.58 749.05 765.44 
2568 751.16 749.14 765.44 
2569 756.73 748.97 765.44 
2570 751.16 749.12 765.44 
2571 756.84 748.41 765.44 
2572 754.36 748.42 765.44 
2573 754.51 748.53 765.44 
2574 756.70 748.71 765.44 
2575 757.35 748.64 765.44 
2576 761.21 748.55 765.44 
2577 754.78 748.20 765.44 
2578 756.28 748.51 765.44 
2579 754.42 748.54 765.44 
2580 754.18 748.71 765.44 
2581 760.08 748.68 765.44 
2582 755.30 748.50 765.44 
2583 761.26 747.98 765.44 
2584 757.96 747.18 765.44 
2585 752.05 747.33 765.44 
2586 755.02 747.46 765.44 
2587 754.06 748.34 765.44 
2588 758.88 748.91 765.44 
2589 755.19 748.46 765.44 
2590 754.57 747.75 765.44 
2591 750.90 747.19 765.44 
2592 756.48 747.40 765.44 
2593 753.25 747.80 765.44 
2594 750.65 747.49 765.44 
2595 757.03 747.47 765.44 
2596 756.00 747.74 765.44 
2597 756.17 747.83 765.44 
2598 755.00 747.98 765.44 
2599 758.11 748.04 765.44 
2600 756.39 748.26 765.44 
2601 748.87 748.19 765.44 
2602 753.83 748.17 765.44 
2603 752.01 748.10 765.44 
2604 750.57 747.66 765.44 
2605 754.48 747.38 765.44 
2606 763.62 747.95 765.44 
2607 757.11 747.47 765.44 
2608 757.08 747.55 765.44 
2609 758.00 747.31 765.44 
2610 755.24 747.10 765.44 
2611 758.83 747.22 765.44 
2612 758.60 747.26 765.44 
2613 751.82 747.55 765.44 
2614 754.57 747.26 765.44 
2615 761.11 746.71 765.44 
2616 754.83 747.08 765.44 
2617 753.26 747.15 765.44 
2618 757.76 747.09 765.44 
2619 759.14 746.71 765.44 
2620 756.19 746.81 765.44 
2621 757.67 747.21 765.44 
2622 756.55 747.17 765.44 
2623 751.40 747.25 765.44 
2624 755.33 747.01 765.44 
2625 755.11 746.90 765.44 
2626 757.00 746.82 765.44 
2627 759.48 747.21 765.44 
2628 752.52 747.28 765.44 
2629 761.46 747.11 765.44 
2630 748.49 746.61 765.44 
2631 756.66 746.39 765.44 
2632 754.61 746.53 765.44 
2633 750.11 746.41 765.44 
2634 749.31 746.61 765.44 
2635 757.31 746.49 765.44 
2636 755.66 746.40 765.44 
2637 751.91 746.06 765.44 
2638 760.91 746.29 765.44 
2639 757.28 746.42 765.44 
2640 752.26 745.69 765.44 
2641 756.09 745.98 765.44 
2642 757.56 746.26 765.44 
2643 756.78 746.03 765.44 
2644 756.12 746.03 765.44 
2645 752.66 745.21 765.44 
2646 758.72 746.15 765.44 
2647 750.05 746.14 765.44 
2648 755.07 746.41 765.44 
2649 760.25 746.46 765.44 
2650 756.64 746.27 765.44 
2651 756.89 746.05 765.44 
2652 755.35 746.22 765.44 
2653 755.91 746.30 765.44 
2654 756.07 745.85 765.44 
2655 749.88 746.00 765.44 
2656 748.67 745.94 765.44 
2657 754.01 745.55 765.44 
2658 748.53 745.37 765.44 
2659 758.09 745.79 765.44 
2660 755.64 745.93 765.44 
2661 756.75 746.04 765.44 
2662 753.86 745.96 765.44 
2663 751.76 745.63 765.44 
2664 757.22 745.71 765.44 
2665 755.18 745.60 765.44 
2666 759.47 745.66 765.44 
2667 758.16 745.89 765.44 
2668 758.53 745.69 765.44 
2669 749.07 745.75 765.44 
2670 754.22 745.81 765.44 
2671 751.13 745.80 765.44 
2672 755.91 745.61 765.44 
2673 755.86 745.66 765.44 
2674 755.69 745.46 765.44 
2675 757.59 745.36 765.44 
2676 755.07 745.40 765.44 
2677 755.28 745.64 765.44 
2678 756.84 745.67 765.44 
2679 753.11 745.26 765.44 
2680 758.87 745.07 765.44 
2681 755.49 744.49 765.44 
2682 753.84 744.74 765.44 
2683 761.12 745.22 765.44 
2684 755.27 745.66 765.44 
2685 755.87 745.64 765.44 
2686 757.78 745.67 765.44 
2687 755.14 745.64 765.44 
2688 749.51 745.62 765.44 
2689 756.25 745.65 765.44 
2690 752.22 745.66 765.44 
2691 755.19 745.58 765.44 
2692 763.81 745.45 765.44 
2693 754.60 745.39 765.44 
2694 752.91 745.37 765.44 
2695 754.18 745.44 765.44 
2696 751.61 745.48 765.44 
2697 756.79 745.50 765.44 
2698 751.81 745.42 765.44 
2699 750.53 745.08 765.44 
2700 748.79 745.26 765.44 
2701 750.72 745.16 765.44 
2702 754.76 745.29 765.44 
2703 746.86 745.24 765.44 
2704 756.25 745.26 765.44 
2705 753.52 745.54 765.44 
2706 754.46 745.55 765.44 
2707 750.98 745.58 765.44 
2708 754.08 745.72 765.44 
2709 758.90 745.46 765.44 
2710 757.25 745.73 765.44 
2711 750.62 745.46 765.44 
2712 750.11 745.32 765.44 
2713 756.40 745.32 765.44 
2714 755.30 745.38 765.44 
2715 753.43 745.40 765.44 
2716 748.84 745.56 765.44 
2717 757.21 745.58 765.44 
2718 756.12 745.69 765.44 
2719 749.53 745.69 765.44 
2720 758.09 745.70 765.44 
2721 755.67 745.68 765.44 
2722 757.80 745.57 765.44 
2723 751.16 745.63 765.44 
2724 752.44 745.58 765.44 
2725 753.69 745.79 765.44 
2726 746.08 745.71 765.44 
2727 754.11 745.65 765.44 
2728 756.28 745.71 765.44 
2729 752.58 745.67 765.44 
2730 751.22 745.49 765.44 
2731 754.24 745.61 765.44 
2732 754.95 745.73 765.44 
2733 750.74 745.83 765.44 
2734 750.56 745.95 765.44 
2735 753.43 745.83 765.44 
2736 751.75 745.94 765.44 
2737 748.66 745.95 765.44 
2738 757.81 745.48 765.44 
2739 756.25 745.56 765.44 
2740 754.42 745.59 765.44 
2741 747.69 745.03 765.44 
2742 758.96 745.18 765.44 
2743 754.53 745.24 765.44 
2744 753.00 745.17 765.44 
2745 749.64 745.24 765.44 
2746 759.10 745.54 765.44 
2747 756.34 745.59 765.44 
2748 758.33 745.41 765.44 
2749 754.01 745.42 765.44 
2750 753.11 745.67 765.44 
2751 750.16 745.70 765.44 
2752 753.78 745.73 765.44 
2753 752.86 745.78 765.44 
2754 754.54 745.73 765.44 
2755 753.81 745.80 765.44 
2756 756.24 745.13 765.44 
2757 750.52 745.99 765.44 
2758 755.17 745.98 765.44 
2759 747.65 745.90 765.44 
2760 754.62 745.88 765.44 
2761 757.85 746.05 765.44 
2762 760.06 746.04 765.44 
2763 756.73 745.83 765.44 
2764 750.69 745.96 765.44 
2765 758.35 745.80 765.44 
2766 754.64 745.76 765.44 
2767 752.58 745.71 765.44 
2768 751.98 745.88 765.44 
2769 755.80 745.89 765.44 
2770 761.07 746.06 765.44 
2771 751.25 746.02 765.44 
2772 751.06 745.97 765.44 
2773 755.12 746.07 765.44 
2774 757.31 745.95 765.44 
2775 752.73 746.16 765.44 
2776 752.58 745.87 765.44 
2777 752.34 745.88 765.44 
2778 758.39 745.93 765.44 
2779 751.83 745.95 765.44 
2780 748.43 746.00 765.44 
2781 756.29 745.96 765.44 
2782 755.09 745.83 765.44 
2783 752.60 745.84 765.44 
2784 755.15 745.60 765.44 
2785 757.19 745.87 765.44 
2786 749.65 745.83 765.44 
2787 754.71 745.95 765.44 
2788 756.03 745.86 765.44 
2789 754.17 745.30 765.44 
2790 753.89 745.03 765.44 
2791 757.31 745.41 765.44 
2792 753.76 745.62 765.44 
2793 751.77 745.56 765.44 
2794 749.85 745.73 765.44 
2795 752.16 745.82 765.44 
2796 755.41 745.56 765.44 
2797 751.83 745.60 765.44 
2798 752.73 745.45 765.44 
2799 747.81 745.67 765.44 
2800 756.51 745.74 765.44 
2801 753.66 745.89 765.44 
2802 754.85 745.82 765.44 
2803 748.51 745.41 765.44 
2804 749.93 745.43 765.44 
2805 754.15 745.59 765.44 
2806 758.29 745.62 765.44 
2807 748.52 745.73 765.44 
2808 757.75 745.44 765.44 
2809 751.79 745.50 765.44 
2810 750.63 745.20 765.44 
2811 753.78 745.30 765.44 
2812 752.61 745.60 765.44 
2813 761.64 745.24 765.44 
2814 758.68 745.34 765.44 
2815 749.12 745.45 765.44 
2816 758.10 745.79 765.44 
2817 755.56 745.44 765.44 
2818 755.38 745.89 765.44 
2819 753.71 746.01 765.44 
2820 756.12 745.74 765.44 
2821 753.50 745.92 765.44 
2822 754.57 745.91 765.44 
2823 753.23 745.96 765.44 
2824 757.66 746.04 765.44 
2825 748.77 746.09 765.44 
2826 758.63 746.20 765.44 
2827 756.82 746.12 765.44 
2828 759.34 746.14 765.44 
2829 747.00 745.93 765.44 
2830 752.54 746.08 765.44 
2831 755.02 746.12 765.44 
2832 752.10 746.03 765.44 
2833 759.22 746.19 765.44 
2834 758.28 746.06 765.44 
2835 752.60 746.26 765.44 
2836 751.44 746.30 765.44 
2837 754.62 746.46 765.44 
2838 752.14 746.46 765.44 
2839 754.98 746.50 765.44 
2840 758.40 746.51 765.44 
2841 756.80 746.33 765.44 
2842 754.61 746.39 765.44 
2843 752.79 746.49 765.44 
2844 755.14 746.52 765.44 
2845 759.45 746.54 765.44 
2846 755.14 746.44 765.44 
2847 756.74 746.46 765.44 
2848 748.99 746.15 765.44 
2849 751.09 746.21 765.44 
2850 752.39 746.31 765.44 
2851 748.36 746.24 765.44 
2852 755.87 745.67 765.44 
2853 753.46 745.50 765.44 
2854 750.42 746.02 765.44 
2855 752.59 746.03 765.44 
2856 758.61 745.98 765.44 
2857 759.80 745.88 765.44 
2858 758.22 745.87 765.44 
2859 751.28 745.17 765.44 
2860 754.40 745.46 765.44 
2861 748.58 745.49 765.44 
2862 752.48 745.35 765.44 
2863 751.19 745.61 765.44 
2864 754.87 745.76 765.44 
2865 760.36 746.11 765.44 
2866 757.22 746.06 765.44 
2867 754.28 746.08 765.44 
2868 758.07 745.83 765.44 
2869 752.79 745.79 765.44 
2870 754.24 745.88 765.44 
2871 758.33 745.87 765.44 
2872 755.64 745.91 765.44 
2873 752.70 745.98 765.44 
2874 751.41 745.82 765.44 
2875 752.52 746.29 765.44 
2876 754.32 746.43 765.44 
2877 757.38 745.42 765.44 
2878 757.90 745.84 765.44 
2879 756.70 745.95 765.44 
2880 751.69 745.95 765.44 
2881 754.09 745.85 765.44 
2882 759.51 745.84 765.44 
2883 756.50 745.51 765.44 
2884 758.17 745.82 765.44 
2885 750.77 745.74 765.44 
2886 757.38 745.65 765.44 
2887 756.88 745.73 765.44 
2888 750.02 745.71 765.44 
2889 754.02 746.08 765.44 
2890 755.73 745.47 765.44 
2891 754.54 745.90 765.44 
2892 756.76 745.73 765.44 
2893 754.53 745.44 765.44 
2894 754.40 745.63 765.44 
2895 755.64 745.84 765.44 
2896 758.53 745.72 765.44 
2897 753.38 745.88 765.44 
2898 746.71 745.54 765.44 
2899 748.06 745.35 765.44 
2900 753.77 745.59 765.44 
2901 755.41 745.50 765.44 
2902 755.82 745.63 765.44 
2903 755.09 745.54 765.44 
2904 752.79 745.48 765.44 
2905 747.50 745.23 765.44 
2906 754.87 745.16 765.44 
2907 752.28 744.93 765.44 
2908 755.72 744.93 765.44 
2909 754.12 744.74 765.44 
2910 753.57 744.21 765.44 
2911 755.40 743.96 765.44 
2912 749.12 745.10 765.44 
2913 758.13 744.83 765.44 
2914 752.01 745.02 765.44 
2915 753.10 745.28 765.44 
2916 751.49 745.48 765.44 
2917 757.53 745.78 765.44 
2918 751.41 745.58 765.44 
2919 751.36 745.48 765.44 
2920 758.61 745.67 765.44 
2921 761.87 745.67 765.44 
2922 753.48 745.71 765.44 
2923 756.46 745.66 765.44 
2924 756.05 745.55 765.44 
2925 755.26 745.90 765.44 
2926 757.79 745.73 765.44 
2927 754.47 745.52 765.44 
2928 753.24 745.70 765.44 
2929 753.03 745.68 765.44 
2930 752.32 745.58 765.44 
2931 756.13 745.53 765.44 
2932 753.84 745.23 765.44 
2933 753.29 745.76 765.44 
2934 755.18 745.56 765.44 
2935 754.52 745.35 765.44 
2936 750.06 745.61 765.44 
2937 752.94 745.15 765.44 
2938 756.56 745.85 765.44 
2939 751.54 745.96 765.44 
2940 752.60 745.65 765.44 
2941 750.30 745.83 765.44 
2942 751.16 745.83 765.44 
2943 749.40 745.96 765.44 
2944 755.09 745.57 765.44 
2945 755.57 745.62 765.44 
2946 756.42 745.40 765.44 
2947 750.15 745.43 765.44 
2948 754.99 745.51 765.44 
2949 755.55 745.46 765.44 
2950 748.23 745.46 765.44 
2951 750.83 745.31 765.44 
2952 750.88 745.62 765.44 
2953 753.61 745.35 765.44 
2954 752.25 745.65 765.44 
2955 759.59 745.81 765.44 
2956 751.11 745.83 765.44 
2957 758.47 745.75 765.44 
2958 758.62 746.09 765.44 
2959 752.54 745.85 765.44 
2960 756.08 745.92 765.44 
2961 751.79 745.88 765.44 
2962 749.86 745.87 765.44 
2963 754.13 745.89 765.44 
2964 756.05 745.87 765.44 
2965 757.78 745.86 765.44 
2966 759.12 745.89 765.44 
2967 750.01 745.93 765.44 
2968 753.83 745.84 765.44 
2969 756.68 745.76 765.44 
2970 755.71 745.74 765.44 
2971 754.78 745.77 765.44 
2972 755.84 745.75 765.44 
2973 759.37 745.81 765.44 
2974 758.81 745.83 765.44 
2975 751.87 745.79 765.44 
2976 756.12 745.72 765.44 
2977 756.47 745.67 765.44 
2978 754.93 745.88 765.44 
2979 757.17 745.90 765.44 
2980 758.56 745.88 765.44 
2981 750.55 745.89 765.44 
2982 753.45 745.90 765.44 
2983 759.05 746.10 765.44 
2984 757.92 746.10 765.44 
2985 755.31 746.06 765.44 
2986 758.32 746.15 765.44 
2987 753.22 746.01 765.44 
2988 757.00 746.07 765.44 
2989 755.45 746.07 765.44 
2990 757.73 746.07 765.44 
2991 754.32 746.06 765.44 
2992 750.46 746.07 765.44 
2993 755.72 745.99 765.44 
2994 752.46 745.93 765.44 
2995 757.29 745.87 765.44 
2996 750.63 746.01 765.44 
2997 750.75 746.02 765.44 
2998 754.32 745.93 765.44 
2999 745.94 746.07 765.44 
3000 753.03 746.10 765.44 
3001 761.73 746.12 765.44 
3002 747.91 746.13 765.44 
3003 760.22 745.96 765.44 
3004 753.73 746.08 765.44 
3005 746.57 746.10 765.44 
3006 756.35 746.00 765.44 
3007 759.15 745.96 765.44 
3008 755.07 745.91 765.44 
3009 758.05 745.52 765.44 
3010 755.63 746.05 765.44 
3011 755.41 746.04 765.44 
3012 754.73 746.03 765.44 
3013 758.97 745.95 765.44 
3014 762.31 745.96 765.44 
3015 756.98 746.05 765.44 
3016 755.11 746.09 765.44 
3017 753.04 746.13 765.44 
3018 752.16 746.02 765.44 
3019 750.59 746.16 765.44 
3020 754.46 746.11 765.44 
3021 757.60 746.24 765.44 
3022 757.11 745.30 765.44 
3023 755.93 745.47 765.44 
3024 750.50 744.82 765.44 
3025 758.09 745.52 765.44 
3026 760.06 745.91 765.44 
3027 754.46 745.80 765.44 
3028 751.86 746.14 765.44 
3029 753.19 746.41 765.44 
3030 753.61 746.45 765.44 
3031 753.43 746.36 765.44 
3032 756.37 746.29 765.44 
3033 751.16 746.19 765.44 
3034 749.91 746.15 765.44 
3035 750.82 746.16 765.44 
3036 753.62 746.09 765.44 
3037 752.70 746.13 765.44 
3038 748.13 746.10 765.44 
3039 750.94 745.83 765.44 
3040 758.07 746.03 765.44 
3041 756.53 745.99 765.44 
3042 752.02 746.08 765.44 
3043 754.34 745.99 765.44 
3044 747.89 745.96 765.44 
3045 754.71 745.89 765.44 
3046 757.64 745.88 765.44 
3047 756.16 745.82 765.44 
3048 754.75 745.48 765.44 
3049 752.82 745.41 765.44 
3050 751.96 745.44 765.44 
3051 756.20 745.20 765.44 
3052 760.05 745.38 765.44 
3053 757.53 745.42 765.44 
3054 756.23 745.83 765.44 
3055 749.39 745.77 765.44 
3056 755.83 745.66 765.44 
3057 756.17 745.31 765.44 
3058 755.78 745.30 765.44 
3059 753.88 745.06 765.44 
3060 747.29 745.40 765.44 
3061 749.66 745.33 765.44 
3062 757.25 745.56 765.44 
3063 754.60 745.58 765.44 
3064 752.13 745.49 765.44 
3065 759.94 745.26 765.44 
3066 757.31 745.67 765.44 
3067 752.56 745.48 765.44 
3068 753.27 745.27 765.44 
3069 752.81 745.00 765.44 
3070 756.87 745.30 765.44 
3071 754.46 745.56 765.44 
3072 754.91 745.76 765.44 
3073 758.57 745.61 765.44 
3074 756.01 745.66 765.44 
3075 747.39 745.55 765.44 
3076 756.01 745.64 765.44 
3077 756.58 745.58 765.44 
3078 752.41 745.63 765.44 
3079 756.18 745.57 765.44 
3080 757.57 745.58 765.44 
3081 754.51 745.56 765.44 
3082 757.79 745.60 765.44 
3083 754.85 745.51 765.44 
3084 757.15 745.30 765.44 
3085 749.10 745.55 765.44 
3086 750.56 745.30 765.44 
3087 760.69 745.54 765.44 
3088 751.63 745.56 765.44 
3089 752.47 745.34 765.44 
3090 752.86 745.49 765.44 
3091 756.86 745.65 765.44 
3092 754.73 745.74 765.44 
3093 751.29 745.55 765.44 
3094 748.02 745.43 765.44 
3095 756.25 745.61 765.44 
3096 752.93 745.71 765.44 
3097 751.61 745.35 765.44 
3098 756.28 745.26 765.44 
3099 759.57 745.36 765.44 
3100 751.01 745.86 765.44 
3101 751.24 745.59 765.44 
3102 745.54 745.80 765.44 
3103 754.47 745.87 765.44 
3104 752.75 746.06 765.44 
3105 757.35 745.62 765.44 
3106 751.77 745.69 765.44 
3107 756.72 745.87 765.44 
3108 753.43 746.05 765.44 
3109 754.28 746.23 765.44 
3110 764.48 746.13 765.44 
3111 753.65 746.01 765.44 
3112 758.92 745.89 765.44 
3113 752.75 745.95 765.44 
3114 753.55 745.97 765.44 
3115 750.12 745.95 765.44 
3116 756.11 746.00 765.44 
3117 752.83 745.73 765.44 
3118 752.22 745.70 765.44 
3119 755.96 745.68 765.44 
3120 757.18 745.68 765.44 
3121 755.44 745.89 765.44 
3122 752.70 745.95 765.44 
3123 749.85 745.82 765.44 
3124 757.52 745.94 765.44 
3125 758.76 745.98 765.44 
3126 752.05 745.89 765.44 
3127 747.85 746.16 765.44 
3128 754.51 746.23 765.44 
3129 751.67 745.90 765.44 
3130 758.00 745.90 765.44 
3131 754.98 746.02 765.44 
3132 750.02 746.09 765.44 
3133 758.91 745.76 765.44 
3134 754.55 746.24 765.44 
3135 757.46 746.20 765.44 
3136 756.07 746.14 765.44 
3137 754.60 745.68 765.44 
3138 755.28 745.98 765.44 
3139 760.35 746.07 765.44 
3140 754.58 746.32 765.44 
3141 752.30 746.22 765.44 
3142 754.56 745.83 765.44 
3143 757.35 744.85 765.44 
3144 753.46 745.11 765.44 
3145 752.30 744.66 765.44 
3146 752.60 745.34 765.44 
3147 754.65 745.52 765.44 
3148 756.86 745.34 765.44 
3149 752.37 745.07 765.44 
3150 748.38 744.58 765.44 
3151 760.15 743.42 765.44 
3152 751.18 743.54 765.44 
3153 753.17 743.40 765.44 
3154 756.16 743.59 765.44 
3155 747.36 743.89 765.44 
3156 752.58 744.17 765.44 
3157 753.26 744.99 765.44 
3158 754.60 744.98 765.44 
3159 751.38 744.78 765.44 
3160 754.68 745.55 765.44 
3161 754.88 744.91 765.44 
3162 759.34 744.87 765.44 
3163 757.16 744.87 765.44 
3164 759.31 744.87 765.44 
3165 752.38 745.58 765.44 
3166 755.52 745.78 765.44 
3167 758.03 745.72 765.44 
3168 753.91 745.62 765.44 
3169 753.29 745.33 765.44 
3170 756.52 745.59 765.44 
3171 747.91 745.56 765.44 
3172 754.62 745.74 765.44 
3173 755.32 745.65 765.44 
3174 752.86 745.67 765.44 
3175 751.66 745.61 765.44 
3176 759.09 745.62 765.44 
3177 753.60 745.65 765.44 
3178 749.82 745.65 765.44 
3179 763.04 745.62 765.44 
3180 750.93 745.67 765.44 
3181 759.45 745.49 765.44 
3182 757.93 745.62 765.44 
3183 751.45 745.59 765.44 
3184 754.10 745.70 765.44 
3185 750.58 745.45 765.44 
3186 753.72 745.61 765.44 
3187 751.92 745.48 765.44 
3188 752.47 745.53 765.44 
3189 759.54 745.23 765.44 
3190 756.62 745.16 765.44 
3191 758.23 745.53 765.44 
3192 753.20 745.41 765.44 
3193 757.53 745.07 765.44 
3194 750.56 745.04 765.44 
3195 758.56 745.16 765.44 
3196 759.55 744.82 765.44 
3197 757.67 744.68 765.44 
3198 752.20 744.51 765.44 
3199 753.62 742.66 765.44 
3200 750.63 744.61 765.44 
3201 757.05 745.01 765.44 
3202 756.71 744.68 765.44 
3203 756.37 744.54 765.44 
3204 757.62 744.21 765.44 
3205 752.70 744.41 765.44 
3206 751.91 744.48 765.44 
3207 754.98 744.69 765.44 
3208 755.99 745.00 765.44 
3209 752.47 744.84 765.44 
3210 753.42 744.76 765.44 
3211 753.34 744.74 765.44 
3212 751.87 744.78 765.44 
3213 748.92 744.92 765.44 
3214 755.23 744.89 765.44 
3215 751.65 744.95 765.44 
3216 755.39 744.69 765.44 
3217 754.89 745.16 765.44 
3218 747.87 744.91 765.44 
3219 750.69 744.99 765.44 
3220 755.35 744.96 765.44 
3221 756.89 745.37 765.44 
3222 757.28 745.37 765.44 
3223 761.57 744.91 765.44 
3224 758.48 744.98 765.44 
3225 752.02 745.13 765.44 
3226 750.17 744.76 765.44 
3227 753.27 744.70 765.44 
3228 760.19 744.63 765.44 
3229 752.09 744.88 765.44 
3230 749.42 745.38 765.44 
3231 746.98 745.27 765.44 
3232 746.56 745.06 765.44 
3233 753.58 745.16 765.44 
3234 751.96 745.32 765.44 
3235 757.49 745.49 765.44 
3236 752.54 745.70 765.44 
3237 755.85 745.39 765.44 
3238 754.63 745.06 765.44 
3239 750.63 745.26 765.44 
3240 756.40 745.20 765.44 
3241 753.92 745.01 765.44 
3242 757.09 745.18 765.44 
3243 758.66 745.14 765.44 
3244 756.87 744.86 765.44 
3245 751.86 744.43 765.44 
3246 754.25 744.88 765.44 
3247 754.69 745.08 765.44 
3248 753.82 745.00 765.44 
3249 755.61 745.56 765.44 
3250 748.86 745.77 765.44 
3251 752.78 745.45 765.44 
3252 756.11 745.14 765.44 
3253 752.28 745.39 765.44 
3254 758.07 745.10 765.44 
3255 754.50 745.37 765.44 
3256 750.49 745.60 765.44 
3257 752.06 745.84 765.44 
3258 754.32 745.63 765.44 
3259 752.88 745.90 765.44 
3260 757.33 745.25 765.44 
3261 754.69 745.34 765.44 
3262 757.58 745.75 765.44 
3263 750.81 746.01 765.44 
3264 753.15 745.29 765.44 
3265 752.99 745.87 765.44 
3266 752.08 745.58 765.44 
3267 759.93 745.63 765.44 
3268 752.34 745.89 765.44 
3269 756.13 745.93 765.44 
3270 750.89 746.04 765.44 
3271 755.19 745.96 765.44 
3272 754.11 745.93 765.44 
3273 753.82 745.89 765.44 
3274 756.03 745.67 765.44 
3275 753.43 745.75 765.44 
3276 752.98 745.62 765.44 
3277 759.32 745.83 765.44 
3278 759.53 746.01 765.44 
3279 762.37 745.99 765.44 
3280 750.61 745.97 765.44 
3281 760.65 745.87 765.44 
3282 754.94 745.95 765.44 
3283 751.65 745.95 765.44 
3284 758.50 745.90 765.44 
3285 752.84 745.76 765.44 
3286 757.37 745.92 765.44 
3287 752.05 745.77 765.44 
3288 751.74 745.99 765.44 
3289 752.14 745.67 765.44 
3290 757.25 745.57 765.44 
3291 751.59 745.57 765.44 
3292 753.07 745.82 765.44 
3293 752.22 745.52 765.44 
3294 748.30 745.42 765.44 
3295 755.18 745.48 765.44 
3296 756.00 745.27 765.44 
3297 754.96 745.22 765.44 
3298 752.58 745.24 765.44 
3299 756.41 745.21 765.44 
3300 753.71 745.22 765.44 
3301 752.84 745.42 765.44 
3302 754.02 745.37 765.44 
3303 754.89 745.51 765.44 
3304 753.22 745.18 765.44 
3305 749.67 745.50 765.44 
3306 759.16 745.36 765.44 
3307 756.71 745.65 765.44 
3308 753.74 745.75 765.44 
3309 754.24 745.68 765.44 
3310 754.98 745.39 765.44 
3311 756.77 745.30 765.44 
3312 757.00 745.31 765.44 
3313 752.41 745.37 765.44 
3314 751.66 745.66 765.44 
3315 755.79 745.29 765.44 
3316 752.03 745.35 765.44 
3317 754.58 745.62 765.44 
3318 751.71 745.41 765.44 
3319 754.17 745.42 765.44 
3320 749.83 745.34 765.44 
3321 756.17 745.40 765.44 
3322 754.00 745.34 765.44 
3323 754.52 745.36 765.44 
3324 751.39 745.31 765.44 
3325 756.77 745.32 765.44 
3326 750.86 745.39 765.44 
3327 751.24 745.59 765.44 
3328 753.95 745.51 765.44 
3329 752.40 745.39 765.44 
3330 755.52 745.20 765.44 
3331 751.32 745.29 765.44 
3332 754.22 745.33 765.44 
3333 753.77 745.38 765.44 
3334 756.42 745.62 765.44 
3335 755.69 745.59 765.44 
3336 747.57 745.61 765.44 
3337 758.95 745.52 765.44 
3338 751.43 745.61 765.44 
3339 757.08 745.58 765.44 
3340 753.96 745.48 765.44 
3341 755.60 745.38 765.44 
3342 751.59 745.46 765.44 
3343 755.87 745.58 765.44 
3344 748.66 745.50 765.44 
3345 758.04 745.30 765.44 
3346 752.21 745.33 765.44 
3347 752.51 745.56 765.44 
3348 752.43 745.54 765.44 
3349 757.86 745.52 765.44 
3350 752.56 745.67 765.44 
3351 759.00 745.86 765.44 
3352 757.94 745.88 765.44 
3353 760.38 745.93 765.44 
3354 754.96 745.84 765.44 
3355 753.67 746.12 765.44 
3356 754.94 746.02 765.44 
3357 760.46 746.00 765.44 
3358 754.75 745.91 765.44 
3359 749.86 745.94 765.44 
3360 760.68 746.00 765.44 
3361 754.22 745.69 765.44 
3362 758.80 745.82 765.44 
3363 750.59 745.82 765.44 
3364 751.58 745.73 765.44 
3365 752.95 745.52 765.44 
3366 754.30 745.78 765.44 
3367 753.79 745.71 765.44 
3368 750.62 745.74 765.44 
3369 757.83 745.85 765.44 
3370 753.82 745.77 765.44 
3371 752.14 745.77 765.44 
3372 751.56 745.47 765.44 
3373 754.35 745.88 765.44 
3374 751.35 745.85 765.44 
3375 757.10 745.81 765.44 
3376 749.67 745.73 765.44 
3377 756.51 745.69 765.44 
3378 752.40 745.71 765.44 
3379 753.79 745.64 765.44 
3380 752.39 745.71 765.44 
3381 755.54 745.76 765.44 
3382 752.07 745.72 765.44 
3383 752.70 745.71 765.44 
3384 748.91 745.96 765.44 
3385 749.52 745.77 765.44 
3386 754.21 745.80 765.44 
3387 752.58 746.03 765.44 
3388 754.24 745.83 765.44 
3389 757.77 745.78 765.44 
3390 752.05 745.90 765.44 
3391 754.94 745.85 765.44 
3392 754.67 745.79 765.44 
3393 758.08 745.50 765.44 
3394 752.71 745.24 765.44 
3395 751.15 745.67 765.44 
3396 753.67 745.93 765.44 
3397 757.44 745.69 765.44 
3398 756.28 745.87 765.44 
3399 757.84 745.10 765.44 
3400 753.42 745.18 765.44 
3401 757.54 745.17 765.44 
3402 755.10 744.42 765.44 
3403 754.99 743.27 765.44 
3404 752.44 744.12 765.44 
3405 757.68 745.01 765.44 
3406 759.42 745.14 765.44 
3407 752.77 745.65 765.44 
3408 750.89 745.46 765.44 
3409 754.47 745.63 765.44 
3410 752.99 745.68 765.44 
3411 756.76 745.67 765.44 
3412 757.05 745.79 765.44 
3413 758.35 745.67 765.44 
3414 749.52 745.85 765.44 
3415 752.62 745.62 765.44 
3416 754.10 745.66 765.44 
3417 751.64 745.39 765.44 
3418 757.05 745.59 765.44 
3419 752.86 745.55 765.44 
3420 757.84 745.49 765.44 
3421 753.34 745.47 765.44 
3422 750.92 745.97 765.44 
3423 756.27 745.61 765.44 
3424 755.71 745.69 765.44 
3425 755.84 745.76 765.44 
3426 756.42 745.76 765.44 
3427 758.44 745.72 765.44 
3428 758.44 745.65 765.44 
3429 755.30 745.74 765.44 
3430 755.04 745.68 765.44 
3431 754.78 745.76 765.44 
3432 753.55 745.68 765.44 
3433 750.20 745.66 765.44 
3434 753.54 745.72 765.44 
3435 761.15 745.66 765.44 
3436 750.13 745.80 765.44 
3437 760.21 745.78 765.44 
3438 754.76 745.90 765.44 
3439 755.99 745.81 765.44 
3440 757.21 745.87 765.44 
3441 762.19 745.52 765.44 
3442 760.21 745.12 765.44 
3443 756.43 745.41 765.44 
3444 752.12 745.41 765.44 
3445 754.93 745.16 765.44 
3446 754.07 745.48 765.44 
3447 753.03 745.56 765.44 
3448 759.96 745.37 765.44 
3449 754.75 745.51 765.44 
3450 757.24 745.62 765.44 
3451 755.07 745.58 765.44 
3452 753.97 745.69 765.44 
3453 754.01 745.59 765.44 
3454 752.26 745.56 765.44 
3455 758.80 745.47 765.44 
3456 756.96 745.43 765.44 
3457 757.77 745.66 765.44 
3458 757.34 745.67 765.44 
3459 751.88 745.65 765.44 
3460 754.40 745.60 765.44 
3461 753.44 745.64 765.44 
3462 759.49 745.60 765.44 
3463 756.95 745.56 765.44 
3464 754.65 745.60 765.44 
3465 753.73 745.65 765.44 
3466 757.61 745.64 765.44 
3467 755.36 745.68 765.44 
3468 750.69 745.66 765.44 
3469 748.39 745.68 765.44 
3470 758.11 745.65 765.44 
3471 752.21 745.72 765.44 
3472 754.63 745.69 765.44 
3473 751.98 745.59 765.44 
3474 755.20 745.59 765.44 
3475 754.64 745.61 765.44 
3476 757.45 745.61 765.44 
3477 759.87 745.59 765.44 
3478 750.66 745.70 765.44 
3479 756.57 745.67 765.44 
3480 751.10 745.74 765.44 
3481 758.31 745.75 765.44 
3482 757.43 745.73 765.44 
3483 754.88 745.68 765.44 
3484 753.12 745.56 765.44 
3485 748.62 745.48 765.44 
3486 751.34 745.47 765.44 
3487 756.75 745.56 765.44 
3488 756.19 745.51 765.44 
3489 752.01 745.56 765.44 
3490 753.43 745.83 765.44 
3491 756.83 745.73 765.44 
3492 751.81 745.80 765.44 
3493 756.30 745.06 765.44 
3494 753.20 745.68 765.44 
3495 757.54 745.74 765.44 
3496 755.21 745.55 765.44 
3497 755.46 745.54 765.44 
3498 749.68 745.58 765.44 
3499 756.06 745.35 765.44 
3500 750.95 745.60 765.44 
3501 754.66 745.71 765.44 
3502 753.89 745.16 765.44 
3503 750.60 744.87 765.44 
3504 755.16 745.85 765.44 
3505 754.13 745.78 765.44 
3506 759.42 745.51 765.44 
3507 749.16 745.50 765.44 
3508 755.20 745.43 765.44 
3509 753.37 745.42 765.44 
3510 757.34 745.17 765.44 
3511 752.32 745.39 765.44 
3512 758.97 745.03 765.44 
3513 757.47 744.45 765.44 
3514 749.37 744.85 765.44 
3515 750.04 744.90 765.44 
3516 754.81 744.86 765.44 
3517 752.56 744.47 765.44 
3518 751.38 744.87 765.44 
3519 754.69 744.72 765.44 
3520 752.29 745.63 765.44 
3521 753.36 745.35 765.44 
3522 758.69 745.21 765.44 
3523 755.04 744.74 765.44 
3524 753.81 744.58 765.44 
3525 752.57 744.91 765.44 
3526 750.52 744.75 765.44 
3527 754.37 744.72 765.44 
3528 758.02 744.58 765.44 
3529 753.89 744.42 765.44 
3530 755.28 745.05 765.44 
3531 757.58 744.74 765.44 
3532 751.17 744.68 765.44 
3533 749.87 744.67 765.44 
3534 753.50 744.61 765.44 
3535 750.21 744.92 765.44 
3536 756.13 744.93 765.44 
3537 754.92 744.79 765.44 
3538 747.59 744.87 765.44 
3539 749.39 745.03 765.44 
3540 754.09 744.89 765.44 
3541 758.34 744.97 765.44 
3542 750.08 745.17 765.44 
3543 753.60 745.04 765.44 
3544 753.12 745.08 765.44 
3545 755.85 744.83 765.44 
3546 752.97 744.59 765.44 
3547 753.37 744.95 765.44 
3548 755.93 744.97 765.44 
3549 754.12 744.41 765.44 
3550 757.94 744.48 765.44 
3551 757.48 744.48 765.44 
3552 757.59 744.07 765.44 
3553 755.01 744.71 765.44 
3554 758.28 744.44 765.44 
3555 754.02 744.77 765.44 
3556 751.97 744.85 765.44 
3557 756.36 745.05 765.44 
3558 755.85 744.92 765.44 
3559 758.32 745.15 765.44 
3560 754.01 744.97 765.44 
3561 750.76 745.28 765.44 
3562 752.94 745.32 765.44 
3563 753.90 745.49 765.44 
3564 762.78 745.45 765.44 
3565 751.76 745.49 765.44 
3566 752.85 745.53 765.44 
3567 751.10 745.45 765.44 
3568 748.95 745.04 765.44 
3569 750.82 745.55 765.44 
3570 759.82 745.61 765.44 
3571 755.75 745.42 765.44 
3572 754.38 745.46 765.44 
3573 754.29 745.47 765.44 
3574 755.99 745.17 765.44 
3575 755.49 745.49 765.44 
3576 751.96 745.49 765.44 
3577 749.96 745.40 765.44 
3578 753.29 745.60 765.44 
3579 751.25 745.43 765.44 
3580 757.26 745.43 765.44 
3581 753.81 745.20 765.44 
3582 756.80 745.37 765.44 
3583 754.91 745.35 765.44 
3584 752.15 745.23 765.44 
3585 758.35 745.25 765.44 
3586 753.69 745.12 765.44 
3587 756.13 745.23 765.44 
3588 756.41 745.64 765.44 
3589 751.35 745.68 765.44 
3590 753.37 745.58 765.44 
3591 756.18 745.55 765.44 
3592 755.74 745.55 765.44 
3593 754.68 745.54 765.44 
3594 750.10 745.54 765.44 
3595 755.07 745.60 765.44 
3596 755.38 745.74 765.44 
3597 755.10 745.71 765.44 
3598 753.77 745.63 765.44 
3599 749.08 745.69 765.44 
3600 763.56 745.54 765.44 
3601 757.56 745.55 765.44 
3602 757.12 746.03 765.44 
3603 756.52 745.85 765.44 
3604 752.56 745.83 765.44 
3605 755.85 745.76 765.44 
3606 752.10 745.78 765.44 
3607 752.11 745.87 765.44 
3608 754.37 745.93 765.44 
3609 751.92 745.95 765.44 
3610 752.89 745.85 765.44 
3611 745.82 745.59 765.44 
3612 752.15 745.55 765.44 
3613 755.23 745.57 765.44 
3614 755.26 745.75 765.44 
3615 752.29 745.65 765.44 
3616 749.49 745.59 765.44 
3617 753.23 745.67 765.44 
3618 760.75 745.05 765.44 
3619 751.24 744.47 765.44 
3620 755.43 744.88 765.44 
3621 754.18 743.15 765.44 
3622 755.15 743.79 765.44 
3623 756.74 744.35 765.44 
3624 751.93 745.30 765.44 
3625 754.02 745.11 765.44 
3626 753.01 744.94 765.44 
3627 753.72 745.77 765.44 
3628 756.98 745.74 765.44 
3629 753.89 745.80 765.44 
3630 752.09 745.82 765.44 
3631 755.21 745.45 765.44 
3632 762.99 745.75 765.44 
3633 753.55 745.76 765.44 
3634 751.77 745.76 765.44 
3635 757.48 745.33 765.44 
3636 752.04 745.72 765.44 
3637 751.85 745.67 765.44 
3638 754.57 745.44 765.44 
3639 749.94 745.22 765.44 
3640 748.78 744.57 765.44 
3641 753.54 745.19 765.44 
3642 754.46 745.20 765.44 
3643 763.38 745.76 765.44 
3644 750.80 745.63 765.44 
3645 752.56 745.34 765.44 
3646 747.90 744.70 765.44 
3647 755.37 745.67 765.44 
3648 756.39 745.93 765.44 
3649 751.01 746.00 765.44 
3650 753.67 745.47 765.44 
3651 756.10 744.77 765.44 
3652 755.99 745.36 765.44 
3653 754.99 744.20 765.44 
3654 752.87 744.04 765.44 
3655 750.98 745.85 765.44 
3656 752.63 745.46 765.44 
3657 754.84 745.82 765.44 
3658 754.55 745.91 765.44 
3659 753.32 745.94 765.44 
3660 752.27 745.95 765.44 
3661 748.97 745.98 765.44 
3662 747.11 745.89 765.44 
3663 751.66 745.96 765.44 
3664 751.57 745.89 765.44 
3665 755.15 745.90 765.44 
3666 751.95 745.45 765.44 
3667 753.84 745.76 765.44 
3668 757.82 745.91 765.44 
3669 753.06 745.93 765.44 
3670 753.63 745.96 765.44 
3671 756.14 745.81 765.44 
3672 746.66 743.89 765.44 
3673 757.24 744.71 765.44 
3674 756.99 745.09 765.44 
3675 746.68 744.99 765.44 
3676 756.53 743.59 765.44 
3677 748.41 743.22 765.44 
3678 753.40 743.62 765.44 
3679 751.25 743.63 765.44 
3680 750.62 743.73 765.44 
3681 755.25 743.52 765.44 
3682 754.31 744.06 765.44 
3683 754.64 743.58 765.44 
3684 758.69 744.40 765.44 
3685 754.52 743.46 765.44 
3686 757.20 744.61 765.44 
3687 754.90 744.01 765.44 
3688 749.41 744.04 765.44 
3689 747.05 744.23 765.44 
3690 753.56 744.65 765.44 
3691 750.75 744.93 765.44 
3692 751.69 745.17 765.44 
3693 750.53 744.78 765.44 
3694 758.26 745.59 765.44 
3695 755.02 745.54 765.44 
3696 756.01 745.15 765.44 
3697 756.78 745.30 765.44 
3698 758.25 745.63 765.44 
3699 755.86 745.38 765.44 
3700 751.25 745.52 765.44 
3701 758.80 744.97 765.44 
3702 755.81 745.75 765.44 
3703 755.13 745.54 765.44 
3704 751.66 745.38 765.44 
3705 752.14 745.41 765.44 
3706 752.10 745.55 765.44 
3707 752.07 745.54 765.44 
3708 759.70 744.68 765.44 
3709 754.99 744.68 765.44 
3710 758.31 744.37 765.44 
3711 757.09 744.21 765.44 
3712 753.84 743.95 765.44 
3713 751.41 744.06 765.44 
3714 748.52 744.03 765.44 
3715 748.93 744.00 765.44 
3716 754.12 743.69 765.44 
3717 753.76 744.27 765.44 
3718 753.07 744.13 765.44 
3719 758.11 743.85 765.44 
3720 759.28 743.80 765.44 
3721 750.45 743.99 765.44 
3722 758.60 743.70 765.44 
3723 760.23 743.89 765.44 
3724 750.09 743.62 765.44 
3725 756.31 743.65 765.44 
3726 752.28 743.99 765.44 
3727 749.91 744.01 765.44 
3728 752.28 744.15 765.44 
3729 756.29 744.34 765.44 
3730 754.02 744.04 765.44 
3731 754.18 743.16 765.44 
3732 748.85 743.77 765.44 
3733 752.48 743.82 765.44 
3734 751.85 744.12 765.44 
3735 755.72 744.35 765.44 
3736 754.30 744.76 765.44 
3737 751.04 744.75 765.44 
3738 756.05 744.24 765.44 
3739 753.25 744.86 765.44 
3740 755.95 744.74 765.44 
3741 752.22 744.91 765.44 
3742 754.44 744.25 765.44 
3743 756.04 744.49 765.44 
3744 753.52 744.58 765.44 
3745 753.69 744.86 765.44 
3746 751.15 745.06 765.44 
3747 756.12 744.43 765.44 
3748 750.05 745.13 765.44 
3749 756.71 745.47 765.44 
3750 753.64 745.06 765.44 
3751 754.90 745.38 765.44 
3752 752.11 745.25 765.44 
3753 756.20 745.36 765.44 
3754 753.50 745.33 765.44 
3755 749.36 745.50 765.44 
3756 754.01 745.52 765.44 
3757 751.83 745.68 765.44 
3758 754.78 745.51 765.44 
3759 755.04 745.40 765.44 
3760 754.52 745.54 765.44 
3761 752.57 745.52 765.44 
3762 753.59 745.60 765.44 
3763 754.45 745.47 765.44 
3764 752.84 745.56 765.44 
3765 752.38 745.41 765.44 
3766 755.89 745.33 765.44 
3767 754.43 745.64 765.44 
3768 756.65 745.45 765.44 
3769 750.93 744.16 765.44 
3770 755.24 743.29 765.44 
3771 751.15 742.49 765.44 
3772 748.77 742.57 765.44 
3773 756.03 742.74 765.44 
3774 748.37 743.22 765.44 
3775 750.31 743.40 765.44 
3776 753.93 743.32 765.44 
3777 759.29 743.38 765.44 
3778 750.95 744.07 765.44 
3779 755.31 744.17 765.44 
3780 752.61 745.26 765.44 
3781 752.69 745.09 765.44 
3782 750.70 744.23 765.44 
3783 756.52 744.51 765.44 
3784 749.86 744.80 765.44 
3785 756.83 744.67 765.44 
3786 756.21 744.04 765.44 
3787 751.49 743.96 765.44 
3788 755.99 743.91 765.44 
3789 748.97 743.71 765.44 
3790 755.08 743.79 765.44 
3791 746.41 743.80 765.44 
3792 753.16 743.86 765.44 
3793 759.09 744.45 765.44 
3794 751.34 744.61 765.44 
3795 758.23 744.95 765.44 
3796 758.66 745.06 765.44 
3797 754.19 745.07 765.44 
3798 757.97 745.16 765.44 
3799 761.16 745.18 765.44 
3800 755.12 745.21 765.44 
3801 753.37 745.12 765.44 
3802 757.04 744.93 765.44 
3803 758.92 745.22 765.44 
3804 752.07 745.16 765.44 
3805 751.07 745.10 765.44 
3806 750.29 745.13 765.44 
3807 752.99 745.22 765.44 
3808 756.81 745.28 765.44 
3809 751.09 745.33 765.44 
3810 755.58 745.34 765.44 
3811 755.05 745.19 765.44 
3812 748.87 744.69 765.44 
3813 754.43 745.50 765.44 
3814 756.07 745.45 765.44 
3815 757.57 745.65 765.44 
3816 755.37 745.82 765.44 
3817 754.04 745.68 765.44 
3818 753.19 745.61 765.44 
3819 757.07 745.44 765.44 
3820 753.15 745.47 765.44 
3821 758.42 745.59 765.44 
3822 753.86 745.41 765.44 
3823 758.09 745.46 765.44 
3824 756.86 745.57 765.44 
3825 751.60 745.64 765.44 
3826 752.57 745.21 765.44 
3827 751.07 745.29 765.44 
3828 756.78 745.23 765.44 
3829 755.32 745.54 765.44 
3830 758.61 745.45 765.44 
3831 753.50 745.45 765.44 
3832 762.42 745.29 765.44 
3833 758.83 745.16 765.44 
3834 755.89 745.18 765.44 
3835 750.91 745.05 765.44 
3836 751.13 745.87 765.44 
3837 754.04 745.36 765.44 
3838 751.56 746.09 765.44 
3839 754.55 746.02 765.44 
3840 756.79 745.29 765.44 
3841 755.65 744.58 765.44 
3842 756.79 745.16 765.44 
3843 756.82 745.22 765.44 
3844 754.24 744.96 765.44 
3845 754.59 745.22 765.44 
3846 754.62 745.45 765.44 
3847 753.00 745.56 765.44 
3848 750.39 745.78 765.44 
3849 752.35 745.51 765.44 
3850 754.54 745.56 765.44 
3851 750.76 745.70 765.44 
3852 750.46 745.75 765.44 
3853 756.82 745.85 765.44 
3854 761.05 745.72 765.44 
3855 758.65 745.74 765.44 
3856 752.41 745.34 765.44 
3857 756.26 744.85 765.44 
3858 755.73 744.94 765.44 
3859 754.56 745.30 765.44 
3860 758.08 745.36 765.44 
3861 756.11 745.33 765.44 
3862 757.61 745.55 765.44 
3863 757.84 745.32 765.44 
3864 749.52 745.42 765.44 
3865 758.01 745.39 765.44 
3866 752.08 745.46 765.44 
3867 755.16 745.19 765.44 
3868 753.68 745.12 765.44 
3869 753.28 745.15 765.44 
3870 754.85 744.83 765.44 
3871 752.97 745.27 765.44 
3872 752.64 744.97 765.44 
3873 754.07 744.99 765.44 
3874 754.83 744.67 765.44 
3875 755.86 744.89 765.44 
3876 755.38 744.40 765.44 
3877 753.16 743.57 765.44 
3878 753.99 744.33 765.44 
3879 755.02 744.67 765.44 
3880 754.67 745.21 765.44 
3881 758.95 745.29 765.44 
3882 751.10 745.76 765.44 
3883 751.77 745.37 765.44 
3884 756.82 744.71 765.44 
3885 753.49 744.95 765.44 
3886 754.07 745.11 765.44 
3887 753.74 744.92 765.44 
3888 753.41 744.41 765.44 
3889 757.33 744.51 765.44 
3890 758.09 743.92 765.44 
3891 749.92 744.39 765.44 
3892 749.45 744.26 765.44 
3893 754.36 744.71 765.44 
3894 751.95 745.05 765.44 
3895 752.37 744.55 765.44 
3896 754.68 744.28 765.44 
3897 753.15 744.18 765.44 
3898 756.39 743.98 765.44 
3899 750.95 744.64 765.44 
3900 758.81 744.22 765.44 
3901 752.76 745.02 765.44 
3902 759.08 745.23 765.44 
3903 754.72 745.09 765.44 
3904 755.32 744.78 765.44 
3905 759.73 744.98 765.44 
3906 752.65 744.67 765.44 
3907 753.43 744.52 765.44 
3908 751.72 744.45 765.44 
3909 756.08 744.41 765.44 
3910 754.83 744.67 765.44 
3911 750.05 744.11 765.44 
3912 753.98 744.36 765.44 
3913 756.38 744.12 765.44 
3914 753.45 744.02 765.44 
3915 753.12 743.34 765.44 
3916 753.63 743.42 765.44 
3917 747.31 743.44 765.44 
3918 754.19 743.36 765.44 
3919 754.10 743.75 765.44 
3920 749.08 743.55 765.44 
3921 757.66 743.48 765.44 
3922 750.93 743.22 765.44 
3923 753.76 743.59 765.44 
3924 754.20 743.01 765.44 
3925 751.34 743.54 765.44 
3926 753.19 743.64 765.44 
3927 753.77 743.88 765.44 
3928 747.74 744.19 765.44 
3929 756.31 744.37 765.44 
3930 756.18 744.52 765.44 
3931 753.89 743.63 765.44 
3932 758.10 744.39 765.44 
3933 753.18 744.27 765.44 
3934 751.59 744.71 765.44 
3935 753.94 744.62 765.44 
3936 753.22 744.64 765.44 
3937 752.71 745.18 765.44 
3938 757.94 745.07 765.44 
3939 756.40 744.47 765.44 
3940 752.12 745.00 765.44 
3941 756.61 744.94 765.44 
3942 754.95 745.55 765.44 
3943 753.98 745.49 765.44 
3944 756.29 745.80 765.44 
3945 752.87 746.13 765.44 
3946 762.57 746.05 765.44 
3947 758.45 746.17 765.44 
3948 755.14 745.96 765.44 
3949 751.36 746.28 765.44 
3950 758.65 746.26 765.44 
3951 759.40 746.42 765.44 
3952 752.61 746.76 765.44 
3953 756.84 746.70 765.44 
3954 756.02 746.67 765.44 
3955 754.05 746.74 765.44 
3956 752.37 746.60 765.44 
3957 753.74 746.45 765.44 
3958 749.57 746.59 765.44 
3959 750.14 746.32 765.44 
3960 753.09 746.41 765.44 
3961 755.87 746.27 765.44 
3962 754.33 746.93 765.44 
3963 757.06 746.78 765.44 
3964 754.81 747.18 765.44 
3965 759.59 746.92 765.44 
3966 756.39 746.82 765.44 
3967 753.09 746.78 765.44 
3968 749.86 746.32 765.44 
3969 757.06 746.44 765.44 
3970 754.65 746.46 765.44 
3971 757.34 746.36 765.44 
3972 758.09 746.02 765.44 
3973 751.25 745.67 765.44 
3974 756.88 745.59 765.44 
3975 752.90 745.59 765.44 
3976 749.52 745.89 765.44 
3977 748.56 745.42 765.44 
3978 753.58 745.32 765.44 
3979 753.07 745.16 765.44 
3980 754.14 745.26 765.44 
3981 757.64 744.79 765.44 
3982 751.25 744.73 765.44 
3983 756.81 744.49 765.44 
3984 753.29 745.19 765.44 
3985 751.54 744.50 765.44 
3986 756.41 744.48 765.44 
3987 754.83 744.51 765.44 
3988 753.20 744.52 765.44 
3989 766.17 744.52 765.44 
3990 751.25 744.33 766.17 
3991 752.85 744.45 766.17 
3992 754.70 745.07 766.17 
3993 752.87 744.97 766.17 
3994 755.04 744.12 766.17 
3995 753.92 744.72 766.17 
3996 755.31 744.86 766.17 
3997 763.32 745.10 766.17 
3998 756.91 745.22 766.17 
3999 756.49 745.68 766.17 
4000 750.06 745.99 766.17 
4001 758.01 745.75 766.17 
4002 756.82 745.79 766.17 
4003 750.40 746.01 766.17 
4004 752.59 745.53 766.17 
4005 756.66 745.49 766.17 
4006 750.78 745.28 766.17 
4007 761.73 745.91 766.17 
4008 755.90 745.77 766.17 
4009 755.44 745.83 766.17 
4010 747.63 746.46 766.17 
4011 752.16 746.18 766.17 
4012 753.43 746.32 766.17 
4013 758.51 746.63 766.17 
4014 753.33 746.49 766.17 
4015 759.50 746.05 766.17 
4016 756.51 746.23 766.17 
4017 759.22 746.15 766.17 
4018 752.11 746.37 766.17 
4019 761.08 746.77 766.17 
4020 752.88 746.65 766.17 
4021 754.88 746.67 766.17 
4022 754.47 746.91 766.17 
4023 754.05 747.09 766.17 
4024 754.47 747.02 766.17 
4025 757.78 746.54 766.17 
4026 756.09 747.16 766.17 
4027 756.01 746.89 766.17 
4028 761.50 746.61 766.17 
4029 750.90 746.69 766.17 
4030 754.96 747.06 766.17 
4031 753.95 747.12 766.17 
4032 757.04 747.20 766.17 
4033 751.94 747.17 766.17 
4034 750.30 747.21 766.17 
4035 752.97 746.87 766.17 
4036 748.86 746.60 766.17 
4037 754.00 746.63 766.17 
4038 756.44 746.30 766.17 
4039 751.20 746.56 766.17 
4040 755.10 746.13 766.17 
4041 756.54 746.13 766.17 
4042 756.87 746.10 766.17 
4043 756.95 746.37 766.17 
4044 750.00 746.52 766.17 
4045 753.19 746.76 766.17 
4046 757.75 746.67 766.17 
4047 754.47 746.58 766.17 
4048 757.02 746.63 766.17 
4049 759.33 746.62 766.17 
4050 758.01 746.35 766.17 
4051 753.67 746.53 766.17 
4052 753.96 747.06 766.17 
4053 752.62 746.58 766.17 
4054 752.80 746.62 766.17 
4055 757.16 747.06 766.17 
4056 752.70 746.99 766.17 
4057 752.72 746.64 766.17 
4058 755.80 746.82 766.17 
4059 754.40 746.55 766.17 
4060 752.30 746.81 766.17 
4061 752.71 746.99 766.17 
4062 749.01 747.17 766.17 
4063 759.48 747.40 766.17 
4064 753.27 747.07 766.17 
4065 761.80 747.14 766.17 
4066 755.61 747.39 766.17 
4067 753.01 747.52 766.17 
4068 756.91 747.50 766.17 
4069 757.03 747.42 766.17 
4070 754.69 747.78 766.17 
4071 750.84 747.70 766.17 
4072 753.42 747.87 766.17 
4073 750.78 747.82 766.17 
4074 755.70 747.59 766.17 
4075 756.36 747.72 766.17 
4076 760.96 747.66 766.17 
4077 749.45 747.43 766.17 
4078 752.99 747.84 766.17 
4079 754.47 747.96 766.17 
4080 759.65 747.81 766.17 
4081 751.69 748.07 766.17 
4082 756.53 747.98 766.17 
4083 755.06 747.81 766.17 
4084 755.74 747.60 766.17 
4085 755.55 747.85 766.17 
4086 756.17 747.62 766.17 
4087 755.27 747.32 766.17 
4088 752.73 747.00 766.17 
4089 754.09 747.32 766.17 
4090 758.86 747.87 766.17 
4091 754.62 747.65 766.17 
4092 754.54 747.65 766.17 
4093 757.38 747.54 766.17 
4094 757.36 747.37 766.17 
4095 760.64 747.28 766.17 
4096 760.88 747.29 766.17 
4097 757.04 747.21 766.17 
4098 758.89 747.02 766.17 
4099 757.93 747.13 766.17 
4100 751.43 747.03 766.17 
4101 754.38 747.00 766.17 
4102 759.28 747.25 766.17 
4103 751.06 747.48 766.17 
4104 757.33 747.30 766.17 
4105 751.45 747.32 766.17 
4106 749.01 747.52 766.17 
4107 755.57 747.47 766.17 
4108 750.94 747.58 766.17 
4109 749.82 747.55 766.17 
4110 746.96 747.64 766.17 
4111 751.17 747.74 766.17 
4112 754.24 747.69 766.17 
4113 756.23 747.69 766.17 
4114 755.44 747.94 766.17 
4115 756.45 747.83 766.17 
4116 756.95 747.86 766.17 
4117 753.87 748.09 766.17 
4118 750.68 748.18 766.17 
4119 755.41 747.88 766.17 
4120 758.83 748.16 766.17 
4121 752.33 747.99 766.17 
4122 753.18 748.80 766.17 
4123 754.47 748.95 766.17 
4124 756.54 748.70 766.17 
4125 754.72 748.37 766.17 
4126 752.97 748.56 766.17 
4127 755.69 748.66 766.17 
4128 755.43 748.61 766.17 
4129 752.54 748.51 766.17 
4130 759.11 748.30 766.17 
4131 746.59 748.07 766.17 
4132 756.85 747.66 766.17 
4133 752.00 747.54 766.17 
4134 753.46 747.68 766.17 
4135 758.77 747.96 766.17 
4136 754.25 747.58 766.17 
4137 752.39 747.37 766.17 
4138 752.88 747.44 766.17 
4139 754.42 747.81 766.17 
4140 760.20 746.45 766.17 
4141 757.68 747.18 766.17 
4142 749.79 747.41 766.17 
4143 758.15 747.60 766.17 
4144 751.72 748.40 766.17 
4145 751.51 748.27 766.17 
4146 752.87 747.89 766.17 
4147 752.25 747.62 766.17 
4148 762.92 747.50 766.17 
4149 755.15 747.97 766.17 
4150 756.29 748.20 766.17 
4151 751.85 748.35 766.17 
4152 758.14 748.18 766.17 
4153 749.79 748.01 766.17 
4154 760.47 748.70 766.17 
4155 753.65 748.64 766.17 
4156 759.93 748.66 766.17 
4157 750.86 748.48 766.17 
4158 755.79 748.35 766.17 
4159 749.71 748.08 766.17 
4160 754.40 747.88 766.17 
4161 758.93 747.69 766.17 
4162 756.27 748.07 766.17 
4163 761.26 748.13 766.17 
4164 757.57 748.05 766.17 
4165 752.33 747.83 766.17 
4166 756.16 747.09 766.17 
4167 756.08 747.25 766.17 
4168 755.81 747.07 766.17 
4169 754.79 747.18 766.17 
4170 749.70 746.92 766.17 
4171 759.30 746.03 766.17 
4172 754.76 746.83 766.17 
4173 754.89 745.69 766.17 
4174 759.89 745.67 766.17 
4175 756.68 746.23 766.17 
4176 756.10 746.99 766.17 
4177 755.19 747.25 766.17 
4178 754.97 746.86 766.17 
4179 752.63 746.82 766.17 
4180 760.33 746.78 766.17 
4181 762.45 746.77 766.17 
4182 752.82 747.15 766.17 
4183 754.44 746.91 766.17 
4184 757.73 746.79 766.17 
4185 752.78 746.74 766.17 
4186 757.27 746.89 766.17 
4187 758.59 746.89 766.17 
4188 761.84 746.92 766.17 
4189 755.04 746.65 766.17 
4190 756.70 746.53 766.17 
4191 753.47 746.46 766.17 
4192 758.86 746.44 766.17 
4193 754.04 746.17 766.17 
4194 753.65 746.34 766.17 
4195 749.14 746.35 766.17 
4196 758.89 745.99 766.17 
4197 749.76 746.06 766.17 
4198 758.05 746.19 766.17 
4199 754.76 746.15 766.17 
4200 753.14 746.28 766.17 
4201 757.44 746.41 766.17 
4202 756.53 746.26 766.17 
4203 747.00 746.17 766.17 
4204 746.50 746.32 766.17 
4205 755.72 746.39 766.17 
4206 755.31 746.46 766.17 
4207 759.31 746.73 766.17 
4208 758.90 746.72 766.17 
4209 756.31 746.69 766.17 
4210 751.08 746.62 766.17 
4211 751.28 746.49 766.17 
4212 754.47 746.36 766.17 
4213 753.52 746.56 766.17 
4214 751.83 746.78 766.17 
4215 751.26 746.66 766.17 
4216 754.03 746.75 766.17 
4217 754.56 747.06 766.17 
4218 752.44 746.59 766.17 
4219 762.02 746.55 766.17 
4220 749.23 746.38 766.17 
4221 752.67 746.51 766.17 
4222 754.77 746.09 766.17 
4223 759.88 745.95 766.17 
4224 757.43 746.04 766.17 
4225 752.45 746.04 766.17 
4226 756.34 746.26 766.17 
4227 754.49 746.41 766.17 
4228 758.47 746.33 766.17 
4229 753.10 746.29 766.17 
4230 758.04 746.04 766.17 
4231 755.00 746.52 766.17 
4232 754.48 746.69 766.17 
4233 756.82 746.58 766.17 
4234 751.61 746.81 766.17 
4235 753.92 746.58 766.17 
4236 751.09 746.70 766.17 
4237 757.64 746.76 766.17 
4238 755.33 746.93 766.17 
4239 751.65 746.76 766.17 
4240 755.82 746.78 766.17 
4241 758.75 746.74 766.17 
4242 758.79 746.67 766.17 
4243 753.02 746.74 766.17 
4244 753.41 746.75 766.17 
4245 755.63 746.49 766.17 
4246 756.22 746.51 766.17 
4247 762.49 746.25 766.17 
4248 752.93 746.63 766.17 
4249 755.58 746.88 766.17 
4250 758.84 746.32 766.17 
4251 754.65 746.67 766.17 
4252 753.53 746.65 766.17 
4253 754.82 746.50 766.17 
4254 751.77 746.07 766.17 
4255 753.48 746.05 766.17 
4256 759.45 745.89 766.17 
4257 751.00 746.01 766.17 
4258 755.91 746.30 766.17 
4259 759.18 746.21 766.17 
4260 755.66 746.32 766.17 
4261 757.07 746.33 766.17 
4262 760.58 746.32 766.17 
4263 754.80 746.52 766.17 
4264 754.91 746.73 766.17 
4265 755.43 746.36 766.17 
4266 755.85 746.73 766.17 
4267 753.87 746.45 766.17 
4268 759.85 746.41 766.17 
4269 758.60 746.36 766.17 
4270 759.02 746.56 766.17 
4271 751.25 746.38 766.17 
4272 760.57 746.50 766.17 
4273 751.47 746.68 766.17 
4274 757.32 746.60 766.17 
4275 756.54 746.61 766.17 
4276 755.78 746.51 766.17 
4277 752.75 746.44 766.17 
4278 751.58 747.02 766.17 
4279 749.43 747.13 766.17 
4280 754.81 746.71 766.17 
4281 757.72 746.75 766.17 
4282 759.11 746.73 766.17 
4283 759.12 746.20 766.17 
4284 755.50 746.35 766.17 
4285 758.53 746.03 766.17 
4286 758.05 746.62 766.17 
4287 749.12 746.29 766.17 
4288 751.79 746.49 766.17 
4289 751.80 745.65 766.17 
4290 763.00 745.84 766.17 
4291 750.31 745.68 766.17 
4292 762.71 745.61 766.17 
4293 749.09 745.44 766.17 
4294 748.85 745.73 766.17 
4295 753.29 745.57 766.17 
4296 753.65 745.42 766.17 
4297 753.05 745.81 766.17 
4298 750.30 745.91 766.17 
4299 752.14 746.02 766.17 
4300 757.56 746.02 766.17 
4301 752.36 745.94 766.17 
4302 754.49 745.71 766.17 
4303 756.35 745.92 766.17 
4304 752.62 745.82 766.17 
4305 758.30 746.09 766.17 
4306 753.38 746.05 766.17 
4307 757.97 746.33 766.17 
4308 758.36 746.34 766.17 
4309 750.26 746.81 766.17 
4310 756.02 746.48 766.17 
4311 755.35 746.23 766.17 
4312 759.50 746.25 766.17 
4313 757.23 746.10 766.17 
4314 755.83 746.31 766.17 
4315 757.97 746.20 766.17 
4316 756.67 746.35 766.17 
4317 758.03 746.41 766.17 
4318 755.46 746.66 766.17 
4319 757.53 746.54 766.17 
4320 756.13 746.89 766.17 
4321 759.20 746.99 766.17 
4322 751.22 746.64 766.17 
4323 753.06 746.78 766.17 
4324 755.92 746.30 766.17 
4325 750.45 746.19 766.17 
4326 758.78 746.67 766.17 
4327 755.71 746.53 766.17 
4328 751.16 746.59 766.17 
4329 753.83 746.46 766.17 
4330 750.43 746.78 766.17 
4331 755.21 746.55 766.17 
4332 755.64 746.68 766.17 
4333 756.46 746.39 766.17 
4334 755.15 746.30 766.17 
4335 752.57 746.91 766.17 
4336 756.58 746.70 766.17 
4337 760.10 747.12 766.17 
4338 757.79 747.00 766.17 
4339 758.65 747.18 766.17 
4340 753.45 747.07 766.17 
4341 753.85 747.50 766.17 
4342 757.24 747.66 766.17 
4343 753.75 747.89 766.17 
4344 758.74 747.45 766.17 
4345 752.57 747.45 766.17 
4346 748.62 747.47 766.17 
4347 759.44 747.50 766.17 
4348 752.29 747.53 766.17 
4349 749.91 747.51 766.17 
4350 758.31 747.70 766.17 
4351 751.49 747.70 766.17 
4352 753.19 747.74 766.17 
4353 753.67 747.81 766.17 
4354 750.15 747.67 766.17 
4355 757.55 747.81 766.17 
4356 758.24 747.88 766.17 
4357 751.26 746.65 766.17 
4358 753.91 746.69 766.17 
4359 754.72 747.52 766.17 
4360 753.59 747.35 766.17 
4361 758.54 746.09 766.17 
4362 757.30 745.50 766.17 
4363 754.72 746.00 766.17 
4364 752.22 744.91 766.17 
4365 757.99 745.95 766.17 
4366 752.27 746.49 766.17 
4367 753.89 746.40 766.17 
4368 755.10 747.22 766.17 
4369 748.29 747.58 766.17 
4370 758.79 747.00 766.17 
4371 752.79 747.69 766.17 
4372 757.77 747.56 766.17 
4373 755.72 748.16 766.17 
4374 754.89 748.66 766.17 
4375 755.26 748.42 766.17 
4376 750.29 748.21 766.17 
4377 754.29 747.79 766.17 
4378 755.38 747.73 766.17 
4379 757.20 747.98 766.17 
4380 757.96 748.57 766.17 
4381 753.14 748.16 766.17 
4382 753.20 747.92 766.17 
4383 750.77 747.37 766.17 
4384 750.26 747.58 766.17 
4385 753.16 747.67 766.17 
4386 758.19 747.70 766.17 
4387 751.41 747.56 766.17 
4388 749.90 747.30 766.17 
4389 754.29 746.40 766.17 
4390 753.39 746.35 766.17 
4391 754.87 745.99 766.17 
4392 751.78 746.66 766.17 
4393 751.22 745.70 766.17 
4394 753.00 746.23 766.17 
4395 753.04 746.27 766.17 
4396 755.21 746.24 766.17 
4397 750.01 745.97 766.17 
4398 754.22 746.01 766.17 
4399 751.55 747.34 766.17 
4400 758.80 747.56 766.17 
4401 753.44 748.15 766.17 
4402 754.75 748.36 766.17 
4403 757.11 748.21 766.17 
4404 755.65 747.85 766.17 
4405 756.56 748.23 766.17 
4406 759.16 748.07 766.17 
4407 759.14 748.33 766.17 
4408 749.79 748.04 766.17 
4409 759.34 748.23 766.17 
4410 754.40 748.31 766.17 
4411 757.83 748.42 766.17 
4412 751.87 748.31 766.17 
4413 751.28 748.07 766.17 
4414 755.93 748.10 766.17 
4415 753.49 748.14 766.17 
4416 754.97 748.03 766.17 
4417 759.12 747.51 766.17 
4418 754.45 747.78 766.17 
4419 756.70 747.50 766.17 
4420 749.97 747.40 766.17 
4421 754.07 747.28 766.17 
4422 760.03 746.95 766.17 
4423 753.90 746.73 766.17 
4424 756.31 746.65 766.17 
4425 747.23 746.46 766.17 
4426 755.12 746.30 766.17 
4427 752.60 746.38 766.17 
4428 748.27 746.53 766.17 
4429 756.77 745.95 766.17 
4430 756.96 745.63 766.17 
4431 758.01 745.36 766.17 
4432 751.90 745.87 766.17 
4433 756.39 746.31 766.17 
4434 754.30 747.22 766.17 
4435 752.35 746.61 766.17 
4436 756.00 747.73 766.17 
4437 753.52 747.15 766.17 
4438 750.46 745.52 766.17 
4439 760.23 746.30 766.17 
4440 753.35 746.03 766.17 
4441 755.23 746.84 766.17 
