iteration,time_sampling,stoc_pol_mean,stoc_pol_std,stoc_pol_max,stoc_pol_min,rollout_success,alpha,delta,time_vpg,time_npg,kl_dist,surr_improvement,running_score,rwd_sparse,rwd_dense,success_percentage,num_samples,time_VF,VF_error_before,VF_error_after,eval_score,eval_success
0,2.757920980453491,-35.093434138093755,12.028033181962142,-7.733139817909629,-61.39104862153721,0.0,15.507536801271177,0.1,0.06747579574584961,0.44409799575805664,0.13890402,0.009135523,-35.093434138093755,-0.797334318626937,-0.175459318626937,0.0,19200,2.0335984230041504,1.0000026829285256,0.18531499071408625,-40.43712427968819,0.0
1,2.4544692039489746,-38.55648923399091,11.726698219729606,-14.16014780326489,-72.76042601566755,0.0,8.20259556110979,0.1,0.024347305297851562,0.4883155822753906,0.05437654,0.010793239,-35.43973964768347,-0.8146420976435037,-0.19276709764350386,0.0,19200,1.3634352684020996,0.1802158558362916,0.07708663613466085,-22.259034898671786,0.0
2,2.474839210510254,-24.166604221579245,10.54224530082979,1.7652868005349083,-53.097566571584935,0.0,15.54304039703685,0.1,0.02577829360961914,0.43115735054016113,0.051802386,0.0046027284,-34.312426105073044,-0.7897749466819008,-0.12081661334856747,0.0,19200,2.383620500564575,0.10279964592678487,0.03963175045922855,-3.466553140169964,0.0
3,2.4671759605407715,-9.636946680964366,9.735788767708685,9.405109884876452,-34.488028610318594,0.0,9.314209703515797,0.1,0.015478134155273438,0.4115886688232422,0.0506949,0.009707851,-31.844878162662177,-0.7625411783225147,-0.048166178322514484,0.0,19200,2.642883062362671,0.06088778479380623,0.015064774687388488,31.800319300811353,0.0
4,2.5005648136138916,22.071528409014586,11.430964187996041,55.126606990873434,-10.162674378251822,0.0,5.310902417068392,0.1,0.01687312126159668,0.41666483879089355,0.048841946,0.020223863,-26.453237505494503,-0.7148455828512899,0.1103627504820434,0.0,19200,2.8264548778533936,0.06262645161683407,0.009116596294475967,38.29402429137099,0.0
5,2.5156400203704834,42.05665636989509,9.775932694505416,63.89440990941974,17.10538377112859,0.0,4.97426464970427,0.1,0.019380807876586914,0.3958301544189453,0.051126868,0.02044464,-19.602248117955543,-0.6751667377515828,0.21024992891508387,0.0,19200,3.1776366233825684,0.028177372636968134,0.01015231424590291,21.745608243509764,0.0
6,2.5065505504608154,53.36291247496064,12.970830575453158,97.13092916263626,22.646525015079547,0.0,4.565548796576534,0.1,0.017932653427124023,0.43164515495300293,0.050923314,0.020872978,-12.305732058663924,-0.6551095685116267,0.26676543148837334,0.0,19200,3.107158899307251,0.026163369854386102,0.018269275795293975,43.7639152780193,0.0
7,2.6663546562194824,80.39552624788128,15.572764350585665,127.79488338832476,42.53908235514103,0.0,5.8100487155163965,0.1,0.029771089553833008,0.40793609619140625,0.05789102,0.016921908,-3.0356062280094047,-0.6335067504562645,0.40190991621040206,0.0,19200,3.737433671951294,0.06313236460480841,0.028443683254254448,88.36112407637967,0.0
8,2.5097312927246094,129.16583106984731,18.11075356909195,166.41779420709838,61.24507946017232,0.0,6.765119492705888,0.1,0.01739811897277832,0.40129876136779785,0.04908224,0.016396424,10.184537501776267,-0.5998961457073584,0.6457288542926416,0.0,19200,3.5894775390625,0.17588604795187116,0.02912216974390733,145.59685048721286,0.0
9,2.532402992248535,171.6459106112808,20.729880331599464,215.6206682743666,130.19324978720485,0.0,9.371873838123859,0.1,0.018553972244262695,0.401461124420166,0.054357365,0.010211182,26.330674812726723,-0.5750266345598155,0.8580983654401845,0.0,19200,3.5726165771484375,0.12091149417514771,0.032716388062827964,254.83542711158987,0.0
10,2.4794139862060547,234.98784337921538,21.331680679255825,284.28993425291384,169.58260071983483,0.0,7.108714704680325,0.1,0.0174713134765625,0.4297199249267578,0.053019714,0.014272472,47.196391669375586,-0.550217199262438,1.1747828007375618,0.0,19200,3.4711530208587646,0.17025242734399318,0.018887304037748166,367.9377293639236,0.0
11,2.513277769088745,291.98016637826726,19.571402603874105,335.1932554635314,251.59179689369032,0.0,7.086045950925174,0.1,0.015860319137573242,0.40685176849365234,0.04876457,0.013961047,71.67476914026476,-0.5338081360982447,1.4597335305684218,0.0,19200,3.711839199066162,0.08321166821242969,0.012895743019876789,464.0554546732877,0.0
12,2.523808717727661,325.0206561983816,22.65281958597607,401.7381214910292,276.75974091670406,0.0,6.122361699710458,0.1,0.023218154907226562,0.42267370223999023,0.054263297,0.017595872,97.00935784607643,-0.5267358542639653,1.6249308124027013,0.0,19200,3.5658748149871826,0.030205987731208032,0.014448275171327457,480.6791463401942,0.0
13,2.479964017868042,371.6836699735225,25.638122601886987,439.05095752016604,293.63229566454453,0.0,8.87952352913475,0.1,0.020214557647705078,0.4509904384613037,0.05760505,0.010779848,124.47678905882104,-0.5169703137612873,1.8582380195720456,0.0,19200,3.407421350479126,0.043167596037638256,0.014653493448142664,476.51860229210274,0.0
14,2.713744640350342,399.9392999068759,19.610757687519875,455.5364284063467,343.2121391085889,0.0,8.708153037050291,0.1,0.017280101776123047,0.4740877151489258,0.055562686,0.011645028,152.02304014362653,-0.5119440721693324,1.9995142611640009,0.0,19200,2.999767303466797,0.015330241017273222,0.006646607315483634,488.9632861567699,0.0
15,2.5002803802490234,426.7612219192644,18.362387992645868,472.3918581508647,372.8818313299809,0.0,10.63400188809334,0.1,0.01555776596069336,0.43263792991638184,0.055056382,0.009033935,179.49685832119033,-0.5065943582913389,2.1336139750419942,0.0,19200,3.376317262649536,0.013674113095433848,0.005039833990996208,488.9645687991284,0.0
16,2.5309865474700928,443.03393122014774,15.303020284462153,480.5664943896446,397.7411678070276,0.0,10.438853797884635,0.1,0.015205144882202148,0.40857720375061035,0.052620906,0.00945493,205.85056561108607,-0.503979290888711,2.214979042444622,0.0,19200,3.538447380065918,0.006177800310135812,0.003223674240033517,509.6499332730485,0.0
17,2.5289087295532227,475.95291740707836,12.917810715398888,501.31634430999924,447.2855145350615,0.0,15.94542798678411,0.1,0.019319534301757812,0.4408397674560547,0.056279693,0.005828812,232.8608007906853,-0.498138834543058,2.3795694987902754,0.0,19200,3.296630620956421,0.014160554504535015,0.0019341040386252923,509.71014571449706,0.0
18,2.545834541320801,485.3591093337945,11.111060904183043,509.455166338194,451.59569218179126,0.0,8.59676920985798,0.1,0.015676498413085938,0.41848087310791016,0.053548303,0.010752291,258.11063164499626,-0.4965232318200212,2.4266017681799785,0.0,19200,3.145503044128418,0.0022541257414907382,0.0013964566553366958,522.090698729636,0.0
19,2.4872279167175293,512.431807363938,9.325171676518409,534.2288768244113,488.83435403550476,0.0,9.537220285643814,0.1,0.013597965240478516,0.41817307472229004,0.04908523,0.010523977,283.54274921689046,-0.4922096024169163,2.56195706424975,0.0,19200,2.8258249759674072,0.006237794144666882,0.0008811861546006353,526.18857351205,0.0
20,2.5279037952423096,522.3306242141862,7.059063699608688,542.3373354832866,505.47787841416414,0.0,12.560685881943899,0.1,0.021861791610717773,0.4518859386444092,0.04182851,0.005072189,307.42153671662004,-0.49084183948562093,2.6114498271810453,0.0,19200,3.3149666786193848,0.001236064752934528,0.0005370374927740018,526.185999352857,0.0
21,2.6363303661346436,523.2127734988235,6.927991305755753,542.3448199746929,509.5266256912823,0.0,7.153796966951302,0.1,0.015370845794677734,0.4098200798034668,0.052894488,0.015054063,329.0006603948404,-0.49059709791472556,2.615861235418608,0.0,19200,3.533961296081543,0.0007426981656962017,0.0005367833985048459,526.2190226015923,0.0
22,2.5318572521209717,524.840583781333,8.082076195998633,542.4650065792425,501.4234561997232,0.0,8.48045437685585,0.1,0.015594959259033203,0.4192311763763428,0.04845277,0.011180329,348.58465273348963,-0.49037422223504384,2.6240007777649557,0.0,19200,3.5001220703125,0.000831490138874202,0.0006366825716702344,530.2517693030076,0.0
23,2.5027546882629395,525.9759265519887,8.390323944241171,546.5305587561932,505.32308859466974,0.0,7.829166233408026,0.1,0.017767667770385742,0.4122474193572998,0.040739097,0.011588309,366.32378011533956,-0.49032228809962675,2.6296777119003734,0.0,19200,3.615020513534546,0.0007004532216157437,0.0006552918917947202,530.3415302479339,0.0
24,2.5040903091430664,541.0960613196922,7.04884684417141,558.8124419090858,521.9279449950818,0.0,9.828105405250541,0.1,0.018735885620117188,0.4234611988067627,0.04483385,0.008865289,383.8010082357748,-0.4882660717996054,2.7052755948670613,0.0,19200,3.048491954803467,0.00245391182402295,0.00045371854084702237,534.4231756382268,0.0
25,2.508082628250122,555.1749218657295,6.224502607854786,571.0495548252143,542.5542556830807,0.0,10.763929243670287,0.1,0.016609668731689453,0.40181899070739746,0.052187677,0.008644646,400.9383995987703,-0.4864159655315016,2.7756673678018315,0.0,19200,3.9157068729400635,0.002071989955189987,0.00036237427203775403,534.3917013728994,0.0
26,2.529082775115967,554.4715771352609,5.612540459822657,571.1792740753397,538.4747640698496,0.0,8.888659950488153,0.1,0.016835927963256836,0.43256092071533203,0.05321255,0.010936718,416.29171735241937,-0.48639052539376415,2.7721511412729023,0.0,19200,3.3958640098571777,0.0003402309238787343,0.0003032007334293114,534.443648079376,0.0
27,2.6503829956054688,557.7915924860263,5.800479336093128,575.238615139053,542.4715029932358,0.0,10.155306501508662,0.1,0.018319129943847656,0.49460673332214355,0.051425293,0.008217877,430.4417048657801,-0.48604133579723063,2.7887503308694357,0.0,19200,3.366077423095703,0.00043081917243711297,0.0003090757096424033,534.4186214724045,0.0
28,2.6250216960906982,557.6778576167472,5.652714680162246,571.1207221547135,546.5903908556791,0.0,10.314864954231528,0.1,0.016132354736328125,0.42638349533081055,0.055604342,0.009205504,443.1653201408768,-0.48598484626686966,2.7881818203997972,0.0,19200,3.0782032012939453,0.0003152323234912179,0.0002963772921327849,534.4567313266417,0.0
29,2.490375280380249,566.9463753022433,5.581745090108421,583.4032947292461,554.7806963040498,0.0,14.850940246855089,0.1,0.01711130142211914,0.4558403491973877,0.044211425,0.0059778816,455.5434256570135,-0.4848516470271816,2.8345233529728184,0.0,19200,3.19731068611145,0.0010417161609988486,0.0002792815248043518,534.4807322852402,0.0
30,2.5157904624938965,576.6771442345744,7.079427433597898,599.6093543450442,558.8614182618645,0.0,10.070526396789411,0.1,0.016343355178833008,0.4365997314453125,0.03446062,0.008250508,467.65679751476955,-0.48390742057943853,2.8831759127538947,0.0,19200,3.3944218158721924,0.001106036857362512,0.0004610965917256369,538.5317251487581,0.0
31,2.4616732597351074,579.1044262877292,5.848866610105886,595.6123957732375,562.9195951886212,0.0,9.664445888610008,0.1,0.018004655838012695,0.42327237129211426,0.047478523,0.00929519,478.80156039206554,-0.4836462559242027,2.8953120774091303,0.0,19200,3.836437702178955,0.0004501890350015399,0.0002733061207259661,538.5507928852688,0.0
32,2.4920523166656494,572.8321164688555,5.679326948037451,587.4519960391864,558.8295880801476,0.0,11.203510533540216,0.1,0.014963150024414062,0.4229006767272949,0.051617626,0.007393392,488.20461599974453,-0.48438205745694923,2.8639512758763837,0.0,19200,3.3369197845458984,0.0005901121437555936,0.0003280928082137984,534.4551984131804,0.0
33,2.5377614498138428,574.8529265226096,5.311166769099825,587.5012757708463,562.8093294441222,0.0,7.975096763299343,0.1,0.01627182960510254,0.45905184745788574,0.026488667,0.007775337,496.86944705203103,-0.4840700322580051,2.8740549677419955,0.0,19200,3.5728840827941895,0.00023008894923240165,0.00022892465613102094,538.520477848912,0.0
34,2.6418373584747314,575.4032365090911,5.842478315839052,587.5228166732697,562.8724020103119,0.0,9.885711382927767,0.1,0.020769357681274414,0.40030574798583984,0.03822848,0.008802379,504.72282599773706,-0.4840265458277318,2.876806787505602,0.0,19200,3.4979238510131836,0.00027933434445976703,0.00026673128954266673,546.6820831387176,0.0
35,2.622892379760742,577.3127719246336,5.6756336612577885,591.5936699576182,562.9497074091705,0.0,9.193095401928403,0.1,0.019734621047973633,0.45061683654785156,0.036501154,0.008433897,511.98182059042676,-0.48364574750015915,2.886354252499841,0.0,19200,4.088986873626709,0.00028589007317608364,0.00024987551818020826,542.6240767744915,0.0
36,2.5075886249542236,580.1572309319407,5.282969278112819,591.6242113379303,567.1105374394654,0.0,10.804500112172649,0.1,0.021022558212280273,0.4019315242767334,0.04424393,0.008190384,518.7993616245782,-0.4833822769218537,2.9005760564114795,0.0,19200,3.2527921199798584,0.00026812613103034064,0.0002150736478256142,538.5519202227879,0.0
37,2.476033926010132,572.9703163087721,5.281169559550553,587.5196099888408,554.7101813601731,0.0,12.749301226474302,0.1,0.02045917510986328,0.4093787670135498,0.04847574,0.008335081,524.2164570929976,-0.4843159942221405,2.8646423391111924,0.0,19200,3.167600631713867,0.0005615481022583835,0.00022015711855538959,546.6411303646059,0.0
38,2.519744634628296,573.6291335324886,4.86125432615988,587.4966083343356,562.8863029195961,0.0,12.042521392370524,0.1,0.020931720733642578,0.3989865779876709,0.050123002,0.0073107216,529.1577247369468,-0.48435539356278196,2.867936273103885,0.0,19200,3.0234124660491943,0.00019225170267062074,0.00017895355750717932,550.6887439336501,0.0
39,2.5053834915161133,579.6089216732101,5.698684516444507,591.6947393279075,563.0959443076123,0.0,14.555690868452857,0.1,0.029770374298095703,0.4010603427886963,0.04558412,0.0051675593,534.2028444305731,-0.4834151010636129,2.8978348989363867,0.0,19200,3.6241729259490967,0.00044649336674483514,0.0002607529901754101,546.6674317176064,0.0
40,2.5189461708068848,577.1165895969535,5.528889589864777,591.6450197821308,558.7959857200722,0.0,8.680810871201372,0.1,0.02025771141052246,0.41994619369506836,0.04497065,0.00933497,538.4942189472112,-0.483793590540958,2.8853730761257084,0.0,19200,3.36352276802063,0.00024600190364272757,0.00022684463457610257,546.673904963913,0.0
41,2.635240316390991,582.9944340973817,4.910811489727433,595.6045152084885,571.1420987818461,0.0,11.305642134837834,0.1,0.014310359954833984,0.44415879249572754,0.05183054,0.009115373,542.9442404622282,-0.48315512338936734,2.9147615432772986,0.0,19200,3.062962770462036,0.0003826020097972288,0.00018022293576101976,542.6036057558947,0.0
42,2.6032912731170654,587.9389414727015,6.456655925907503,607.8883596572308,571.1291756688406,0.0,8.682758776834088,0.1,0.015372037887573242,0.41913866996765137,0.043873925,0.010401326,547.4437105632755,-0.4826004261393739,2.9394829071939603,0.0,19200,3.366244077682495,0.000398953570252993,0.0002989835872319111,538.481894555291,0.0
43,2.474397659301758,592.520696931328,5.6511858721004335,607.8614584479093,579.3284404413329,0.0,8.417644732446377,0.1,0.012557029724121094,0.39583396911621094,0.022822829,0.005472061,551.9514092000808,-0.48219210465418155,2.962391228679152,0.0,19200,3.3658742904663086,0.00037667957512480297,0.0002594689923158944,534.4609345810716,0.0
44,2.484632730484009,587.8166146173427,5.807564570666351,599.8202419803861,571.1831608882455,0.0,13.082213938269122,0.1,0.018239736557006836,0.4238889217376709,0.046336364,0.007575784,555.537929741807,-0.48258660805702797,2.9388717252763055,0.0,19200,3.1388795375823975,0.0005505200477872167,0.0002289880617972585,538.5137266225402,0.0
45,2.5030083656311035,595.7477138532873,7.163808238660071,612.0224284352211,575.2418155489777,0.0,7.789991518989875,0.1,0.021045446395874023,0.45357179641723633,0.048842177,0.013945144,559.558908152955,-0.48189079223556314,2.9785258744311034,0.0,19200,2.7919251918792725,0.0006883301962334473,0.00034334486198032304,546.6633830284709,0.0
46,2.4887845516204834,594.0053087684969,7.360442343993883,611.8936598565843,575.3079273990732,0.0,8.75625339822585,0.1,0.014449357986450195,0.3978583812713623,0.04711991,0.00840977,563.0035482145092,-0.48206029885589824,2.969814701144102,0.0,19200,3.1825685501098633,0.00041770468452993927,0.0003747692537561681,538.516240936568,0.0
47,2.483572483062744,594.0105720486721,6.265461912087,615.9909483438804,579.3099461931014,0.0,8.360212006229567,0.1,0.017981767654418945,0.4359736442565918,0.03666697,0.0077224844,566.1042505979256,-0.4820343625941422,2.969840637405858,0.0,19200,3.067408323287964,0.000289290375790277,0.0002587947433012905,542.5704441558709,0.0
48,2.604395866394043,602.2561128287158,7.044556221556363,623.9840998094876,583.5707593698027,0.0,10.096379042342212,0.1,0.01563096046447754,0.40614867210388184,0.05027363,0.009144548,569.7194368210046,-0.48143262307448936,3.0110673769255105,0.0,19200,2.9646189212799072,0.0007841341847818554,0.00031534847647190963,538.468240924296,0.0
49,2.5129833221435547,606.5433071534554,7.3889675670667225,624.0043992590591,591.4160427912572,0.0,11.792611596549465,0.1,0.020693540573120117,0.4064619541168213,0.046478648,0.00816817,573.4018238542496,-0.48124749631714964,3.0325025036828506,0.0,19200,3.296168327331543,0.0003836373246528696,0.0003363701466562474,575.349080455062,0.0
50,2.515871047973633,610.7010395376578,8.328320790887668,631.8330477122377,587.2959772764772,0.0,9.209869876706854,0.1,0.014262914657592773,0.45494866371154785,0.054912783,0.008169515,577.1317454225905,-0.48170918237114385,3.053290817628856,0.0,19200,3.2055606842041016,0.0005301870521182007,0.00047821340138393646,599.8432958060868,0.0
51,2.491865396499634,622.819085987097,8.61585595465083,643.6449064058313,594.8073609144162,0.0,11.390102300714222,0.1,0.0179598331451416,0.4395585060119629,0.054287758,0.0075067277,581.7004794790412,-0.48153733094610346,3.1138793357205627,0.0,19200,3.4685041904449463,0.0011179502834421573,0.0004892234945878362,603.970159268709,0.0
52,2.5004067420959473,627.9004602668091,7.581864061657232,647.9509589821361,611.5148683987208,0.0,6.5768077522059105,0.1,0.02320384979248047,0.4203982353210449,0.043738514,0.012640409,586.320477557818,-0.481339175019269,3.1392858249807305,0.0,19200,3.1464335918426514,0.000561341913287289,0.0003610678110116341,620.223751485171,0.0
53,2.494976282119751,635.6868860882922,8.37819585149236,659.4676794592643,611.2333807155153,0.0,11.465908035661347,0.1,0.01554727554321289,0.4302704334259033,0.029018825,0.0042666052,591.2571184108655,-0.4824076614433766,3.1782173385566233,0.0,19200,3.0955934524536133,0.0006735321228615208,0.0004259878899473354,632.3707114372808,0.0
54,2.7327516078948975,636.057835249831,8.010099698197306,659.6225498314664,614.8856494574006,0.0,7.027029501042359,0.1,0.02038741111755371,0.42430758476257324,0.050525017,0.014471126,595.737190094762,-0.4832618771431461,3.1800714561901873,0.0,19200,3.238475799560547,0.00042086424516289076,0.00041550344881226536,652.4534645281501,0.0
55,2.4906017780303955,640.4488635841366,9.0579025228222,659.7456020171599,614.6610113600867,0.0,9.138301952779823,0.1,0.01734137535095215,0.4380981922149658,0.046888746,0.011161261,600.2083574436995,-0.48568234380799064,3.202025989525343,0.0,19200,3.8065381050109863,0.0005812548421490547,0.0005701790587017934,668.4081658026815,0.0
56,2.511033773422241,648.5478545315957,10.830086966396108,678.6116409107744,613.4841330846581,0.0,10.80500672224214,0.1,0.019748687744140625,0.4230790138244629,0.053141434,0.008069564,605.0423071524891,-0.4876878884838051,3.2425204448495286,0.0,19200,2.8134701251983643,0.0011995212670506178,0.0007247356534942287,672.378150839063,0.0
57,2.5147457122802734,645.9941688931634,9.755141672568286,666.8831826600886,617.0177434254322,0.0,17.936122552334716,0.1,0.02292346954345703,0.40639615058898926,0.051711332,0.0061269947,609.1374933265565,-0.487747494271576,3.229752505728424,0.0,19200,3.3551502227783203,0.00063704345390033,0.000594280975449522,688.1581464930954,0.0
58,2.5681862831115723,635.6271322795932,15.169379763973069,662.5886123626204,579.9954854902252,0.0,12.583314672512383,0.1,0.024033308029174805,0.4169580936431885,0.045818385,0.008748625,611.7864572218602,-0.491457873368248,3.1779171266317516,0.0,19200,3.2155749797821045,0.002266775426657928,0.0014773824136499018,692.1355195329195,0.0
59,2.524890422821045,624.5279936619231,16.924741650033535,665.3884762131902,572.77962723223,0.0,8.51148896909026,0.1,0.021216630935668945,0.42586183547973633,0.045588925,0.012306905,613.0606108658665,-0.49299449857824834,3.1224221680884185,0.0,19200,2.809208631515503,0.0028387408248111436,0.0018977076528800092,692.0769641647976,0.0
60,2.5044524669647217,629.5755106643046,17.147388309856616,662.383542976589,567.6695028291996,0.0,8.612920106774757,0.1,0.019262313842773438,0.40519046783447266,0.055931576,0.008795573,614.7121008457103,-0.49213138006877305,3.147660286597894,0.0,19200,3.376699686050415,0.0019869737656039122,0.0018696083642019174,688.1405835011487,0.0
61,2.74429988861084,644.8107275040924,10.55202493921986,666.4132825667543,617.3046152541849,0.0,8.808174113107947,0.1,0.02167057991027832,0.4478449821472168,0.045271907,0.008837954,617.7219635115486,-0.49012384445889445,3.2238344888744392,0.0,19200,3.0212080478668213,0.002058100113365092,0.0006748074929886935,684.2174787596396,0.0
62,2.4954018592834473,653.3579956687669,8.613107366581353,674.8555506469462,626.3078037961736,0.0,13.901123005117139,0.1,0.020426511764526367,0.43254828453063965,0.03463259,0.003980738,621.2855667272704,-0.48801276867586973,3.266570564657463,0.0,19200,3.428471088409424,0.000852313852777954,0.0004566039446851515,692.1237755508739,0.0
63,2.5384817123413086,657.1402912572222,9.81925553577968,678.5258223949257,629.1438270503387,0.0,7.790065539073587,0.1,0.0200808048248291,0.3924224376678467,0.052634362,0.013182631,624.8710391802656,-0.4893098933888625,3.285481773277804,0.0,19200,3.341381072998047,0.0005631207825926234,0.0005504334923508221,692.1351626015647,0.0
64,2.5508859157562256,661.178872522249,10.697792153496396,682.8397250159006,633.6341798406088,0.0,12.668182714031232,0.1,0.0189054012298584,0.4262511730194092,0.0470355,0.0070780073,628.501822514464,-0.4884916477712064,3.3056750188954602,0.0,19200,3.408749580383301,0.0007318337259351403,0.0006327199622038156,684.2531693807214,0.0
65,2.495542526245117,664.3425461906153,8.291481360196839,686.7273943106464,642.2899021066213,0.0,13.58663783223829,0.1,0.024051189422607422,0.43532347679138184,0.047167506,0.007377874,632.0858948820792,-0.48663245316456266,3.321492546835437,0.0,19200,3.041700601577759,0.0003995149024541825,0.0003824687384937803,688.2222875974487,0.0
66,2.486271381378174,663.7885502321737,7.971091255301656,682.9748395121667,642.5797502964878,0.0,9.36714737840906,0.1,0.019627094268798828,0.45073795318603516,0.05027563,0.010978935,635.2561604170887,-0.4869020724811328,3.3187229275188668,0.0,19200,3.400507926940918,0.0003463323176409114,0.0003453363939521487,688.1918606425007,0.0
67,2.504523992538452,667.5144090170293,8.03882586403914,690.9183229675504,650.578159249265,0.0,12.773495635837413,0.1,0.018625974655151367,0.44113898277282715,0.05023151,0.0050380686,638.4819852770828,-0.48618988132194163,3.3373517853447248,0.0,19200,3.230337142944336,0.00042799366323650407,0.00035145481112854824,692.1608269535086,0.0
68,2.6703391075134277,666.7845718591403,8.90951901986621,683.0130587159969,633.9706041219263,0.0,8.328565885744922,0.1,0.0251467227935791,0.4628751277923584,0.04996098,0.010710101,641.3122439352885,-0.48692253469603913,3.333702465303961,0.0,19200,3.6259548664093018,0.00044102882286216756,0.0004717498644655824,688.2125133286726,0.0
69,2.5302131175994873,667.727045501781,7.626615347420058,683.1502179169041,653.9197003056446,0.0,17.25223082997533,0.1,0.017682313919067383,0.42716455459594727,0.046939146,0.008426749,643.9537240919378,-0.48533471254338273,3.3384152874566175,0.0,19200,3.7344717979431152,0.0003236460690421425,0.00030594184060421173,688.2452710742654,0.0
70,2.5260159969329834,668.6391778314355,7.178073861589874,687.1392131876618,646.379573360863,0.0,13.56952033535259,0.1,0.018645524978637695,0.4958658218383789,0.051732957,0.0064328625,646.4222694658876,-0.48494126109138896,3.342975405575278,0.0,19200,3.01127552986145,0.0002742649087743236,0.00027373802541784474,684.296393049324,0.0
71,2.511770725250244,670.5919414713175,7.467078388073733,683.4879404270392,650.7231178292383,0.0,12.502900181264199,0.1,0.02086353302001953,0.43360471725463867,0.048401617,0.0066781444,648.8392366664306,-0.484344296015307,3.352739037318026,0.0,19200,3.1033387184143066,0.000299734023241554,0.00029738306259724344,684.2647244804568,0.0
72,2.507427215576172,676.315964824415,5.803100661292507,687.5410745294201,658.493164918649,0.0,9.568717680523331,0.1,0.018191814422607422,0.41620469093322754,0.04793495,0.010469487,651.5869094822291,-0.48364120489836654,3.3813587951016335,0.0,19200,3.364708423614502,0.00036318401069736564,0.0001785313083726312,692.1836478252702,0.0
73,2.486111640930176,676.8056248890807,7.810411051572042,694.819681927629,650.409956401792,0.0,13.550741351686986,0.1,0.018777132034301758,0.44343996047973633,0.029707775,0.0051462525,654.1087810229143,-0.4851514313678133,3.3838069019655204,0.0,19200,3.2263753414154053,0.0003685096915677013,0.0003363013381411425,692.1343762678252,0.0
74,2.6613805294036865,676.9219427125356,8.672372160278728,694.7817681356926,646.1623132659007,0.0,5.962477140162321,0.1,0.014899253845214844,0.43090081214904785,0.047349196,0.015427886,656.3900971918764,-0.4860281223830449,3.3843885442836217,0.0,19200,3.3742308616638184,0.00045770371415715513,0.00038645373483091506,696.1117121430357,0.0
75,2.6319642066955566,677.0184217700022,6.8849954423777415,690.9768853972668,662.3064714055951,0.0,8.553481143229615,0.1,0.01653432846069336,0.41228413581848145,0.050132025,0.0139982095,658.452929649689,-0.4865871809138493,3.3848711524194837,0.0,19200,3.1724393367767334,0.00025049705605430575,0.00023481833803857776,696.0750144027185,0.0
76,2.522361993789673,678.5903345748833,6.71995590121571,691.0520773964262,658.6723381313794,0.0,8.993098739048769,0.1,0.017486572265625,0.41248011589050293,0.048823185,0.007957255,660.4666701422085,-0.48726938140197346,3.3927306185980264,0.0,19200,3.920469045639038,0.00024696937438381604,0.0002520323125268231,699.982111963405,0.0
77,2.5261993408203125,686.6871867354503,6.408587319006565,702.3258020112482,669.9952434050489,0.0,13.144364998390563,0.1,0.01581740379333496,0.40703725814819336,0.047194794,0.008985478,663.0887218015328,-0.4874109023470024,3.4332140976529977,0.0,19200,3.326887845993042,0.00035341890071250803,0.00020920331658092652,699.9877238390096,0.0
78,2.55531907081604,689.7362290348891,6.998595277677034,703.0204728262571,665.8803188452589,0.0,9.930899648023406,0.1,0.022846698760986328,0.4259450435638428,0.046241123,0.009903183,665.7534725248685,-0.48779111259043617,3.4484588874095636,0.0,19200,3.5181844234466553,0.0002894195237259884,0.00023871320815377874,703.8671876496984,0.0
79,2.5452589988708496,690.4054914789925,7.137117444664142,703.0761646625328,673.4617533234554,0.0,12.541658849392787,0.1,0.017784595489501953,0.37774157524108887,0.042500503,0.0066967537,668.2186744202809,-0.4892366028780115,3.451596730455322,0.0,19200,3.5400097370147705,0.00023959930281852328,0.00024281345778203283,703.7845888181796,0.0
80,2.5039124488830566,697.2698783087723,5.126812344960035,702.8884855676264,685.194055835109,0.0,10.072099162637322,0.1,0.015433311462402344,0.4439682960510254,0.045903392,0.008597336,671.12379480913,-0.488665230939042,3.4852931023942912,0.0,19200,3.5284175872802734,0.0004480259818982543,0.000134495142404682,703.6130396375813,0.0
81,2.623436450958252,695.9404160185386,6.588742537068273,702.5815561300401,677.1758999851095,0.0,10.294999327328602,0.1,0.02273726463317871,0.4408555030822754,0.051322527,0.010125688,673.6054569300709,-0.4915625470418983,3.4786457862914353,0.0,19200,3.3793017864227295,0.00023295013168558984,0.00020838353564301708,703.6232946231532,0.0
82,2.666900157928467,697.971525536571,5.70690453279543,702.6889446092795,681.01290331495,0.0,8.22738442533549,0.1,0.020339012145996094,0.443011999130249,0.051092524,0.011261691,676.0420637907209,-0.4914073608227844,3.488384305843882,0.0,19200,3.1939597129821777,0.00015958184820996952,0.00015876353791413505,703.4864329291227,0.0
83,2.5054705142974854,694.3855299305482,8.720823523019092,702.5673659202026,668.2359550654428,0.0,10.560799763411616,0.1,0.016744613647460938,0.42208361625671387,0.048521984,0.0073060733,677.8764104047037,-0.4922536542845854,3.470871345715415,0.0,19200,3.140454053878784,0.0004782721039042162,0.0004009263473513374,703.4594590641559,0.0
84,2.5824878215789795,696.3114610615347,8.274747593385465,702.7769743315472,651.6851795352404,0.0,7.124015275645089,0.1,0.0191192626953125,0.44219160079956055,0.04817044,0.013007162,679.7199154703868,-0.49220718418788395,3.480917815812116,0.0,19200,2.7439258098602295,0.00039721348665205664,0.0003629061128068382,703.4535057335937,0.0
85,2.59946608543396,701.0593656889658,2.377344105779304,702.91835359687,686.1698618675425,0.0,9.204320535331629,0.1,0.024400949478149414,0.4534468650817871,0.04840159,0.009539827,681.8538604922447,-0.4913851458933199,3.503823187440014,0.0,19200,2.7877631187438965,8.6169437549779e-05,2.838596119373588e-05,703.5168717001789,0.0
86,2.609663486480713,700.1685301792173,3.297532387125873,703.1227212600057,685.27430145355,0.0,9.365657480079959,0.1,0.028987407684326172,0.4554891586303711,0.057204228,0.011955265,683.6853274609421,-0.490214219628107,3.499369113705226,0.0,19200,3.577909231185913,5.5525221577137424e-05,5.261574371907712e-05,703.5737395236347,0.0
87,2.6838130950927734,701.6700889476377,2.024218538334458,703.1601169514112,690.0294161631801,0.0,10.76959594209845,0.1,0.01820659637451172,0.4928700923919678,0.046949208,0.008298008,685.4838036096116,-0.48916506741377214,3.5064599325862282,0.0,19200,3.312505006790161,2.9965100275331907e-05,1.9617991702714667e-05,703.7674426271797,0.0
88,2.654020309448242,701.2237534297925,2.651369357230173,703.2131914835854,690.5556980150284,0.0,7.291860118303046,0.1,0.025734901428222656,0.4204750061035156,0.049121197,0.009735223,687.0577985916298,-0.4878546921250449,3.5046453078749553,0.0,19200,3.605799436569214,4.01522191242324e-05,4.887230228725311e-05,703.9040238370354,0.0
89,2.631847620010376,701.1361099186473,3.1504932207063403,703.4668000913107,687.1071717064054,0.0,9.489626164530831,0.1,0.01944279670715332,0.4228215217590332,0.03523578,0.0057086777,688.4656297243316,-0.4864178184751353,3.503998848191531,0.0,19200,3.3433146476745605,6.207536784139381e-05,4.7874991978040796e-05,703.9072203632601,0.0
90,2.5043623447418213,700.2372836259674,3.6880552812126712,703.2471274565121,686.6203846274234,0.0,16.664356230611347,0.1,0.019274234771728516,0.4490699768066406,0.047184285,0.006927599,689.6427951144952,-0.486744878062978,3.500338455270356,0.0,19200,3.1429686546325684,6.931387380535e-05,7.098607188711462e-05,703.8295081007171,0.0
91,2.511741876602173,699.7547580106775,4.594830030667804,703.2366914822765,686.0885187778882,0.0,8.7661326613882,0.1,0.014764547348022461,0.44724225997924805,0.044153173,0.0090792645,690.6539914041135,-0.48728281379253663,3.4975088528741303,0.0,19200,3.3873496055603027,0.00010528631691095406,0.00010411863349181328,703.7690593258012,0.0
92,2.51046085357666,700.3430267751455,3.824328375727319,703.1092052412336,686.0232236179232,0.0,6.919512185648143,0.1,0.013557672500610352,0.45883893966674805,0.045124084,0.015105378,691.6228949412167,-0.4874663247328633,3.5006586752671365,0.0,19200,3.1975183486938477,7.23387698161515e-05,7.145980207673254e-05,703.7229028899258,0.0
93,2.5207080841064453,700.3436807469449,3.8145272726140798,703.1707130954708,685.8361028530835,0.0,10.213664445420207,0.1,0.023272037506103516,0.43546104431152344,0.04693752,0.009512022,692.4949735217896,-0.48850518302786666,3.5000364836388003,0.0,19200,3.3822505474090576,7.223216995087792e-05,7.277867789673118e-05,703.6523716672314,0.0
94,2.5277645587921143,701.5606539044644,1.748992008611319,702.9553162988816,693.5199595864116,0.0,9.127727544247625,0.1,0.019003629684448242,0.4225001335144043,0.049556978,0.012119629,693.401541560057,-0.4901290068641275,3.5059126598025396,0.0,19200,3.219970226287842,2.8728686167928364e-05,1.785777232753633e-05,703.4983734250372,0.0
95,2.633272647857666,701.4360240523287,2.6794504282813407,702.8437143010825,679.6094198420617,0.0,11.920391676619072,0.1,0.017774343490600586,0.4031252861022949,0.043772448,0.006874573,694.2049898092841,-0.49096060130589286,3.5052893986941065,0.0,19200,3.426022529602051,4.100606610714347e-05,3.885094541693283e-05,703.4931391263846,0.0
96,2.628570795059204,701.7068474431547,0.48308540927228677,702.7464622646548,700.4353434454066,0.0,13.824273039260902,0.1,0.013133764266967773,0.40153932571411133,0.044882156,0.005776721,694.9551755726712,-0.4916900109141349,3.506643322419198,0.0,19200,3.0096755027770996,3.2153656854789087e-06,1.5487757059281624e-06,703.2792999928687,0.0
97,2.527411937713623,701.7548120470614,0.4763157624860537,702.7308177589025,699.9400727307533,0.0,9.983956840152914,0.1,0.01468801498413086,0.43573808670043945,0.026951227,0.005189853,695.6351392201102,-0.491450656991574,3.506882676341759,0.0,19200,3.260969400405884,1.6429474137269524e-06,1.8672584066296144e-06,703.2603744321485,0.0
98,2.541579484939575,701.7432724814408,0.4232506097507037,702.4828489483729,700.2893275170118,0.0,8.63561346360928,0.1,0.024188756942749023,0.430103063583374,0.02335006,0.00649631,696.2459525462433,-0.4915084893736598,3.5068248439596736,0.0,19200,3.1499085426330566,1.4501268763371479e-06,1.1449685155203966e-06,703.2817916967203,0.0
99,2.550621509552002,701.9038630127438,0.43418472927675933,702.6600399848919,700.5485799569552,0.0,6.941645754750848,0.1,0.025161266326904297,0.40656232833862305,0.047638513,0.012453709,696.8117435928934,-0.49070556157324113,3.507627771760092,0.0,19200,3.6745545864105225,1.5664082048530059e-06,8.891552598100575e-07,703.4276704063211,0.0
100,2.5077381134033203,702.2921912418971,0.34329549323813235,702.9526144223425,701.3848284011403,0.0,6.95708194995517,0.1,0.01897454261779785,0.462766170501709,0.038012385,0.009813429,697.3597883577938,-0.48876361941895413,3.509569713914379,0.0,19200,3.0389482975006104,1.3150386269920645e-06,6.006804957880893e-07,703.633203073213,0.0
101,2.655897617340088,702.8011923514724,0.24392500352999746,703.2732519399614,702.0148032683901,0.0,8.116607302211861,0.1,0.01642441749572754,0.4216179847717285,0.04525887,0.011498922,697.9039287571617,-0.48621846524357576,3.5121148680897583,0.0,19200,4.079182386398315,7.745903345430193e-07,2.910231180138877e-07,703.9079015480884,0.0
102,2.65438175201416,702.9540886765252,0.7747463842493528,703.5690381729744,699.0982180806985,0.0,13.842019828312674,0.1,0.01883220672607422,0.4441854953765869,0.050210208,0.008004608,698.408944749098,-0.4846197265685876,3.512880273431412,0.0,19200,3.3806135654449463,3.3142053709318224e-06,4.396468496812763e-06,703.9848756777841,0.0
103,2.529651641845703,702.3128316330321,2.1716202124086963,703.5244347553637,694.7620801399007,0.0,7.608622380915675,0.1,0.023368120193481445,0.4341766834259033,0.051481325,0.013282858,698.7993334374916,-0.4842841431876323,3.510090856812368,0.0,19200,3.293229579925537,2.394586924730319e-05,2.8059579657385673e-05,700.0497190009403,0.0
104,2.517639636993408,700.4975453412293,3.171283274934112,703.5688586241045,687.460348849406,0.0,7.585885886849633,0.1,0.01686835289001465,0.4304819107055664,0.044567067,0.011386061,698.9691546278654,-0.4835685051807488,3.5018481614859183,0.0,19200,3.3060832023620605,8.787393579980756e-05,4.847677672594192e-05,700.0583003136235,0.0
105,2.5004842281341553,701.0141906143172,3.0227493697197882,703.6455621796649,691.8037302105246,0.0,8.407627122420182,0.1,0.014640331268310547,0.4553720951080322,0.042213842,0.0098108305,699.1736582265105,-0.48306874321928817,3.504014590114045,0.0,19200,5.127255916595459,4.385272038729877e-05,4.316108124492738e-05,704.0068505416943,0.0
106,2.512028694152832,702.7582454337049,1.6845873225934085,703.6740660964315,695.3792834299259,0.0,11.6770776197216,0.1,0.014288187026977539,0.465848445892334,0.04386365,0.006553748,699.53211694723,-0.48309903528017556,3.5119009647198247,0.0,19200,4.896299123764038,1.9496739949844698e-05,1.2534798714281653e-05,703.9188558728963,0.0
107,2.5538594722747803,703.238015603316,0.6648197451162793,703.7122493608862,699.5450148399148,0.0,9.510845639347055,0.1,0.024802446365356445,0.4365377426147461,0.03764739,0.00825473,699.9027068128386,-0.48340873981806154,3.514299593515272,0.0,19200,4.470662355422974,3.281687122417414e-06,3.8314008028398285e-06,703.844560841114,0.0
108,2.6325981616973877,703.2972185074192,0.5498175261822094,703.6672573284017,699.6226146507487,0.0,6.532293094454494,0.1,0.017576217651367188,0.44797492027282715,0.043545496,0.011173289,700.2421579822967,-0.4833211174827185,3.5145955491839485,0.0,19200,3.2432827949523926,2.540368167501748e-06,1.8449457527172064e-06,703.8396841375102,0.0
109,2.624723196029663,703.3115749477097,0.16310538656135826,703.6661067384834,702.8751737658038,0.0,9.793709021773553,0.1,0.013853073120117188,0.4394185543060303,0.036681384,0.009170558,700.549099678838,-0.4836660743434595,3.5146672589898738,0.0,19200,3.2132174968719482,8.443001416512296e-07,5.22943284928089e-07,703.8283271006452,0.0
110,2.5237233638763428,703.2119966091183,0.41995000594420656,703.7000597895026,699.3728508115538,0.0,9.149165055398674,0.1,0.020372629165649414,0.441758394241333,0.0485914,0.011227396,700.8153893718661,-0.4839556583125284,3.514169341687472,0.0,19200,3.204941987991333,1.315420726139754e-06,1.2148753480749755e-06,703.7378915349309,0.0
111,2.512101411819458,703.1422670839611,0.14021369798607725,703.5356369031878,702.7411673574311,0.0,14.645197763132987,0.1,0.017049789428710938,0.43019843101501465,0.04960325,0.0072845044,701.0480771430756,-0.4845127928560646,3.5138205404772687,0.0,19200,3.2747855186462402,2.569759852126709e-07,3.198522996265357e-07,703.7223980703918,0.0
112,2.3409438133239746,703.2196143846826,0.13940266854227787,703.476834965917,702.815907511129,0.0,9.016568146656379,0.1,0.01982283592224121,0.4308278560638428,0.043706626,0.009065032,701.2652308672364,-0.4841261885185004,3.514207144814833,0.0,19200,3.3312909603118896,2.5994231336585784e-07,1.0904381076636313e-06,703.799375871419,0.0
113,2.5338573455810547,703.3429807163958,0.12454949045874096,703.6327659209965,703.0296435825179,0.0,8.813998542343857,0.1,0.018532752990722656,0.461620569229126,0.043451075,0.0087531125,701.4730058521523,-0.48350937243270287,3.5148239609006304,0.0,19200,3.187187910079956,1.595182349181106e-06,1.53225693412546e-06,703.8049040627966,0.0
114,2.496133804321289,703.3072388503174,0.1177608211231402,703.5492699346848,702.974078667244,0.0,12.177258290515736,0.1,0.018955230712890625,0.4339632987976074,0.03143069,0.0045060054,701.6564291519687,-0.4836878207661684,3.5146455125671654,0.0,19200,3.5583956241607666,1.5415993912790273e-06,3.207432851103016e-07,703.9135321122113,0.0
115,2.672156810760498,703.4822055071992,0.09395430874802646,703.7181682377154,703.2533457998297,0.0,7.652158759448939,0.1,0.01846003532409668,0.4257974624633789,0.03275613,0.009724864,701.8390067874918,-0.48281316930226015,3.515520164031073,0.0,19200,3.295701503753662,6.628833245510164e-07,3.068821955373539e-07,704.0017508196983,0.0
116,2.67069411277771,703.5939441261536,0.08701846567841409,703.8376672897172,703.3494917960907,0.0,10.05190439635117,0.1,0.021561384201049805,0.41295838356018066,0.049374104,0.010437641,702.0145005213581,-0.4822541431719996,3.5160791901613337,0.0,19200,3.2028894424438477,5.788140847310018e-07,9.723908004386886e-08,700.0955101710479,0.0
117,2.496657371520996,703.4348310033525,1.0298931497361434,703.901081101719,699.6093718599316,0.0,7.432498237563108,0.1,0.016601085662841797,0.3819770812988281,0.046689887,0.01345765,702.1565335695575,-0.4815910038367413,3.5154923294965923,0.0,19200,3.1690642833709717,5.531022241058728e-06,5.375305314633391e-06,700.0942563783442,0.0
118,2.4789390563964844,703.473099756378,0.9683523883441648,703.86962970428,699.5184528506818,0.0,12.776447004814228,0.1,0.016814231872558594,0.5265953540802002,0.04450079,0.006193253,702.2881901882396,-0.48160792834260313,3.5156837383240642,0.0,19200,3.6303067207336426,5.570415213404305e-06,4.9486363425225755e-06,700.1211016550267,0.0
119,2.5007705688476562,703.2451428400406,1.6427181424081543,703.9119973357268,695.7573714798472,0.0,9.926367090770844,0.1,0.021387577056884766,0.46680569648742676,0.03605686,0.0074838926,702.3838854534197,-0.48149785823061353,3.5145438084360534,0.0,19200,2.8785295486450195,1.3680529167402787e-05,1.4989237667013077e-05,700.0768027884735,0.0
120,2.478936195373535,703.6987882383701,0.10018874152376735,703.9038532361891,703.3604881926689,0.0,9.51670152889344,0.1,0.01862502098083496,0.4481055736541748,0.046790995,0.011189523,702.5153757319147,-0.4817296623496021,3.516603670983731,0.0,19200,3.285196542739868,4.533733105832787e-07,1.222178237897206e-07,696.1740513845477,0.0
121,2.5946006774902344,702.3304466828182,2.043589934409029,703.9104189722384,695.7924384680248,0.0,6.791457973450271,0.1,0.018074750900268555,0.40657806396484375,0.046268288,0.014019643,702.496882827005,-0.4812791565986427,3.510804176734691,0.0,19200,2.8254733085632324,3.0234117017321592e-05,2.2293393751478523e-05,696.1425856099113,0.0
122,2.674955129623413,702.7287815492741,2.0755628317516273,703.9276994730951,691.7187419044296,0.0,7.3176740914070715,0.1,0.020612716674804688,0.47872257232666016,0.046955884,0.013301237,702.520072699232,-0.4813708555792176,3.5125874777541157,0.0,19200,3.1185014247894287,2.2902579461843623e-05,2.2208965015800232e-05,700.088725004184,0.0
123,2.6240150928497314,703.5690293852176,0.6851837419750673,703.928378440526,699.6824324050708,0.0,7.992346079348299,0.1,0.014812231063842773,0.4270157814025879,0.054469235,0.013623626,702.6249683678305,-0.48175338383295657,3.5159549495003772,0.0,19200,3.317204713821411,4.53050369599227e-06,2.3758430901492493e-06,700.0952415428249,0.0
124,2.522948980331421,703.4591220655576,0.9593682011139362,703.9005624979121,699.706598668861,0.0,10.70444236461286,0.1,0.01882195472717285,0.4651529788970947,0.046264667,0.012198966,702.7083837376033,-0.48167792256934217,3.5156137440973247,0.0,19200,3.2910146713256836,4.951400945480903e-06,8.266393579410626e-06,696.1480940264826,0.0
125,2.504124402999878,703.0637426565535,1.6721829922366727,703.8836605102412,695.7490166176249,0.0,12.137329116229987,0.1,0.017699003219604492,0.4087681770324707,0.047128584,0.0069427956,702.7439196294984,-0.4815711817481696,3.51405381825183,0.0,19200,3.256805181503296,1.4975494001522953e-05,1.525286453693238e-05,700.1330988770685,0.0
126,2.5139214992523193,703.2302610909143,1.1615661650598186,703.8060736263885,699.4685682854596,0.0,10.3654656764934,0.1,0.01746535301208496,0.42818188667297363,0.048117466,0.009426746,702.7925537756399,-0.48219710950765093,3.5144695571590154,0.0,19200,3.115997076034546,9.41905367168964e-06,8.007744513454518e-06,696.1507876541649,0.0
127,2.5405046939849854,702.364144727478,2.282341157642,703.7768970478627,695.6707739833438,0.0,7.342926322519297,0.1,0.01903390884399414,0.4243130683898926,0.048188943,0.00877256,702.7497128708237,-0.4821525444452937,3.5105557888880394,0.0,19200,3.4417214393615723,3.592680903768332e-05,2.742385468936464e-05,700.12047884823,0.0
128,2.5032968521118164,703.1744258426144,1.2376721536745021,703.8162895912153,699.6779510021316,0.0,9.529076343631278,0.1,0.01611781120300293,0.44791316986083984,0.05139473,0.008989635,702.7921841680028,-0.48205956940149974,3.5143987639318333,0.0,19200,3.482515811920166,1.530010015451511e-05,1.2601331082266556e-05,700.0840703206507,0.0
129,2.659478187561035,703.2692952548683,1.2440084857467448,703.7944122075342,695.4126320755329,0.0,7.540320430370417,0.1,0.0169680118560791,0.39863061904907227,0.04966288,0.010688992,702.8398952766893,-0.48221035332985346,3.514456313336813,0.0,19200,3.1543633937835693,1.1952621738261901e-05,7.589833528728786e-06,703.9205151874941,0.0
130,2.635516405105591,703.4483674977001,0.12779365979583673,703.7070899979484,703.1275973997941,0.0,10.187744300362139,0.1,0.018079519271850586,0.457486629486084,0.048292194,0.007935808,702.9007424987904,-0.4829823600882215,3.5153509732451114,0.0,19200,3.341911792755127,6.437037802324719e-07,3.0651303076416516e-07,703.6379464246161,0.0
131,2.5284910202026367,703.1946669676778,0.15988053999267565,703.6620484449506,702.7842789413992,0.0,7.794043712085129,0.1,0.015999555587768555,0.4453613758087158,0.05274678,0.010645752,702.9301349456791,-0.48425170109849086,3.5140816322348427,0.0,19200,3.2388696670532227,7.1045248549939e-07,2.956972105573197e-07,703.6314663927812,0.0
132,2.5484001636505127,703.2790789716464,0.11458774183574713,703.5360605945507,702.9877518682807,0.0,7.862780555368049,0.1,0.01815652847290039,0.3918023109436035,0.042519245,0.0095021315,702.965029348276,-0.48382943346611723,3.5145038998672162,0.0,19200,3.0930709838867188,2.379181712339058e-07,1.9233502482031802e-07,703.4583390045993,0.0
133,2.4906673431396484,703.112949027089,0.1335814868397959,703.4385607260282,702.7301264685435,0.0,11.960906582849,0.1,0.0186612606048584,0.42862415313720703,0.047416054,0.0069429385,702.9798213161573,-0.48466044299935335,3.51367289033398,0.0,19200,3.0998170375823975,4.4488256642273274e-07,2.846445062488414e-07,703.2444802857688,0.0
134,2.533686637878418,702.8567254223318,0.18382376590390512,703.2557759394563,702.2440192394173,0.0,8.245656028757187,0.1,0.014653682708740234,0.38158178329467773,0.03565112,0.007939771,702.9675117267748,-0.4859417585499928,3.51239157478334,0.0,19200,3.090656042098999,1.1751296741892107e-06,8.236761718974529e-07,703.2815335710345,0.0
135,2.54287052154541,702.8864943305467,0.18125449992320966,703.3186824989023,702.32850466998,0.0,7.969603731439986,0.1,0.018605947494506836,0.46282958984375,0.041214418,0.012925861,702.959409987152,-0.4857928442393434,3.5125404890939897,0.0,19200,2.7142136096954346,7.679760857467591e-07,2.7030097423234094e-07,703.3666082128525,0.0
136,2.6183674335479736,702.9779976678315,0.1708296955881789,703.4055413281933,702.6143218876182,0.0,8.601114884762566,0.1,0.014907598495483398,0.4320683479309082,0.047392912,0.011482883,702.9612687552199,-0.4853352918743048,3.512998041459029,0.0,19200,2.889657497406006,3.8156808391778495e-07,2.1930786514959008e-07,703.5904215996607,0.0
137,2.6947946548461914,703.2274284282679,0.13320729130591272,703.6196765601585,702.9796500121357,0.0,8.13746527640194,0.1,0.018407821655273438,0.43274712562561035,0.043882668,0.009907103,702.9878847225247,-0.4840878277340328,3.5142455055993005,0.0,19200,3.2944955825805664,5.867243781851268e-07,4.472222277054453e-07,703.8010640702139,0.0
138,2.5149753093719482,703.4312367013621,0.3862595448056483,703.7151064531903,699.8548004442921,0.0,7.229234581295102,0.1,0.01613759994506836,0.45285844802856445,0.04966184,0.012521461,703.0322199204084,-0.4828598826479718,3.5152651173520284,0.0,19200,2.97080397605896,8.307397813689162e-07,8.468313664847047e-07,703.9431487484445,0.0
139,2.50227952003479,703.5787396793362,0.39516927695594484,703.8087675749161,699.8694865903117,0.0,13.798018908953441,0.1,0.015548467636108398,0.4749021530151367,0.042324413,0.005704762,703.0868718963012,-0.4821220648171835,3.5160029351828164,0.0,19200,2.952716112136841,9.959970768407112e-07,1.864982433886274e-06,696.1601143982166,0.0
140,2.5026915073394775,700.6494843323984,3.1621873982429354,703.913324550645,691.9429967342486,0.0,13.207091882921233,0.1,0.019437551498413086,0.4058852195739746,0.04494504,0.0074860146,702.843133139911,-0.48093405673006195,3.501774276603271,0.0,19200,2.6045618057250977,8.435047020140642e-05,5.1869856311706894e-05,688.2372046231724,0.0
141,2.504356861114502,697.4427973357052,3.899938045486788,703.9203471159781,684.0954585702059,0.0,13.33840359562794,0.1,0.034607887268066406,0.42654967308044434,0.05441994,0.006381798,702.3030995594904,-0.4805088175877658,3.4865745157455676,0.0,19200,2.8688080310821533,0.00014430942752382539,7.791253617428621e-05,692.2257915005914,0.0
142,2.480215311050415,698.5894880715906,3.4134394525815654,703.9020762916058,691.9930958842423,0.0,12.154905546424496,0.1,0.023456335067749023,0.44068360328674316,0.045015015,0.008761844,701.9317384107005,-0.48060870800311095,3.492516291996889,0.0,19200,2.7710366249084473,6.789442905999307e-05,5.93256522027789e-05,696.1441104845143,0.0
143,2.672603130340576,702.5778178530069,2.3580214670930713,703.8912491814783,692.0817144242396,0.0,13.93672601250444,0.1,0.015511035919189453,0.44118380546569824,0.04754383,0.007365934,701.9963463549312,-0.4815007651480705,3.5118325681852625,0.0,19200,3.1046626567840576,0.0001110827285524506,2.6857886547410422e-05,696.130956940458,0.0
144,2.659397602081299,702.4063297809067,2.186490813674625,703.872638407368,695.7913177102199,0.0,11.403314886094835,0.1,0.018103361129760742,0.44345641136169434,0.050691236,0.006799202,702.0373446975289,-0.4817331531837153,3.510766846816285,0.0,19200,3.4569244384765625,2.3315713505546204e-05,2.614099647511555e-05,700.054518551885,0.0
145,2.505939483642578,703.3326557621532,1.0180295066357503,703.8379917832492,695.8357234721082,0.0,6.834905631935452,0.1,0.014163494110107422,0.46397924423217773,0.052070204,0.013178202,702.1668758039914,-0.4825186984073356,3.5147729682593307,0.0,19200,3.210585832595825,1.803628293513718e-05,5.712233651248462e-06,703.8014419604166,0.0
146,2.5649213790893555,703.2983646493391,0.17334784538452197,703.6971463089455,702.8091552831858,0.0,6.797463280508616,0.1,0.021533727645874023,0.4460105895996094,0.043042384,0.01538585,702.2800246885262,-0.4837327182301019,3.514600615103232,0.0,19200,2.9423723220825195,2.196783272649511e-06,5.785668243277261e-07,703.4534299695902,0.0
147,2.560913562774658,702.7796255261574,0.2692047855425578,703.256008429424,702.0333153655616,0.0,9.639614687485048,0.1,0.017833471298217773,0.4144711494445801,0.048453946,0.0108741475,702.3299847722892,-0.4863268099900587,3.5120065233432745,0.0,19200,3.259258508682251,4.572940001491101e-06,9.260769916645858e-07,702.7790592282302,0.0
148,2.7061033248901367,702.0721816323584,0.2899884616851241,702.7581688802742,701.2717912647768,0.0,7.865695704632494,0.1,0.01630425453186035,0.41477346420288086,0.04684046,0.014225717,702.3042044582962,-0.48986491121395703,3.5084684221193765,0.0,19200,3.2451541423797607,6.806838688603292e-06,8.566525852311767e-07,702.3260882342483,0.0
149,2.509420156478882,701.4726023894985,0.36880519200222034,702.3115715101279,700.597360462202,0.0,12.352884135650271,0.1,0.01766800880432129,0.44708728790283203,0.048465755,0.009261664,702.2210442514165,-0.4928631781591159,3.5054701551742173,0.0,19200,3.283536672592163,5.163650037659393e-06,1.0036757765189189e-06,702.0521008086299,0.0
150,2.667836904525757,701.3817243193307,0.33015082120167355,702.3528379756176,700.5909219903557,0.0,9.909814816895267,0.1,0.01708698272705078,0.41060519218444824,0.05437276,0.009930789,702.1371122582079,-0.49331758199403586,3.505015751339298,0.0,19200,3.144991397857666,8.6407844917866e-07,7.273442712317635e-07,702.0128340877654,0.0
151,2.481919288635254,701.427964361586,0.34679645030254785,702.2398463239234,700.3768318960068,0.0,10.367067888685263,0.1,0.015348434448242188,0.4229249954223633,0.045843262,0.011197212,702.0661974685457,-0.4930864371882622,3.505246896145071,0.0,19200,2.768015146255493,7.79018730801147e-07,6.765375239540356e-07,702.4935423938343,0.0
152,2.5046443939208984,701.9633544323642,0.3080683652070087,702.6625468017392,701.2693471028064,0.0,10.223904279723067,0.1,0.016390323638916016,0.42806291580200195,0.057695065,0.008858921,702.0559131649276,-0.4904092963306815,3.507924037002652,0.0,19200,3.385996103286743,1.8930498713165795e-06,5.723847302188645e-07,702.9029941040136,0.0
153,2.4827394485473633,702.4274498121786,0.2757549799626137,703.3122949718619,701.6527329601367,0.0,6.65243876187587,0.1,0.021979331970214844,0.40862083435058594,0.050177075,0.014384333,702.0930668296527,-0.4880884842320528,3.51024484910128,0.0,19200,2.9743425846099854,1.9118515697557557e-06,4.144382836368038e-07,703.5928143407472,0.0
154,2.508061170578003,703.1718641916964,0.200327050692343,703.6026523447804,702.6262279648786,0.0,8.971951873412044,0.1,0.02083563804626465,0.4428584575653076,0.05087696,0.011195685,702.2009465658571,-0.4843652654948138,3.5139680678385203,0.0,19200,3.174891233444214,1.863568479774983e-06,2.20042615800725e-07,703.9753641084274,0.0
155,2.5642991065979004,703.2935248130829,1.2381228688485824,703.899464062024,695.9406077228776,0.0,8.512490530594166,0.1,0.021633625030517578,0.43578243255615234,0.045779247,0.008792684,702.3102043905797,-0.48188143516087406,3.514576898172459,0.0,19200,2.99554705619812,8.45732590803215e-06,8.147442605964581e-06,696.1147185982129,0.0
156,2.5204079151153564,700.5840572945212,3.41194453426171,703.9076568266082,692.0871891841082,0.0,7.717496056127027,0.1,0.016564369201660156,0.46071481704711914,0.04775283,0.010764739,702.1375896809739,-0.48084433556572365,3.5020723311009436,0.0,19200,2.9724783897399902,0.00010335352644762044,6.585916667854303e-05,696.1060974283398,0.0
157,2.6623387336730957,701.8080940983264,2.6868060500383586,703.9424219037215,692.1696582323351,0.0,7.748228093464759,0.1,0.018166780471801758,0.43497228622436523,0.045860104,0.019192817,702.104640122709,-0.48097427947325183,3.5081923871934144,0.0,19200,3.001997232437134,6.522660744512221e-05,3.7193264411926776e-05,696.0909481136722,0.0
158,2.657010078430176,701.6406367286144,3.0542358341038947,703.9084421294601,692.034663531878,0.0,9.78580216036823,0.1,0.020385026931762695,0.39615607261657715,0.047087982,0.01135502,702.0582397832995,-0.4811866305331131,3.5071467028002203,0.0,19200,2.941534996032715,4.663634240605986e-05,4.5460696248512405e-05,700.0604567659261,0.0
159,2.513066530227661,701.6401603688506,3.2059996547154537,703.8891897736462,691.9957057209724,0.0,12.877117145121,0.1,0.016989469528198242,0.4488401412963867,0.04812021,0.0077127474,702.0164318418547,-0.48118896436956904,3.5069360356304315,0.0,19200,2.6108875274658203,5.021759085146002e-05,4.9597168291710896e-05,703.9705974946451,0.0
160,2.499537229537964,703.1148393194621,1.311946623915812,703.8611715799176,699.5346674397766,0.0,5.74719206715765,0.1,0.01832723617553711,0.4451017379760742,0.04514319,0.017805152,702.1262725896155,-0.4819411421830672,3.5138921911502656,0.0,19200,2.651038408279419,1.4152381921480284e-05,8.49049047481213e-06,703.9400307376957,0.0
161,2.499908447265625,703.500411511714,0.6735956227338263,703.9207319992299,699.8098544790568,0.0,8.106767752089613,0.1,0.014712810516357422,0.44269394874572754,0.04531909,0.013597558,702.2636864818253,-0.4820968506428249,3.5156114826905083,0.0,19200,2.8987183570861816,2.600962054192811e-06,2.8091007175150188e-06,703.5044648532172,0.0
162,2.529820680618286,703.0833639124536,0.2184450792512729,703.4979103446401,702.3140633947584,0.0,6.744197002346763,0.1,0.01672077178955078,0.505547285079956,0.04781691,0.0133079495,702.3456542248881,-0.4848080388299944,3.5135252945033386,0.0,19200,2.6301934719085693,8.490232754947951e-06,7.954475512199977e-07,703.3243512424312,0.0
163,2.487046241760254,702.9258535879007,0.21859055246910344,703.3191567662691,702.3013610670604,0.0,7.659009116874556,0.1,0.037188053131103516,0.5452616214752197,0.052798484,0.014340708,702.4036741611894,-0.4855962742178324,3.5127370591155014,0.0,19200,3.191570520401001,1.1227053379052218e-06,7.022905235020894e-07,702.6397902272494,0.0
164,2.6187222003936768,702.248068115085,0.2524435623845488,702.7772260878263,701.5371529903392,0.0,8.796910868444296,0.1,0.016344785690307617,0.4273109436035156,0.04668708,0.009412101,702.388113556579,-0.48898564919356086,3.5093476841397724,0.0,19200,2.634289264678955,6.3525043040345015e-06,7.30521706263096e-07,702.6955760112329,0.0
165,2.6527321338653564,702.2526762212924,0.23301020541212597,702.7903617558712,701.5545714636132,0.0,5.572024864760762,0.1,0.015584230422973633,0.41779541969299316,0.047205005,0.01598357,702.3745698230504,-0.48896269489919436,3.5093706384341385,0.0,19200,3.2875983715057373,6.474912463401078e-07,6.517470816852007e-07,702.2731016861976,0.0
166,2.4973790645599365,701.8226979807368,0.28615212990452565,702.4572064937081,700.9543816756499,0.0,10.919325030411994,0.1,0.015393733978271484,0.41464900970458984,0.045910016,0.0076237945,702.319382638819,-0.4911128236069627,3.507220509726371,0.0,19200,2.7492146492004395,1.6476243460500375e-06,1.2776994798910833e-06,702.0308193803986,0.0
167,2.5317747592926025,701.5462463304711,0.292936274570488,702.1681875640049,700.7325579311436,0.0,7.81499859918974,0.1,0.020841598510742188,0.4474360942840576,0.05014143,0.011601585,702.2420690079842,-0.4924952658123473,3.5058380675209864,0.0,19200,2.6647889614105225,7.739458589552485e-07,2.063008645876686e-06,702.1827629940974,0.0
168,2.5301642417907715,701.6815625209844,0.260819905197012,702.2351208547223,701.035903865132,0.0,9.294570109348314,0.1,0.01668071746826172,0.42575693130493164,0.04712903,0.009112178,702.1860183592843,-0.4918187102665663,3.506514623066767,0.0,19200,3.120504140853882,1.3469102657234022e-06,4.802205450881185e-07,702.4611795218516,0.0
169,2.505326271057129,701.8732722773448,0.2740926405720609,702.3844707351656,701.1623555846566,0.0,10.596032057857288,0.1,0.01995992660522461,0.4120364189147949,0.04865342,0.008404027,702.1547437510903,-0.490859986050975,3.507473347282358,0.0,19200,3.1096160411834717,7.820115184780189e-07,5.918159846957043e-07,702.7853100994151,0.0
170,2.515120029449463,702.2886760372797,0.28319983210288685,702.7728357983295,701.1088541505874,0.0,8.861865109084414,0.1,0.023123741149902344,0.4245314598083496,0.051424947,0.010974786,702.1681369797093,-0.4887825963557268,3.5095507369776064,0.0,19200,2.6569957733154297,2.125117601809701e-06,4.3050140682690116e-07,703.4859474865907,0.0
171,2.651792287826538,703.0375508945493,0.2127593935953359,703.4925825383201,702.5865800450154,0.0,10.33567627362315,0.1,0.01712775230407715,0.41617274284362793,0.051420446,0.008539291,702.2550783711933,-0.48503725367025,3.5132960796630837,0.0,19200,2.7474734783172607,3.094657209134429e-06,5.048936688175934e-07,703.9655668234072,0.0
172,2.64839243888855,703.61528755696,0.14839609782679714,703.924235309022,703.1655840065409,0.0,7.917618633936787,0.1,0.01905202865600586,0.4517664909362793,0.05198138,0.010933719,702.3910992897701,-0.4821475509603521,3.516185782372981,0.0,19200,2.7055723667144775,2.897917020839791e-06,3.639628373610987e-07,692.1878880209201,0.0
173,2.5265884399414062,699.7543410440379,3.9751814969981987,703.9503201173578,688.09373415175,0.0,8.008676975937771,0.1,0.016603946685791016,0.44275355339050293,0.04881349,0.010427812,702.1274234651969,-0.4806176909848759,3.498132309015124,0.0,19200,2.859940528869629,0.00017210187764875895,9.399204185116314e-05,692.176980717606,0.0
174,2.5032849311828613,700.4136848343416,3.914081355270842,703.9688264855969,688.1809519631026,0.0,9.213404602405422,0.1,0.02146172523498535,0.42942261695861816,0.047478918,0.009949102,701.9560496021113,-0.48065449732794635,3.501428836005387,0.0,19200,3.060868978500366,8.334976101361374e-05,9.588808283318339e-05,692.2087504734643,0.0
175,2.5405361652374268,698.7156570828023,4.388015819312806,703.9604522116329,688.2122340278261,0.0,11.502504920087867,0.1,0.018544912338256836,0.42215704917907715,0.047599427,0.008117176,701.6320103501805,-0.48039462292010254,3.492730377079898,0.0,19200,2.6375367641448975,9.8794427386473e-05,0.00010112459774928269,696.0986440089044,0.0
176,2.537010431289673,702.2154139985659,2.7045614071150554,703.9290775170807,692.061930294356,0.0,8.533608230875576,0.1,0.019842863082885742,0.41163182258605957,0.04332986,0.013798797,701.6903507150191,-0.4812294451960266,3.510020554803973,0.0,19200,2.9342122077941895,5.979482150384742e-05,3.467154377246156e-05,700.0102468131383,0.0
177,2.4602222442626953,703.2984086150649,1.4724868123482278,703.9404689630258,695.9932392686328,0.0,6.043434278304416,0.1,0.016766786575317383,0.428539514541626,0.049526874,0.015669039,701.8511565050237,-0.48185673534201623,3.514601597991317,0.0,19200,2.661968469619751,1.2819235090139776e-05,1.027662299402921e-05,703.8287863168441,0.0
178,2.663132429122925,703.4399073583013,0.1860830198228702,703.9070458255762,702.8959121623028,0.0,4.571042657462217,0.1,0.01952838897705078,0.4269852638244629,0.04917448,0.023063239,702.0100315903516,-0.48302461308604466,3.515308720247289,0.0,19200,3.3750569820404053,8.72369502258548e-07,8.999282566343059e-07,703.1490064394591,0.0
179,2.664368152618408,702.6620340561052,0.26737272373894144,703.2119086247397,701.9289735201828,0.0,8.020396305174572,0.1,0.018776893615722656,0.43567657470703125,0.040802166,0.013207672,702.075231836927,-0.4869152317451337,3.5114181015881996,0.0,19200,3.307103157043457,9.652081189064784e-06,1.2720590256879208e-06,702.7886197745654,0.0
180,2.499244451522827,702.1855104844577,0.35160491352366313,703.0434569060699,701.2235810647865,0.0,7.54761272990998,0.1,0.01779937744140625,0.41524481773376465,0.056932736,0.0140313385,702.08625970168,-0.4892984396512734,3.5090348936820597,0.0,19200,3.133963108062744,3.3518225112538662e-06,1.6141307549396328e-06,701.5827983577942,0.0
181,2.5272068977355957,701.01851359489,0.3412509600933667,701.7458451977288,700.1920295166963,0.0,7.257256749699013,0.1,0.01775336265563965,0.38814759254455566,0.05255556,0.01235053,701.979485091001,-0.49513397631947154,3.503199357013862,0.0,19200,3.1789956092834473,1.7202386787845075e-05,9.824065314879452e-07,701.1465885315256,0.0
182,2.5179810523986816,700.526739581429,0.4028907803156945,701.5030034988399,699.3787844510119,0.0,12.11726529768383,0.1,0.017435312271118164,0.40015554428100586,0.04218932,0.006465637,701.8342105400438,-0.49759277939047325,3.5007405539428604,0.0,19200,3.260305643081665,2.396095803742848e-06,1.5211205729222234e-06,701.2014879404212,0.0
183,2.515180826187134,700.5670950994119,0.3767970551821039,701.7234175993871,699.7332041548487,0.0,9.756186223412282,0.1,0.020479202270507812,0.4324455261230469,0.04747938,0.0093551325,701.7074989959806,-0.4973909748426604,3.5009423584906734,0.0,19200,2.678959608078003,1.5310621434889545e-06,9.849372275794236e-07,701.4296245635297,0.0
184,2.5108981132507324,700.878825856917,0.3128551782300593,701.6153671349731,699.9802274956629,0.0,10.30998058138297,0.1,0.020677804946899414,0.4059560298919678,0.04955475,0.010764255,701.6246316820742,-0.4958322613761868,3.5025010719571466,0.0,19200,2.7962841987609863,7.116204358530006e-07,6.09552196166943e-07,702.175125680574,0.0
185,2.6377334594726562,701.6303461172843,0.330076229790352,702.3437989198374,700.6346602960979,0.0,7.460542308745564,0.1,0.020697355270385742,0.427431583404541,0.05236952,0.012897104,701.6252031255952,-0.4920745735767546,3.506258759756579,0.0,19200,3.1850955486297607,2.546516352134258e-06,1.3330932175193736e-06,702.8466059969128,0.0
186,2.5961787700653076,702.3351275583306,0.2628026662115486,703.0633789413554,701.7606757929447,0.0,9.319587599317344,0.1,0.017373085021972656,0.4331481456756592,0.045905516,0.012668593,701.6961955688688,-0.4885503810802247,3.5097829522531083,0.0,19200,2.9802441596984863,5.206132226215814e-06,6.234989501634886e-07,703.3650524820682,0.0
187,2.505110740661621,702.8381883970927,0.2050811985619132,703.2282353565341,702.1331458575323,0.0,6.4745577522724185,0.1,0.020243406295776367,0.39330077171325684,0.051389482,0.013538955,701.8103948516912,-0.48603412878509394,3.5122992045482397,0.0,19200,3.002753734588623,2.5141720014874094e-06,3.1740322164404754e-07,703.9478747323383,0.0
188,2.494384288787842,703.4185279067807,0.6595479549767791,703.8295981445148,699.8386380878623,0.0,8.618207875368277,0.1,0.0179288387298584,0.43576550483703613,0.047410715,0.011493154,701.9712081572002,-0.4825060227534892,3.5154106439131767,0.0,19200,3.167012929916382,4.3376670012519136e-06,3.105783957835062e-06,692.1800233812321,0.0
189,2.4962992668151855,699.4846739830683,3.637319972286482,703.8947657456715,687.9714493660156,0.0,12.782646438444523,0.1,0.021014928817749023,0.4725978374481201,0.044844087,0.006543838,701.722554739787,-0.48113272351256126,3.4969922764874384,0.0,19200,2.673994779586792,0.00016840274790914887,6.987767378854759e-05,688.2159006467103,0.0
190,2.4753823280334473,696.1658947934366,5.193545246252358,703.8165922256037,683.868892387741,0.0,6.079944697638692,0.1,0.020702362060546875,0.3957042694091797,0.052914828,0.01409574,701.166888745152,-0.48106009076049855,3.479981575906168,0.0,19200,2.560373067855835,0.00021347931422119535,0.0001588901638741747,692.1922927508408,0.0
191,2.469989061355591,698.1994316337273,4.835142663076185,703.8810741262565,684.1316423675402,0.0,10.488530008966412,0.1,0.016467809677124023,0.4121229648590088,0.04670079,0.010066814,700.8701430340096,-0.48089248480120705,3.4899408485321266,0.0,19200,2.47963547706604,0.0001205509514718319,0.0001416842656508307,692.1935182234056,0.0
192,2.634617567062378,700.2857005706404,3.8729231930538495,703.8119849264689,687.9703980446075,0.0,7.889310566728127,0.1,0.021108627319335938,0.43715858459472656,0.052673675,0.013784007,700.8116987876728,-0.4815025337621597,3.50099746623784,0.0,19200,3.081991195678711,7.444799075324579e-05,7.671235768047781e-05,696.113873445114,0.0
193,2.6264808177948,702.2640715570657,2.594440174994759,703.8091921294968,692.0728064586319,0.0,7.378906715982515,0.1,0.02128314971923828,0.4171142578125,0.05267511,0.011828477,700.9569360646121,-0.48202804758438234,3.509846952415618,0.0,19200,2.90301251411438,3.710352339190465e-05,3.228742151749204e-05,699.9889124702757,0.0
194,2.5156667232513428,703.0620965572715,1.3692377236604782,703.8345207282548,695.8813513860215,0.0,8.835523516453108,0.1,0.016172409057617188,0.4569120407104492,0.0526833,0.011663492,701.1674521138781,-0.4828300358151855,3.513628297518148,0.0,19200,2.972954511642456,9.482455012765618e-06,8.636606133489705e-06,703.5287855196709,0.0
195,2.491349220275879,703.0409295365653,0.258980472204196,703.5928057952755,702.1824399624782,0.0,5.469724210866233,0.1,0.01615738868713379,0.44809746742248535,0.04477078,0.020398587,701.3547998561469,-0.48502005263818254,3.513313280695151,0.0,19200,2.4116134643554688,3.948119614322262e-06,1.3961009283769255e-06,702.80686553262,0.0
196,2.519268035888672,702.2072390137952,0.30225728763877724,702.8938277837143,701.4384543215951,0.0,10.70613091630832,0.1,0.016376495361328125,0.4403369426727295,0.042446066,0.008409675,701.4400437719117,-0.4891896248189602,3.5091437085143724,0.0,19200,2.7024128437042236,1.3362014337333067e-05,1.3189839237037247e-06,702.1219181240564,0.0
197,2.5046324729919434,701.3867564723228,0.3295239167684294,702.0127515065119,700.5710642697201,0.0,9.875078844894677,0.1,0.019042015075683594,0.44618701934814453,0.047921885,0.010030196,701.4347150419528,-0.49329272538439684,3.5050406079489367,0.0,19200,3.1367805004119873,1.0513003206835213e-05,1.232962341519128e-06,701.5218687029788,0.0
198,2.4779741764068604,700.7162374787558,0.35392251667723573,701.6257262438777,699.740027693991,0.0,9.514346946511052,0.1,0.01768803596496582,0.40764498710632324,0.051164553,0.011859323,701.3628672856331,-0.49664536662852604,3.501687966704807,0.0,19200,2.981637716293335,4.306850661293227e-06,1.0673825957675372e-06,700.454233006813,0.0
199,2.6514151096343994,694.6824503836342,19.404169364065776,700.5073754466716,578.4988955322459,0.0,6.075420190475149,0.1,0.017774343490600586,0.4335517883300781,0.048143815,0.013679221,700.6948255954333,-0.5026474226793057,3.471519243987361,0.0,19200,2.9527299404144287,0.001317683214989344,0.0012482910533596365,701.4676905360922,0.0
200,2.653623580932617,700.6944387230745,0.28990595299475275,701.272752967339,699.9852709558942,0.0,10.606718693907338,0.1,0.019939422607421875,0.4325406551361084,0.05315017,0.008622854,700.6947869081974,-0.49675435277793767,3.501578980555396,0.0,19200,2.697096109390259,4.072165091835255e-05,5.665266738916469e-07,701.8848744049908,0.0
201,2.5207276344299316,701.0733978970851,0.2987282571123732,701.837042416123,700.3679378260794,0.0,8.8067448566057,0.1,0.014081954956054688,0.47896385192871094,0.04309834,0.011044674,700.7326480070861,-0.49485977706448664,3.503473556268847,0.0,19200,3.013702869415283,1.5037783355791977e-06,5.652107106737836e-07,702.2264300213453,0.0
202,2.5307209491729736,701.3426501960852,0.27204533354532856,701.945240080798,700.6594367012896,0.0,8.44274327290638,0.1,0.022091388702392578,0.44595932960510254,0.04942295,0.011525758,700.7936482259861,-0.49351300834684175,3.504820324986492,0.0,19200,3.022221088409424,1.0088437770072992e-06,7.817918986773789e-07,702.5257911847793,0.0
203,2.5195531845092773,701.755906649656,0.2714447919534115,702.3443101148035,701.020971148047,0.0,9.4778358268292,0.1,0.017841815948486328,0.44113802909851074,0.045699727,0.009989486,700.8898740683532,-0.49144658063032404,3.506886752703009,0.0,19200,2.9578990936279297,7.639114083845289e-07,4.983987843384667e-07,703.0332958843507,0.0
204,2.5362913608551025,702.2839268556669,0.24797106047287235,702.9160348213508,701.5656685048122,0.0,11.432762716254562,0.1,0.015972614288330078,0.4789433479309082,0.04597213,0.008269889,701.0292793470846,-0.48880587348733745,3.509527459845996,0.0,19200,3.3195745944976807,2.4494753052745248e-06,4.489225334280213e-07,703.4973803187994,0.0
205,2.661870241165161,702.8709062881247,0.2077142985900918,703.2784371721808,702.2975443597684,0.0,11.66113981554499,0.1,0.021677255630493164,0.39864230155944824,0.049636427,0.0081817405,701.2134420411887,-0.48587040265263465,3.5124629306806985,0.0,19200,2.8270211219787598,2.9932639100892175e-06,3.810367327832635e-07,703.7467638868691,0.0
206,2.61246395111084,703.1769460937254,0.22973266206596832,703.6278463995186,702.3811927737871,0.0,9.479540562418277,0.1,0.016042232513427734,0.38321375846862793,0.045958154,0.010049566,701.4097924464425,-0.4843400398652537,3.5139932934680793,0.0,19200,2.596757173538208,1.2709173489784842e-06,4.161599237128325e-07,692.1754282997164,0.0
207,2.5276029109954834,700.9812584623219,4.1023496537349,703.7996907944487,684.0070401565035,0.0,10.703992242872864,0.1,0.016477584838867188,0.49675512313842773,0.051643603,0.008914018,701.3669390480304,-0.4819836030543354,3.503433063612331,0.0,19200,2.837505578994751,0.00011556360720758192,9.124534634553591e-05,696.117168662786,0.0
208,2.557729959487915,702.0655462233354,3.155700173273849,703.8784356307345,684.1438500044522,0.0,14.197070945476371,0.1,0.021846532821655273,0.4098527431488037,0.044186216,0.0073336354,701.436799765561,-0.4817709412616556,3.5084373920716776,0.0,19200,2.6962316036224365,7.667869396364318e-05,5.041240812407441e-05,700.0502811273229,0.0
209,2.523564577102661,702.5048398463251,2.4827611354874253,703.7496689678449,691.9148452241354,0.0,12.5840685793883,0.1,0.018444061279296875,0.39648890495300293,0.0485268,0.008232251,701.5436037736374,-0.48249112223103535,3.510842211102298,0.0,19200,2.8993682861328125,3.311344524032485e-05,2.867519435319972e-05,703.9585742292477,0.0
210,2.5766594409942627,703.1479095243573,1.2417233659926223,703.7457987042803,691.7594138215547,0.0,10.916432434782472,0.1,0.014159917831420898,0.42358851432800293,0.046875916,0.009685423,701.7040343487095,-0.48365103016935657,3.514057303163977,0.0,19200,2.844778060913086,1.0008098662547999e-05,7.875961060916994e-06,703.6608120162666,0.0
211,2.570126533508301,702.8853871192456,0.25865283236685666,703.429605897788,702.2341644728655,0.0,6.464641236117905,0.1,0.017487525939941406,0.43216800689697266,0.04542896,0.0155803235,701.8221696257631,-0.48579753561750366,3.5125357977158305,0.0,19200,2.819103717803955,3.5523258682029932e-06,1.0759755702745798e-06,703.1234001185026,0.0
212,2.65191388130188,702.0228989706447,0.3901561605523203,702.7925822973447,700.4154944266379,0.0,9.770626064922812,0.1,0.01674175262451172,0.4781951904296875,0.04805587,0.01021853,701.8422425602513,-0.4901105096161003,3.508222823717233,0.0,19200,3.8376336097717285,1.2339686098747931e-05,1.955345657583651e-06,702.7273236028404,0.0
213,2.679399013519287,701.5375617842502,0.44354464127964993,702.573341009009,700.4031285346617,0.0,10.762277415268956,0.1,0.01755833625793457,0.43288373947143555,0.05198036,0.008834598,701.8117744826512,-0.4925367845649548,3.5057965487683784,0.0,19200,2.966696262359619,5.481014557541205e-06,1.4813585291015746e-06,701.9329842685438,0.0
214,2.5537679195404053,700.8286712048172,0.6255456562033458,701.9974429309601,696.5493343903913,0.0,9.58694892656674,0.1,0.021567821502685547,0.43995046615600586,0.05095232,0.009100029,701.7134641548679,-0.4958734419776065,3.5022515580223934,0.0,19200,2.519361972808838,6.25354425502806e-06,2.712214448117187e-06,702.1177418770301,0.0
215,2.5571885108947754,701.1726367261954,0.4033295309424573,702.3109960925317,700.2552079043057,0.0,6.431271412662731,0.1,0.016375303268432617,0.4484889507293701,0.05555761,0.014688692,701.6593814120006,-0.4943621763023202,3.5039711570310126,0.0,19200,2.769921064376831,3.1373041917713223e-06,8.496117945991554e-07,702.759507573747,0.0
216,2.517686128616333,701.8306840481151,0.36990154550979565,702.6459140830063,701.0427017544326,0.0,6.041518799199571,0.1,0.014057159423828125,0.43554019927978516,0.050324786,0.01700054,701.676511675612,-0.4910718652614541,3.507261468071879,0.0,19200,3.2471225261688232,2.9361904074204976e-06,9.110682594726187e-07,703.4979827771591,0.0
217,2.5063395500183105,702.7471518879398,0.3000189295388356,703.3842815443587,701.771968690296,0.0,4.658084893389638,0.1,0.015916824340820312,0.4713256359100342,0.05354075,0.019397104,701.7835756968448,-0.48648898890441244,3.5118443444289205,0.0,19200,3.446202516555786,2.233871227613383e-06,6.290130747200602e-07,696.0944470856888,0.0
218,2.4804234504699707,702.4818604406984,2.310838729026166,703.762023334046,691.7406515556129,0.0,17.68818915860702,0.1,0.021258115768432617,0.39636659622192383,0.049291853,0.0050468184,701.8534041712302,-0.48260609110971897,3.5107272422236147,0.0,19200,2.9791419506073,3.0805396365356316e-05,2.9566472339897763e-05,684.3070303083844,0.0
219,2.491757869720459,696.650758007258,5.098004499946299,703.8744741371132,684.0925211791514,0.0,13.489611911571355,0.1,0.0163724422454834,0.459667444229126,0.04806712,0.009047009,701.333139554833,-0.48092744023589457,3.482197559764106,0.0,19200,2.82096266746521,0.0002847740208564754,0.00013706366714622781,684.3039581880727,0.0
220,2.722691774368286,696.1604876538117,4.909008763524249,703.7568491390634,680.1099787249125,0.0,11.14559596141265,0.1,0.016519784927368164,0.44046759605407715,0.05208628,0.009344943,700.8158743647309,-0.48150366792934585,3.4801629987373204,0.0,19200,3.655888795852661,0.0001246142021533329,0.00012429277781321121,688.2329291935853,0.0
221,2.525238513946533,699.9636316687546,4.482492448144147,703.8028905141776,684.0863508058392,0.0,11.880586333475373,0.1,0.012194633483886719,0.42580127716064453,0.047652695,0.009049603,700.7306500951332,-0.4816548349736751,3.498970165026325,0.0,19200,3.124871015548706,0.0001557756975985856,0.00010283476323340712,696.1245517295074,0.0
222,2.5024261474609375,702.504157305566,2.3283835245396753,703.8218710771654,691.7722894241086,0.0,10.78942735048392,0.1,0.019059181213378906,0.3973417282104492,0.04732406,0.0093429135,700.9080008161765,-0.4822861738181406,3.510630492848526,0.0,19200,3.245534896850586,9.046680892296528e-05,2.613031722108991e-05,703.954791726283,0.0
223,2.5714361667633057,703.0733028130263,1.566758840109496,703.7884219849061,691.7259920155689,0.0,8.93555451200325,0.1,0.021797657012939453,0.4499049186706543,0.047744203,0.007174162,701.1245310158614,-0.4831905805171653,3.5136844194828343,0.0,19200,3.0882151126861572,1.459288149647106e-05,1.3126901987864363e-05,703.7421077591728,0.0
224,2.5047802925109863,703.1455213951558,0.4173783101218232,703.6114263209371,699.5747406736042,0.0,6.687542958239576,0.1,0.017333030700683594,0.4455294609069824,0.05330838,0.013564913,701.326630053791,-0.4842883202690143,3.5138366797309857,0.0,19200,3.3378214836120605,4.5584049653827085e-06,1.5798583778103867e-06,703.1858917100367,0.0
225,2.505483388900757,702.4971117184583,0.26526040485207925,703.2045846978679,701.8648140797314,0.0,7.114753243627293,0.1,0.01828742027282715,0.4134707450866699,0.05463009,0.013752543,701.4436782202577,-0.48773973470416704,3.510593598629166,0.0,19200,3.371403455734253,6.925208026155765e-06,1.4299662646654563e-06,702.5253567754028,0.0
226,2.5028374195098877,701.8478259990638,0.2643855546152537,702.4383702442215,700.9065493003446,0.0,9.792792181226064,0.1,0.015529394149780273,0.4470837116241455,0.051193498,0.009311271,701.4840929981383,-0.4909871357574482,3.507346197575885,0.0,19200,3.0629899501800537,9.728974560421848e-06,7.884386538403343e-07,702.0122405636503,0.0
227,2.6834630966186523,701.3035992598183,0.2659609423233903,701.8534349685517,700.7006784630388,0.0,10.34194427437766,0.1,0.01450800895690918,0.4062771797180176,0.04601853,0.010079584,701.4660436243063,-0.49370875557728483,3.5046245777560485,0.0,19200,3.1737587451934814,3.610639722942329e-06,1.2452381035130241e-06,701.4398733971443,0.0
228,2.507263660430908,700.6503735761959,0.3400217091762767,701.4813921169491,699.8487088967993,0.0,8.000413330637581,0.1,0.022224903106689453,0.4451456069946289,0.051273607,0.011706349,701.3844766194952,-0.4969749371328344,3.5013583962004984,0.0,19200,2.9223296642303467,2.3460441106293e-06,8.843142556646282e-07,700.5714131965065,0.0
229,2.492732048034668,695.6938875555244,19.695215096887456,700.7437642477639,554.6250282952924,0.0,5.492402940714912,0.1,0.02318286895751953,0.4051239490509033,0.05646185,0.014779433,700.8154177130982,-0.5013406608391914,3.476576005827475,0.0,19200,3.2365007400512695,0.0012659371982871135,0.001186738519725438,701.465780405291,0.0
230,2.5236124992370605,700.8399092680697,0.280081323090736,701.643819867158,700.1911202195778,0.0,9.867622668480802,0.1,0.012930870056152344,0.4163038730621338,0.04701141,0.008662617,700.8178668685954,-0.49602756914899376,3.502305764184339,0.0,19200,3.4731862545013428,9.495270304796444e-05,5.384666736354204e-07,701.8161481288017,0.0
231,2.58683180809021,701.160709722425,0.2731209224900216,701.9786299237957,700.5440486864205,0.0,8.19786036255374,0.1,0.019396066665649414,0.4778323173522949,0.05536815,0.011618783,700.8521511539783,-0.49442347803306275,3.5039098553002703,0.0,19200,2.864847421646118,8.490343775927739e-07,4.768568069575819e-07,702.4615388324953,0.0
232,2.497506618499756,701.9203812173315,0.2133677657630419,702.4920410028808,701.4182855357036,0.0,10.37062088678776,0.1,0.017966032028198242,0.45640993118286133,0.051001903,0.00920933,700.9589741603137,-0.49062474979276743,3.507708583540566,0.0,19200,2.9427506923675537,3.3377120449193737e-06,3.191108122073202e-07,702.6799447072082,0.0
233,2.530130624771118,702.1314624667721,0.17190130355461908,702.4455634014762,701.7648729398134,0.0,8.444728029553774,0.1,0.013956308364868164,0.41469645500183105,0.044652354,0.013324792,701.0762229909595,-0.4895692873869324,3.508764045946401,0.0,19200,3.3120462894439697,4.524687780073001e-07,2.8801008185478597e-07,703.1104411341902,0.0
234,2.7242579460144043,702.5410540127672,0.18034768821617012,702.9119860857381,702.0497645527581,0.0,9.960163680579178,0.1,0.014750480651855469,0.4502546787261963,0.052956685,0.0096431775,701.2227060931402,-0.4875205716994236,3.5108127616339098,0.0,19200,2.8637068271636963,7.418124528924728e-07,2.3343940313294863e-07,703.390636296741,0.0
235,2.5234923362731934,702.8432240580004,0.14118816041814183,703.2782600054446,702.5508986520466,0.0,10.58024380248035,0.1,0.012902259826660156,0.42104387283325195,0.046551064,0.0108335735,701.3847578896263,-0.48600959198376464,3.5123237413495687,0.0,19200,3.112971544265747,4.762022669348509e-07,1.9347639080050902e-07,703.6392762382407,0.0
236,2.517493963241577,703.1051073869174,0.14224215223427122,703.3941847412638,702.77153337787,0.0,6.645776847029966,0.1,0.015473127365112305,0.4459564685821533,0.05060132,0.014400944,701.5567928393554,-0.48469967077373916,3.513633662559594,0.0,19200,2.7856547832489014,7.409249525604015e-07,2.823098038159906e-07,703.7870110246299,0.0
237,2.54524302482605,703.299500438779,0.10732644914069375,703.5461968075026,703.043175428216,0.0,12.577402364596505,0.1,0.01589226722717285,0.4446229934692383,0.051437214,0.0076885666,701.7310635992977,-0.48372715088148155,3.514606182451852,0.0,19200,2.9961347579956055,7.342746193832293e-07,1.958048605985923e-07,703.9737742655275,0.0
238,2.516728401184082,703.5583348926439,0.10164138160719151,703.7928299824546,703.3214397369684,0.0,9.123182631813911,0.1,0.01869964599609375,0.4147617816925049,0.052681904,0.011547658,701.9137907286323,-0.48243271715726993,3.5159006161760638,0.0,19200,3.5959715843200684,3.158374111355928e-07,4.08116261261426e-07,696.1582957607977,0.0
239,2.492579936981201,703.3254880413833,1.2831486959572573,703.9523524969678,699.8643897066216,0.0,18.23474831207255,0.1,0.01690530776977539,0.42977142333984375,0.054351285,0.0052954126,702.0549604599074,-0.481096057418319,3.514737275915014,0.0,19200,2.9684977531433105,8.588284296354226e-06,9.196377521530174e-06,696.2026167251595,0.0
240,2.519984006881714,702.5902289132146,2.0062763743737113,703.9949244216261,695.9987500407667,0.0,7.967756692155436,0.1,0.018740177154541016,0.4521658420562744,0.04283336,0.013334341,702.1084873052382,-0.4808139578444466,3.5110610421555535,0.0,19200,3.233010768890381,2.1458240346761963e-05,2.102807169185718e-05,696.190946692139,0.0
241,2.6538708209991455,702.8666740699518,2.023458611219539,703.982134771121,695.8956638153553,0.0,14.121063778138081,0.1,0.015109777450561523,0.41162991523742676,0.046678543,0.005647459,702.1843059817096,-0.4810980836719705,3.513068582994696,0.0,19200,2.7115819454193115,2.249786128736178e-05,2.0453690340419245e-05,692.2506041761627,0.0
242,2.571758985519409,701.9522450775497,2.4729009805401025,703.9622047057501,695.8816600549152,0.0,13.237130012427038,0.1,0.021587133407592773,0.4230189323425293,0.048696116,0.009576615,702.1610998912936,-0.4808785584710848,3.5084964415289157,0.0,19200,2.2243270874023438,3.6251298910763324e-05,3.613542674612189e-05,696.2226328372249,0.0
243,2.603337526321411,702.2063014495607,2.3913198059398604,703.9447252852578,691.8010188992746,0.0,8.273292142547575,0.1,0.01682281494140625,0.4384768009185791,0.04622321,0.011808288,702.1656200471203,-0.48106663498435936,3.5097666983489737,0.0,19200,2.4182379245758057,3.6511066885131544e-05,3.125873856903997e-05,696.189066113106,0.0
244,2.5034453868865967,702.8372564216087,2.324030303451241,703.9350414596261,691.6128274080318,0.0,16.2631406644133,0.1,0.014823198318481445,0.4126245975494385,0.056625385,0.004374762,702.2327836845692,-0.4814536590687899,3.512921340931211,0.0,19200,2.223243236541748,3.522848203261669e-05,2.75412741626837e-05,704.0670861500207,0.0
245,2.514686346054077,703.5786216554043,0.3907284545552878,703.8621629343523,699.9171167629654,0.0,9.760835947516398,0.1,0.015247106552124023,0.43778061866760254,0.049107622,0.012412486,702.3673674816526,-0.4821225521783856,3.5160024478216143,0.0,19200,2.900855779647827,1.0389865915483722e-06,1.0609461470590266e-06,703.9993039754489,0.0
246,2.4833669662475586,703.5221097182571,0.10604260161521077,703.770081736938,703.2673569962511,0.0,12.338902716758827,0.1,0.021424531936645508,0.42592597007751465,0.048036646,0.0071555665,702.482841705313,-0.48261373902775223,3.5157195943055815,0.0,19200,2.753838539123535,7.615276153395452e-07,3.309618225406954e-07,703.8443515980912,0.0
247,2.4818882942199707,703.2950941396051,0.1297967504266304,703.6665571414427,702.984752297475,0.0,5.600491656432441,0.1,0.017292022705078125,0.46326732635498047,0.049413536,0.018869318,702.5640669487423,-0.48374912258731456,3.514584210746019,0.0,19200,3.3991408348083496,3.811980585568587e-07,2.836347198659354e-07,703.807725490369,0.0
248,2.6840078830718994,703.1689314487306,0.12604913392512027,703.427652725394,702.842153244954,0.0,10.90675932155945,0.1,0.013921260833740234,0.43985533714294434,0.046784583,0.0074544223,702.6245533987412,-0.4843799418372776,3.513953391496056,0.0,19200,2.917170763015747,6.111966481961822e-07,2.2015474417944136e-07,703.6745749398178,0.0
249,2.4928834438323975,702.9445746532398,0.18945136776136245,703.431484866654,702.479110735813,0.0,11.884177075921713,0.1,0.01946711540222168,0.4613218307495117,0.053218164,0.008188475,702.656555524191,-0.4855019445535526,3.5128313887797806,0.0,19200,3.1607844829559326,7.835634445540626e-07,4.357994604204162e-07,703.7253354555282,0.0
250,2.539182186126709,703.0287446806815,0.14390943585207988,703.4506256672674,702.6298237254272,0.0,7.586521208460212,0.1,0.027374744415283203,0.45421528816223145,0.05104878,0.014777985,702.6937744398401,-0.4850808648059175,3.5132524685274156,0.0,19200,3.150552749633789,2.4552285655420516e-07,4.4553807213056515e-07,703.6891743546364,0.0
251,2.5571112632751465,703.0688982972852,0.1510746627946611,703.4225081099253,702.7175289605266,0.0,10.101348394438192,0.1,0.01600360870361328,0.4059760570526123,0.03378379,0.0059681097,702.7312868255847,-0.4848801923927903,3.513453140940543,0.0,19200,2.981281042098999,3.468087622810069e-07,2.8677549821375073e-07,703.8902215332656,0.0
252,2.5446856021881104,703.2499332175265,0.5399546820960444,703.6971847386855,699.5949445094021,0.0,8.210148128984232,0.1,0.019831180572509766,0.4445013999938965,0.04854615,0.0122847855,702.7831514647789,-0.48355768807038496,3.5143589785962814,0.0,19200,3.006913900375366,2.1409215023226416e-06,3.150173002110548e-06,700.0232013699842,0.0
253,2.5191402435302734,702.6506175928816,1.9240974087246365,703.6526013019334,695.4523704636108,0.0,8.083692654828921,0.1,0.016433238983154297,0.3992805480957031,0.038526632,0.007874517,702.7698980775892,-0.4830118219834827,3.511988178016517,0.0,19200,2.820343494415283,2.5907390113552093e-05,1.9478902360104917e-05,704.0162389971176,0.0
254,2.605544328689575,703.4546825264107,0.11136058359515194,703.6780393071482,703.1296480712207,0.0,18.93139267988142,0.1,0.018999814987182617,0.43190741539001465,0.05089382,0.0061050933,702.8383765224714,-0.4829503387130854,3.5153829946202477,0.0,19200,2.672501564025879,6.528672701439009e-06,1.4736143977113728e-07,696.1029331968778,0.0
255,2.6657214164733887,702.2244042081647,2.2038519242989154,703.7231945355212,695.5880107829411,0.0,8.257207506249642,0.1,0.020859956741333008,0.4092988967895508,0.047925577,0.0100711025,702.7769792910408,-0.4826430076596348,3.509648659007032,0.0,19200,3.4607160091400146,3.2825688572385496e-05,3.5473552025862695e-05,700.0261807792756,0.0
256,2.5376930236816406,702.8106390895831,1.7628095494890943,703.7520812172495,695.5665144606775,0.0,11.776353070370291,0.1,0.023483753204345703,0.414104700088501,0.0492511,0.0060353507,702.780345270895,-0.48262868375577633,3.5123713162442236,0.0,19200,2.807227611541748,1.9667187225493562e-05,2.0270354439826566e-05,703.9331497204133,0.0
257,2.504899740219116,703.3846086416406,0.567560315383125,703.8196727513616,699.5707539477294,0.0,9.523649071916116,0.1,0.010779380798339844,0.3951292037963867,0.024771469,0.0063465238,702.8407716079696,-0.4828842977347018,3.515032368931965,0.0,19200,3.093916893005371,1.445811068791403e-05,2.6748018055291816e-06,700.0058728160681,0.0
258,2.494309902191162,703.2678247220291,1.1421519803651843,703.7852213357435,695.8022783843826,0.0,9.896304998256078,0.1,0.01536703109741211,0.4377875328063965,0.04563916,0.0129050175,702.8834769193755,-0.4824263497128347,3.5144486502871657,0.0,19200,3.036111354827881,6.9843107166732155e-06,6.622323898734878e-06,703.9616860297956,0.0
259,2.544187068939209,703.1041306586918,1.3780819911608717,703.7254740711106,695.6903539757417,0.0,7.555414968934834,0.1,0.015146493911743164,0.4318256378173828,0.044434916,0.010071005,702.9055422933071,-0.48282785577449244,3.5136304775588414,0.0,19200,3.3716518878936768,9.521649509568146e-06,9.310350519685475e-06,703.9136813161712,0.0
260,2.5245323181152344,703.3652096759153,0.9402405998077733,703.784960627666,695.852072945628,0.0,9.00840019851834,0.1,0.015302896499633789,0.41182756423950195,0.053647924,0.010994389,702.9515090315679,-0.48256436658403157,3.5149356334159685,0.0,19200,2.7955193519592285,5.236720199796748e-06,5.005732594980843e-06,703.8822075199706,0.0
261,2.6214559078216553,703.2610482549679,0.5318973301019551,703.7405350016662,699.7388946985621,0.0,6.121564390858231,0.1,0.019191980361938477,0.4355003833770752,0.04732144,0.018021844,702.9824629539079,-0.483502157070264,3.514622842929736,0.0,19200,2.742372989654541,1.7257534868727566e-06,1.508518838640675e-06,703.8511047977327,0.0
262,2.662588357925415,703.2007696937477,0.39469779593392545,703.6358569546242,699.6204518141983,0.0,8.31771712461317,0.1,0.012827157974243164,0.44742512702941895,0.04402135,0.008526685,703.0042936278919,-0.4840118832193718,3.5141131167806283,0.0,19200,2.470567226409912,1.0152221170407538e-06,1.0048488341095953e-06,703.6824612198643,0.0
263,2.507284164428711,702.962513891947,0.15417934994320748,703.3062790968008,702.5323590844072,0.0,11.074340585021858,0.1,0.023007869720458984,0.4037766456604004,0.04542043,0.00995663,703.0001156542975,-0.485411770928053,3.51292156240528,0.0,19200,2.787489652633667,1.368985142684706e-06,4.749330219678491e-07,703.5508987276446,0.0
264,2.5404372215270996,702.523788408006,0.8192045929709343,703.1343021365469,694.8995648423091,0.0,9.974668903699023,0.1,0.020487070083618164,0.4272582530975342,0.052088793,0.0077099865,702.9524829296683,-0.487188451687685,3.510728214978981,0.0,19200,3.256751298904419,4.254731072166437e-06,5.673084509320611e-06,703.5587613556927,0.0
265,2.5265002250671387,702.7772321544402,0.20750896809139946,703.1890244285287,702.2268730041986,0.0,12.43113243918365,0.1,0.015631675720214844,0.45607686042785645,0.04765656,0.008992865,702.9349578521455,-0.4863386144979085,3.5119947188354246,0.0,19200,2.9106311798095703,4.675867285788478e-06,7.446083724939604e-07,703.6795502387821,0.0
266,2.503138542175293,702.8966602517345,0.24401521208268442,703.393104531008,702.1514234085347,0.0,11.608946685914743,0.1,0.014181137084960938,0.4558451175689697,0.05470838,0.008328936,702.9311280921045,-0.4857414453386674,3.5125918879946663,0.0,19200,2.5045695304870605,1.3375012879418896e-06,3.9878412147442606e-07,700.0546688629054,0.0
267,2.546086549758911,702.9499248356645,1.4335055807933592,703.7666838914473,695.6496200434653,0.0,5.106225629734365,0.1,0.01933765411376953,0.4397399425506592,0.04353141,0.014016812,702.9330077664605,-0.48276546789865726,3.51327619876801,0.0,19200,2.92417573928833,1.0809346539477636e-05,1.0484148673071441e-05,700.0437588591908,0.0
268,2.661175489425659,703.2148403802071,1.3179779499466486,703.7767371943265,695.8233827904485,0.0,9.849815886161332,0.1,0.02153944969177246,0.44333577156066895,0.046233278,0.009734556,702.9611910278352,-0.4824827484785699,3.5141839181880967,0.0,19200,2.801299810409546,9.344040225789024e-06,1.2719266097718246e-05,700.0734520022875,0.0
269,2.6718902587890625,703.1669981343117,1.2592262614966097,703.807059385248,695.8659956525601,0.0,8.32661585642061,0.1,0.015354156494140625,0.4379887580871582,0.045917615,0.0108836945,702.9817717384828,-0.48251338973112795,3.5143616102688724,0.0,19200,2.6496663093566895,1.1528566641054347e-05,8.688242668165627e-06,700.0541119303439,0.0
270,2.518324136734009,703.2532209858236,1.1552131920251847,703.7956276302867,695.6973727940589,0.0,19.106443667780585,0.1,0.016293048858642578,0.4702107906341553,0.04845954,0.004502323,703.008916663217,-0.4824991345196994,3.5145841988136346,0.0,19200,3.2275257110595703,7.29936758846929e-06,8.99150742373936e-06,704.0039065219971,0.0
271,2.6659483909606934,703.5319013844845,0.4033032729129978,703.8735801921173,699.8208165359132,0.0,13.986845808390282,0.1,0.015214920043945312,0.46120166778564453,0.04630907,0.0058075404,703.0612151353437,-0.4823559548642469,3.515769045135753,0.0,19200,2.866846799850464,1.7203135397557058e-06,1.0309910482072663e-06,703.9843160366416,0.0
272,2.6368653774261475,703.304289833848,0.7661033056618447,703.7490756597288,699.5753745900972,0.0,8.677830988796737,0.1,0.015937328338623047,0.44490838050842285,0.049755696,0.0100608785,703.0855226051941,-0.4828688899116334,3.5146311100883665,0.0,19200,2.6753838062286377,3.0043550522158668e-06,3.7082384195025244e-06,703.9541662344106,0.0
273,2.6325604915618896,703.350951439848,0.4262011159291471,703.7179735886588,699.4770190003989,0.0,16.373745315593762,0.1,0.01330709457397461,0.44140195846557617,0.051028926,0.005212505,703.1120654886595,-0.4832607485567628,3.5148642514432367,0.0,19200,2.799981117248535,1.769991052468522e-06,1.9822562442750237e-06,700.0087522684906,0.0
274,2.611100435256958,703.1031636465422,1.2270425881286608,703.7770224649835,699.5352221738633,0.0,8.093865874721686,0.1,0.017356157302856445,0.45858311653137207,0.05038694,0.010330257,703.1111753044478,-0.4824162991219185,3.514042034211414,0.0,19200,3.049975872039795,8.122738088522695e-06,7.862861434083417e-06,700.0219474156592,0.0
275,2.6739022731781006,703.0120901040773,1.4757492919921806,703.8240366341777,695.6754456667189,0.0,13.9224158821799,0.1,0.030414819717407227,0.4420640468597412,0.04679748,0.005928445,703.1012667844108,-0.48224658489809985,3.513170081768567,0.0,19200,3.081709146499634,1.1283928313128923e-05,1.3412677188415327e-05,703.8810932199688,0.0
276,2.6436121463775635,703.4845691543,0.12405514839725218,703.7825155160151,703.1558546826168,0.0,13.311681141769135,0.1,0.016390085220336914,0.43181467056274414,0.037079994,0.0055479864,703.1395970213997,-0.4828011947872956,3.5155321385460376,0.0,19200,3.1063854694366455,1.56890486055342e-06,2.2754921156147955e-07,703.7928740655038,0.0
277,2.506696939468384,703.4594388852969,0.15081616670325385,703.7804024804235,703.0268723574369,0.0,15.557074556686358,0.1,0.01208639144897461,0.42654967308044434,0.047214746,0.0042603537,703.1715812077894,-0.4829270352394997,3.515406298093834,0.0,19200,2.8650784492492676,3.7820694703216945e-07,2.848096037290814e-07,703.6113000977217,0.0
278,2.479487419128418,703.2376516201284,0.17609038723070874,703.6862099036832,702.7714509595321,0.0,7.119856164662027,0.1,0.014777183532714844,0.412334680557251,0.03879466,0.013271739,703.1781882490233,-0.4840360969289838,3.5142972364043494,0.0,19200,3.394819498062134,8.592347819632974e-07,3.299157172007428e-07,703.6525084890484,0.0
279,2.538914680480957,703.3033251978068,0.1542428208749376,703.6206450429495,702.8485904159683,0.0,17.150986831570833,0.1,0.014424324035644531,0.4303722381591797,0.052126374,0.005266034,703.1907019439016,-0.48370741823125035,3.514625915102083,0.0,19200,2.4615638256073,3.4746131157214435e-07,2.8086726987303124e-07,703.6579022190011,0.0
280,2.4583041667938232,703.3195942347065,0.1685494558643545,703.680611006489,702.8256698763122,0.0,11.338974700573212,0.1,0.01702117919921875,0.45598387718200684,0.03890083,0.007252083,703.203591172982,-0.4836261295107149,3.5147072038226184,0.0,19200,2.8925397396087646,3.195381347666799e-07,2.318789819940663e-07,699.9072054468993,0.0
281,2.453465700149536,702.3855909693951,2.2316730693216176,703.8238071498905,691.887546777439,0.0,8.2780896648139,0.1,0.017066240310668945,0.4291117191314697,0.05214872,0.013313449,703.1217911526234,-0.48225386358004846,3.510454469753285,0.0,19200,2.363013982772827,2.9977045019234757e-05,2.6360917548353392e-05,699.9333017295028,0.0
282,2.649327039718628,702.306685694869,2.2375368836201055,703.7705641820786,695.6849876463573,0.0,18.01690252345387,0.1,0.014672994613647461,0.43158698081970215,0.035567902,0.0050833793,703.0402806068479,-0.4824400624702358,3.509851604196431,0.0,19200,2.1840362548828125,2.659245397769251e-05,2.4599038133107145e-05,699.9325381492811,0.0
283,2.6451256275177,701.9401272713147,2.643611789565807,703.781483268763,691.9230846066381,0.0,6.343086989898018,0.1,0.013618230819702148,0.404818058013916,0.048364863,0.01756672,702.9302652732946,-0.4821890911798324,3.5088525754868343,0.0,19200,2.5013725757598877,3.5229544406537636e-05,3.550013974362087e-05,699.9332687431863,0.0
284,2.5205130577087402,702.1592212750123,2.353557575651553,703.8062964979138,695.7017068961991,0.0,7.429955704751517,0.1,0.027858972549438477,0.442882776260376,0.051040445,0.014677004,702.8531608734664,-0.48234393817351107,3.509114395159822,0.0,19200,2.1899476051330566,2.7300820763746182e-05,2.6689975154343754e-05,703.7874277064118,0.0
285,2.4866983890533447,702.7018657829121,1.5140443750196404,703.6352714001589,695.6562414157144,0.0,11.228924573325878,0.1,0.016965627670288086,0.42182064056396484,0.053925984,0.009372646,702.8380313644111,-0.48338101306758546,3.5118273202657484,0.0,19200,2.454702377319336,1.1459669294796939e-05,1.2409177059500604e-05,703.4583787442763,0.0
286,2.5042483806610107,702.9906375271502,0.19596529851416072,703.335947395192,702.3759592185523,0.0,7.9391633760838065,0.1,0.012993335723876953,0.4519326686859131,0.047094114,0.01324429,702.8532919806851,-0.48527112598133876,3.5130622073519944,0.0,19200,2.516449451446533,3.4662153548493237e-06,7.935200512384527e-07,702.4873670077534,0.0
287,2.492004871368408,701.8858002555617,0.37985708359863246,702.6916045883914,700.9918510745902,0.0,9.83481054922908,0.1,0.014516830444335938,0.3872818946838379,0.053159483,0.009565722,702.7565428081728,-0.4907960963398342,3.507537236993499,0.0,19200,3.0411078929901123,2.073136878096398e-05,3.084509575853541e-06,701.3707567096754,0.0
288,2.4831695556640625,700.7929212984977,0.44378869353881156,701.9632632799489,699.6766537379245,0.0,8.718850732994467,0.1,0.015532255172729492,0.42583370208740234,0.052925088,0.011914674,702.5601806572054,-0.49626056475901925,3.502072768574314,0.0,19200,3.4017410278320312,5.727986012598436e-06,1.675610459791052e-06,700.7317149274454,0.0
289,2.6355457305908203,691.084382986823,36.34951730934418,701.3759703874372,446.3347780584112,0.0,5.746947444224675,0.1,0.01882624626159668,0.4433419704437256,0.044404387,0.017351422,701.4126008901671,-0.49980263667322555,3.4535306966601076,0.0,19200,3.4757730960845947,0.005136171815143592,0.004776790269601641,701.8265051253536,0.0
290,2.628934144973755,701.2588439873307,0.4869523450747416,702.2848216062663,699.8288046809715,0.0,10.105272581472647,0.1,0.018543481826782227,0.40703392028808594,0.045822956,0.008694658,701.3972251998836,-0.4939310681860656,3.504402265147268,0.0,19200,2.661911964416504,0.0003362953198193908,8.92963964479846e-07,701.7262357319904,0.0
291,2.5057992935180664,701.1202373023747,0.5750666315998859,702.5118313141581,699.4786058842935,0.0,3.9909297326725195,0.1,0.01854705810546875,0.47411131858825684,0.04886881,0.023287809,701.3695264101327,-0.49462384079678046,3.5037094925365526,0.0,19200,3.524925708770752,1.2337168462793663e-06,1.131523054328621e-06,703.03835121201,0.0
292,2.501338005065918,702.5290855809126,0.3555562781270794,703.2321537871452,701.1135148488597,0.0,4.435914279526416,0.1,0.018002748489379883,0.4116857051849365,0.05013609,0.021243548,701.4854823272107,-0.4875792743304901,3.5107540590028434,0.0,19200,2.9755656719207764,7.2874091178186885e-06,4.726912478560596e-07,699.9152852631477,0.0
293,2.470897674560547,701.588756365432,3.447540284279834,703.6781514025569,688.0203416658303,0.0,5.677758445325611,0.1,0.018502235412597656,0.3871879577636719,0.056490675,0.017579934,701.4958097310328,-0.4826960913680938,3.5066789086319066,0.0,19200,2.919374942779541,7.165486444212133e-05,6.26622186793209e-05,695.9828685212847,0.0
294,2.462110757827759,701.2868883514253,3.1387224238099067,703.7753082181556,691.9146773825349,0.0,10.632574966362256,0.1,0.01770758628845215,0.41088271141052246,0.042116236,0.009840441,701.474917593072,-0.48233068968510734,3.504960976981559,0.0,19200,3.087613821029663,5.163528519058987e-05,4.98963723054138e-05,688.1998563498325,0.0
295,2.485264539718628,694.752618240812,6.378794334732433,703.6913219560234,676.1453670164117,0.0,11.53453302257986,0.1,0.025398731231689453,0.4169275760650635,0.04781017,0.008070846,700.802687657846,-0.48125110945690946,3.4735405572097573,0.0,19200,3.7965610027313232,0.000424121593410299,0.00019921894016658578,676.3162823312723,0.0
296,2.622626304626465,686.3357483461567,6.32397890859407,703.6283359409716,672.2812343582527,0.0,11.500521142009768,0.1,0.0139923095703125,0.40426039695739746,0.05094477,0.009346135,699.3559937266771,-0.4800010569018835,3.43145727643145,0.0,19200,2.6909186840057373,0.000532437707501461,0.00019899258308061108,676.3289752640248,0.0
297,2.668710470199585,687.6555818374967,6.643904909482133,703.7210533225227,672.233557340411,0.0,8.774005385703628,0.1,0.01601552963256836,0.39276552200317383,0.05028653,0.009490709,698.1859525377591,-0.48006891880972785,3.438056081190272,0.0,19200,2.938361883163452,0.00023050913904032867,0.00021348871831787785,684.2413133603395,0.0
298,2.5618317127227783,690.963815688369,6.069643026318641,703.4770082691114,676.1820804109726,0.0,7.49687122729478,0.1,0.015980005264282227,0.4400944709777832,0.049654637,0.0135166915,697.4637388528201,-0.4808198807995551,3.454596785867112,0.0,19200,2.639749765396118,0.000244573036923763,0.00016773655501075462,703.8169478035584,0.0
299,2.5438225269317627,702.0592953360424,2.961169908928882,703.7516192780529,691.7528594243698,0.0,12.630021529627221,0.1,0.013728618621826172,0.4396088123321533,0.047996577,0.008029142,697.9232945011424,-0.48346855084741325,3.509031449152587,0.0,19200,3.1725800037384033,0.0005371361654265052,3.703964871191029e-05,703.026041885802,0.0
300,2.5228335857391357,702.2538326919257,0.40673794368801114,703.2225038660087,701.255455575336,0.0,4.402259820151802,0.1,0.013391256332397461,0.4369070529937744,0.049234554,0.02379529,698.3563483202207,-0.48895552697643313,3.5093778063569006,0.0,19200,2.6284377574920654,1.66210858031378e-05,5.831944737902101e-06,701.0865581937915,0.0
301,2.524491548538208,698.6677320347188,14.06045940463374,701.7612367944336,566.7866279040529,0.0,10.397627904558757,0.1,0.013024568557739258,0.5008821487426758,0.050958227,0.008304881,698.3874866916706,-0.498136464356592,3.491446868976741,0.0,19200,2.724590539932251,0.0008223052030567435,0.0006990691791230479,701.6603090088153,0.0
302,2.5078001022338867,700.9346220020066,0.5266977347504671,702.1387916721259,699.5395273728843,0.0,7.658532156641109,0.1,0.018256664276123047,0.435211181640625,0.037411567,0.0072972444,698.6422002227042,-0.4955522833409855,3.502781049992348,0.0,19200,3.091508626937866,5.433161810251648e-05,5.109359003320828e-06,700.546628978809,0.0
303,2.66428804397583,688.7403852968704,35.31792279495294,702.0488119731591,462.0712070909965,0.0,5.825063006696519,0.1,0.02209639549255371,0.39110398292541504,0.046047047,0.014400237,697.6520187301209,-0.5008983236503523,3.4418100096829805,0.0,19200,2.807328224182129,0.004989979266859766,0.004478848864076008,701.9463047960368,0.0
304,2.4726970195770264,701.2822642067352,0.440631374626856,702.2188522805508,699.6314463288769,0.0,11.401397506915417,0.1,0.014118432998657227,0.4359445571899414,0.047126148,0.009180845,698.0150432777823,-0.49381426368083065,3.5045190696525026,0.0,19200,3.105782985687256,0.00031695514460842506,2.4788798203847573e-06,701.8342325125882,0.0
305,2.5659923553466797,701.265253636449,0.4517522713035458,702.1921838536971,700.236946131019,0.0,10.19632168508436,0.1,0.01699352264404297,0.4431748390197754,0.05200001,0.008580211,698.340064313649,-0.493899270288987,3.5044340630443465,0.0,19200,3.272864580154419,2.4554746969805733e-06,1.9384691242696775e-06,701.5417729248386,0.0
306,2.588893413543701,701.0307320097387,0.45231369818242195,702.1489880280947,699.5527447636099,0.0,7.364895936923958,0.1,0.018477439880371094,0.4265427589416504,0.05063569,0.011585246,698.609131083258,-0.49507158044310734,3.5032617528902263,0.0,19200,3.333820104598999,2.7082330607016802e-06,2.2233171354011937e-06,700.8386469973209,0.0
307,2.567995548248291,698.9419251730038,13.983949421418197,701.4847212120757,562.7282706271974,0.0,9.91810416227642,0.1,0.03506588935852051,0.44515037536621094,0.04685363,0.006722994,698.6424104922326,-0.49843238853897737,3.4928176114610228,0.0,19200,3.661726474761963,0.000721819271365085,0.0007030680658340677,701.7586346817873,0.0
308,2.5610954761505127,701.3360174298408,0.3190118858872205,702.277805206912,700.6540909901015,0.0,12.300784323400732,0.1,0.021071672439575195,0.4095189571380615,0.044891175,0.007381447,698.9117711859934,-0.4935457702247394,3.5047875631085943,0.0,19200,2.9488208293914795,1.9569106693060828e-05,7.101903369507406e-07,701.9214379405878,0.0
309,3.195666551589966,701.4820829256888,0.29689922380890726,702.2642804693672,700.7663550685224,0.0,6.614282640795664,0.1,0.017192840576171875,0.4593546390533447,0.042570956,0.01549196,699.1688023599629,-0.49281539232685745,3.505517941006476,0.0,19200,2.726550340652466,8.614025418611344e-07,6.599805745559304e-07,702.478966387165,0.0
310,2.7438526153564453,701.9982048639498,0.280280486822802,702.6822530604323,701.2873841026526,0.0,8.818191645634842,0.1,0.016219139099121094,0.46711182594299316,0.03813356,0.009561682,699.4517426103616,-0.4902344430260051,3.5080988903073282,0.0,19200,2.974759817123413,1.705206733169655e-06,8.235536296859397e-07,703.1197633240338,0.0
311,2.5377721786499023,702.5937943587642,0.28962555823634184,703.2060892933807,701.7627201103559,0.0,6.666063946771729,0.1,0.022778034210205078,0.437084436416626,0.044257715,0.013962993,699.7659477852019,-0.4872558396247939,3.5110774937085396,0.0,19200,3.401428461074829,1.934747224485602e-06,6.223798133750854e-07,703.6978644927009,0.0
312,2.5375850200653076,703.0740467790794,0.957284434459328,703.6292628766219,695.4935262885358,0.0,12.146015226644641,0.1,0.022332429885864258,0.48308396339416504,0.047981877,0.0066361753,700.0967576845896,-0.48402049014725534,3.5134795098527447,0.0,19200,2.8878955841064453,6.75354313765224e-06,6.27294760772684e-06,696.0071719403039,0.0
313,2.4702677726745605,701.0263058079853,3.2358708779574563,703.7714990527046,691.737937867646,0.0,12.59615652804761,0.1,0.015543699264526367,0.4327883720397949,0.047384664,0.009394561,700.1897124969292,-0.4821749911469187,3.5038666755197476,0.0,19200,2.498228073120117,6.370537815228536e-05,5.5970767248072714e-05,699.9559198053377,0.0
314,2.503770589828491,701.4069171224437,3.20605635784989,703.740748588393,691.8312241176609,0.0,9.994365951354974,0.1,0.01872110366821289,0.4358081817626953,0.05193775,0.008489518,700.3114329594807,-0.4821468009137612,3.5061865324195716,0.0,19200,2.373718738555908,6.055474060913331e-05,5.002599156915228e-05,703.8267100821145,0.0
315,2.5141642093658447,702.8993789257001,1.4002406729412715,703.6345767414439,695.8448292898152,0.0,11.453556458391324,0.1,0.015801668167114258,0.4216444492340088,0.04340929,0.010382908,700.5702275561027,-0.48301843266824857,3.5126065673317513,0.0,19200,2.702631950378418,1.5318274125267643e-05,9.30081916995796e-06,703.6872437697714,0.0
316,2.5200037956237793,703.1285817677581,0.4268795937541388,703.5878096343184,699.6151537503245,0.0,6.234559412886224,0.1,0.021737337112426758,0.42502427101135254,0.04770681,0.017046368,700.8260629772683,-0.48437266451203626,3.5137523354879634,0.0,19200,2.9479475021362305,1.7239892868538596e-06,2.117822965184985e-06,702.9235496322399,0.0
317,2.6885526180267334,702.2712159048614,0.30102411622288067,702.8596097749331,701.4977548982429,0.0,9.746989680650106,0.1,0.01708674430847168,0.44805026054382324,0.04977648,0.0105399415,700.9705782700277,-0.48886889752177254,3.509464435811561,0.0,19200,2.6847283840179443,1.844117600889986e-05,1.1165749335113183e-06,702.3201272731719,0.0
318,2.5213942527770996,701.5768131201694,0.36392219479691207,702.5243376787862,700.7061425853738,0.0,8.145502887929771,0.1,0.02803492546081543,0.45447468757629395,0.05003362,0.010110726,701.0312017550418,-0.4923410111517277,3.5059923221816063,0.0,19200,2.8068552017211914,7.2854939847017695e-06,1.5129783704625698e-06,701.379828500372,0.0
319,2.4954416751861572,700.6985043739032,0.5050607816610087,702.075319912044,699.335404801406,0.0,10.021348068203041,0.1,0.015830039978027344,0.4028193950653076,0.050478283,0.009818533,700.997932016928,-0.49673264817866514,3.5016006851546684,0.0,19200,3.116665840148926,1.0817651800973981e-05,1.6637149545656807e-06,701.5370765399032,0.0
320,2.5185914039611816,700.9137262318858,0.5111994970212952,702.0764653352284,699.8243979686622,0.0,9.355700854477396,0.1,0.01739811897277832,0.4211881160736084,0.040437043,0.008495487,700.9895114384237,-0.49565682353126733,3.502676509802066,0.0,19200,3.0291357040405273,2.5575298402114193e-06,3.154348466939544e-06,702.2946471693347,0.0
321,2.4957494735717773,701.5444166834204,0.5064638951017358,702.6953346440702,699.6492107048829,0.0,7.692436049236073,0.1,0.016884326934814453,0.4374263286590576,0.04529326,0.012346464,701.0450019629235,-0.4925030862577852,3.5058302470755476,0.0,19200,2.817779779434204,8.299922730819409e-06,9.790501202193737e-07,703.6866010240976,0.0
322,2.4784233570098877,702.4789308057346,2.1345286580660825,703.6189790933025,687.8687090993595,0.0,11.090878082973429,0.1,0.016498565673828125,0.44655680656433105,0.04933896,0.008135822,701.1883948472047,-0.48532927749511806,3.5107123891715495,0.0,19200,3.1953794956207275,2.6958055934355236e-05,2.625368993488576e-05,688.1520839298623,0.0
323,2.4649670124053955,695.7001167801182,7.280046519348228,703.6211736507875,672.2783740663706,0.0,12.465918044034776,0.1,0.015128374099731445,0.4286618232727051,0.049658485,0.00863129,700.6395670404961,-0.4817220797609261,3.4776529202390734,0.0,19200,2.966977834701538,0.0004622155161239465,0.0002602114324172457,684.2008009429685,0.0
324,2.704832077026367,693.5546947485028,7.624492089724767,703.6015678930164,672.1256997035666,0.0,12.0048609578113,0.1,0.014575719833374023,0.4190709590911865,0.050839875,0.008353531,699.9310798112967,-0.48140732515239143,3.4671343415142757,0.0,19200,3.1012845039367676,0.000278881591015227,0.00026059153515809136,696.0013593726301,0.0
325,2.6163687705993652,698.5134628264996,5.31727084182327,703.7361633042167,680.0895559098269,0.0,7.607546803633003,0.1,0.02489328384399414,0.48236870765686035,0.04822533,0.012294642,699.789318112817,-0.48244725163754626,3.4917194150291206,0.0,19200,2.501988172531128,0.00024085516426009372,0.00011854746812497984,703.6260769346876,0.0
326,2.5985398292541504,702.6252244073215,1.7158677538901224,703.60334896543,691.9013292931771,0.0,6.942525969256546,0.1,0.01679825782775879,0.49524450302124023,0.045954872,0.014831278,700.0729087422675,-0.48459793160309966,3.5112354017302336,0.0,19200,3.005624771118164,9.283493219049981e-05,1.3234052546045071e-05,702.5508707955264,0.0
327,2.623183012008667,701.8652733345872,0.49355254182938096,702.8915534166803,700.2465343404208,0.0,7.38720260832936,0.1,0.018354415893554688,0.4181482791900635,0.045832362,0.014869672,700.2521452014994,-0.49089836089570404,3.507434972437629,0.0,19200,2.744967460632324,6.310857834099698e-05,7.298305068017995e-06,701.5870435997947,0.0
328,2.674030303955078,697.7773117055007,18.42021610902178,702.0472936017967,554.8207701572223,0.0,11.962334149451268,0.1,0.012427568435668945,0.4153921604156494,0.05228253,0.007359918,700.0046618518995,-0.4969632050714298,3.486995128261904,0.0,19200,3.53741192817688,0.0013684617338589314,0.0012497266013464681,702.5821566046918,0.0
329,2.5088956356048584,701.8013128529911,0.4171826328971627,702.8476775523014,700.5018831939976,0.0,10.969980755386352,0.1,0.01686859130859375,0.43462491035461426,0.046749093,0.008477519,700.1843269520087,-0.49121834339511655,3.507114989938217,0.0,19200,3.0699779987335205,0.00014778934658952106,2.9970080570420833e-06,702.02194353901,0.0
330,2.527191638946533,701.1629004251823,0.6338081853769828,702.5793107261387,699.6995498084972,0.0,8.17920921928715,0.1,0.013807058334350586,0.45001769065856934,0.050402824,0.011577746,700.2821842993261,-0.49440997565974615,3.503923357673587,0.0,19200,2.940081834793091,1.2617221136946594e-05,5.3868585404180124e-06,700.5535123609517,0.0
331,2.638465404510498,675.975397016838,58.49275067885575,701.3685761780865,450.3057905497346,0.0,5.762672363077757,0.1,0.01356196403503418,0.44008421897888184,0.052205935,0.013841053,697.8515055710773,-0.5015971428422491,3.377986190491084,0.0,19200,2.9049737453460693,0.01562531805367737,0.013047455102839124,701.8720689495863,0.0
332,2.497220754623413,701.1985680569269,0.4193611594729384,702.2944513907912,700.3745174330214,0.0,10.762867370354815,0.1,0.01219034194946289,0.4052412509918213,0.050084252,0.010678968,698.1862118196623,-0.4942319761125989,3.504101357220734,0.0,19200,3.389655590057373,0.0021721622952862777,2.143794303183959e-06,701.934226715382,0.0
333,2.490269899368286,701.2708797703104,0.4074287665142293,702.1700416718631,700.2446123761441,0.0,6.606780595885514,0.1,0.015790224075317383,0.4015161991119385,0.04915852,0.014478473,698.494678614727,-0.4938709473512244,3.5044623859821087,0.0,19200,2.998520612716675,3.6893349405744146e-06,1.5964665108380808e-06,702.7193529936951,0.0
334,2.5195302963256836,701.7069818952053,1.345364874711622,702.6613936037181,693.1692180061443,0.0,9.47652431720401,0.1,0.02139425277709961,0.45212578773498535,0.045654546,0.010664034,698.8159089427749,-0.4904394856682515,3.5066438476650816,0.0,19200,2.697360038757324,1.4324762488509201e-05,1.04187501581739e-05,703.281508176612,0.0
335,2.5179920196533203,696.1609200218683,7.389288313948234,702.9716371163563,674.4540282374676,0.0,9.057092005502339,0.1,0.01786208152770996,0.4488370418548584,0.04743226,0.012038725,698.5504100506843,-0.4875436584560168,3.4791230082106495,0.0,19200,3.2210922241210938,0.00046896266901349625,0.0002492476149480802,703.2021241593548,0.0
336,2.5120885372161865,694.465545260687,7.847062152615907,703.0419438799814,671.0719980381687,0.0,7.37318194071705,0.1,0.01212930679321289,0.4017763137817383,0.052076045,0.0134238275,698.1419235716845,-0.4876868734030589,3.4712714599302745,0.0,19200,2.539675712585449,0.0003064991495174925,0.00025010018891927915,703.2113604215599,0.0
337,2.4627797603607178,699.9208895842758,4.6344914213057775,703.1319584189774,683.6099706349015,0.0,8.778816163517394,0.1,0.012763500213623047,0.41893649101257324,0.04524181,0.011967813,698.3198201729437,-0.4872853984420014,3.498339601557999,0.0,19200,2.752854824066162,0.00022532704383789763,8.154424645988468e-05,702.7593613494093,0.0
338,2.6447901725769043,701.2898736927636,2.4398509371359696,702.9188462107902,686.3448881417082,0.0,6.211690876011934,0.1,0.016546964645385742,0.4348118305206299,0.05833308,0.013520357,698.6168255249257,-0.49023246728281805,3.504975866050515,0.0,19200,3.2438902854919434,2.6339940142244365e-05,2.6057032945915894e-05,701.9414155046196,0.0
339,2.5548176765441895,701.2032286866439,0.5681384811508842,702.4865035340752,699.6077031724022,0.0,9.383859397515929,0.1,0.015714168548583984,0.4580690860748291,0.044099424,0.010376511,698.8754658410976,-0.4942086822306832,3.5041246511026505,0.0,19200,2.9345381259918213,6.230433098534409e-05,5.184714294531667e-06,701.9427459751804,0.0
340,2.4755373001098633,701.1163002992483,0.5735528855471533,702.377335419631,699.7252028891907,0.0,9.225984021291074,0.1,0.015240192413330078,0.4269144535064697,0.05066516,0.010740217,699.0995492869127,-0.49464310239952775,3.503690230933806,0.0,19200,3.7895009517669678,6.700097275321755e-06,4.162710629778817e-06,701.5893609996485,0.0
341,2.5113227367401123,697.0957872223913,21.791527809109013,702.1279441780468,514.7950675314447,0.0,6.840189333151301,0.1,0.014394044876098633,0.4441649913787842,0.0529332,0.011206397,698.8991730804606,-0.4972449991815349,3.483796667485132,0.0,19200,2.993176221847534,0.001870283074074273,0.0018345151524834953,702.4931488165457,0.0
342,2.5021579265594482,701.8541454622838,0.3537065525928568,702.5622943889595,701.0439750780932,0.0,9.139099836985254,0.1,0.014542579650878906,0.4100780487060547,0.047430187,0.010346316,699.1946703186429,-0.49095418742013947,3.5073791459131933,0.0,19200,3.3640007972717285,4.402171263944355e-05,1.2229079821733605e-06,703.0040203665687,0.0
343,2.491391658782959,702.2708457245539,0.3811137080902038,703.0291263970117,701.3415602139407,0.0,5.087222464277507,0.1,0.0164186954498291,0.44740724563598633,0.048015084,0.018096037,699.502287859234,-0.4888704331220342,3.509462900211299,0.0,19200,3.0568413734436035,2.69459561023774e-06,1.2034119346585525e-06,699.9210509327434,0.0
344,2.528887987136841,699.8832093039555,4.753427932538665,703.586061062803,683.848800103181,0.0,8.0424057895829,0.1,0.0227205753326416,0.4488790035247803,0.054953296,0.014236394,699.5403800037061,-0.483306816963748,3.4985681830362516,0.0,19200,2.9415829181671143,0.0001579855787897551,0.00011221668444678642,692.1030475684138,0.0
345,2.6557657718658447,694.8010165030342,5.985652407000003,703.6818745871446,679.9441938070635,0.0,7.94152696897645,0.1,0.01210927963256836,0.43887925148010254,0.056966007,0.013851596,699.066443653639,-0.4822587568453473,3.473574576487986,0.0,19200,3.156695604324341,0.0003157048658868954,0.00017019445045404074,688.1321262923,0.0
346,2.6257541179656982,693.4571965972497,6.463599418586929,703.4946333980522,676.176128824798,0.0,7.151609400868879,0.1,0.012697219848632812,0.4051637649536133,0.047283374,0.014338416,698.5055189480001,-0.4816862980456253,3.4670637019543746,0.0,19200,2.7533671855926514,0.00019987323397619138,0.00018359256589577384,684.2096697169592,0.0
347,2.5025384426116943,689.6502237186593,6.880525456431987,703.5579477320717,676.1233835147992,0.0,9.89220838445683,0.1,0.014412403106689453,0.4319019317626953,0.04650465,0.009433032,697.619989425066,-0.48092889508367404,3.448029438249659,0.0,19200,3.0476276874542236,0.0002874323842670245,0.0002333082662996299,695.9780100043574,0.0
348,2.516576051712036,698.1459495350241,5.622081024303171,703.7058291962645,676.0244834340715,0.0,9.077251228407189,0.1,0.017325878143310547,0.4502551555633545,0.052180927,0.009480015,697.6725854360618,-0.482409835309199,3.4898818313574673,0.0,19200,3.171461582183838,0.0006270600957820364,0.00012280103352312947,703.7196631226179,0.0
349,2.5384774208068848,701.9877862494895,2.1944825338571015,703.5695545635883,695.3973071100769,0.0,3.851393215330546,0.1,0.01669454574584961,0.44476914405822754,0.050220773,0.026450843,698.1041055174046,-0.48382591462722896,3.5088824187061043,0.0,19200,2.842935800552368,2.7938711352005823e-05,1.778867576152988e-05,702.5063544513557,0.0
350,2.5164129734039307,701.9073862811051,0.5041527057644715,702.9762948718948,700.382065398976,0.0,7.405824906171506,0.1,0.02162909507751465,0.43331456184387207,0.05011239,0.013761569,698.4844335937746,-0.49068756304460975,3.507645770288723,0.0,19200,3.3494415283203125,0.00012051981755803351,9.91564154025525e-06,701.1019736931324,0.0
351,2.6348981857299805,699.3695998747144,7.174627023608787,701.7353526850387,634.9756333102488,0.0,11.481463754863595,0.1,0.015392303466796875,0.414475679397583,0.04951145,0.00693783,698.5729502218686,-0.49837637985249056,3.4949569534808425,0.0,19200,2.7919418811798096,0.00027944676271454797,0.0002038741833934415,701.0648238480426,0.0
352,2.687401533126831,698.0943387776075,16.336614289072042,701.637699354997,542.8210416538843,0.0,8.122454768507833,0.1,0.012417793273925781,0.43265461921691895,0.05310381,0.008946237,698.5250890774425,-0.49912806099866097,3.488580272334673,0.0,19200,3.420525312423706,0.000992063973270582,0.0010430064881747673,701.7450183352407,0.0
353,2.4836039543151855,701.1562542334344,0.4349770516198306,702.1457600794447,700.1754035842697,0.0,11.787379236207405,0.1,0.013187646865844727,0.42162394523620605,0.05183291,0.007889854,698.7882055930418,-0.4944438858333884,3.503889447499945,0.0,19200,2.9459166526794434,1.5595114463013936e-05,2.8567917555357472e-06,701.0982984563227,0.0
354,2.511549472808838,700.4997692124692,0.37296335259256774,701.2909433831583,699.4639825579775,0.0,7.955689684486391,0.1,0.019922971725463867,0.4162604808807373,0.046688374,0.014702086,698.9593619549846,-0.4977268498367464,3.5006064834965867,0.0,19200,2.9348671436309814,8.450871376713265e-06,1.8309542284833112e-06,700.2858274201524,0.0
