iteration,time_sampling,stoc_pol_mean,stoc_pol_std,stoc_pol_max,stoc_pol_min,rollout_success,alpha,delta,time_vpg,time_npg,kl_dist,surr_improvement,running_score,rwd_sparse,rwd_dense,success_percentage,num_samples,time_VF,VF_error_before,VF_error_after,eval_score,eval_success
0,2.015892744064331,-226.0978121146185,18.52547465963389,-184.63462273611233,-271.58442301279376,0.0,0.4252171425754445,0.1,0.07778310775756836,0.17419147491455078,0.05801522,0.30152893,-226.0978121146185,-0.1088911487125492,-2.927201934297767,0.0,1935,0.18796205520629883,0.999979721498992,0.9208039496763485,-281.924879728595,0.0
1,1.961963176727295,-229.79894293809699,17.067906688795254,-181.82391015975054,-276.43100786918,0.0,0.5647390492417902,0.1,0.006144046783447266,0.13024592399597168,0.049916998,0.206698,-226.46792519696638,-0.11081085985915573,-2.9741020412497163,0.0,1926,0.17058634757995605,0.9214824182816787,0.3635779543796693,-269.7001590808394,0.0
2,1.7401175498962402,-226.5291167200725,16.781416675565318,-190.8736815606553,-311.2636694733911,0.0,0.5718833964972955,0.1,0.006353139877319336,0.1301860809326172,0.051227055,0.19521874,-226.474044349277,-0.11019682621245196,-2.9313541249859,0.0,1913,0.16472315788269043,0.3580056963221382,0.14346804145680903,-283.18417713978334,0.0
3,1.7419838905334473,-230.60920919340617,17.745598758775856,-193.24866969434942,-310.7253225270612,0.0,0.5601390894303121,0.1,0.006533145904541016,0.13791847229003906,0.053932622,0.20659746,-226.88756083368992,-0.11006063344387296,-2.9861208530796888,0.0,1954,0.17364120483398438,0.1444052390387974,0.12139229667397121,-272.9730345628509,0.0
4,1.7177653312683105,-224.55007735933546,19.282855224588776,-187.51891065151682,-345.98148117703636,0.0,0.582493838065045,0.1,0.00634312629699707,0.14624381065368652,0.0503149,0.186049,-226.65381248625448,-0.10907829660615287,-2.906041792862787,0.0,1920,0.170180082321167,0.12061944970876705,0.09807584253885382,-282.28874714292164,0.0
5,1.7107162475585938,-224.0957988510796,21.14075116775511,-195.25114024503404,-364.2527969904354,0.0,0.5383760664124927,0.1,0.016998767852783203,0.16443085670471191,0.048900258,0.19058755,-226.398011122737,-0.1093887459458996,-2.901286335097911,0.0,1915,0.1765151023864746,0.09571082119818815,0.07604979478583655,-287.85452579131066,0.0
6,1.7567012310028076,-225.3949553984905,21.534698826284586,-190.18674429647393,-348.82140454693433,0.0,0.5658219897146338,0.1,0.0064694881439208984,0.1335277557373047,0.048853762,0.18545513,-226.29770555031234,-0.10884997347363255,-2.9161787525098894,0.0,1938,0.17570781707763672,0.07909124367683223,0.058519962681273116,-264.91921802168775,0.0
7,1.727348804473877,-224.65134325052767,19.388020997571893,-186.78989342514058,-337.56362721416605,0.0,0.5608653925236674,0.1,0.005936384201049805,0.12792730331420898,0.050831426,0.19296794,-226.13306932033387,-0.10849001888813019,-2.9072518298996113,0.0,1936,0.17375564575195312,0.05616588394128222,0.038633324587847115,-283.300776366166,0.0
8,1.732238531112671,-223.9517412242625,14.94145860483543,-190.92943900744464,-267.7067721039458,0.0,0.5877246207110297,0.1,0.006840944290161133,0.15616536140441895,0.05138795,0.1972323,-225.91493651072673,-0.10993423446742424,-2.8973807327174703,0.0,1906,0.1710340976715088,0.03627652902105513,0.02430917764925816,-350.9158746001138,0.0
9,1.772078037261963,-224.38774674299657,23.779447718428628,-189.11986683866294,-401.05861377045983,0.0,0.5655154306444045,0.1,0.006252288818359375,0.13298845291137695,0.051093686,0.18338336,-225.7622175339537,-0.1083880450578874,-2.9030364007365725,0.0,1933,0.1760094165802002,0.034518400144935624,0.03024233843069801,-328.67366346833967,0.0
10,1.7433462142944336,-223.16847656956608,15.496066041008138,-188.03322307593902,-273.64476147639215,0.0,0.5310520919468822,0.1,0.0045163631439208984,0.12928557395935059,0.04926568,0.21640031,-225.50284343751494,-0.10807792738430423,-2.887605987369897,0.0,1934,0.17501258850097656,0.021906894113151498,0.020306790295266084,-348.1764792050826,0.0
11,1.7337782382965088,-223.41939357083461,15.643313640437574,-192.7064938907631,-298.80148826133933,0.0,0.5486085332831881,0.1,0.006501913070678711,0.13517117500305176,0.049556166,0.19410007,-225.2944984508469,-0.10869081847582301,-2.8890109454446566,0.0,1918,0.17099332809448242,0.020019344665456355,0.018959459401790675,-335.0799647746802,0.0
12,1.7547988891601562,-221.04544912999563,14.308181112886254,-187.01307913799468,-255.13780712110363,0.0,0.5627380835729848,0.1,0.005900382995605469,0.13147330284118652,0.051134598,0.18840845,-224.86959351876177,-0.10738211360158538,-2.857711283976826,0.0,1923,0.1760408878326416,0.018741855949025665,0.017835316025841593,-328.10649459073454,0.0
13,1.7361319065093994,-219.1488206877015,13.36674797302863,-191.47947929860612,-256.7720917100389,0.0,0.5682948959387581,0.1,0.0069580078125,0.13329792022705078,0.049235817,0.18644987,-224.29751623565573,-0.10734727671325044,-2.83177933405179,0.0,1904,0.17236804962158203,0.018353283608777436,0.016990313839909,-334.7239965969426,0.0
14,1.727402925491333,-221.86868946053974,21.005450870018862,-182.35904583239258,-362.04632695360556,0.0,0.5555873169665337,0.1,0.005988121032714844,0.1308748722076416,0.04899065,0.17065446,-224.05463355814413,-0.10770202672943206,-2.87103731611778,0.0,1928,0.17126989364624023,0.02591482424978185,0.024314992069208348,-359.58896333380255,0.0
15,1.7780170440673828,-218.20202115904013,17.020751862820433,-171.78582056413984,-286.1657158069881,0.0,0.5758725313100588,0.1,0.020503520965576172,0.13869714736938477,0.049513515,0.19572705,-223.46937231823372,-0.10525256211776478,-2.8209949192651234,0.0,1943,0.17687439918518066,0.019430426195854746,0.018506430503402026,-345.5025650463199,0.0
16,1.7309951782226562,-220.472278719589,14.815085014154391,-183.26725592090028,-255.14871312499307,0.0,0.5733366149428213,0.1,0.01868414878845215,0.13481783866882324,0.04935496,0.18783951,-223.16966295836926,-0.10480380098052304,-2.850003413339804,0.0,1973,0.17536258697509766,0.018500633527650544,0.017535171736104704,-368.13387274354864,0.0
17,1.7280747890472412,-214.34307663229143,17.001190947602975,-183.54917562269367,-283.99307434477794,0.0,0.5848884859651654,0.1,0.005974769592285156,0.1389787197113037,0.051662594,0.18418777,-222.28700432576147,-0.10283987617888135,-2.7702403580766166,0.0,1962,0.1719822883605957,0.020623761101988904,0.019418779624541024,-364.0346175478796,0.0
18,1.8081367015838623,-219.08606767393061,20.103015862642078,-175.7391142321189,-300.42617271083736,0.0,0.5948100258694091,0.1,0.0059282779693603516,0.13300371170043945,0.050062582,0.17797953,-221.96691066057838,-0.10296254192013894,-2.832520083718913,0.0,1997,0.18297815322875977,0.023596815320938467,0.022408124774597894,-343.78139370791934,0.0
19,1.7818961143493652,-217.67249528123955,18.268705818799685,-178.46695368346653,-274.49874590478316,0.0,0.5793049770417618,0.1,0.029834508895874023,0.13688278198242188,0.05062967,0.19239107,-221.5374691226445,-0.1020901787102776,-2.8133846086044376,0.0,2005,0.18385028839111328,0.019766461550734464,0.018846445803606244,-337.99358100703034,0.0
20,1.7507004737854004,-216.2652416611132,16.299639975404165,-181.7848014104776,-275.67175060974336,0.0,0.596535162656326,0.1,0.007049083709716797,0.16293859481811523,0.051004905,0.18318692,-221.01024637649138,-0.10234987031555864,-2.7934925618116906,0.0,1985,0.2410271167755127,0.018347004469407048,0.017556996434008227,-307.2820735034803,0.0
21,1.7842645645141602,-214.57196418965728,15.447225479733412,-182.46209401903369,-248.45711168211994,0.0,0.5843055153138553,0.1,0.007329225540161133,0.24726009368896484,0.04964432,0.18974881,-220.36641815780797,-0.10283280213143033,-2.7725610261461697,0.0,1969,0.23789620399475098,0.01642329057224432,0.015519058357555267,-317.2414312645947,0.0
22,1.772212266921997,-215.03306080998007,19.915133505082387,-174.60436183027932,-318.7045749908569,0.0,0.5673250726896009,0.1,0.006380319595336914,0.13601016998291016,0.051391684,0.18240419,-219.8330824230252,-0.1012552443115049,-2.7775534851914987,0.0,1995,0.19347810745239258,0.020196800356062136,0.01905786916161329,-318.0106990264251,0.0
23,1.7779595851898193,-214.00988937287585,17.073629225325163,-180.55077161254337,-275.66325739767063,0.0,0.592020770595021,0.1,0.006216526031494141,0.13245129585266113,0.05054757,0.1885975,-219.25076311801027,-0.1026606240210598,-2.765509507129599,0.0,1975,0.20334482192993164,0.016879731859146617,0.016360862858221643,-308.1007082729564,0.0
24,1.763211727142334,-212.03321071830166,15.554143612273675,-180.366207246899,-268.94045026582637,0.0,0.5666295258572801,0.1,0.0060596466064453125,0.13230180740356445,0.05027849,0.1891028,-218.5290078780394,-0.10131817643603802,-2.738671609821054,0.0,1975,0.21414947509765625,0.018438828018541634,0.017119486846040362,-303.5466502743527,0.0
25,1.7681777477264404,-214.97342688746554,21.871215674370386,-181.55690205863218,-328.32433320009966,0.0,0.5849575206281,0.1,0.0058116912841796875,0.1264958381652832,0.051494885,0.17625768,-218.17344977898202,-0.10129662991940798,-2.7775501454629072,0.0,2000,0.22730588912963867,0.02055128250074812,0.020096010593304313,-322.16292343825427,0.0
26,1.7786478996276855,-211.73836314911583,16.251546966828904,-180.56453657687575,-273.68895131000636,0.0,0.585601479031619,0.1,0.005991697311401367,0.12888216972351074,0.049572635,0.18245451,-217.52994111599543,-0.09992146546770164,-2.7340277688447654,0.0,2001,0.23813581466674805,0.016070630149324538,0.01543717822334108,-315.66429634945155,0.0
27,1.7723653316497803,-210.35770249417644,15.724284599182788,-176.72810163150604,-270.42627904287065,0.0,0.5693850653922832,0.1,0.0060994625091552734,0.1317002773284912,0.04992039,0.20243748,-216.81271725381353,-0.10244379613484443,-2.716934308538356,0.0,1934,0.25413942337036133,0.013848899459409604,0.013091836543183813,-300.45750962240555,0.0
28,1.718027114868164,-212.55681721687324,17.810924461731236,-182.21715398186603,-271.0579900406695,0.0,0.5797930639759058,0.1,0.005839824676513672,0.1424109935760498,0.051028807,0.1728297,-216.3871272501195,-0.10173772607976052,-2.7451043346664554,0.0,1977,0.2507491111755371,0.016281137647486354,0.014804787082836644,-247.0090936977578,0.0
29,1.7192087173461914,-208.74104549900366,14.449927686325807,-176.23263584494893,-252.7148076776226,0.0,0.559466946916354,0.1,0.0060651302337646484,0.16652631759643555,0.051535957,0.19974832,-215.62251907500792,-0.10114201591932559,-2.695212819578078,0.0,1945,0.2501676082611084,0.014998790984740919,0.01302619801143098,-233.02906878641977,0.0
30,1.7260806560516357,-205.04676441497986,17.56638068818887,-165.32783692245374,-265.48713543961696,0.0,0.5967389145674709,0.1,0.005869388580322266,0.12740516662597656,0.050736364,0.18466112,-214.56494360900513,-0.0997638489400779,-2.646539950576589,0.0,1952,0.2495408058166504,0.016375770935921508,0.01559066183081442,-253.11567818149547,0.0
31,1.9462130069732666,-210.51695177501713,21.856498111182564,-172.92011362313713,-315.75870419512165,0.0,0.6334110007118608,0.1,0.01716756820678711,0.13324260711669922,0.05149218,0.16078512,-214.16014442560635,-0.1011842489874684,-2.7184558212381624,0.0,1972,0.27799367904663086,0.020208355925481338,0.0184346794471753,-230.8481814684634,0.0
32,1.742201566696167,-210.0918763424494,17.800084200407326,-178.85997471744213,-303.36951342779025,0.0,0.5792124125199546,0.1,0.006093025207519531,0.23791837692260742,0.050442517,0.17820266,-213.75331761729066,-0.10173210130891132,-2.710742388738987,0.0,1956,0.2965362071990967,0.015697657082949203,0.015146466371783051,-215.0621415101578,0.0
33,1.7607157230377197,-209.76958507834638,14.824544600714887,-175.36481434299003,-245.95416454313494,0.0,0.5897929284509158,0.1,0.007266998291015625,0.25373172760009766,0.049187627,0.1782648,-213.35494436339624,-0.10158497132352447,-2.708802661949084,0.0,1956,0.2791576385498047,0.012215466101014682,0.011918617873475323,-215.6141140082333,0.0
34,1.9525067806243896,-207.86761300038333,15.4944656028859,-178.39126951884032,-245.18046323352954,0.0,0.5906879287116984,0.1,0.017055988311767578,0.1256730556488037,0.050759576,0.1771335,-212.80621122709496,-0.10151797541688086,-2.68150159504115,0.0,1940,0.37427616119384766,0.011512202501890698,0.011148818329264702,-258.5723088301385,0.0
35,1.953005313873291,-209.26704598662624,17.771698384894982,-172.54220984114005,-287.535608192998,0.0,0.5485390152636929,0.1,0.017001628875732422,0.13548612594604492,0.049986053,0.19163156,-212.4522947030481,-0.10083345824090656,-2.7008184041629875,0.0,1974,0.2891533374786377,0.01421856031491416,0.01387227874705121,-254.19453774620757,0.0
36,1.9740309715270996,-204.72440454712967,14.462068072501328,-170.3568748331167,-263.8918790040207,0.0,0.5870584752925625,0.1,0.005926609039306641,0.1320962905883789,0.049543694,0.18472698,-211.67950568745627,-0.10080852361527637,-2.6412307345905592,0.0,1927,0.288053035736084,0.011338929171901132,0.010194093247805526,-249.23470326653356,0.0
37,1.9675836563110352,-205.13951294740505,17.305645732586168,-176.42880854144863,-281.97122222688637,0.0,0.5712231223699089,0.1,0.006155967712402344,0.13162755966186523,0.050462656,0.17574489,-211.02550641345115,-0.1004896486322265,-2.646010023053283,0.0,1948,0.28844618797302246,0.01338650136035774,0.012991169946323645,-230.95810602981297,0.0
38,1.9222784042358398,-205.02044377424377,14.940581099326138,-174.64786058051754,-256.9486933378559,0.0,0.6252248971983223,0.1,0.0058634281158447266,0.13646626472473145,0.05102058,0.16126166,-210.4250001495304,-0.09922930463582409,-2.644591939308933,0.0,1958,0.2667272090911865,0.0122625324899084,0.012146624690652719,-243.90987781027704,0.0
39,1.9504568576812744,-206.01129430575895,14.665584693019662,-180.21743872071096,-255.19083485323137,0.0,0.6355958233319398,0.1,0.017345190048217773,0.13395047187805176,0.049894046,0.16392101,-209.98362956515325,-0.09836837178804898,-2.6578698252444215,0.0,1988,0.2881889343261719,0.011853652246153597,0.010755083533344001,-201.22060526005046,0.0
40,1.9737827777862549,-203.5475646200206,14.085863021330727,-170.46353927678868,-239.9462780135117,0.0,0.5946731933507766,0.1,0.007198810577392578,0.13966655731201172,0.050623834,0.16959362,-209.34002307064,-0.09858500800242088,-2.6248864815996895,0.0,1979,0.29753875732421875,0.011294712813960139,0.011081629673089292,-199.9030265059264,0.0
41,1.9561522006988525,-205.63989457799428,21.381120340577738,-166.88281206545958,-335.05818674147815,0.0,0.5714600146917967,0.1,0.006280660629272461,0.14039301872253418,0.048839703,0.17102195,-208.97001022137545,-0.09912882562560528,-2.652463222423466,0.0,1982,0.29553651809692383,0.017594923590734585,0.017418511808413174,-207.50378634109137,0.0
42,1.9860031604766846,-203.2423765132368,14.67358467697798,-174.60984298973466,-252.3309712415774,0.0,0.6228896350556589,0.1,0.0061855316162109375,0.1334092617034912,0.050338607,0.1711105,-208.39724685056157,-0.09751537701442026,-2.620973449363596,0.0,1991,0.3033723831176758,0.011716175641871308,0.011334183009989831,-245.84402873703596,0.0
43,2.005882740020752,-203.92825392151818,16.478912381869883,-173.769140765592,-259.5542627764081,0.0,0.6057597009457083,0.1,0.0062868595123291016,0.13646411895751953,0.051159993,0.17151555,-207.95034755765724,-0.09712233594399898,-2.6302101140707035,0.0,2015,0.30237627029418945,0.012167545956891615,0.011772035814939557,-203.91766558709094,0.0
44,1.9887473583221436,-200.88618636920918,15.364961203469948,-160.95018509981173,-238.73262698823066,0.0,0.6302304853490505,0.1,0.017094850540161133,0.1305677890777588,0.050434005,0.1710956,-207.24393143881244,-0.0976815856807541,-2.590377233443101,0.0,1981,0.2871236801147461,0.012138588309370488,0.011737246268583693,-206.82142111739162,0.0
45,1.9583368301391602,-202.37526030516509,14.536639819736672,-168.07085302240574,-249.3745155678231,0.0,0.6084113310990216,0.1,0.00603938102722168,0.12886476516723633,0.050360322,0.17107424,-206.75706432544771,-0.09771927517600291,-2.6096118782552895,0.0,1985,0.2699732780456543,0.009686710730486802,0.00935494718189049,-182.72215610776408,0.0
46,1.9650845527648926,-201.79158944049576,16.618900429033356,-172.73324954829116,-273.73019134628663,0.0,0.6162796304644345,0.1,0.006055593490600586,0.1304795742034912,0.049222942,0.16077778,-206.26051683695255,-0.09698721693952594,-2.601849474235973,0.0,2009,0.268543004989624,0.013258955733930624,0.012772319574152565,-198.06769270289692,0.0
47,1.9791145324707031,-201.06963599389005,16.330938508824595,-164.8323875096736,-252.892678976675,0.0,0.6209027565248411,0.1,0.005988121032714844,0.13196468353271484,0.050259728,0.17124833,-205.7414287526463,-0.09713464351355715,-2.591660789009614,0.0,1994,0.27419590950012207,0.011104796241048827,0.010782256501215602,-258.20075166166384,0.0
48,1.960935354232788,-200.7423388141615,14.573397011155086,-172.86159488632808,-242.8594404380478,0.0,0.6311083257140064,0.1,0.00642848014831543,0.14345169067382812,0.050690718,0.15860364,-205.24151975879784,-0.09808934891328658,-2.5867149012531536,0.0,1966,0.28748416900634766,0.010474251244764027,0.010228662475885983,-242.1400061103184,0.0
49,2.0380117893218994,-199.5953933481518,17.264911888471588,-167.46358758536422,-248.0268183643876,0.0,0.6412731050978392,0.1,0.006778717041015625,0.14704442024230957,0.050303828,0.16065702,-204.67690711773324,-0.09595642720336502,-2.5712575095369976,0.0,2004,0.3196744918823242,0.012070696321729295,0.012089372431315552,-197.4987203142365,0.0
50,1.9527528285980225,-199.11922596151615,14.515786520369659,-169.25539379790877,-236.830948463499,0.0,0.617145383373235,0.1,0.006167173385620117,0.14233684539794922,0.049621344,0.17384613,-204.12113900211153,-0.09628932744683165,-2.5659550738476393,0.0,2006,0.2900383472442627,0.010324924878065129,0.009891090742857846,-243.02117891142288,0.0
51,1.7928242683410645,-199.88437572707178,15.63681742046103,-159.83762385685935,-231.4515265519583,0.0,0.6115103172320204,0.1,0.007686138153076172,0.1415567398071289,0.050196722,0.17305043,-203.69746267460755,-0.09646195097937287,-2.5770776120844388,0.0,1997,0.3094141483306885,0.010413043005710068,0.00993749247340083,-230.6216839694034,0.0
52,1.820678472518921,-199.57062090539407,15.66274746255647,-165.55016681820138,-261.36813780169194,0.0,0.6376656657914155,0.1,0.006201505661010742,0.1363239288330078,0.049798526,0.15954724,-203.2847784976862,-0.0966088254703379,-2.5730681857253592,0.0,1998,0.2937586307525635,0.011436511059236877,0.010718570644155047,-206.6167362415103,0.0
53,1.7826693058013916,-194.16473749747908,15.422656184829977,-161.8963355152693,-246.54952869476577,0.0,0.5831046014155947,0.1,0.007482051849365234,0.16201519966125488,0.049792554,0.17334323,-202.37277439766552,-0.09540622738255006,-2.4995830921180087,0.0,1972,0.350494384765625,0.010857603433965565,0.010087981770596425,-187.81624914375567,0.0
54,1.7553038597106934,-199.09089936579844,16.38747801511264,-159.32727062156266,-257.97837124260207,0.0,0.6044442050997006,0.1,0.017409563064575195,0.13129878044128418,0.04955462,0.17490795,-202.0445868944788,-0.09589494804865238,-2.565131688610419,0.0,2009,0.30669188499450684,0.010822583778992494,0.010185888905150866,-184.05135171242338,0.0
55,1.779083013534546,-196.48132215925045,16.52963399523127,-165.68751318055496,-246.03816981172588,0.0,0.5924160686331054,0.1,0.006154298782348633,0.13328838348388672,0.049847785,0.17465264,-201.48826042095598,-0.09590798283776565,-2.531999058103397,0.0,1992,0.2908802032470703,0.011718794597669308,0.01132545136972493,-189.211941183688,0.0
56,1.8188755512237549,-194.17577017082354,17.294314708161924,-162.32331182016725,-254.9510398224372,0.0,0.626620033296147,0.1,0.00741887092590332,0.1621565818786621,0.050021607,0.16390535,-200.75701139594273,-0.0943412510913198,-2.500723071762468,0.0,1997,0.38280439376831055,0.011547701709546073,0.011383418604826619,-185.65935110304562,0.0
57,1.782881259918213,-193.30387423555314,14.01539520366411,-160.36706630448387,-245.99672562421526,0.0,0.6295476117612038,0.1,0.006188392639160156,0.13587188720703125,0.050734125,0.16835658,-200.0116976799038,-0.09499582086346021,-2.489290567551295,0.0,1989,0.2941164970397949,0.008836198815749168,0.008208789486066993,-184.22574106931953,0.0
58,1.7050747871398926,-193.18413472335646,13.452974038104426,-156.94423920546646,-229.65588365713242,0.0,0.6236500248760687,0.1,0.00606989860534668,0.14161062240600586,0.050571516,0.16628832,-199.32894138424905,-0.09495934986437966,-2.4866070800332767,0.0,1992,0.27516698837280273,0.008245740280189687,0.007882373573331812,-211.45540809997803,0.0
59,1.7687349319458008,-194.45066593659757,15.743095661054014,-165.4344459211095,-249.45126686704924,0.0,0.5929209040004966,0.1,0.006062030792236328,0.13582825660705566,0.050237995,0.16632323,-198.8411138394839,-0.09456512264339105,-2.50329044286449,0.0,2002,0.2730293273925781,0.010490297337678797,0.010084596270229128,-208.03966451516195,0.0
60,1.781362533569336,-192.68895446574297,15.58552461184593,-152.71788942018725,-234.0583548641075,0.0,0.6048923703647965,0.1,0.0059926509857177734,0.13576817512512207,0.05074338,0.17274724,-198.22589790210984,-0.09454248359158864,-2.4801785006309953,0.0,1991,0.27430224418640137,0.0089208803960251,0.008741611245976673,-215.84360978115205,0.0
61,1.7745859622955322,-192.82043267338017,16.755057780144334,-158.14284193022448,-258.2043980156491,0.0,0.6264847524451302,0.1,0.006325721740722656,0.13807964324951172,0.050307557,0.15959671,-197.6853513792369,-0.09360408719791628,-2.481460445612202,0.0,2019,0.3178446292877197,0.010459058145937655,0.010159357574099807,-200.37746693716306,0.0
62,1.7509522438049316,-186.63706327231253,13.311883226554626,-155.92302830883517,-230.99656119152633,0.0,0.6163330358670502,0.1,0.006127595901489258,0.13553643226623535,0.050166782,0.16326752,-196.58052256854444,-0.09312218702498565,-2.400858064708129,0.0,1974,0.2588651180267334,0.008968647716371892,0.0084619732817214,-197.8591687656703,0.0
63,1.793743371963501,-191.04825587692517,17.559421614973875,-153.1446009556695,-249.91625363457646,0.0,0.6407352886462183,0.1,0.018819332122802734,0.13347744941711426,0.04966422,0.16076858,-196.02729589938252,-0.09303217168385507,-2.458245512506773,0.0,2019,0.28627753257751465,0.012297737513709692,0.011596403876494825,-205.18064380480226,0.0
64,1.775928020477295,-192.2680328452807,13.716825883054137,-164.70084159463494,-232.10098463901318,0.0,0.5831839710154934,0.1,0.006179094314575195,0.1515955924987793,0.049612585,0.1769115,-195.65136959397236,-0.09240905778577375,-2.4734779824384012,0.0,2040,0.31856656074523926,0.009492995632268993,0.009026693901562553,-197.8578564194957,0.0
65,1.7739393711090088,-189.31456437347705,13.803085880938864,-160.64953229666315,-223.09836747570083,0.0,0.6254616098685086,0.1,0.007336139678955078,0.16308975219726562,0.050260685,0.16173112,-195.01768907192286,-0.0924745756682037,-2.434949026988112,0.0,2021,0.36376452445983887,0.008305423546957399,0.008021307789961787,-208.72256680786236,0.0
66,1.8174235820770264,-190.4993399460394,15.00106620457143,-165.55373259680493,-242.99327478121364,0.0,0.6087988066629383,0.1,0.00601506233215332,0.13317489624023438,0.050202794,0.16163735,-194.56585415933452,-0.09247628751137456,-2.451629580678551,0.0,2046,0.3038938045501709,0.009304762500279121,0.00870111563186304,-203.99624334791412,0.0
67,1.770596981048584,-188.80891934545556,13.906220601265385,-158.46283121967565,-224.00741917195973,0.0,0.6144890766479582,0.1,0.006086111068725586,0.13664507865905762,0.05061852,0.1605126,-193.99016067794662,-0.09271221812570929,-2.4289213893089197,0.0,2020,0.2956857681274414,0.00940264423935413,0.008712780453333888,-203.7210779545235,0.0
68,1.7438435554504395,-189.43182896981617,15.102742889791903,-156.04837173356938,-220.72713441886287,0.0,0.6241071411927358,0.1,0.006953001022338867,0.19894051551818848,0.0498729,0.16429695,-193.53432750713358,-0.09247368943576573,-2.437459605725161,0.0,2028,0.46726250648498535,0.009079771839391012,0.008817296889679378,-180.9602058983903,0.0
69,1.7944133281707764,-183.8772768153641,14.102137187993929,-151.8081528195851,-242.09167765574233,0.0,0.6350959518140089,0.1,0.006043910980224609,0.1295011043548584,0.05075593,0.15563828,-192.56862243795663,-0.09153271954617408,-2.3624878336152357,0.0,2008,0.3052856922149658,0.009596075575165336,0.008595347151173017,-179.06408650368036,0.0
70,1.7899012565612793,-187.45975004299666,14.650327609346323,-160.95798925353836,-236.54913625915833,0.0,0.644739715094659,0.1,0.0062596797943115234,0.13764262199401855,0.05096245,0.1555986,-192.05773519846065,-0.09131708066483908,-2.410436293969846,0.0,2041,0.30855607986450195,0.008032842073128049,0.007604321294386628,-184.1451047240065,0.0
71,1.7554397583007812,-187.1339914495402,15.592400564029408,-152.8497823148188,-240.63808895401388,0.0,0.6404629823737,0.1,0.006223917007446289,0.13495922088623047,0.050442364,0.14933302,-191.56536082356862,-0.09073550715546808,-2.4062512274122443,0.0,2069,0.3226020336151123,0.01027727632418838,0.009084562070924168,-188.03485470533235,0.0
72,1.8039991855621338,-188.13909574672036,15.709340497016735,-156.9295501208128,-240.183202125432,0.0,0.6325700120733369,0.1,0.005957603454589844,0.13216733932495117,0.050369717,0.16472813,-191.2227343158838,-0.0911742323369582,-2.41873411429189,0.0,2056,0.31328582763671875,0.008532527639816706,0.007996762897982646,-178.58040155877904,0.0
73,1.7981243133544922,-186.69536194677957,15.329341343655758,-157.8726705187218,-241.58579498606525,0.0,0.6693865661296752,0.1,0.006051778793334961,0.13585495948791504,0.05037836,0.14580402,-190.76999707897338,-0.09061138265265394,-2.399521296629816,0.0,2057,0.2815377712249756,0.008823665565491643,0.008835730320204743,-163.39606905642734,0.0
74,1.810063362121582,-182.0003499171299,13.231775822024087,-154.763224685862,-221.67700525644938,0.0,0.6189207447007383,0.1,0.007310390472412109,0.13888859748840332,0.05023024,0.17166884,-189.89303236278903,-0.08970483700444788,-2.338598649601846,0.0,2041,0.311206579208374,0.007235449480522933,0.0069211186722271875,-186.75896011354234,0.0
75,1.7659168243408203,-184.0135191866526,16.416109473040876,-156.36623120299828,-232.86541241797576,0.0,0.6582798218575429,0.1,0.006156206130981445,0.14841175079345703,0.049954016,0.14472848,-189.3050810451754,-0.0895602431037027,-2.3656907647997887,0.0,2074,0.3171372413635254,0.008750735812630195,0.008376382822614652,-171.34870521535674,0.0
76,1.8558709621429443,-182.53361265604576,11.493684379911768,-158.2989556379072,-210.28733597059116,0.0,0.6120887021970238,0.1,0.01708817481994629,0.14348268508911133,0.049781643,0.16449969,-188.62793420626244,-0.09065867914914488,-2.344173923987532,0.0,2038,0.31441378593444824,0.006897075154058402,0.006381252746330957,-178.36393003111687,0.0
77,1.8009533882141113,-180.22116736700272,12.41764839345203,-156.221610451402,-215.3640457657388,0.0,0.6330569442706628,0.1,0.0060083866119384766,0.1333785057067871,0.050159194,0.1597996,-187.78725752233646,-0.08945959123813345,-2.314287745119259,0.0,2053,0.3202171325683594,0.0069389775256726354,0.006499145443882146,-173.62625541615665,0.0
78,1.789320468902588,-180.23282746380406,12.86462431233666,-149.496874501297,-207.28310699266487,0.0,0.5841362978795556,0.1,0.005918264389038086,0.13286447525024414,0.049625594,0.17303278,-187.03181451648322,-0.08952275846898998,-2.3149928834718243,0.0,2054,0.3185751438140869,0.0073922573045340275,0.007041978111353685,-166.26523554257273,0.0
79,1.7696888446807861,-180.39137041493643,13.573059740733573,-148.96354155888545,-211.95705121047177,0.0,0.6268780096686929,0.1,0.00464177131652832,0.1177823543548584,0.050186396,0.1610355,-186.36777010632855,-0.08903427383584195,-2.3164106218290796,0.0,2065,0.4505729675292969,0.00811874066979057,0.007806155547034114,-154.7999189774888,0.0
80,1.8265419006347656,-183.55651659713453,12.842576709627565,-154.0108155357329,-217.9410584579896,0.0,0.5954893462668684,0.1,0.006170749664306641,0.13095545768737793,0.050085627,0.17085178,-186.08664475540917,-0.08935074690095064,-2.3589972664957535,0.0,2093,0.32373690605163574,0.006074275951419315,0.005989716631320748,-151.2207856646953,0.0
81,2.0304477214813232,-184.4757855833329,14.847835069902137,-153.06504147654653,-224.73382794346165,0.0,0.6337731625465214,0.1,0.005990266799926758,0.1439342498779297,0.050517444,0.15528098,-185.92555883820154,-0.08901133519857292,-2.368937779914283,0.0,2112,0.33832216262817383,0.007942886116198637,0.007207042952972787,-150.7960751343146,0.0
82,1.7849338054656982,-178.60016715336442,12.1399722711091,-152.01438334213438,-204.97273153166398,0.0,0.6060978318999496,0.1,0.006712436676025391,0.13795161247253418,0.04870556,0.17468946,-185.19301966971784,-0.08816581763090658,-2.2922262158533093,0.0,2089,0.3905830383300781,0.007510694822373527,0.006989422531445155,-163.61599266126734,0.0
83,1.8203461170196533,-177.87036175325215,13.235929262447828,-152.54634801864748,-216.23236512454275,0.0,0.6446047311396643,0.1,0.0060634613037109375,0.13068389892578125,0.050878827,0.15450855,-184.4607538780713,-0.08726466121873734,-2.2834147250301107,0.0,2111,0.2986609935760498,0.007185003317067624,0.006625550126256276,-155.83741565805792,0.0
84,2.022298812866211,-181.74264861482666,12.160762903458268,-156.78888676212986,-211.1402441811529,0.0,0.60182686544281,0.1,0.006079196929931641,0.1302497386932373,0.05020356,0.17758347,-184.18894335174684,-0.08811976843934405,-2.334338575885329,0.0,2126,0.2880387306213379,0.006612235986389645,0.005998006316878781,-154.66324298206888,0.0
85,2.0163121223449707,-175.3188535606357,12.75248008605332,-155.12011438823487,-214.71332212992422,0.0,0.6319153066146689,0.1,0.006037235260009766,0.1443338394165039,0.049518894,0.15865488,-183.30193437263574,-0.08656995540966955,-2.2484384096271435,0.0,2106,0.3116462230682373,0.006700349246869015,0.00616550354924348,-158.60612521929073,0.0
86,2.044698476791382,-179.8594689303535,13.948310239439861,-152.6183861225656,-218.17664679691902,0.0,0.6300161896075045,0.1,0.00616002082824707,0.1334841251373291,0.04994078,0.15853162,-182.95768782840753,-0.08701391136736185,-2.3084452270362283,0.0,2138,0.2981243133544922,0.008057478347693785,0.006531814673725654,-169.4260494679418,0.0
87,2.0116751194000244,-178.83138515540324,15.168065446349566,-150.27686075459835,-234.417547011125,0.0,0.6507380777208237,0.1,0.007538795471191406,0.16736292839050293,0.04780038,0.15050556,-182.54505756110711,-0.08684056130272273,-2.294874270695489,0.0,2129,0.5969700813293457,0.0066677133053026265,0.0062857213469492265,-149.21283475432773,0.0
88,2.0380592346191406,-177.18985205288797,13.435215959039864,-147.06937561981218,-210.8580864607066,0.0,0.6190948463391693,0.1,0.006316423416137695,0.1357421875,0.05001078,0.16253641,-182.0095370102852,-0.08710059140231598,-2.274019505033431,0.0,2116,0.3200075626373291,0.0071270591888053045,0.006560984499381208,-171.68110141400948,0.0
89,2.015388011932373,-175.82170047162637,13.16479139942999,-150.67666604453564,-221.71960229496165,0.0,0.6671965074159781,0.1,0.006387472152709961,0.13480806350708008,0.050057393,0.14482848,-181.3907533564193,-0.08697719722890444,-2.2547132043872784,0.0,2104,0.3166065216064453,0.0069212219819575725,0.0062913017894196226,-149.77390203714913,0.0
90,2.0250937938690186,-174.98316900101176,12.756889154729665,-144.63171804889836,-208.10544212474332,0.0,0.6697195850856531,0.1,0.017194032669067383,0.13058066368103027,0.05095537,0.15664579,-180.74999492087855,-0.08612839264050032,-2.24385284330507,0.0,2127,0.3381614685058594,0.006272309889137273,0.0058186116499899495,-172.25745301504,0.0
91,2.0164809226989746,-174.19476124598228,12.056132965669416,-149.52383043607784,-203.7031300825002,0.0,0.6508319860212385,0.1,0.006280183792114258,0.1362748146057129,0.049493473,0.1551284,-180.09447155338893,-0.08573786202766472,-2.232948157058988,0.0,2133,0.33318424224853516,0.0058171159229828935,0.005595282751445226,-148.7762019142112,0.0
92,1.9914300441741943,-176.49894421316617,14.366849489698978,-148.18520850715691,-220.41456059904178,0.0,0.6643024986524961,0.1,0.018351078033447266,0.17058897018432617,0.050221786,0.14683865,-179.73491881936667,-0.08569976797349994,-2.2641485613707037,0.0,2156,0.4004476070404053,0.007656590216121041,0.0071559819911695514,-154.14262100149313,0.0
93,2.0488996505737305,-172.38662473159602,11.648358036251963,-145.8266565180537,-201.67663626419545,0.0,0.6254589847322531,0.1,0.017092466354370117,0.13842415809631348,0.049339764,0.15994886,-179.0000894105896,-0.08522287089489507,-2.210046248838721,0.0,2142,0.3203709125518799,0.0067082051408404834,0.005265790780582356,-144.2348992835405,0.0
94,2.096886157989502,-172.29282025724092,11.81186492145089,-146.79603816057676,-213.440902250284,0.0,0.6424859723579394,0.1,0.006613492965698242,0.14605236053466797,0.050041683,0.1575668,-178.32936249525474,-0.08440341252015325,-2.210133894088594,0.0,2162,0.31578803062438965,0.005380832016198207,0.00508041898933368,-172.5007265836638,0.0
95,2.0547890663146973,-175.67580798395917,13.446220294858009,-151.3667315584495,-211.17164864195038,0.0,0.6629970520972425,0.1,0.006054878234863281,0.20766592025756836,0.05018311,0.15578914,-178.0640070441252,-0.08524540964873834,-2.253237432793345,0.0,2182,0.3370494842529297,0.006542940545833428,0.005752468844221669,-147.9474414185667,0.0
96,2.082049608230591,-171.83134575918498,13.090005834082405,-138.68190849482676,-205.33712120981113,0.0,0.6671274551789421,0.1,0.006239414215087891,0.13493752479553223,0.050696075,0.14787176,-177.44074091563118,-0.08384605172133992,-2.2022109789579654,0.0,2196,0.3302767276763916,0.00660941589323885,0.0058171651159864435,-155.04998683996183,0.0
97,2.080115795135498,-173.79379911171168,12.155050364821413,-141.70604209728077,-209.34383014694788,0.0,0.6778236432533459,0.1,0.006108999252319336,0.13578486442565918,0.049842577,0.15119094,-177.07604673523923,-0.0837593620292494,-2.2287736684106947,0.0,2215,0.34525465965270996,0.005553028115300507,0.005287296219126022,-166.66059331546194,0.0
98,2.083266019821167,-169.38088482311002,12.91096784309058,-148.07033567916386,-199.98381967047658,0.0,0.6371067884704299,0.1,0.007315874099731445,0.16361522674560547,0.04959001,0.16090453,-176.30653054402632,-0.08286976084561265,-2.16985681476166,0.0,2205,0.4078037738800049,0.0075112394639472125,0.00609300366719436,-166.20882023848884,0.0
99,2.093493700027466,-172.7398313142328,12.842431604926427,-139.58223704540484,-197.0910732429424,0.0,0.6945172913110328,0.1,0.006277322769165039,0.13776230812072754,0.049954966,0.14871545,-175.94986062104698,-0.08339742479682587,-2.2128950799990306,0.0,2218,0.3421471118927002,0.005848453308308497,0.0054979886049017,-152.88792886338544,0.0
100,2.0534918308258057,-173.8062926076708,13.543374581473028,-143.70522882374826,-197.06013856132788,0.0,0.6702141139305545,0.1,0.007470130920410156,0.16149520874023438,0.05070181,0.14770898,-175.73550381970938,-0.08388105233737653,-2.227577826882325,0.0,2216,0.3712942600250244,0.006228087568897633,0.00585818791473601,-164.30005025727976,0.0
101,1.8815431594848633,-169.67312198338945,12.97582817434171,-138.90857427930135,-206.0233167866099,0.0,0.6811887421814274,0.1,0.006229877471923828,0.1320667266845703,0.04937037,0.15418513,-175.12926563607738,-0.08300270394233912,-2.173497027573721,0.0,2192,0.3056480884552002,0.007314604185311164,0.005812300562349684,-146.1046756426433,0.0
102,1.8748154640197754,-169.52493946420248,12.814307055353193,-142.19633482516744,-221.7015769350794,0.0,0.6710939811943848,0.1,0.006193876266479492,0.1315929889678955,0.050015062,0.14219661,-174.5688330188899,-0.08236247382455257,-2.1716619787502665,0.0,2216,0.3023228645324707,0.005491246009221892,0.00527895479474539,-172.39182048685444,0.0
103,1.8639159202575684,-172.41101993449192,13.13556346469799,-141.7806563598875,-200.45910846431977,0.0,0.6652389751950925,0.1,0.006853342056274414,0.13797950744628906,0.05003102,0.15472166,-174.35305171045013,-0.08324985804346335,-2.209195085272377,0.0,2216,0.3336477279663086,0.006484139380033055,0.006044993897304894,-177.4720427045906,0.0
104,1.8895797729492188,-171.26111055024057,12.25086524210608,-141.3431012599207,-212.4093958016461,0.0,0.6708826770206887,0.1,0.006371259689331055,0.13793253898620605,0.050262906,0.14966075,-174.0438575944292,-0.08236572071238445,-2.1945495985363013,0.0,2243,0.3466517925262451,0.005040230998178734,0.004666012110848447,-177.89422979654825,0.0
105,1.8842482566833496,-171.38281590473989,13.56204888820936,-146.14557859991072,-210.326569653777,0.0,0.7181917244286883,0.1,0.006356716156005859,0.13381171226501465,0.05012108,0.13697636,-173.77775342546028,-0.08189797575099618,-2.196782019108148,0.0,2250,0.32723331451416016,0.006262291331431575,0.00599722670041948,-151.1548274311048,0.0
106,1.8735980987548828,-167.60594576016857,10.97307044787456,-143.81728787265675,-197.99183810312456,0.0,0.6679987593104644,0.1,0.0073032379150390625,0.1620321273803711,0.049953453,0.15406257,-173.16057265893113,-0.08137495513911314,-2.146833899351396,0.0,2240,0.38219499588012695,0.004868508505826415,0.00447631858731599,-163.9802612206849,0.0
107,1.8888192176818848,-169.23076873706205,13.334759669882349,-142.6833011386221,-202.99715150670073,0.0,0.6811426122486743,0.1,0.006342649459838867,0.12892627716064453,0.050150964,0.15045945,-172.76759226674423,-0.0815078000616264,-2.167353080291317,0.0,2256,0.30918049812316895,0.005521824719194247,0.0052475646569975385,-156.44777708423885,0.0
108,1.9004583358764648,-167.93150758316847,11.244016614177635,-144.4756498539847,-203.41123199284817,0.0,0.7151569749255927,0.1,0.006176471710205078,0.13324737548828125,0.04952571,0.13940823,-172.28398379838666,-0.0810608457500341,-2.1500133389081633,0.0,2244,0.31737565994262695,0.005223390277376981,0.004727223777136966,-173.8280389679793,0.0
109,1.8789479732513428,-169.8438988695076,10.986853267304186,-144.1852904451062,-195.44700981659912,0.0,0.7068162998080453,0.1,0.0065593719482421875,0.1395893096923828,0.050106883,0.14209968,-172.03997530549876,-0.08198989900374241,-2.1748071610995865,0.0,2247,0.35059189796447754,0.004856137173884205,0.004401692312685845,-177.5777220842591,0.0
110,1.8988566398620605,-167.23400057787455,14.099974241496467,-139.56092567640803,-198.4586323934738,0.0,0.6793024025651778,0.1,0.004992961883544922,0.11672282218933105,0.04926527,0.13994214,-171.55937783273632,-0.08075657010137188,-2.1416179744944297,0.0,2261,0.23877525329589844,0.0065542051843881,0.0061633546884415835,-169.9430231052957,0.0
111,1.8836848735809326,-170.6702735753058,13.686858001296592,-140.9231916269799,-204.6628508384556,0.0,0.7194325229128018,0.1,0.00628352165222168,0.13625097274780273,0.050372675,0.14123,-171.47046740699327,-0.08106171535797975,-2.186148454684217,0.0,2295,0.3106846809387207,0.006791525406759009,0.005457588587370265,-179.1529430767727,0.0
112,1.8865416049957275,-166.8333240964253,14.033590174748054,-134.0996759664548,-195.46281088964548,0.0,0.6754622557536661,0.1,0.007669925689697266,0.14009881019592285,0.05006814,0.14761585,-171.00675307593647,-0.0811131441874479,-2.135254437880223,0.0,2258,0.3239936828613281,0.007209926428241355,0.006730302209130101,-159.89823963480464,0.0
113,1.8558878898620605,-165.45242157589072,13.689396315398389,-134.73150198118356,-198.8312882030709,0.0,0.6955833483912818,0.1,0.006356954574584961,0.13588261604309082,0.04968712,0.1471929,-170.4513199259319,-0.08066130373022004,-2.117175633412085,0.0,2252,0.31661367416381836,0.0062275035406491675,0.00594547150816046,-165.99577462208123,0.0
114,1.9099173545837402,-167.98207221208227,12.219938569826219,-141.7835850437336,-192.10825049556354,0.0,0.7113677550388997,0.1,0.007395505905151367,0.16208124160766602,0.050264794,0.14344558,-170.20439515454694,-0.08012978227628588,-2.1504590874235334,0.0,2304,0.3967466354370117,0.006007925220511606,0.004981043346976723,-170.0708307583071,0.0
115,1.9002220630645752,-165.99747583040846,13.760711296619508,-133.43664781294268,-202.56830910597876,0.0,0.6607400291579275,0.1,0.006418704986572266,0.13711047172546387,0.0495713,0.14849801,-169.7837032221331,-0.0794288589745129,-2.125155374393639,0.0,2313,0.43194580078125,0.0062056270561204035,0.005803382269191338,-168.428362238496,0.0
116,1.9113562107086182,-162.80998938824428,12.545205793879454,-136.3448843994485,-194.75814940291434,0.0,0.6824780396893046,0.1,0.0064890384674072266,0.1372992992401123,0.0479577,0.14122586,-169.08633183874426,-0.07877687170332347,-2.0829553257217523,0.0,2305,0.3672161102294922,0.006079814551396929,0.005678035907240908,-163.57202722870738,0.0
117,1.9738681316375732,-167.39908129748983,11.173623130434121,-144.17269452045883,-190.4036167801496,0.0,0.7055923926458534,0.1,0.0174410343170166,0.1381678581237793,0.05060379,0.14409369,-168.9176067846188,-0.07926147764558579,-2.1426250696852738,0.0,2340,0.3701941967010498,0.005465003209291558,0.004429383824099451,-182.06728933870573,0.0
118,1.8841731548309326,-168.11399850163858,12.876487942470108,-140.91636371257223,-199.02847105526197,0.0,0.7275968520328102,0.1,0.0067064762115478516,0.16710114479064941,0.048937917,0.13039373,-168.8372459563208,-0.0795221475361554,-2.152346940856172,0.0,2345,0.6213040351867676,0.005444561428438897,0.005135719973167979,-198.88606885215455,0.0
119,1.9275107383728027,-167.24106732802588,13.711159036426661,-129.86516632196887,-214.51671827868694,0.0,0.6855764483342496,0.1,0.011970758438110352,0.20891308784484863,0.049539223,0.1485603,-168.6776280934913,-0.07893765045705516,-2.1398090799356706,0.0,2342,0.5030570030212402,0.005552819987106414,0.005324447080915967,-138.36961705971652,0.0
120,1.9743778705596924,-165.6107460517035,12.556834800017645,-139.47430597522717,-194.0283013136721,0.0,0.7137362805507175,0.1,0.006513118743896484,0.1432504653930664,0.04992975,0.13810088,-168.37093988931252,-0.07879129846432031,-2.1179178173937525,0.0,2345,0.36022353172302246,0.005956318811921452,0.005820083838907133,-146.60447405408843,0.0
121,1.926403284072876,-163.36242577510166,12.239161292316853,-134.3073692699334,-189.8462191680263,0.0,0.695639924063889,0.1,0.006533622741699219,0.14072680473327637,0.04975906,0.14396212,-167.87008847789144,-0.07810361995495325,-2.0893850797384244,0.0,2357,0.3630855083465576,0.006250531539424196,0.005030010528980281,-149.56909532563301,0.0
122,1.9270241260528564,-164.10276544513854,12.138403483415042,-137.76317032585297,-194.77303976723422,0.0,0.670281773296356,0.1,0.006374359130859375,0.13654446601867676,0.050267484,0.15293929,-167.49335617461617,-0.07789061864558401,-2.098840805900268,0.0,2373,0.37984275817871094,0.005466786065360325,0.005156021122020038,-175.81668402734994,0.0
123,1.9287080764770508,-164.0039243937382,12.773888834648714,-135.81544679153018,-200.9069947702368,0.0,0.6980258017474913,0.1,0.006649971008300781,0.13878726959228516,0.05048837,0.14299203,-167.1444129965284,-0.07753617587131874,-2.097063795284615,0.0,2385,0.3328821659088135,0.005601404732530835,0.005098326802224436,-206.2019403095881,0.0
124,1.9642353057861328,-163.9760820653159,13.772867954095444,-133.79676077653625,-202.05380875060823,0.0,0.6952308640782089,0.1,0.006200551986694336,0.13687562942504883,0.04893354,0.1435764,-166.82757990340716,-0.0779548981221211,-2.0970140069037546,0.0,2373,0.3302922248840332,0.006088166744280224,0.005677345666432711,-206.16348351638555,0.0
125,1.9673669338226318,-163.4412516184678,11.809268352205903,-139.0942673326868,-187.3201090326711,0.0,0.7337322665651889,0.1,0.006655216217041016,0.14031195640563965,0.049537633,0.13827072,-166.48894707491323,-0.07760288018245882,-2.0890848207713657,0.0,2377,0.33214354515075684,0.004896702033179356,0.004738974597567625,-201.50525719742816,0.0
126,1.7589530944824219,-162.58935862086688,12.063993817185402,-140.02751302072525,-194.29288902887032,0.0,0.7272037400786378,0.1,0.006162881851196289,0.13541531562805176,0.05013223,0.13906355,-166.09898822950862,-0.07767007875131754,-2.080124105821662,0.0,2379,0.32272791862487793,0.005315307319667732,0.005173629659159223,-159.93407808238547,0.0
127,1.9287514686584473,-164.85497780034908,15.640612625880692,-133.24457571460317,-234.74184878383468,0.0,0.6910507339104135,0.1,0.006323337554931641,0.13511037826538086,0.04997592,0.13772604,-165.97458718659266,-0.07855302193786275,-2.108135581771886,0.0,2351,0.31310081481933594,0.006087490760964567,0.005878671438195439,-154.56626249858212,0.0
128,1.9569649696350098,-163.38886879749327,13.08530589384303,-130.0817586483665,-187.29628985246043,0.0,0.6931677704016292,0.1,0.006551265716552734,0.13930654525756836,0.049936373,0.146265,-165.71601534768274,-0.07795139404558817,-2.0888150728039254,0.0,2360,0.3200962543487549,0.00564942451474751,0.005356800179119897,-166.9228813455554,0.0
129,1.9312727451324463,-161.82886640991975,13.94347634314467,-132.37715744676106,-200.4015361939754,0.0,0.7164715081876354,0.1,0.006258487701416016,0.1374824047088623,0.05092212,0.13467032,-165.32730045390645,-0.07797292851420962,-2.068115124440957,0.0,2342,0.3228745460510254,0.006004195570028188,0.005740303955413167,-157.08530339523725,0.0
130,1.9506618976593018,-162.01244980089675,11.679652963544434,-134.8028602703385,-201.61573326062927,0.0,0.7120455737237796,0.1,0.006211996078491211,0.13605880737304688,0.05007151,0.1400296,-164.99581538860548,-0.07826817346476624,-2.0706675305654008,0.0,2346,0.32124805450439453,0.004970814960036959,0.004582014421923251,-172.49178831168808,0.0
131,1.9390923976898193,-162.33608119777332,13.470641397220513,-134.5188316388422,-194.34869276316786,0.0,0.7274734215479525,0.1,0.006318807601928711,0.17217516899108887,0.049873646,0.13452995,-164.72984196952225,-0.07842842570434923,-2.073802746518574,0.0,2333,0.4262375831604004,0.006306324317001279,0.0061303932645060755,-151.48453438802323,0.0
132,1.9220707416534424,-160.91794575155862,15.409175429000907,-130.64914039882694,-206.2172393817708,0.0,0.7064369880420756,0.1,0.006223917007446289,0.13861823081970215,0.05046546,0.14385319,-164.3486523477259,-0.07732673413711878,-2.057066534499032,0.0,2377,0.3246192932128906,0.007607773356786541,0.007185833356724166,-173.08633246646244,0.0
133,1.946810245513916,-160.86191794463105,12.58467848184329,-133.12244100652026,-215.660435325708,0.0,0.7196451596442349,0.1,0.006658077239990234,0.1466507911682129,0.049777642,0.13522173,-163.99997890741642,-0.07678825972385357,-2.05577313585148,0.0,2392,0.36531949043273926,0.005038754742907869,0.004755600798969515,-175.69577503239086,0.0
134,1.95371413230896,-160.22123590064055,14.057224808555233,-127.99472784687725,-193.13749988227312,0.0,0.7317104836007493,0.1,0.006299734115600586,0.13890457153320312,0.04973815,0.13547496,-163.62210460673884,-0.07666890073597495,-2.0467099982938204,0.0,2395,0.3332209587097168,0.006603925407276065,0.0063942132843555575,-178.71706825067722,0.0
135,1.9506957530975342,-160.21464590912376,14.37181880239623,-131.63432895216357,-191.10578401640407,0.0,0.7260723022150897,0.1,0.006265401840209961,0.13383817672729492,0.050445512,0.13806133,-163.28135873697735,-0.07691217405520742,-2.045106683008825,0.0,2379,0.3165266513824463,0.00646665231492579,0.006054672749150499,-172.14181617999864,0.0
136,1.9279491901397705,-158.38152433926436,12.206696662309799,-120.82889070821568,-187.10804399426348,0.0,0.7322085051873664,0.1,0.00632786750793457,0.13622117042541504,0.049483385,0.13430706,-162.79137529720606,-0.0766548023399059,-2.023002177982267,0.0,2375,0.3165931701660156,0.0054642026989747345,0.005186059452929371,-193.67779146168985,0.0
137,1.95432710647583,-158.02036792926972,12.854356309210766,-123.01226377003339,-185.22972123930418,0.0,0.7368723040717987,0.1,0.006406068801879883,0.14337611198425293,0.050283622,0.13341098,-162.31427456041243,-0.07561289616885013,-2.0189107897519794,0.0,2414,0.32399964332580566,0.006058411884935625,0.005779704487956209,-185.88641280034105,0.0
138,1.9695427417755127,-158.8270057309425,12.474587912919084,-133.3141753045895,-192.99015446124483,0.0,0.7073436284437061,0.1,0.006255149841308594,0.13654375076293945,0.05025711,0.14068395,-161.96554767746542,-0.07597075902226574,-2.028054976805238,0.0,2419,0.3146204948425293,0.0052563812069401795,0.004824764669762535,-185.02311315996434,0.0
139,1.9424529075622559,-158.28763591371901,13.137110935181529,-131.42922140863735,-190.74384799731627,0.0,0.716485374149929,0.1,0.006463766098022461,0.14214015007019043,0.050349243,0.13453002,-161.5977565010908,-0.07552008380127552,-2.021709215453691,0.0,2443,0.3689391613006592,0.0053831106148044166,0.00529044407892701,-196.2279929167756,0.0
140,1.9372692108154297,-158.10413171724895,14.702447027274214,-128.75298152172934,-190.94791269860923,0.0,0.7747536703787505,0.1,0.0065593719482421875,0.14039850234985352,0.049346495,0.12231652,-161.2483940227066,-0.07578255945641034,-2.01878452268972,0.0,2432,0.3730435371398926,0.006663026576365267,0.006381102936837922,-200.97360488462036,0.0
141,1.9619390964508057,-159.61836871340924,14.13257853734694,-131.3358525585889,-196.8454769958425,0.0,0.6959095000194138,0.1,0.006350278854370117,0.14711523056030273,0.050010778,0.1429779,-161.08539149177687,-0.07581337055385318,-2.037971715204992,0.0,2435,0.3584742546081543,0.006456270360627926,0.006581236377252409,-176.29142718591712,0.0
142,2.03121280670166,-155.577199811419,12.232464632116988,-126.83175319117403,-188.4610937155825,0.0,0.7171951466657195,0.1,0.007092952728271484,0.14474248886108398,0.048838153,0.13530973,-160.5345723237411,-0.07488589556701754,-1.9845174948083082,0.0,2439,0.3471412658691406,0.00597188670657844,0.0053350717683791175,-172.4382682294534,0.0
143,2.1812744140625,-157.0141333048086,12.148401902886105,-127.89636450930847,-186.05579162367377,0.0,0.7603086287710796,0.1,0.006760358810424805,0.1427016258239746,0.050157283,0.1300669,-160.18252842184785,-0.0750419274233019,-2.0031223454968097,0.0,2480,0.3687269687652588,0.006176780637940642,0.005294371423053678,-188.13596321695155,0.0
144,2.0181920528411865,-158.52169389190877,12.097747104661119,-125.77548324084279,-182.31640443925176,0.0,0.7207203831072617,0.1,0.006280183792114258,0.13824748992919922,0.050707348,0.14031816,-160.01644496885393,-0.07524047606804903,-2.024004079117988,0.0,2478,0.31450605392456055,0.005449538162239156,0.005117798642590739,-181.7159597851812,0.0
145,1.9853246212005615,-153.56937350731906,14.588312886763012,-126.44535238348821,-190.001948522772,0.0,0.6983092995574748,0.1,0.006317615509033203,0.13662481307983398,0.049991384,0.13853951,-159.37173782270045,-0.0737604180861225,-1.9579919165078772,0.0,2472,0.31562018394470215,0.007146667289517263,0.006575440135345843,-185.79706323466766,0.0
146,2.2123537063598633,-156.48492714085253,13.2537818374458,-114.9984182097156,-189.3168843198151,1.0416666666666667,0.7245695391100992,0.1,0.0066297054290771484,0.145402193069458,0.050975554,0.14093745,-159.08305675451567,-0.07460507209430649,-1.9978207344290357,1.0416666666666667,2476,0.36543798446655273,0.006359889603568071,0.005228181287535563,-180.57878327492347,0.0
147,1.993858814239502,-155.18160708564878,13.732577896593652,-130.1844331191484,-189.84340874274307,0.0,0.7515767130728358,0.1,0.0068361759185791016,0.1439344882965088,0.050052445,0.13194047,-158.692911787629,-0.0738384683052129,-1.9789060878644102,0.0,2488,0.365736722946167,0.006557339286641983,0.006336837627657181,-192.49759614911972,0.0
148,1.981114149093628,-154.79498467353667,13.51120082453538,-122.18818273624285,-186.62222268852315,0.0,0.8097738678109386,0.1,0.006795167922973633,0.14294672012329102,0.0501386,0.12122672,-158.30311907621976,-0.0734449917186648,-1.9749825059554116,0.0,2512,0.35236024856567383,0.006317495773476482,0.005938983139515377,-185.58045284375754,0.0
149,2.206932544708252,-153.74751767415873,14.26111814515953,-128.23457318043984,-183.74168455956902,1.0416666666666667,0.7521199593643544,0.1,0.008126497268676758,0.1515064239501953,0.050348476,0.13533747,-157.84755893601368,-0.07340773784930575,-1.9596618933632115,1.0416666666666667,2515,0.36933374404907227,0.006655025587008035,0.006273010597250113,-202.52904723148194,0.0
150,2.199273109436035,-154.28471457804434,14.868681789534087,-112.6615461045042,-186.63994120809483,1.0416666666666667,0.795329835214908,0.1,0.007441997528076172,0.16675901412963867,0.05040789,0.12686647,-157.49127450021678,-0.07283458287519183,-1.9680668661817322,1.0416666666666667,2530,0.4467175006866455,0.007238978868737779,0.006901748272588941,-204.13338044592047,0.0
151,2.0224649906158447,-152.57393718950055,14.636471051289842,-115.42753804996812,-198.30631937567674,0.0,0.7408947580109747,0.1,0.006232738494873047,0.13584637641906738,0.050244927,0.13593128,-156.99954076914517,-0.07232125910382,-1.9447509756729024,0.0,2538,0.33043432235717773,0.00650102245748111,0.006298134651331297,-185.02939911258954,0.0
152,2.225590705871582,-151.93907114548279,14.075230771807883,-121.31177188216135,-181.70470514068268,2.0833333333333335,0.7671451842887202,0.1,0.011960268020629883,0.2408759593963623,0.049951203,0.13075896,-156.49349380677893,-0.0725789276104895,-1.9364828705625567,2.0833333333333335,2563,0.45972537994384766,0.006605365715133514,0.006256464145868701,-183.53282517831136,0.0
153,2.2456469535827637,-150.4484535297406,13.829000627533116,-123.15522443044189,-184.83772078212246,4.166666666666667,0.7459486693510565,0.1,0.006444454193115234,0.13564443588256836,0.04969955,0.13528152,-155.8889897790751,-0.07173928565504678,-1.918289218805558,4.166666666666667,2575,0.37122130393981934,0.006630866514948854,0.006384792273300933,-177.485579398318,0.0
154,2.204745054244995,-153.44173712037107,14.428480771870074,-116.09980173560345,-185.80594504615868,1.0416666666666667,0.7692462343487606,0.1,0.0061664581298828125,0.13120651245117188,0.0504084,0.13049126,-155.6442645132047,-0.07258401634247998,-1.957715902513347,1.0416666666666667,2544,0.31987547874450684,0.0070325149887934075,0.006201884162766149,-194.0558774091337,0.0
155,2.2265853881835938,-153.79579296723838,14.941018966208565,-115.74213321230687,-190.23035543514027,3.125,0.7316646039986208,0.1,0.00602269172668457,0.13015961647033691,0.050269905,0.13880728,-155.45941735860808,-0.07227297236641729,-1.9607912440935156,3.125,2589,0.32802414894104004,0.006581176470588234,0.00629205017301038,-172.68643122853106,0.0
156,2.2402474880218506,-154.46844990101263,14.90777022097327,-117.50369831873455,-194.61655559912612,1.0416666666666667,0.7491806738065457,0.1,0.006256103515625,0.13628387451171875,0.050811715,0.13090123,-155.36032061284854,-0.07236777738898388,-1.9706642805125363,1.0416666666666667,2579,0.3621954917907715,0.007035941154671002,0.006774781645700049,-188.67319060168393,0.0
157,2.258638858795166,-150.29668271491516,15.110413713196222,-109.81482749423955,-183.31211688666934,2.0833333333333335,0.7634895616763112,0.1,0.006215333938598633,0.13249468803405762,0.050481662,0.13174823,-154.8539568230552,-0.0714699654628233,-1.9144206015835596,2.0833333333333335,2592,0.3253931999206543,0.008135635834615776,0.0074873989778256565,-199.28984573837334,0.0
158,2.2012360095977783,-151.13181745683104,13.691203305914218,-119.18976559339882,-181.8813924026109,5.208333333333333,0.7801908654014359,0.1,0.006203651428222656,0.13485479354858398,0.049963646,0.12821476,-154.48174288643278,-0.07163888504494842,-1.9262029480321319,5.208333333333333,2594,0.359299898147583,0.006511830949427677,0.006216735472071518,-188.59519614141885,0.0
159,2.232309341430664,-150.87077032900478,14.175766325186594,-120.10902537628618,-194.33055888569686,0.0,0.7575025721210257,0.1,0.006499767303466797,0.1361706256866455,0.050285656,0.13503973,-154.12064563068998,-0.07066905537098228,-1.9227428416811563,0.0,2637,0.3695814609527588,0.006513928081729529,0.005939523139217043,-180.07588551820118,0.0
160,2.191107749938965,-149.52107858660597,13.814729948898883,-114.69616181817263,-181.04599402416179,4.166666666666667,0.7846675622758772,0.1,0.0061986446380615234,0.13749289512634277,0.04982103,0.12599309,-153.66068892628158,-0.07081055990487499,-1.904067714300265,4.166666666666667,2633,0.3291008472442627,0.00595100992088148,0.005781228619918347,-195.62954050379165,0.0
161,2.2294328212738037,-151.05592468020552,13.322708599255378,-121.10001390856455,-187.62952107938037,2.0833333333333335,0.777275571253976,0.1,0.006274700164794922,0.1374070644378662,0.04954315,0.1332305,-153.40021250167396,-0.07127928677894628,-1.9260141382049565,2.0833333333333335,2621,0.36591005325317383,0.006124430336213597,0.005697646301887887,-178.10171903808276,0.0
162,2.2437353134155273,-151.58278194496947,14.570598923780615,-115.93771912058276,-191.5471058479928,3.125,0.7941471227879879,0.1,0.0057125091552734375,0.12730646133422852,0.050967317,0.12477841,-153.21846944600352,-0.07114812309570576,-1.9312682625092623,3.125,2637,0.41737866401672363,0.0061708681596876055,0.006004631298631834,-178.39002717666176,0.0
163,2.235100269317627,-146.088408081906,15.695068973779126,-109.60563461585765,-188.5386477782397,6.25,0.7947182225381865,0.1,0.006120443344116211,0.13715195655822754,0.050881263,0.12383449,-152.50546330959378,-0.06977459261775883,-1.8589379538901856,6.25,2648,0.33686351776123047,0.007577377285424335,0.007084422400960601,-203.42519921084633,0.0
164,2.2651946544647217,-149.4999818416869,13.569979879719872,-110.61809424385063,-183.26573187187788,4.166666666666667,0.8292515760335697,0.1,0.00618743896484375,0.13666605949401855,0.05036284,0.12171623,-152.2049151628031,-0.07070933784627668,-1.9038331145275358,4.166666666666667,2646,0.3419835567474365,0.006253238288667655,0.005603409665543045,-195.34014880185248,0.0
165,2.2279696464538574,-148.45133085472094,13.306271285775994,-123.1591108589916,-190.58730034231417,2.0833333333333335,0.8136687255861392,0.1,0.006133079528808594,0.1390836238861084,0.050012738,0.1268552,-151.8295567319949,-0.07062268604222628,-1.889711441961948,2.0833333333333335,2637,0.34830188751220703,0.0061547585135833605,0.005806491821467823,-208.99558958072384,0.0
166,2.2390756607055664,-147.41107437674458,14.385196912943046,-110.70950198049722,-193.0619131263787,2.0833333333333335,0.788665249833779,0.1,0.006222724914550781,0.14078283309936523,0.04990502,0.12828213,-151.38770849646988,-0.0699336305054447,-1.8762533715184684,2.0833333333333335,2654,0.34248781204223633,0.006815740022415807,0.006459409050030132,-202.94185644997202,0.0
167,2.2340426445007324,-146.84815997738565,14.482982739907602,-103.12967148740611,-182.71041840084195,6.25,0.794677276660454,0.1,0.006371021270751953,0.14070534706115723,0.050461274,0.12517937,-150.93375364456145,-0.07019060834713269,-1.8678903442244212,6.25,2640,0.34432005882263184,0.007544484010813082,0.007484853398367554,-167.33969490596468,0.0
168,2.2530601024627686,-147.02452938360497,15.169836494112172,-115.840659042298,-186.68178614789312,5.208333333333333,0.7570095728373792,0.1,0.006319284439086914,0.14192724227905273,0.05038193,0.13128746,-150.5428312184658,-0.07006479196365795,-1.8721817429314658,5.208333333333333,2656,0.3434157371520996,0.0074741772496817955,0.00680802719472319,-185.86475473584704,0.0
169,2.2338318824768066,-147.00997594689125,15.071937328740308,-114.02604628977278,-180.72167251857388,6.25,0.7595941997383695,0.1,0.0062525272369384766,0.1415860652923584,0.049544882,0.13092943,-150.18954569130835,-0.07002901206429356,-1.8703825947755786,6.25,2670,0.34458422660827637,0.007363341694119995,0.007290787085565648,-191.92811315079055,0.0
170,2.2457215785980225,-144.95959234898262,13.407507094891963,-117.10241233214168,-181.90786808392596,9.375,0.7547094844234074,0.1,0.006181478500366211,0.1397538185119629,0.05037914,0.13014708,-149.66655035707578,-0.06862667958688955,-1.8434318308906323,9.375,2701,0.3833887577056885,0.006177720222835683,0.005845966563937669,-188.9892412307007,0.0
171,2.256021738052368,-147.20051491655906,12.751197884756344,-113.727452234309,-178.8132778259515,7.291666666666667,0.821092211412523,0.1,0.006385087966918945,0.14018559455871582,0.050616026,0.11972258,-149.41994681302413,-0.07030689706077946,-1.8731607332919873,7.291666666666667,2683,0.3916623592376709,0.006118865452072954,0.005315371858207596,-178.57171698781667,0.0
172,2.310303211212158,-144.36325226503,14.03750593925648,-113.38946964894788,-174.1504728369606,11.458333333333334,0.8029303749472917,0.1,0.007604122161865234,0.13569164276123047,0.05037078,0.13046613,-148.9142773582247,-0.06896596646395886,-1.8338081347343789,11.458333333333334,2709,0.40017175674438477,0.006665502996389076,0.0067104573417542945,-200.88805545629572,0.0
173,2.2408881187438965,-143.16382692557022,15.342732875400973,-106.42706535307357,-190.445525511754,12.5,0.7994877970175693,0.1,0.00626826286315918,0.1381092071533203,0.049873605,0.1254225,-148.33923231495925,-0.06838609392251746,-1.820463329145851,12.5,2725,0.3838062286376953,0.008396486945313544,0.007506208277447713,-198.40802957634716,0.0
174,2.249998092651367,-145.29908576089844,15.717016416550983,-111.61652663043307,-190.55714564584315,6.25,0.8021918978472257,0.1,0.006448030471801758,0.13670587539672852,0.05048062,0.12710474,-148.03521765955315,-0.06898651986594188,-1.8472590258624806,6.25,2726,0.3950362205505371,0.008076876571944704,0.0071102630672266786,-191.72552292892217,0.0
175,2.2519659996032715,-141.24720116099874,13.600218412201883,-112.16743941037181,-179.60240264026314,10.416666666666666,0.7998686923084269,0.1,0.0063402652740478516,0.13606905937194824,0.04971267,0.12454389,-147.3564160096977,-0.06821903796348659,-1.7946716813688337,10.416666666666666,2727,0.39163708686828613,0.00721664674720748,0.006405029366532384,-204.51242560106752,0.0
176,2.276543378829956,-144.72218410309893,15.835835726821195,-107.2774715182991,-187.50038625101766,10.416666666666666,0.8208739501515889,0.1,0.006613016128540039,0.14029884338378906,0.04990636,0.12087643,-147.09299281903785,-0.06860423372696332,-1.8396875262311816,10.416666666666666,2741,0.3938417434692383,0.009352275305974489,0.00813857159365576,-209.88324553797605,0.0
177,2.3075907230377197,-141.6493586301026,13.863746076903704,-108.68266713409616,-172.4198681690658,17.708333333333332,0.7565965165771038,0.1,0.006260395050048828,0.18142104148864746,0.04992549,0.1303419,-146.54862940014434,-0.0675062532504052,-1.7987180001441108,17.708333333333332,2795,0.40204596519470215,0.006250782281665354,0.005998036833171047,-192.9442536813312,0.0
178,2.2651824951171875,-141.60861626828788,13.849587725678573,-108.8303046405579,-173.94166397658392,15.625,0.7933809450659673,0.1,0.006167173385620117,0.1391770839691162,0.04868978,0.120227866,-146.0546280869587,-0.06794037853079686,-1.7983790993636342,15.625,2757,0.3608994483947754,0.006173934802913816,0.005726316310204819,-182.88761342244646,0.0
179,2.305421829223633,-141.21339478655645,15.597456798318866,-101.61365309444724,-178.86872428164284,17.708333333333332,0.8258332647075328,0.1,0.006343841552734375,0.14391851425170898,0.049782325,0.11750632,-145.57050475691847,-0.06760362186225356,-1.7956682818279501,17.708333333333332,2779,0.36621689796447754,0.007756927221203971,0.007485066993331981,-197.17289870974048,0.0
180,2.2787206172943115,-138.22675410278887,14.219912321656366,-111.34280236477059,-187.77227918241394,18.75,0.8173131629143159,0.1,0.006616830825805664,0.14982080459594727,0.05029516,0.11701807,-144.8361296915055,-0.06682873687069359,-1.7539769429874095,18.75,2788,0.4122939109802246,0.00787896901699743,0.007481838046303778,-211.3599520956803,0.0
181,2.287368059158325,-137.91569305149702,15.114023748526032,-102.20869380625334,-169.17373281860824,19.791666666666668,0.7854224663182475,0.1,0.006456613540649414,0.14508509635925293,0.050121445,0.12585682,-144.14408602750464,-0.06674687254246833,-1.7501134849399407,19.791666666666668,2801,0.3954198360443115,0.007336853492106272,0.007157067771991077,-204.23506481538237,0.0
182,2.287492275238037,-141.36593249992166,14.603218125395053,-107.70822263698372,-191.27073459284077,17.708333333333332,0.8295904845633566,0.1,0.0063533782958984375,0.1358485221862793,0.050110158,0.116589114,-143.86627067474635,-0.06730494726530593,-1.794309351762987,17.708333333333332,2792,0.36620569229125977,0.00807097673994847,0.007112815911248219,-195.9120973291735,0.0
183,2.3152966499328613,-138.4842393572038,16.763606053533042,-90.88725022653523,-183.30741943151736,28.125,0.873269836487005,0.1,0.006314516067504883,0.14061832427978516,0.04903984,0.116652206,-143.3280675429921,-0.06662267485996383,-1.7580754805992729,28.125,2833,0.4366471767425537,0.0104112441887715,0.009468912048910127,-212.12066767485032,0.0
184,2.319143295288086,-137.34677675586832,14.98875348825874,-104.36491387907034,-166.01442393212002,27.083333333333332,0.8303203851660033,0.1,0.006593227386474609,0.14478421211242676,0.049820095,0.12389177,-142.7299384642797,-0.06563806009374301,-1.741718079618627,27.083333333333332,2894,0.44075965881347656,0.008530273904258022,0.008188885923489873,-213.9117843077624,0.0
185,2.359445095062256,-138.9338559481195,15.722975461447954,-98.74133923217153,-177.31466979950335,22.916666666666668,0.8375749223948323,0.1,0.006077289581298828,0.13475894927978516,0.05014403,0.122716606,-142.3503302126637,-0.06629342912732393,-1.762890281613019,22.916666666666668,2862,0.4243354797363281,0.00786448862841753,0.007639284660665292,-216.46236484827094,0.0
186,2.307577610015869,-136.56881825341108,15.60542664547001,-102.53704990884862,-176.8998002011697,27.083333333333332,0.8414372615989932,0.1,0.006202220916748047,0.14992332458496094,0.05001974,0.1204437,-141.77217901673845,-0.0657575738072917,-1.7318658965624254,27.083333333333332,2890,0.4438934326171875,0.008211995579138083,0.007679506977941976,-196.97640492503,0.0
187,2.133117437362671,-136.7779455190777,16.912481380794926,-98.06562154879327,-183.6217875311107,33.333333333333336,0.788408513177987,0.1,0.00661921501159668,0.14159607887268066,0.050365657,0.13105354,-141.2727556669724,-0.06486005945598157,-1.7333401411299285,33.333333333333336,2955,0.4574110507965088,0.009147263786864087,0.008622789099169359,-234.4423028743189,0.0
188,2.115687847137451,-137.406847260888,17.12351291813417,-99.18099345558332,-191.5415627713632,33.333333333333336,0.826827820717507,0.1,0.006590604782104492,0.14542937278747559,0.050622314,0.117544696,-140.88616482636394,-0.06502330264800042,-1.7434341031557032,33.333333333333336,2949,0.4262843132019043,0.009296108589265474,0.00892319901471767,-311.3107665438737,0.0
189,2.129838228225708,-134.40333922750725,17.06253511951268,-86.28120309423579,-185.02329844607635,37.5,0.8164821677695661,0.1,0.006556034088134766,0.14511632919311523,0.04985494,0.12510696,-140.23788226647827,-0.06488645109241543,-1.7031244760707367,37.5,2952,0.4393324851989746,0.00953357528153735,0.00921229979087075,-212.3770188334472,0.0
190,2.1509368419647217,-133.03743948030697,16.678265887486305,-91.57429996546566,-173.20764803683284,39.583333333333336,0.8493931535008693,0.1,0.006701946258544922,0.14531683921813965,0.050644506,0.11671147,-139.51783798786113,-0.06324628422401059,-1.6858358347248548,39.583333333333336,3030,0.44657278060913086,0.009842138800026408,0.009208660489328287,-217.4210901039714,0.0
191,2.1319289207458496,-131.31072274229246,18.02661128736012,-84.63615855033669,-176.87646955805914,45.833333333333336,0.9093708994371247,0.1,0.006495475769042969,0.1444413661956787,0.05007106,0.12303278,-138.69712646330427,-0.06378862305092058,-1.663276053679889,45.833333333333336,2975,0.43304014205932617,0.010207606916583931,0.010115117534146985,-282.54816615879344,0.0
192,2.154924154281616,-133.43810533634033,14.921941823182314,-96.44593649849763,-171.47746684327666,40.625,0.869024262583393,0.1,0.006507396697998047,0.14563202857971191,0.050325833,0.113930784,-138.17122435060787,-0.06360628081269186,-1.6892647175982196,40.625,3019,0.4609031677246094,0.009455090248926327,0.008169443002647159,-279.63378456437573,0.0
193,2.123046398162842,-131.5269191352708,16.971099987159313,-74.06134510698519,-176.5087429378138,43.75,0.8704370703581068,0.1,0.006524324417114258,0.14522171020507812,0.050331995,0.11513483,-137.50679382907418,-0.0639389621436979,-1.6653773846643902,43.75,2977,0.4355034828186035,0.011016177891378619,0.010916208768752203,-290.9905752359441,0.0
194,2.186328411102295,-128.43612176331095,20.710999186688298,-69.03514684689821,-170.3337015156791,52.083333333333336,0.9032008123610508,0.1,0.013634920120239258,0.2184901237487793,0.05108272,0.11403217,-136.59972662249785,-0.0628918855646907,-1.6244140948105177,52.083333333333336,3072,0.4094371795654297,0.015078952712386321,0.013374707781034351,-158.46246342847923,0.0
195,2.161329984664917,-130.25522955900166,17.871442702129222,-82.64868422637613,-177.81292027325443,50.0,0.8836356280617688,0.1,0.007976770401000977,0.1812746524810791,0.050623283,0.118795455,-135.96527691614824,-0.06271752444969597,-1.6462369292622865,50.0,3081,0.5363330841064453,0.01076853821018859,0.010217735599512813,-154.10145694689245,0.0
196,2.2090299129486084,-127.68047378040363,18.65988918835499,-75.03254848575772,-178.40640033299195,46.875,0.8597402834251824,0.1,0.017643451690673828,0.14935612678527832,0.04979584,0.11618263,-135.13679660257378,-0.06174218000718016,-1.6137341439068498,46.875,3115,0.3996303081512451,0.01230314925972079,0.01172295147569271,-139.86816225050322,0.0
197,2.1588995456695557,-128.9159053525664,20.308318254578445,-75.93637937698655,-191.5797284656362,46.875,0.9102000012526943,0.1,0.007843017578125,0.17767047882080078,0.049675245,0.10944448,-134.51470747757304,-0.0625353658259637,-1.6298426871839713,46.875,3084,0.5603787899017334,0.012285694670773221,0.011978251356012626,-135.4579575650567,0.0
198,2.236513614654541,-124.42538458786338,20.512998737445685,-66.40141052439004,-178.87125110708075,61.458333333333336,0.8901252276601411,0.1,0.039452314376831055,0.1434459686279297,0.049385954,0.11464646,-133.5057751886021,-0.06126011025710162,-1.570117782579293,61.458333333333336,3166,0.45929813385009766,0.014264455661551588,0.01350610563352723,-120.15454450520413,0.0
199,2.2035324573516846,-123.19124172222855,20.45778825266433,-73.79300393362381,-172.39085635974925,56.25,0.9294315043745605,0.1,0.007630586624145508,0.17278289794921875,0.0497666,0.1076373,-132.47432184196475,-0.06111544375264926,-1.5544502475907376,56.25,3159,0.5095560550689697,0.015094991891817658,0.014903731372489095,-114.41225921412091,0.0
200,2.226778268814087,-125.04802582641015,20.798708195382382,-58.203371600764406,-167.70418459137176,48.958333333333336,0.8921696861460968,0.1,0.006549358367919922,0.14158034324645996,0.050713245,0.11205487,-131.7316922404093,-0.06049835733346026,-1.5770638227956717,48.958333333333336,3231,0.42092251777648926,0.014591109494189902,0.01361043452669207,86.26165880479138,0.0
201,2.2287681102752686,-120.26236236128557,20.880995842347154,-67.30050259013163,-177.0799486980168,67.70833333333333,0.8565712998183969,0.1,0.008856773376464844,0.19662070274353027,0.04979856,0.1196977,-130.58475925249692,-0.05971318490677715,-1.515730171380415,67.70833333333333,3261,0.5806124210357666,0.01545379870217008,0.013979810905789565,-16.704125925572285,0.0
202,2.145054817199707,-120.72875889070276,21.562080788306645,-81.04462127354313,-180.6475162522198,64.58333333333333,0.9872969155957905,0.1,0.006699085235595703,0.1445908546447754,0.049947105,0.096876815,-129.5991592163175,-0.05971637028598762,-1.5211705614750695,64.58333333333333,3263,0.47832822799682617,0.016900711424044083,0.015726133097278307,59.94851287034936,0.0
203,2.2180280685424805,-118.18026913003114,21.422298025940854,-61.055777003006206,-166.534875366172,63.541666666666664,0.9111307688734641,0.1,0.006909847259521484,0.14506816864013672,0.05034503,0.11011549,-128.45727020768888,-0.05921509249472062,-1.4876432301458298,63.541666666666664,3307,0.48276686668395996,0.016335333065850575,0.015373894360668052,130.95392833615435,0.0
204,2.266146183013916,-117.61732289875788,23.886645995858196,-49.17384243922517,-165.69850798401131,67.70833333333333,0.926738666597132,0.1,0.006810665130615234,0.14517927169799805,0.049361084,0.10905202,-127.37327547679578,-0.05901502637986761,-1.478365607164772,67.70833333333333,3314,0.4844651222229004,0.0193148720648722,0.01857983306120991,114.45624773820066,0.0
205,2.237445592880249,-119.63104121856996,20.953316052066192,-70.56419517689909,-168.13503639327962,62.5,0.9751972901110865,0.1,0.006667613983154297,0.14832758903503418,0.049819417,0.10536507,-126.59905205097321,-0.05876608335391129,-1.5071945808077283,62.5,3349,0.44623613357543945,0.016060980401770023,0.015140682673619132,-93.6564166396171,0.0
206,2.2650771141052246,-117.71533712300834,26.063012457709032,-63.18899818384942,-188.85007595594402,68.75,0.9706877253453864,0.1,0.006517648696899414,0.1395707130432129,0.04960727,0.106246166,-125.71068055817673,-0.05863282012303415,-1.480389319524786,68.75,3380,0.48417091369628906,0.020201214866377284,0.019755167648083192,-100.90177224028729,0.0
207,2.309951066970825,-116.35570298375985,22.512448565196056,-37.405257005325595,-159.5032362419239,61.458333333333336,0.9482694054651695,0.1,0.006839752197265625,0.14727425575256348,0.04987068,0.113284305,-124.77518280073504,-0.05790153490392543,-1.4620643115807426,61.458333333333336,3428,0.5035097599029541,0.017815969364671065,0.016694345215965,-90.24755841867992,0.0
208,2.2703070640563965,-117.25032166851327,27.567147966009365,-43.58013866848037,-189.9948304612907,67.70833333333333,1.0328566313424292,0.1,0.006608724594116211,0.1476128101348877,0.049567323,0.098568,-124.02269668751288,-0.05763492771251031,-1.4732997523997085,67.70833333333333,3475,0.5252254009246826,0.02495248462667684,0.023486545880454127,-1.1395880402481247,0.0
209,2.3428597450256348,-111.78210961196264,27.224752095034987,-40.5082149824173,-180.23971976767484,67.70833333333333,0.9882656401897889,0.1,0.01765751838684082,0.1537797451019287,0.049434185,0.101923175,-122.79863797995785,-0.0572356073962317,-1.4021595702073284,67.70833333333333,3451,0.5119991302490234,0.02565645335673578,0.02455145562200098,157.3197839077784,0.0
210,2.315084457397461,-115.20690680329703,30.723239308528406,-47.281351748178935,-192.23094012406344,61.458333333333336,0.9903937668261296,0.1,0.006815195083618164,0.16348981857299805,0.05028524,0.10123413,-122.03946486229177,-0.05705998908592715,-1.446010818883283,61.458333333333336,3504,0.5404191017150879,0.029362219978521144,0.027955405284573277,162.59666485855317,0.0
211,2.3298208713531494,-106.36046279566092,25.486268316779615,-60.833854825716685,-166.70538353399397,82.29166666666667,0.9835883184077229,0.1,0.00663447380065918,0.15082335472106934,0.0490103,0.10293318,-120.47156465562868,-0.05607335267221079,-1.3302795188196637,82.29166666666667,3511,0.46678972244262695,0.023368831381989273,0.02130936098041361,101.58180441724673,0.0
212,2.3288371562957764,-107.10612452354178,24.702201335998797,-33.991940053397514,-164.09715135351024,78.125,0.9931810873712912,0.1,0.006378650665283203,0.14776015281677246,0.049565,0.10307992,-119.13502064242,-0.05578635762297434,-1.337083794697423,78.125,3574,0.4773740768432617,0.023711935137071233,0.023462250895959623,155.2156383503738,0.0
213,2.3816282749176025,-107.01553965117573,28.454759197133566,-45.8476301497394,-196.97503415762844,77.08333333333333,1.0314955845127258,0.1,0.0067484378814697266,0.14788007736206055,0.049467478,0.09435994,-117.92307254329558,-0.056032270696500346,-1.336606255826564,77.08333333333333,3574,0.4813573360443115,0.029541691970475847,0.02713103315677185,82.49756445949455,0.0
214,2.3315696716308594,-110.20939904947998,26.427450938907068,-47.506490270925575,-178.802216259226,75.0,1.0447001811152008,0.1,0.006620883941650391,0.1460132598876953,0.049882658,0.093071185,-117.15170519391401,-0.055789529026247474,-1.3797529358153549,75.0,3621,0.5220513343811035,0.02451936134279104,0.02334171845839453,154.4941769960152,0.0
215,2.6116251945495605,-107.7849186427772,26.764482909748942,-24.889210301752293,-183.70471034807966,78.125,1.090860218205688,0.1,0.008526086807250977,0.1833353042602539,0.047582652,0.09344357,-116.21502653880034,-0.055627323304272204,-1.3466534868373312,78.125,3606,0.6850888729095459,0.02355235517119371,0.022711056776481157,82.99411913750889,0.0
216,2.624633312225342,-99.67113162094392,29.973199182854216,-27.743963877864992,-178.4550889191651,82.29166666666667,1.0464033438724432,0.1,0.006654977798461914,0.15216875076293945,0.05087481,0.09273424,-114.56063704701471,-0.05416376712545092,-1.2402577241132784,82.29166666666667,3726,0.599982500076294,0.031780035264996655,0.029587706089382642,37.59304376066424,0.0
217,2.583301544189453,-102.745107174544,27.92217887444364,-41.75330168716207,-158.7364622926308,75.0,1.025338620292141,0.1,0.02643275260925293,0.15286946296691895,0.049186144,0.097157344,-113.37908405976765,-0.054549604062750466,-1.2802601138192211,75.0,3718,0.6045053005218506,0.031232124779625437,0.029504139236741875,90.89920260781061,0.0
218,2.63562273979187,-101.54109476687857,31.456502508177984,-37.75805080515964,-189.52849793843586,80.20833333333333,1.0520361663307116,0.1,0.00688934326171875,0.15269780158996582,0.050092205,0.09229573,-112.19528513047874,-0.05399430905005012,-1.2647792893634728,80.20833333333333,3791,0.5967676639556885,0.036225033874540305,0.035893661249997835,78.74180410317847,0.0
219,2.652665138244629,-95.20676838442112,31.766665343198767,-18.26796879072281,-165.12048448775147,89.58333333333333,1.0710889093191072,0.1,0.033014774322509766,0.23647332191467285,0.04920718,0.09603466,-110.49643345587297,-0.05378329641302767,-1.1793190049445679,89.58333333333333,3776,0.6321566104888916,0.03953709836557284,0.03492571483235371,-76.23723118134775,0.0
220,2.668558120727539,-91.88503974352925,32.68848705842902,-14.13456458712351,-174.70917361183623,85.41666666666667,1.0732529588391835,0.1,0.007442951202392578,0.15445518493652344,0.049713414,0.093296036,-108.6352940846386,-0.052272244920423545,-1.1354586467572343,85.41666666666667,3927,0.6123089790344238,0.04451337356372571,0.042375550140749146,-102.07158962760523,0.0
221,2.6625945568084717,-100.10562202662011,30.931066392239643,-37.828423967875466,-171.91404646351208,72.91666666666667,1.1722592831764937,0.1,0.0067484378814697266,0.16038060188293457,0.049200244,0.0857327,-107.78232687883676,-0.05295778772446979,-1.2459069884048437,72.91666666666667,3890,0.6086921691894531,0.034853005978969884,0.031885921951598464,-105.1529715479963,0.0
222,2.7812118530273438,-93.5033377894418,30.69290175640656,24.984294026741736,-175.46749987843833,87.5,1.2429354778107475,0.1,0.006616830825805664,0.15723943710327148,0.04969395,0.08152261,-106.35442796989726,-0.052357538137967896,-1.1561724398554993,87.5,3945,0.5348896980285645,0.040314859396911415,0.03890813052346577,-95.41177182250794,0.0
223,2.8429512977600098,-92.23140853543414,33.19886463087082,-16.1372822811368,-165.74187651066308,82.29166666666667,1.1403198245225104,0.1,0.017806529998779297,0.1926867961883545,0.050362334,0.08694465,-104.94212602645095,-0.051793192684811674,-1.141326147075828,82.29166666666667,3981,0.6428875923156738,0.04241373106533976,0.040813893802578036,-96.84246312641207,0.0
224,2.4191808700561523,-95.72544766702413,28.54465721168023,-33.66243206850294,-159.42530702230343,84.375,1.155145040674647,0.1,0.0072023868560791016,0.1602020263671875,0.04845354,0.085533194,-104.02045819050826,-0.05270025976172857,-1.1863572816004015,84.375,3903,0.595705509185791,0.03438341583921592,0.029139547855158376,-85.378726636234,0.0
225,2.5099756717681885,-83.28689262991251,33.23521308918378,-2.33001924077508,-165.75958223717151,87.5,1.1223386906501942,0.1,0.026984453201293945,0.16891169548034668,0.050191596,0.08314564,-101.94710163444869,-0.05073226310271348,-1.0221061930785822,87.5,3990,0.6165156364440918,0.049046588398499714,0.04248119345221072,-62.448880126084774,0.0
226,2.441910743713379,-86.92869101508103,31.42229767277451,-8.488329306585136,-174.7283502755716,88.54166666666667,1.1256327123508112,0.1,0.04000687599182129,0.1633150577545166,0.049283482,0.087015994,-100.44526057251193,-0.05129533810144144,-1.0706781406661374,88.54166666666667,3970,0.6080620288848877,0.037467468761593244,0.03567412006552337,-55.63194140949814,0.0
227,2.425689935684204,-87.21542005147698,32.571245063975155,-16.82852216783687,-180.39120712734064,86.45833333333333,1.1311424494447053,0.1,0.0069811344146728516,0.1732027530670166,0.048615027,0.086432,-99.12227652040843,-0.051893715851034,-1.0729605778363067,86.45833333333333,3982,0.6352460384368896,0.041469904485024016,0.03947635763819438,-90.3465438789739,0.0
228,2.4822866916656494,-83.61900485641335,32.23499081039211,16.158775299329868,-150.5047931272856,85.41666666666667,1.1454264551788402,0.1,0.0068285465240478516,0.15875864028930664,0.0492105,0.09303795,-97.57194935400892,-0.05082319061852708,-1.0267038767213474,85.41666666666667,4015,0.5851831436157227,0.04269786143955357,0.04042013262480181,-36.3894539140706,0.0
229,2.5257761478424072,-77.12121147164758,35.12757548955788,15.646388870765733,-169.38332399324472,89.58333333333333,1.1780687665239256,0.1,0.007031679153442383,0.16018033027648926,0.04987348,0.08476946,-95.5268755657728,-0.049914536894490324,-0.9398131095020386,89.58333333333333,4111,0.6381049156188965,0.05230471940858105,0.04937809487799801,-76.25015776800447,0.0
230,2.5109920501708984,-77.91292712720815,36.82414283308711,1.8423605084863297,-171.12638078773494,85.41666666666667,1.1930998075383994,0.1,0.018163681030273438,0.17174482345581055,0.04857872,0.08919701,-93.76548072191633,-0.04972727658333855,-0.949757399892845,85.41666666666667,4129,0.6219720840454102,0.05062383316856698,0.04935943725793397,-57.3139435583409,0.0
231,2.5378189086914062,-76.60482859164354,38.752784109383555,27.389731657060935,-177.2103899257511,90.625,1.1718632910223767,0.1,0.056223154067993164,0.1612708568572998,0.04698666,0.07833528,-92.04941550888907,-0.049688441985269026,-0.9329991696510122,90.625,4159,0.635596513748169,0.055029815257878645,0.05333717413494044,-64.58640197631308,0.0
232,2.5713541507720947,-81.5384073672716,43.571008988979166,8.950574626803068,-189.3696080900257,82.29166666666667,1.1806052124672637,0.1,0.0069904327392578125,0.15270209312438965,0.049737923,0.08156509,-90.99831469472733,-0.049941801115145144,-0.9988322147787909,82.29166666666667,4156,0.6472904682159424,0.06478244089572884,0.06301310109239194,79.13767646870511,0.0
233,2.6538610458374023,-66.62804344719767,46.828081686687995,119.58686761519736,-166.72306325486926,93.75,1.2802298275094237,0.1,0.007838249206542969,0.18203377723693848,0.047124885,0.07491263,-88.56128756997435,-0.048959066695046884,-0.79921369762566,93.75,4264,0.8221628665924072,0.1019392233143667,0.09490561751689577,-24.270708305484934,0.0
234,2.5092666149139404,-65.37718988707918,37.995986120349535,15.305450007614233,-170.87899879559563,92.70833333333333,1.2131818501270044,0.1,0.024876832962036133,0.14972829818725586,0.049153205,0.082393356,-86.24287780168484,-0.048741101079773606,-0.7834862078539236,92.70833333333333,4228,0.6182384490966797,0.06379204137402325,0.06077260016389385,-54.37730889657363,0.0
235,2.7510881423950195,-69.64197468554791,42.67651263427848,29.505099479499165,-153.97550979740078,93.75,1.2206965693390606,0.1,0.00665283203125,0.14526057243347168,0.0490873,0.078582875,-84.58278749007114,-0.048738394424913435,-0.8398132495766832,93.75,4312,0.6723666191101074,0.07805351158259462,0.07590978204988572,-54.590097805514944,0.0
236,2.5876238346099854,-79.2880304770264,40.39871585670762,18.658146615106745,-182.33933366195902,87.5,1.242291395770748,0.1,0.0070552825927734375,0.1567552089691162,0.049868718,0.07690994,-84.05331178876668,-0.050277207866063545,-0.9684091112596489,87.5,4172,0.6123678684234619,0.06747975962577345,0.05987164559174778,-89.60052850131991,0.0
237,2.755498170852661,-75.75267514223033,38.118000331333185,31.67082791312906,-148.08806812057034,86.45833333333333,1.253343910294659,0.1,0.0055730342864990234,0.1276090145111084,0.049191184,0.083355986,-83.22324812411304,-0.04871581829560356,-0.9202213702675589,86.45833333333333,4362,0.7919011116027832,0.06126961891555374,0.058173999856649235,-72.97384664350153,0.0
238,2.7618608474731445,-67.2494711617778,41.40504866450197,28.120332538640824,-172.17166500702842,91.66666666666667,1.1990753572189174,0.1,0.051534175872802734,0.1651911735534668,0.048484325,0.08506236,-81.62587042787953,-0.0484230124339726,-0.8070016086437987,91.66666666666667,4288,0.7315182685852051,0.065698855246426,0.06214158359530172,-94.2377730133207,0.0
239,2.8158724308013916,-62.90861273484912,46.607007594825,72.1573504189688,-176.7339660523163,88.54166666666667,1.2569666674095619,0.1,0.026162385940551758,0.20596814155578613,0.047237664,0.080171175,-79.7541446585765,-0.04783806217704629,-0.7488668410157661,88.54166666666667,4413,0.8281879425048828,0.08475697313824178,0.08165136083053393,-98.60506365468962,0.0
240,2.8117544651031494,-64.56641664152856,41.82561063855767,77.11880255721834,-156.15498001380692,93.75,1.258710367097837,0.1,0.0070607662200927734,0.1573164463043213,0.04881057,0.076927274,-78.2353718568717,-0.047452991119080024,-0.7716373996781637,93.75,4486,0.6913559436798096,0.07390984546998604,0.06935900925421883,-96.47900537164817,0.0
241,2.810302734375,-66.80013649069481,38.89076232236512,65.21136974490577,-146.24316287238543,90.625,1.2679879487008185,0.1,0.018016338348388672,0.17040514945983887,0.04716955,0.07560405,-77.091848320254,-0.04746996112679722,-0.8005081446012934,90.625,4456,0.7041208744049072,0.06256747416575072,0.05909809386779738,-101.67621487619554,0.0
242,2.882037401199341,-64.9688537668779,39.72485720060259,51.287076692227224,-153.84668682307117,96.875,1.2130932581310747,0.1,0.00724339485168457,0.3275454044342041,0.049038865,0.08508699,-75.87954886491639,-0.048098747226427936,-0.7766423070181497,96.875,4439,0.6986246109008789,0.06688080101932743,0.06294079130167368,-101.38815313947137,0.0
243,2.8626465797424316,-70.88942030389661,44.519208994554766,43.689503502550124,-171.31971616077286,91.66666666666667,1.337065021536868,0.1,0.007332801818847656,0.1603395938873291,0.049457762,0.070476234,-75.38053600881442,-0.04840194217741994,-0.856963228590042,91.66666666666667,4410,0.6770186424255371,0.07459740205954031,0.07075135030864196,-111.06898764932305,0.0
244,2.912013053894043,-57.24098777042272,52.033618477303996,86.53694066587263,-165.47383949028375,89.58333333333333,1.2861354744837776,0.1,0.009187698364257812,0.18309807777404785,0.047124494,0.07310774,-73.56658118497525,-0.046582898893402856,-0.674419183312732,89.58333333333333,4630,0.7064287662506104,0.12220247536788965,0.10947859920844968,-104.99273251884391,0.0
245,2.984200954437256,-52.01375207620182,59.388941150997745,322.28697140108716,-174.8035539097662,92.70833333333333,1.367149573228394,0.1,0.006403207778930664,0.14934945106506348,0.05001185,0.07487474,-71.41129827409792,-0.04544995136458535,-0.6044431103167905,92.70833333333333,4720,0.6326339244842529,0.21218904203723726,0.20053210866899118,-103.95457155171943,0.0
246,2.8113656044006348,-46.46902704895992,62.99808290400557,204.8756677993549,-161.99694355025474,92.70833333333333,1.3284147963632893,0.1,0.007622480392456055,0.17168664932250977,0.050794933,0.077010386,-68.91707115158412,-0.04504982675354713,-0.5300457978485498,92.70833333333333,4831,0.6730685234069824,0.2193559672987946,0.21011461188020594,-106.8880491704648,0.0
247,2.8330788612365723,-34.482679295994295,63.619831898647945,321.2969922794435,-165.2867267801392,94.79166666666667,1.3746241125992344,0.1,0.006852626800537109,0.1611194610595703,0.049524654,0.07295939,-65.47363196602514,-0.042839319844191516,-0.37611482027334553,94.79166666666667,5090,0.7150251865386963,0.1952428144257645,0.18494690576362324,-109.11857151558868,0.0
248,2.8633978366851807,-40.60254321076308,58.771964947591435,117.5098824245281,-201.39241861317814,93.75,1.3389922322682124,0.1,0.006859779357910156,0.16281867027282715,0.045903616,0.07108411,-62.986523090498935,-0.04425213642882492,-0.4529662859299943,93.75,5046,0.6861495971679688,0.1462194468186524,0.13999492932362084,-109.55314285858026,0.0
249,2.9022443294525146,-34.39631614584966,61.67532448231055,128.741170315135,-165.5787623762323,91.66666666666667,1.3700185307460004,0.1,0.007094860076904297,0.1612696647644043,0.04681625,0.06924624,-60.12750239603401,-0.04362074397353736,-0.36858335060522335,91.66666666666667,5112,0.6936750411987305,0.16164502203311218,0.15688686511553152,-105.62553578131468,0.0
250,2.960153579711914,-10.687378678703595,80.62016699271382,265.51588965578935,-173.90431996116192,98.95833333333333,1.4088498984372613,0.1,0.008175849914550781,0.1968522071838379,0.046672612,0.067817256,-55.18349002430097,-0.04127750270236523,-0.05963489035625308,98.95833333333333,5340,0.8905420303344727,0.31922447007147187,0.2744953725728127,-114.4290422864541,0.0
251,2.918360471725464,-28.63084818335265,86.45935088416682,381.32192028406047,-187.13943077889644,90.625,1.3613124337779954,0.1,0.010133743286132812,0.1652672290802002,0.04938069,0.07633991,-52.52822584020614,-0.04232984583163745,-0.3018358863375737,90.625,5251,0.8063504695892334,0.3543092232133923,0.32014120246465805,-91.50308603208738,0.0
252,2.990436553955078,-4.73549130214782,87.66375131210481,310.42479187881963,-168.13778681716607,94.79166666666667,1.3603401298245965,0.1,0.007956266403198242,0.16846513748168945,0.048651375,0.116548404,-47.74895238640031,-0.03972142086739074,0.016984557202021522,94.79166666666667,5610,0.8640201091766357,0.36399706828470185,0.33940231351879224,-83.7777631063903,0.0
253,2.9411089420318604,8.097254012079297,95.55606764120809,393.45301678438994,-161.56749378253477,96.875,1.5028616854167713,0.1,0.007407426834106445,0.17132806777954102,0.045563858,0.062741965,-42.16433174655236,-0.038837354912138744,0.18687412612959578,96.875,5666,0.7796845436096191,0.4117391569663398,0.3889337365542288,-72.19006464853723,0.0
254,3.0635905265808105,-2.847765308127993,98.43466141498435,448.8976391560026,-166.1591946370143,92.70833333333333,1.3319866512593945,0.1,0.007104158401489258,0.1623990535736084,0.047110822,0.07478009,-38.23267510270992,-0.04081485083887613,0.037869268741484795,92.70833333333333,5361,0.7446637153625488,0.4180585557803252,0.39754227769178235,-78.44819550826378,0.0
255,3.3808865547180176,26.991087795873398,121.06140530305879,400.14969370633213,-114.21883704842266,96.875,1.5637672495302937,0.1,0.019862651824951172,0.23385882377624512,0.049917158,0.06432127,-31.71029881285159,-0.03687787474188827,0.44415946008176127,96.875,5703,1.166560411453247,0.6645648994236577,0.562340029499312,-102.89940049949747,0.0
256,3.2524566650390625,20.073203286089964,101.98301590687998,363.8918296454695,-163.23399048665226,94.79166666666667,1.5203666152158037,0.1,0.01840972900390625,0.17282986640930176,0.049478486,0.06413738,-26.531948602957435,-0.0373434092353119,0.3551011786673695,94.79166666666667,5839,0.9348642826080322,0.4730605062883605,0.4475830236823796,-113.27047351932195,0.0
257,3.2995665073394775,45.30339060425092,142.4780836784341,385.92160260399356,-153.90846034811904,92.70833333333333,1.5104931799101273,0.1,0.0072841644287109375,0.1615738868713379,0.04570062,0.062266514,-19.3484146822366,-0.03526649504857318,0.6805530596136317,92.70833333333333,5844,0.8876602649688721,0.7106586904460064,0.6118593466917197,-107.70451631766903,0.0
258,3.3400871753692627,32.458903352736534,124.87123893151656,423.15046899436885,-172.18263015778405,96.875,1.5410426591782969,0.1,0.007750988006591797,0.19209980964660645,0.047836125,0.06559843,-14.167682878739289,-0.0363840472640063,0.5114717456612005,96.875,5960,1.0688409805297852,0.5508357144483056,0.5119341026077006,-111.08418777951876,0.0
259,3.4281351566314697,59.394507940312415,131.5418565891326,430.6682056605764,-101.53251156066003,94.79166666666667,1.6154088245540281,0.1,0.007357597351074219,0.16601228713989258,0.04674481,0.05833088,-6.8114637968341185,-0.03406697382718775,0.853135123067827,94.79166666666667,6124,1.001143455505371,0.6068865948865251,0.5670385294670788,-117.2170145793582,0.0
260,3.3276023864746094,105.36648870784522,166.6722345283811,457.9398971624165,-189.72882823184833,97.91666666666667,1.6394779011923217,0.1,0.06556868553161621,1.0584447383880615,0.047111537,0.05779936,4.4063314536338165,-0.029976978924891737,1.4722172162551852,97.91666666666667,6321,1.0007739067077637,0.7201325079228158,0.6086340526375007,-118.66295374430695,0.0
261,3.248788356781006,102.38001053800616,166.65157232449812,467.4786604540435,-158.61866966958019,93.75,1.4756154838734692,0.1,0.07009387016296387,0.856454610824585,0.045187186,0.06644998,14.20369936207105,-0.02997258532617005,1.4437708919770262,93.75,6322,1.0149493217468262,0.6415521568962368,0.6151223596170856,-128.89021759740695,0.0
262,3.460482358932495,188.68181314581693,170.365481218097,475.4293968494453,-141.13780506775845,95.83333333333333,1.6929461371202,0.1,0.028294801712036133,0.6939609050750732,0.04882987,0.05766291,31.651510740445637,-0.022815898132070866,2.549179194702128,95.83333333333333,6842,1.0094478130340576,0.6153103000963377,0.49665055708064626,-129.62031649465837,0.0
263,3.377476930618286,174.1447523262178,182.02810691939686,476.4636087722439,-167.71600818637762,95.83333333333333,1.5426746434907799,0.1,0.007593870162963867,0.1806793212890625,0.044360723,0.058184862,45.900834899022854,-0.024499182506509065,2.3606808122303122,95.83333333333333,6598,0.9926736354827881,0.5135247185118107,0.49732160982629525,-124.96806874210614,0.0
264,3.4328415393829346,180.36029176758188,179.33539781766416,486.9439630682836,-145.72725579928172,95.83333333333333,1.67103916216579,0.1,0.007817983627319336,0.22264313697814941,0.049062163,0.05929291,59.34678058587876,-0.023004282484353458,2.4471436177639347,95.83333333333333,6606,0.9824600219726562,0.5044482150952447,0.4880983880467829,-120.76427605899208,0.0
265,3.4130678176879883,196.02130807184025,179.67231263778336,453.85718644552406,-182.8270049079435,95.83333333333333,1.713348106075507,0.1,0.0779268741607666,0.26926398277282715,0.04732084,0.057717588,73.01423333447491,-0.021475534951512883,2.6225987403195803,95.83333333333333,6725,1.032952070236206,0.48557480885586457,0.46942905579091143,-139.03472097049706,0.0
266,3.497175931930542,208.0565343964369,146.5113697200386,483.20723678798623,-124.90155015964183,92.70833333333333,1.9073312660675248,0.1,0.007834672927856445,0.29819297790527344,0.044929296,0.04777752,86.51846344067111,-0.019337299828426625,2.797939067308395,92.70833333333333,7007,0.8936746120452881,0.4047689470650196,0.39373231669304176,-129.51757392598716,0.0
267,3.493976593017578,221.33485602177652,158.44493280039825,438.55933770566764,-189.74358907908785,90.625,1.733920494729553,0.1,0.007671356201171875,0.22972893714904785,0.044061765,0.057452157,100.00010269878166,-0.018476403065666783,2.9700618203543683,90.625,6942,0.88265061378479,0.37621041468788036,0.3599601871714706,-126.93253592334256,0.0
268,3.6565911769866943,191.1524642340626,170.1763548400213,447.44396978980484,-165.1835610531496,93.75,1.790680445180846,0.1,0.04664921760559082,1.41105055809021,0.0486827,0.058236543,109.11533885230976,-0.021960275787887316,2.5617344651657565,93.75,6810,1.0270094871520996,0.5110813475492779,0.4666362548237064,-129.05690585048188,0.0
269,3.525003671646118,230.78388139583151,158.81229299899462,456.684975610403,-172.54939293580117,96.875,1.7799936638055809,0.1,0.04085087776184082,0.19352126121520996,0.050580774,0.052831076,121.28219310666194,-0.019225675768616002,3.0802685010619757,96.875,6924,0.9094948768615723,0.3764796304157246,0.332506362556998,-123.03573564462114,0.0
270,3.725695848464966,244.85815516417165,144.34667813719025,442.6519353167533,-150.74433025707353,94.79166666666667,1.6016053486355921,0.1,0.00741887092590332,0.19318342208862305,0.049347054,0.057489507,133.63978931241292,-0.01700268530842175,3.2916111035553097,94.79166666666667,7030,0.8997647762298584,0.33237745168113675,0.3217589699320522,-120.85935211478487,0.0
271,3.693171739578247,226.8997677576474,155.20803623622302,468.41371857536484,-164.7600381236388,96.875,1.756557051317157,0.1,0.018825531005859375,0.2721109390258789,0.045736436,0.052432586,142.96578715693636,-0.019088175794991752,3.0278667804262156,96.875,6924,0.9550440311431885,0.3722081987667236,0.3488983672002481,-121.27392508711111,0.0
272,3.471292734146118,227.23275423900873,167.0559504909618,457.7136067541831,-218.52592256797635,90.625,1.6764540400483352,0.1,0.08000040054321289,1.5243597030639648,0.04973326,0.058762398,151.3924838651436,-0.01898943827519873,3.0271543825179337,90.625,6848,0.9825267791748047,0.3624348690653863,0.3580254812306596,-113.20625653808177,0.0
273,3.300849199295044,274.4942474916822,133.73933414579676,490.0503721549814,-168.8114625959195,96.875,1.8370480338325625,0.1,0.09681820869445801,1.8096115589141846,0.04584522,0.051069032,163.70266022779745,-0.015386299624039363,3.6522222629445125,96.875,7052,0.9832072257995605,0.2909615398317819,0.23362276140617255,-111.76262779253187,0.0
274,3.5139882564544678,267.681024728422,144.8190687302847,474.84765532307625,-160.60178344373477,93.75,1.6868290925777651,0.1,0.04772686958312988,1.444244384765625,0.04750831,0.059921745,174.10049667785992,-0.016496308904056085,3.57305386317133,93.75,7002,0.962120532989502,0.2637235148688415,0.25756240073125375,-100.12343662971382,0.0
275,3.5196430683135986,288.77852535808483,138.45716226631382,477.3564118300719,-91.37774808635206,100.0,1.8207911583394023,0.1,0.062055349349975586,0.3492577075958252,0.0498882,0.05571562,185.56829954588244,-0.015430025163133134,3.842321924062958,100.0,7033,0.9789872169494629,0.2506020781062474,0.23485098476214167,-94.19945975507355,0.0
276,3.495915174484253,292.49656350364677,165.41388453813306,488.4559548258438,-114.46946977322156,98.95833333333333,1.6758724826563247,0.1,0.08338689804077148,0.30296826362609863,0.043380227,0.051439397,196.2611259416589,-0.01634898121482821,3.9014531566077815,98.95833333333333,7011,0.9692213535308838,0.29370576896805145,0.2819327927082873,-100.91507445025654,0.0
277,3.462432622909546,301.0738432500814,168.13986364019016,487.76426214437276,-157.64510223182646,97.91666666666667,1.6293814032825513,0.1,0.040831804275512695,0.2845602035522461,0.042599197,0.058126394,206.74239767250117,-0.016360677090310406,4.036505860191205,97.91666666666667,6960,0.9429237842559814,0.277328988665803,0.2608082582049476,-97.79179962560467,0.0
278,3.5006351470947266,306.2932820730721,153.45045970154507,491.6757995139344,-132.80358017723637,98.95833333333333,1.4688161563874829,0.1,0.007979869842529297,0.3004114627838135,0.045253817,0.064528346,216.6974861125583,-0.015215497007487413,4.082217364737635,98.95833333333333,7004,0.9455277919769287,0.24141072789053086,0.23651622489864613,-95.08780493993926,0.0
279,3.721573829650879,312.9959395935013,150.03927312796117,483.85499560844204,-144.42524249889647,97.91666666666667,1.8342360811018152,0.1,0.007981061935424805,0.17566871643066406,0.048415866,0.054153003,226.3273314606526,-0.014690587198644389,4.1639490501796885,97.91666666666667,7029,0.9311056137084961,0.22223210015115835,0.2109173057981811,-99.41491486148959,0.0
280,3.6046135425567627,278.591108505439,175.53562607959591,475.7719497113828,-190.09699082694266,97.91666666666667,1.5673585412129032,0.1,0.009743690490722656,0.2302708625793457,0.045090947,0.06346483,231.55370916513127,-0.01756905668475044,3.72010951089446,97.91666666666667,6927,1.1875674724578857,0.302972716288338,0.2856832152645575,-90.68866154642082,0.0
281,3.7356069087982178,315.6823978869684,149.872481456208,489.68737686899533,-182.48255445494476,97.91666666666667,1.8399432066176578,0.1,0.05721020698547363,0.4711272716522217,0.047511164,0.061417896,239.96657803731497,-0.01511388631405603,4.200825864607716,97.91666666666667,7042,0.9870634078979492,0.22552761419784978,0.2105478172875125,-84.98974823878991,0.0
282,3.7595748901367188,311.48267146710833,153.8560903792692,487.0548990754019,-114.42762871164985,98.95833333333333,1.8550381477381483,0.1,0.060840606689453125,0.9061794281005859,0.04842684,0.054037727,247.11818738029433,-0.01565418377095032,4.147826512224003,98.95833333333333,7024,1.3915929794311523,0.22638731988129368,0.219687166867543,-75.48422189831976,0.0
283,3.620243549346924,320.56398922498255,185.335175770224,490.586606399071,-172.32069256399765,96.875,1.6390921708626658,0.1,0.027492284774780273,0.8296306133270264,0.04777017,0.05460656,254.46276756476317,-0.015765273413798193,4.276001651259418,96.875,6865,0.9596343040466309,0.23992902349288178,0.21926070992224203,-86.2802943153303,0.0
284,3.7898945808410645,357.0588954980188,134.41894782024636,497.7496161001982,-201.54412903670092,98.95833333333333,1.7848700782056832,0.1,0.007873296737670898,0.2164294719696045,0.047351886,0.054727476,264.72238035808874,-0.012969334614569701,4.754743359926446,98.95833333333333,7081,0.8975996971130371,0.14154935455729342,0.1329204920327649,-88.26347147045925,0.0
285,3.52990984916687,349.37866194929956,129.54833686842804,485.7508545132116,-126.5629982587317,98.95833333333333,1.680228390643093,0.1,0.007409572601318359,0.18314552307128906,0.047466144,0.061508052,273.1880085172098,-0.013065496447444919,4.661484757027125,98.95833333333333,7089,0.8927721977233887,0.15189243154057847,0.1452773868223672,-84.39280169883223,0.0
286,3.4909331798553467,308.69303752150694,174.35072607776422,490.76445137098693,-186.79100167216268,96.875,1.7495983759869052,0.1,0.032587289810180664,1.0246484279632568,0.047155563,0.049848348,276.73851141763953,-0.01564790735972179,4.117806997477072,96.875,6966,0.9987673759460449,0.2639956983587854,0.2331165309838128,-74.21340524795106,0.0
287,3.565093755722046,355.23975053704226,134.90378396797624,493.8764093326608,-159.93650327151653,98.95833333333333,1.7959063405231939,0.1,0.06369805335998535,0.47844576835632324,0.046347465,0.04998908,284.5886353295798,-0.01290337144209168,4.722075403048279,98.95833333333333,7105,1.0021030902862549,0.16302044640617055,0.14134494679138626,-70.5936571859894,0.0
288,3.540715217590332,360.9410989421655,116.87241121878671,498.6737386402674,-177.58970208402667,97.91666666666667,1.7275130428603604,0.1,0.075836181640625,0.967292070388794,0.048773494,0.053128798,292.22388169083837,-0.012274754161779457,4.800985114677604,97.91666666666667,7124,1.0202124118804932,0.11763403337438696,0.10848831147988706,-72.7301458322834,0.0
289,3.529439926147461,342.33272219332895,137.57906505992221,491.37467324106433,-168.51881670416623,98.95833333333333,1.664737390802973,0.1,0.007814645767211914,0.19989991188049316,0.044524852,0.055692703,297.2347657410874,-0.013803349471038543,4.551256548616215,98.95833333333333,7092,1.0213263034820557,0.15696234849686413,0.16220860265515705,-69.8352564584148,0.0
290,3.547835350036621,366.8150540606169,110.5626768366739,489.09647653533693,-38.379793827216176,100.0,1.7867060522248994,0.1,0.00796198844909668,0.20917034149169922,0.044910204,0.048132323,304.1927945730404,-0.011823173109146249,4.874743746136734,100.0,7125,1.0449097156524658,0.14232941426653778,0.1028737195069418,-29.573497251736534,0.0
291,3.5187907218933105,341.27951051859577,151.58230390911183,492.28949409251334,-169.60644970771273,95.83333333333333,1.6530586918845753,0.1,0.008562564849853516,0.24013209342956543,0.049649898,0.06889339,307.9014661675959,-0.013536619998165371,4.535149301862004,95.83333333333333,7056,0.9421911239624023,0.17674398013765735,0.17578503140654908,-7.53121909777493,0.0
292,2.855804681777954,360.6732542874482,134.50211790927295,496.26037060623685,-106.36718105245396,100.0,1.6808366971141306,0.1,0.008330583572387695,0.2739996910095215,0.046960264,0.053667516,313.1786449795812,-0.012840231116589962,4.802888135100846,100.0,7111,0.9737656116485596,0.15991099539522968,0.14171275584240056,16.73309685724089,0.0
293,3.698115825653076,371.7803196470987,144.59599706207032,501.63557271594414,-149.51713642844288,98.95833333333333,1.5284939485181355,0.1,0.06991052627563477,0.4224693775177002,0.049151115,0.064778276,319.03881244633294,-0.012452470965661188,4.952450467356253,98.95833333333333,7101,1.0504508018493652,0.13450246026380697,0.12665129143947448,35.35394535062229,0.0
294,3.704169750213623,355.19773996483065,139.98688711889784,504.94520815443514,-125.71465525688383,98.95833333333333,1.747387261500564,0.1,0.00857853889465332,0.45937299728393555,0.045402773,0.049174182,322.65470519818274,-0.01327523791840945,4.723442411217655,98.95833333333333,7062,1.045243740081787,0.16206323547844553,0.15372539003714034,30.345536354096417,0.0
295,3.668093204498291,365.24536230485234,161.24481700470997,496.7394781425026,-204.9965486442303,96.875,1.709849716146354,0.1,0.06231117248535156,1.2056832313537598,0.04739915,0.059216447,326.9137709088497,-0.013298146293276481,4.865570842763934,96.875,7082,1.24546217918396,0.17904028185530188,0.1722756275358171,39.384099197500596,0.0
296,3.7367231845855713,379.9833742160922,149.1409708035011,502.33540584541254,-216.95398012790514,98.95833333333333,1.7343130076575066,0.1,0.00766301155090332,0.18683409690856934,0.044988595,0.050107926,332.220731239574,-0.012337554630840816,5.063267395653793,98.95833333333333,7106,1.007822036743164,0.14814957241087223,0.14275702596716383,58.876400041988845,0.0
297,3.6709256172180176,377.91148334513485,142.23190546847604,497.5116044171193,-208.55011344758339,98.95833333333333,1.7636797351518418,0.1,0.04619097709655762,1.1256253719329834,0.04522118,0.050022785,336.7898064501301,-0.012660248434184646,5.037970968954744,98.95833333333333,7061,1.0211560726165771,0.13834860723566697,0.13253625694279536,20.564881810835658,0.0
298,24.38927173614502,365.0536065227011,172.74949487345418,499.0121012907797,-178.25551582177266,95.83333333333333,1.6420735688674206,0.1,0.07452154159545898,1.112048864364624,0.047162663,0.05289798,339.6161864573872,-0.013717022292195596,4.869435237681263,95.83333333333333,6965,0.9977009296417236,0.16485900309949583,0.15927046951066648,30.208528396131843,0.0
299,3.455949068069458,367.30844699322734,173.09408165325695,506.8330260803506,-238.41367194669567,97.91666666666667,1.5886415458666545,0.1,0.04863905906677246,0.2636077404022217,0.047936793,0.059825785,342.3854125109712,-0.01380352108409818,4.883316013019642,97.91666666666667,6942,1.0116631984710693,0.1594091720752735,0.1496138041680408,34.25012136966096,0.0
300,3.4916789531707764,372.67416436255326,136.73665899316111,509.8467134005933,-80.97902305212773,100.0,1.5875647017815282,0.1,0.030443668365478516,0.4013369083404541,0.042622678,0.06587517,345.4142876961294,-0.012861964150823121,4.965199828159298,100.0,7070,0.9626741409301758,0.13819562980316236,0.12660616307643643,24.756969866747156,0.0
301,3.5542023181915283,371.5088512994823,143.98888653060223,495.87296991966633,-113.22944288789881,98.95833333333333,1.8937728911505507,0.1,0.043491363525390625,0.4478015899658203,0.048961166,0.049200058,348.0237440564647,-0.012677882138546015,4.936002119634284,98.95833333333333,7095,1.7488563060760498,0.15600040490291817,0.148102910739293,24.697474105163412,0.0
302,3.578315019607544,391.6083077604494,104.79258812676042,497.9654878502125,-153.53953733786926,100.0,1.8071239990479606,0.1,0.06243014335632324,0.29152560234069824,0.049281,0.051345542,352.38220042686316,-0.011008486404595017,5.211203759092347,100.0,7156,1.0444738864898682,0.0871934112141588,0.08136599781639847,38.81301874517889,0.0
303,3.7623353004455566,377.8234718741889,126.61922131944775,502.1907681721805,-32.29275483603524,100.0,1.7352592027831457,0.1,0.02931499481201172,1.4550726413726807,0.047999915,0.05929369,354.9263275715958,-0.012424099111278411,5.032312875810583,100.0,7149,1.027339220046997,0.13442061619001855,0.12401949260484611,53.34752743986022,0.0
304,3.608464002609253,396.8076945263545,139.8756075665779,506.9316102329949,-145.09610210111694,98.95833333333333,1.6308509756029224,0.1,0.05615401268005371,1.2445108890533447,0.049466338,0.054757904,359.11446426707164,-0.011848074629795993,5.272550342907751,98.95833333333333,7050,1.0164198875427246,0.1132143917750545,0.09875502781745733,58.26581272423849,0.0
305,3.6993343830108643,371.0637643928835,154.01902209753797,501.04684560803855,-178.3788755808619,98.95833333333333,1.5913187274360379,0.1,0.05547285079956055,0.7476315498352051,0.04778544,0.05542441,360.30939427965285,-0.013104394461300004,4.955454251962339,98.95833333333333,7028,1.468867540359497,0.16159523775426476,0.14012460833208296,53.89756823489232,0.0
306,3.7770097255706787,394.79926585335903,124.59835140518264,500.7007486498,-176.97763777982655,100.0,1.8559861651156297,0.1,0.06794214248657227,1.0172679424285889,0.050369296,0.05166598,363.75838143702344,-0.011565346958344597,5.249563437333451,100.0,7095,0.9732511043548584,0.10024442451821783,0.09447899675310632,63.304372777610176,0.0
307,3.8417418003082275,413.5078755618777,110.40161894354749,505.3345208749608,-73.04799246898253,100.0,1.6954572440467177,0.1,0.08499026298522949,1.255244255065918,0.048953116,0.054034047,368.7333308495089,-0.010658971353111335,5.495683263584618,100.0,7145,0.994769811630249,0.07979663797671341,0.07694705996655775,67.96726029693119,0.0
308,3.565049409866333,434.1187151733074,84.95827034399895,514.989832284885,-103.80713078306593,100.0,1.575298978307819,0.1,0.06981921195983887,1.3521854877471924,0.048712786,0.061138343,375.2718692818887,-0.009759410847488275,5.767015238401696,100.0,7143,1.067655086517334,0.045753022577209736,0.03798082910023881,63.3837530582322,0.0
309,3.5585227012634277,403.1432243905724,124.9165986775608,504.65816384014374,-173.07235389733512,98.95833333333333,1.4966511972253207,0.1,0.06006956100463867,1.2919397354125977,0.049739834,0.06988167,378.0590047927571,-0.011097686036530626,5.361551606496309,98.95833333333333,7087,1.5730977058410645,0.0933525628905998,0.08768918162476437,62.911089943186745,0.0
310,3.593696117401123,429.23069582876224,100.49011518124551,514.5586934754666,-98.13877257713503,100.0,1.5395526475921377,0.1,0.0677335262298584,1.1617224216461182,0.045151196,0.055307586,383.1761738963576,-0.010147691377338102,5.70246948885148,100.0,7145,1.039792776107788,0.0673862531336969,0.05525487383956863,99.285684765283,0.0
311,3.4952127933502197,415.5821047033371,123.1792867959551,517.4388613986017,-172.55569761943607,98.95833333333333,1.5423546385805866,0.1,0.008069276809692383,0.18316388130187988,0.05011563,0.057294328,386.4167669770556,-0.010960307489529267,5.530314473370702,98.95833333333333,7089,1.0280580520629883,0.08252748178220592,0.07639875941547246,94.89467874902999,0.0
312,3.5401833057403564,402.4040397048405,152.9773014664666,510.487710281204,-119.39079912034185,100.0,1.7056387072649069,0.1,0.007592678070068359,0.17637300491333008,0.04906633,0.050481185,388.0154942498341,-0.012147993150466045,5.354505574673233,100.0,7055,1.008735179901123,0.13271455601224222,0.1210614197330073,80.84039541962744,0.0
313,3.7049527168273926,381.55105560496867,175.09552629027078,508.207817723382,-108.86895070151594,100.0,1.6478353286497052,0.1,0.07116889953613281,0.8547468185424805,0.048617728,0.05248486,387.3690503853475,-0.013808453057796896,5.087661269284113,100.0,6913,1.0271499156951904,0.14659052881493798,0.1320323667927142,53.9131639875631,0.0
314,3.749277114868164,409.98257631068424,116.79805666036934,513.3233037624663,-101.33469098582721,98.95833333333333,1.6216374971911607,0.1,0.06860876083374023,0.7419843673706055,0.047522075,0.053754214,389.6304029778812,-0.011027227066225784,5.447086889105646,98.95833333333333,7106,1.078521728515625,0.0802352418133077,0.06853492193718819,48.76398310727326,0.0
315,3.777982234954834,418.88631758797175,86.38860363736293,519.5202465178253,-105.44522658424185,100.0,1.9381123668943574,0.1,0.04651832580566406,0.5209808349609375,0.049186107,0.049641516,392.55599443889025,-0.01015957633910561,5.5678177344644295,100.0,7166,1.317202091217041,0.051374949748935694,0.04851489554684472,67.00245048106953,0.0
316,3.7571442127227783,410.32222501783343,102.12152862726185,510.2147260180407,-74.00037817154839,100.0,1.8261444858374423,0.1,0.007869720458984375,0.1747579574584961,0.044635847,0.04708276,394.33261749678456,-0.010773151159625563,5.459156984869227,100.0,7153,1.3517670631408691,0.07350505644243241,0.06724454535603287,66.94384767087244,0.0
317,3.781446933746338,432.8960545513965,71.52110205244206,510.6314548412961,29.453101799109092,100.0,1.8908250327674114,0.1,0.027120113372802734,0.4944334030151367,0.049327675,0.05398986,398.18896120224576,-0.009528393860756504,5.751350630613701,100.0,7183,1.0122487545013428,0.03687690117216501,0.03226306111191218,78.50439160281496,0.0
318,3.8229494094848633,405.5985575600871,145.1648128954575,512.4217712494138,-101.60661562911278,100.0,1.6710321221718663,0.1,0.040979862213134766,0.46323180198669434,0.048082903,0.051742498,398.92992083802994,-0.011996784661714985,5.409130908319196,100.0,7024,1.044823408126831,0.1191697938454612,0.09656551406749017,81.79499264897375,0.0
319,3.534724235534668,410.1529084638382,133.03053868172537,514.8512229258306,-89.25390706548136,100.0,1.7627836385509728,0.1,0.04301047325134277,0.5583024024963379,0.04751687,0.04793875,400.0522196006108,-0.01167386330838126,5.4617679259510625,100.0,7076,1.255540370941162,0.09287428424493435,0.08650202008648444,63.71480894189822,0.0
320,3.47098970413208,404.3081188490881,143.56836050986774,508.2191120151532,-148.61384979639405,98.95833333333333,1.6865480854231356,0.1,0.008009195327758789,0.3965485095977783,0.04907131,0.049695376,400.4778095254585,-0.011734556894423464,5.386973681974838,98.95833333333333,7017,1.2675304412841797,0.09227320428824166,0.08477934966262361,44.315514582186914,0.0
321,3.5294857025146484,413.4126441141696,112.01582239631408,511.05300062641976,-90.56463046317438,100.0,1.720914603858478,0.1,0.007968425750732422,0.3702859878540039,0.049004737,0.047990385,401.7712929843296,-0.010990212581453171,5.491480798869133,100.0,7079,1.2317609786987305,0.0611084990705283,0.0584262616690655,53.503355467016064,0.0
322,3.544717311859131,401.18078923696584,157.5625897807528,512.5647302094756,-206.89694973670535,97.91666666666667,1.6949914618105317,0.1,0.08569216728210449,0.3046135902404785,0.050029177,0.0477441,401.71224260959326,-0.012156535513728778,5.341777445372266,97.91666666666667,7006,1.2451696395874023,0.10809488432969233,0.09571757447743384,44.46261772521775,0.0
323,3.5294461250305176,412.5896239856768,124.95910178611666,512.9862989666441,-87.67744996746659,100.0,1.8073871055148658,0.1,0.042088985443115234,0.35109376907348633,0.048944194,0.04872785,402.79998074720163,-0.011332641445023583,5.482064455934533,100.0,7077,1.2674415111541748,0.08676874564483483,0.07720652555743752,64.14787131273995,0.0
324,3.525012969970703,418.66991417397116,106.97495724152664,508.76501738000104,12.129157977406656,100.0,1.9135858740488716,0.1,0.06321930885314941,0.33348655700683594,0.049596954,0.047616597,404.3869740898786,-0.010950403473441839,5.568687578823411,100.0,7145,1.2652580738067627,0.07909684084755216,0.07183612474777545,69.66476138861158,0.0
325,3.5449306964874268,404.1160915675494,144.17176280198652,515.2592548038449,-166.21897905411996,96.875,1.7814803699870598,0.1,0.02556467056274414,0.22614502906799316,0.047878254,0.048334293,404.35988583764566,-0.011564442620949212,5.394750267940597,96.875,7096,1.2601640224456787,0.11563924475123634,0.10431813166419071,55.65607079319309,0.0
326,2.8997793197631836,403.3650459609971,150.0452338328378,502.2355975239018,-154.5657075717637,98.95833333333333,1.534593195077838,0.1,0.06664919853210449,0.32576799392700195,0.04621652,0.052987237,404.2604018499808,-0.012255842272555002,5.3598423457289295,98.95833333333333,7026,1.0621745586395264,0.10749718970743947,0.09534517645011097,41.03588462057115,0.0
327,3.756108045578003,420.4707249123007,104.30266279239105,508.0411378203749,-68.469990081825,98.95833333333333,1.3889896573474325,0.1,0.02505350112915039,1.529115915298462,0.048312657,0.05478112,405.8814341562128,-0.010411517618164534,5.593130128785411,98.95833333333333,7133,1.0447742938995361,0.06315492531311018,0.05492075417610556,49.807183261341024,0.0
328,3.744511365890503,433.2730100991753,104.04235615256088,515.9968310400893,-28.154025608127522,100.0,1.7927066411936647,0.1,0.008337020874023438,0.22201061248779297,0.048290003,0.05134467,408.620591750509,-0.01028232581638097,5.767156533098614,100.0,7137,1.0245471000671387,0.06778708878303032,0.06048686605156753,60.14778656256679,0.0
329,3.727733850479126,411.0888301823085,125.94398642633453,502.575766671805,-159.8573299625799,98.95833333333333,1.5705077283806186,0.1,0.043485403060913086,0.2562129497528076,0.049206473,0.052774217,408.867415593689,-0.011342562810300938,5.467495506680479,98.95833333333333,7070,0.994246244430542,0.08134282994154052,0.0698899307959483,78.39246022595613,0.0
330,3.7349236011505127,431.5564332280594,97.8588861966373,506.09018095693887,-7.944740290488461,100.0,2.140110098627254,0.1,0.02192091941833496,0.39610791206359863,0.044759106,0.03883993,411.136317357126,-0.010272334929121399,5.734086562382525,100.0,7155,1.0328919887542725,0.07154304314541443,0.061329530171611225,64.5895461163822,0.0
331,3.540944814682007,411.9923699431036,138.8386773234848,512.0355775402367,-129.6284843898676,100.0,1.5345757608670285,0.1,0.0075359344482421875,0.2053694725036621,0.048366025,0.05300576,411.22192261572377,-0.011677222503266983,5.47264760228105,100.0,7044,1.0352296829223633,0.08643456190348162,0.07524105932527766,59.39851704571015,0.0
332,3.520418643951416,409.39085249011606,135.5334804518468,506.23644081260403,-104.02191157048667,100.0,1.6682191762586094,0.1,0.007865190505981445,1.1202383041381836,0.04685991,0.052152358,411.038815603163,-0.011678037711967348,5.4432755292183055,100.0,7076,1.0742526054382324,0.09685438031779241,0.08849370214714912,74.33251460385202,0.0
333,3.4235072135925293,398.918176316548,155.17721934306232,509.6664858981488,-172.61409434471352,98.95833333333333,1.5911669802403945,0.1,0.07915282249450684,0.953505277633667,0.047971897,0.050848078,409.82675167450157,-0.01229166216139336,5.30436316126461,98.95833333333333,7032,1.0298848152160645,0.11403584236418213,0.10983390809657798,118.7894503754608,0.0
334,3.400134801864624,452.388960346626,74.86888175579956,514.8819873406658,-50.83962277376459,100.0,1.7248669605105769,0.1,0.06749796867370605,0.6203908920288086,0.04736512,0.051586058,414.082972541714,-0.009373938097297684,6.011227591753163,100.0,7171,1.0813889503479004,0.037100309937578915,0.027443965052862816,118.57872463792044,0.0
335,3.542250633239746,445.10344169303625,110.42640660287212,517.1131518775156,-85.9491045830213,100.0,1.7951026144102575,0.1,0.07077789306640625,0.5979018211364746,0.04813227,0.043725688,417.18501945684625,-0.010100800287819574,5.920369290473001,100.0,7092,1.2607474327087402,0.04629800424474283,0.04240279336562026,131.22739647249423,0.0
336,3.621417760848999,429.86273121026005,130.59904031313675,520.1515937159196,-115.57289380632986,100.0,1.6211708017808426,0.1,0.06609630584716797,0.45926618576049805,0.04637202,0.047506697,418.4527906321876,-0.0111425285597629,5.720892144922506,100.0,7038,0.9982705116271973,0.06613699577384313,0.060887741742865036,147.77819331211538,0.0
337,3.5336456298828125,420.4512920228538,135.86460504691232,512.7858411622503,-155.53225778035994,97.91666666666667,1.7743774180217722,0.1,0.04055213928222656,0.42452549934387207,0.04810927,0.046756424,418.65264077125426,-0.011209870498165823,5.589893266582518,97.91666666666667,7076,1.034261703491211,0.09275076917013449,0.08813606073650553,113.96308494968893,0.0
338,3.564727544784546,425.6044558109008,144.49791314271798,512.6423850064722,-120.37528393503311,100.0,1.4781375265146381,0.1,0.04716014862060547,0.19550347328186035,0.048571732,0.049737826,419.34782227521896,-0.01150848541353247,5.667235478879536,100.0,7022,0.9087941646575928,0.08642494490487763,0.07471595712496651,109.87594913588342,0.0
