iteration,time_sampling,stoc_pol_mean,stoc_pol_std,stoc_pol_max,stoc_pol_min,rollout_success,alpha,delta,time_vpg,time_npg,kl_dist,surr_improvement,running_score,rwd_sparse,rwd_dense,success_percentage,num_samples,time_VF,VF_error_before,VF_error_after,eval_score,eval_success
0,1.6473674774169922,-13.29219429934375,15.290572455220316,49.31718708508785,-34.39898964023272,0.0,0.44958884325901133,0.1,0.1516246795654297,0.23254156112670898,0.056963716,0.3237677,-13.29219429934375,-0.13088317492739077,-0.2559277904820229,0.0,2018,0.35947108268737793,0.9915370653580224,0.4239845890123073,4.795045210720923,0.0
1,1.4493203163146973,-14.09739381447674,13.239890550811461,40.58970961276742,-35.49934289363222,0.0,0.705917920712628,0.1,0.0356295108795166,0.22170042991638184,0.049977276,0.1501157,-13.37271425085705,-0.14548078271597503,-0.2716949302039651,0.0,2003,0.1591641902923584,0.40073660893466995,0.2446824740791778,8.182483227215187,0.0
2,1.553086519241333,-14.13427794014442,13.625363079909183,61.80222860573288,-31.743380163853708,0.0,0.6454328963837054,0.1,0.018973350524902344,0.292011022567749,0.04972892,0.18742053,-13.448870619785787,-0.1541124117518549,-0.2724437008562874,0.0,1956,0.17220830917358398,0.25443118683660937,0.2068753807681703,4.4299436283441125,0.0
3,1.3224403858184814,-13.127805180637623,16.32336108388174,61.17049006950286,-32.23663128710773,0.0,0.6120513220728028,0.1,0.03436684608459473,0.3060626983642578,0.05208738,0.25786972,-13.41676407587097,-0.1782482116909271,-0.2524684467566081,0.0,1949,0.23578882217407227,0.24101912240391324,0.1847468781465462,5.604623777093815,0.0
4,1.5114848613739014,-12.272113132833416,14.685594499418157,88.39000958145702,-33.94661811204757,0.0,0.6243373639825127,0.1,0.02117156982421875,0.25388598442077637,0.04453991,0.33542368,-13.302298981567215,-0.0894035042406545,-0.2352751673984966,0.0,1897,0.12932872772216797,0.16125242383396535,0.12764645156303617,6.178911118609777,0.0
5,1.4978842735290527,-13.16256391337548,13.919315623262758,52.54514735157613,-33.140285127491,0.0,0.5850823520097581,0.1,0.016864538192749023,0.3485727310180664,0.052956596,0.46077183,-13.288325474748042,-0.12237856083309716,-0.2529831629954243,0.0,1919,0.2753748893737793,0.15511929652125717,0.12427391270500428,1.5045128552848617,0.0
6,1.566295862197876,-14.023914660813896,14.875812353193226,90.10729992946315,-38.59397529782129,0.0,0.5895813642762086,0.1,0.01119232177734375,0.32320141792297363,0.05180204,2.0046077,-13.361884393354629,-0.1727996448656642,-0.26987632901441283,0.0,1868,0.15918684005737305,0.10867511155836199,0.09605179819515201,9.845203811324078,0.0
7,1.3164019584655762,-11.7518924102435,16.948311255908365,61.75794939612429,-36.65659144625222,0.0,0.5770453156950628,0.1,0.010057449340820312,0.31227755546569824,0.046554595,0.3746351,-13.200885195043517,-0.13073588331405922,-0.22464460481432993,0.0,1883,0.15016937255859375,0.15506386459760213,0.1399580248795335,12.576601650958287,0.0
8,1.3037798404693604,-9.067945793294424,20.67318389381368,151.4242047903323,-29.463299825199105,0.0,0.6321586112403992,0.1,0.020435333251953125,0.25919151306152344,0.05536265,1.5941985,-12.787591254868609,-0.035899289859531135,-0.17155744387764915,0.0,1808,0.2598702907562256,0.20969583768459626,0.19740172257101526,13.630143001006717,0.0
9,1.5591747760772705,-12.835060948078139,16.433415293041932,101.3038467591027,-30.82333655703538,0.0,0.6524960542739833,0.1,0.026604413986206055,0.25190138816833496,0.050793335,0.7483073,-12.792338224189562,-0.1790538276930157,-0.24663631687565601,0.0,1805,0.16093850135803223,0.10351191830815414,0.09622590685294526,12.008453989928334,0.0
10,1.412905216217041,-9.776927323741988,16.271252780811835,62.93990110583716,-35.94007349118402,0.0,0.5832899855826568,0.1,0.019305706024169922,0.522672176361084,0.04903536,0.37350467,-12.490797134144806,-0.0483990317370556,-0.1857041388912829,0.0,1780,0.26548290252685547,0.1605874546132715,0.1465954256807403,8.742922823456329,0.0
11,1.3261609077453613,-10.826393170175079,18.65831205435623,91.4591815313452,-29.996412494762975,0.0,0.5915030559648838,0.1,0.021793365478515625,0.33722472190856934,0.04717344,0.55458236,-12.324356737747834,-0.1386444077027691,-0.20630958601323113,0.0,1751,0.262432336807251,0.14462976571786076,0.13706279579171804,6.5536472067395835,0.0
12,1.5533583164215088,-11.199695840179524,13.957501189369237,62.536795894806545,-29.174697147397247,0.0,0.5914375661937615,0.1,0.017596006393432617,0.3420431613922119,0.051011182,0.60332984,-12.211890647991005,-0.10145472617654627,-0.21362563051778394,0.0,1813,0.2708289623260498,0.11355012215316677,0.10702002489293093,6.2370456430452315,0.0
13,1.386791467666626,-11.887621974244377,8.893377945998871,21.236264136472833,-27.395489963405353,0.0,0.5949172694970407,0.1,0.012134552001953125,0.2851994037628174,0.05071479,0.26537195,-12.179463780616343,-0.06730049304026926,-0.22781249322857397,0.0,1755,0.17741751670837402,0.03418404990832475,0.030400802451832187,7.115666826038538,0.0
14,1.6638705730438232,-10.76720369105571,11.786476416742616,43.28625661962991,-28.571983492466817,0.0,0.5434353648387547,0.1,0.009451150894165039,0.30417728424072266,0.048899073,0.5091845,-12.03823777166028,-0.06905011989677853,-0.20580972232580175,0.0,1711,0.22963285446166992,0.07721777386640598,0.07128478247367633,7.349038788590225,0.0
15,1.375364065170288,-2.561258805568283,33.400456076524556,223.36586190397924,-26.97957682896487,0.0,0.5663116392513886,0.1,0.029593706130981445,0.3463146686553955,0.048013646,2.1242821,-11.09053987505108,0.015008410986648209,-0.04118045025813386,0.0,1700,0.1839888095855713,0.5326611230099388,0.5051500954804554,9.568666832956922,0.0
16,1.5434653759002686,-9.587472790147723,14.00340379653486,91.64826355560561,-27.372469540031425,0.0,0.5878131555521405,0.1,0.009378671646118164,0.2885775566101074,0.05018606,1.9911021,-10.940233166560745,-0.04242873341514023,-0.1822847717310332,0.0,1666,0.1757814884185791,0.10265811030933279,0.08582375327651517,9.580956543061925,0.0
17,1.3807833194732666,-8.34388995582148,13.228106848704968,42.03294223276924,-28.134037029135225,0.0,0.5371995005016802,0.1,0.010226964950561523,0.32993650436401367,0.0504967,0.68235147,-10.68059884548682,0.011501065053870586,-0.15706219773262436,0.0,1625,0.24964475631713867,0.09125644304714055,0.08512422148861873,9.097615665672674,0.0
18,1.5003304481506348,-6.476693842275651,17.032597240962172,82.91434916340636,-28.076267034165568,0.0,0.5409973670549413,0.1,0.0059282779693603516,0.2744135856628418,0.048279,0.46821487,-10.260208345165704,0.047724952504554885,-0.12002862426632377,0.0,1593,0.17585396766662598,0.20671106633910824,0.20172951589126265,11.8339173698756,0.0
19,1.4467353820800781,-10.109976656906833,11.189481182961199,61.4621815566387,-23.87387587779396,0.0,0.5726615336241742,0.1,0.0049588680267333984,0.24859619140625,0.04972671,0.8323892,-10.245185176339817,-0.07082468703025362,-0.1928278938819293,0.0,1519,0.16962361335754395,0.08715697854122909,0.08106309617935394,8.879252942428332,0.0
20,1.442608118057251,-7.991849555092358,13.155577310719647,62.103004388996865,-22.070179665530183,0.0,0.564141118557301,0.1,0.010089397430419922,0.2985541820526123,0.051201586,0.8711946,-10.019851614215073,-0.007093877741264812,-0.15052624082428154,0.0,1557,0.21100425720214844,0.1139818550363386,0.11126092738746166,11.27159379865532,0.0
21,1.3294661045074463,-10.256346840828792,9.464328752930353,31.83406396059689,-24.47533206858006,0.0,0.5028942075015619,0.1,0.00986790657043457,0.2457876205444336,0.050925348,0.5960405,-10.043501136876445,-0.05830909652227417,-0.1953774407911627,0.0,1506,0.22377824783325195,0.03354269244955714,0.030778112432859286,10.736257887969495,0.0
22,1.5520670413970947,-5.454515453382293,22.025956206912078,173.8617138431105,-21.68304544859346,0.0,0.547239388215945,0.1,0.03421378135681152,0.20080184936523438,0.04959199,4.1624084,-9.58460256852703,0.06502329843425429,-0.09978658418156432,0.0,1487,0.25287318229675293,0.3516833888133753,0.34412704038845243,7.293276164399779,0.0
23,1.4956080913543701,-5.516661693746012,26.475759218721144,212.34253555266113,-22.170318694649975,0.0,0.5968751187106217,0.1,0.012462854385375977,0.27950119972229004,0.050858237,0.4232631,-9.177808481048928,0.03370069736317686,-0.10045549044963697,0.0,1434,0.1308908462524414,0.799514069910916,0.7641651984975,10.946743022485503,0.0
24,1.3927478790283203,-5.781593940190796,18.193910052319072,93.78364882349508,-22.69719702622206,0.0,0.5370821638204877,0.1,0.010384321212768555,0.23549866676330566,0.05097104,0.40114456,-8.838187026963116,0.05981879305451613,-0.10574955971117798,0.0,1433,0.22832369804382324,0.4274335615816972,0.3584075029307304,34.99203614627453,0.0
25,1.4663946628570557,-9.792960088986305,11.086062196331381,62.07883655714484,-26.52719726301749,0.0,0.5401294704606612,0.1,0.009537220001220703,0.26506686210632324,0.04963792,0.45126802,-8.933664333165435,-0.06657983012579548,-0.18559330612232042,0.0,1393,0.22634339332580566,0.11508480629050577,0.10772405588667998,24.067754073637975,0.0
26,1.5109646320343018,-6.707627752987605,18.19526882196256,113.99020576491536,-22.12325864911867,0.0,0.541155281480609,0.1,0.012277364730834961,0.23194599151611328,0.049475133,0.5987537,-8.711060675147651,0.014491660691264419,-0.12445069412831057,0.0,1409,0.20691776275634766,0.3441343091745875,0.3369163710084266,9.725088304443139,0.0
27,1.3629262447357178,-6.659756352517544,20.990404530315132,163.34164845652373,-21.935918931162817,0.0,0.6092952236741167,0.1,0.027721643447875977,0.2532994747161865,0.049976494,1.1822822,-8.505930242884642,0.012484878653405486,-0.12360639750316127,0.0,1391,0.17447686195373535,0.3061061036912368,0.2965185310344896,7.388795685428993,0.0
28,0.9774775505065918,-7.404362160035556,17.987490805872607,133.82254684361246,-24.52921146949808,0.0,0.569051070698843,0.1,0.02029252052307129,0.24787068367004395,0.050963342,0.7596021,-8.395773434599734,0.011676032962050007,-0.1381257660267445,0.0,1408,0.20328545570373535,0.27341969854462767,0.2712848367454848,8.16456380037726,0.0
29,1.2921531200408936,-2.612052671253648,25.030161817584,122.56639727516874,-22.17663520737487,0.0,0.5202760647750607,0.1,0.009160757064819336,0.20682549476623535,0.04894878,0.38621634,-7.817401358265125,0.10522601890468641,-0.043035995979816444,0.0,1392,0.2932395935058594,0.5722829396534906,0.5406176453142806,8.145709987145644,0.0
30,1.4122793674468994,-1.06559251371704,24.214778527494342,144.58264914782336,-22.291937376458534,0.0,0.5279561003693422,0.1,0.04995298385620117,0.20067453384399414,0.04872081,0.42186657,-7.142220473810316,0.19665975549152348,-0.011793323042792278,0.0,1398,0.1555635929107666,0.574196521974216,0.550611804335096,7.462685071241737,0.0
31,1.4765028953552246,-7.1212578349098505,13.883284162309794,92.4531259527332,-25.139867128795444,0.0,0.5643841721193558,0.1,0.009579181671142578,0.26479458808898926,0.04916205,0.5997528,-7.14012420992027,0.07011525212853702,-0.13322052719899943,0.0,1398,0.28283190727233887,0.26109604306885564,0.24006797939495944,7.219177796836886,0.0
32,1.2545230388641357,-3.80182969321365,22.262343454614484,142.05072858256972,-21.431241889257574,0.0,0.47720945764363915,0.1,0.005353212356567383,0.23840999603271484,0.050247874,0.5838705,-6.806294758249608,0.10762842334358831,-0.06651194532521959,0.0,1333,0.24583148956298828,0.5084869027770264,0.4818149830770787,6.325818458838001,0.0
33,1.209404706954956,-6.071680137770915,21.20805757289921,113.81333057738192,-21.039574368520572,0.0,0.5355282507339838,0.1,0.035620927810668945,0.29094457626342773,0.05068484,0.44229916,-6.73283329620174,0.01435588077650457,-0.11168717178376099,0.0,1330,0.24790716171264648,0.4661413267852145,0.46196142864709255,6.273846974549588,0.0
34,1.2383780479431152,-4.3874858999920505,30.977844362523427,222.24069725945483,-22.10629162281457,0.0,0.5398928686484327,0.1,0.009299516677856445,0.26999878883361816,0.05160394,0.42335778,-6.498298556580772,-0.011372395319381163,-0.07790808064300252,0.0,1348,0.25029706954956055,0.7481495292314359,0.7087136833608334,6.246978312679394,0.0
35,1.2211635112762451,-6.386379991022667,16.685387750384724,92.01095858340813,-21.417757675723117,0.0,0.5626520665396454,0.1,0.012521743774414062,0.24414587020874023,0.050189447,0.390409,-6.487106700024961,0.05030372172286679,-0.11788550361260154,0.0,1343,0.2982349395751953,0.5145914660678711,0.3057612510737404,6.452668924194589,0.0
36,1.3036692142486572,-4.830419463599042,29.66129967505937,232.82350464389737,-22.21205061337647,0.0,0.4965971130986695,0.1,0.058300018310546875,0.15535831451416016,0.050377667,3.4729161,-6.32143797638237,0.003498168763176259,-0.08703333714532746,0.0,1340,0.21825265884399414,0.5332946362061067,0.5098461439663272,6.331433117081075,0.0
37,1.4633972644805908,-1.3669532053349005,26.366533054873482,132.7099877685081,-21.92641145049392,0.0,0.5708268677004248,0.1,0.00929713249206543,0.25698328018188477,0.0490224,0.3689638,-5.8259894992776236,0.16681681780030846,-0.01822587830357506,0.0,1362,0.2695281505584717,0.5466956903176469,0.5327848829694033,6.729461800328565,0.0
38,1.328270435333252,-2.1545662633828973,27.495180228827863,162.60573614954026,-23.168885044339856,0.0,0.48576540593770323,0.1,0.028406143188476562,0.28073596954345703,0.049423873,2.0571256,-5.458847175688151,0.10931353661319985,-0.033491824091460454,0.0,1316,0.23349452018737793,0.5056208048762164,0.4931523709542733,6.21635873898334,0.0
39,1.309687614440918,-4.877222309411457,26.04826599673304,172.61531175920743,-24.456184168795314,0.0,0.5962568051883109,0.1,0.0050237178802490234,0.265394926071167,0.0496801,0.55704015,-5.400684689060482,0.04778312365096115,-0.08792736235005046,0.0,1333,0.36228346824645996,0.4163186528799012,0.39928577808860455,6.086066248424385,0.0
40,1.1017770767211914,-1.1129847262096275,35.27684527544272,272.73342082030155,-19.96017463496245,0.0,0.47158264374152037,0.1,0.009949445724487305,0.22370600700378418,0.049726285,0.89168304,-4.971914692775396,0.09638323011002625,-0.012404627798670529,0.0,1324,0.32120752334594727,0.8279721753649926,0.7575956942301095,5.54947727978894,0.0
41,1.2087969779968262,-7.199227610082904,14.774845794751531,113.14246468272738,-19.965747051063076,0.0,0.5207784315355943,0.1,0.022742033004760742,0.30266499519348145,0.050404403,0.24632843,-5.194645984506147,0.04697915082129506,-0.13447116022861152,0.0,1315,0.32535409927368164,0.5487118626984682,0.35031154907107664,6.074498390563333,0.0
42,1.0781588554382324,-0.43991787196338067,30.232061577629597,163.14469000839375,-22.052199479335485,0.0,0.619522133986386,0.1,0.009812593460083008,0.26404285430908203,0.0503477,0.27250022,-4.719173173251871,0.13850313859921504,3.511992411535381e-05,0.0,1313,0.25494384765625,0.7527412014124865,0.6805956080820375,6.294950809906726,0.0
43,1.2120778560638428,-4.612730698199854,18.244504343536224,92.61819498226006,-21.50735639172939,0.0,0.588811861400913,0.1,0.027466773986816406,0.27308011054992676,0.05035289,0.26352617,-4.70852892574667,0.13889276415467366,-0.08316532016111973,0.0,1316,0.2470531463623047,0.5934669123470031,0.4111697295639982,6.063332432690482,0.0
44,1.2769100666046143,-3.027864215304389,23.396555733504563,141.79395766397278,-19.371778872425153,0.0,0.6121949004741124,0.1,0.06218552589416504,0.2359466552734375,0.05033845,0.27741668,-4.540462454702443,0.10098772169879879,-0.05087636821857346,0.0,1321,0.2812530994415283,0.6638954812811003,0.6438063300647121,5.937177193206543,0.0
45,1.2357118129730225,-4.5906252616520575,25.638016021309625,211.66058456484328,-19.71267022381462,0.0,0.5665721442644739,0.1,0.005516529083251953,0.19719886779785156,0.049974978,0.8474621,-4.545478735397404,0.07936738407774352,-0.08257424495445785,0.0,1292,0.3238410949707031,0.6031310635649547,0.498555781093733,5.941119082212088,0.0
46,1.1229560375213623,-5.595830850805996,14.884865999816318,92.41016921686386,-24.680087977103213,0.0,0.5506666772123961,0.1,0.0049724578857421875,0.2361135482788086,0.050526727,0.37234068,-4.650513946938264,0.11252776581242702,-0.10274875211222871,0.0,1320,0.34723877906799316,0.32795441662688757,0.29538442262640646,6.775365823661424,0.0
47,1.2750539779663086,-4.6557184198794515,19.611045467021306,82.65717350471743,-20.997039265680613,0.0,0.5800869103772792,0.1,0.046095848083496094,0.24385690689086914,0.05059174,0.28344923,-4.651034394232383,0.05129031432639358,-0.08381871048800205,0.0,1309,0.30344057083129883,0.4285532205927973,0.40055973430847674,6.8041401407196105,0.0
48,1.2027945518493652,-7.776667861680475,8.988780627655569,52.20104566710418,-20.37043690681814,0.0,0.530693111518188,0.1,0.023405790328979492,0.2621948719024658,0.050168775,0.2237233,-4.9635977409771925,0.07156762816112104,-0.14587061588436642,0.0,1297,0.2188272476196289,0.20636450457199007,0.12146436330537087,6.864117242724333,0.0
49,1.0426123142242432,-6.644959291865638,21.618988321898048,122.25833737463141,-21.96114224067339,0.0,0.49064603891082104,0.1,0.005067348480224609,0.18679094314575195,0.05077327,0.5490009,-5.131733896066037,-0.08230455493775285,-0.12352477049042647,0.0,1303,0.3346872329711914,0.4199851563463809,0.4015196788908712,6.1230182548539,0.0
50,1.2974364757537842,-2.620251695666061,30.47154777047282,213.23917136619804,-20.338778246349378,0.0,0.5679033078991005,0.1,0.009941816329956055,0.22902488708496094,0.04972261,0.5166179,-4.8805856760260395,0.04132947888738114,-0.04300107991422606,0.0,1288,0.30474019050598145,0.5250890783300552,0.5013208097148972,6.09389624780129,0.0
51,1.1943793296813965,-1.4376261110619943,23.409779469697558,112.60669272482026,-19.349828149678952,0.0,0.5436990481070216,0.1,0.010018348693847656,0.26413726806640625,0.048911273,0.2809613,-4.536289719529635,0.19208761285641404,-0.01961514140982352,0.0,1307,0.34864306449890137,0.5552458108811581,0.5350323316752948,6.779620216510766,0.0
52,1.2441959381103516,-5.541069285882856,17.516470189415323,122.52669614248671,-19.44059759218565,0.0,0.5291129041065565,0.1,0.010108709335327148,0.31916189193725586,0.05006363,0.78108025,-4.636767676164957,0.1076979266851319,-0.10138222086431874,0.0,1298,0.2617676258087158,0.5041360542050155,0.49669393679773166,6.860044856257494,0.0
53,1.3152689933776855,5.315610089002018,50.0437351675241,383.7011857049572,-20.82183963122251,1.0416666666666667,0.6266873215032382,0.1,0.028588533401489258,0.2636237144470215,0.050743498,0.34935507,-3.6415298996482597,0.20164086317174698,0.11500336504300306,1.0416666666666667,1290,0.35884952545166016,0.8355380436320379,0.7890070138083206,6.202364161159414,0.0
54,1.3367836475372314,-2.022078168930504,21.658963769912987,122.58999252540269,-19.37431694334806,0.0,0.5798991285009162,0.1,0.03302645683288574,0.22234582901000977,0.049559884,0.26124838,-3.4795847265764843,0.19694396625665797,-0.031636742816603954,0.0,1309,0.31302642822265625,0.8083635612314447,0.5850169974070135,6.386217187519376,0.0
55,1.3785521984100342,-1.6819667784500478,26.173764905399473,143.43876061439968,-22.22617834161683,0.0,0.552910447068787,0.1,0.02355360984802246,0.23837900161743164,0.04833857,0.37593356,-3.299822931763841,0.0949420067275415,-0.024573905304164756,0.0,1286,0.31046414375305176,0.5321721322852322,0.5013494220529928,6.47116257219718,0.0
56,1.3889012336730957,-0.3664458628607896,31.171652669511186,183.0604029177355,-20.363045074528685,0.0,0.5866874894666648,0.1,0.03098154067993164,0.29276299476623535,0.050687008,0.36138782,-3.0064852248735363,0.09205830411988981,0.001991210847068011,0.0,1305,0.35095810890197754,0.547781803648036,0.4910018608688772,5.980200824238724,0.0
57,1.3901219367980957,-1.0715616871392755,43.82734025058027,383.10779087310203,-19.520465046918957,0.0,0.5693981590282073,0.1,0.010025739669799805,0.16506695747375488,0.0498948,1.5406466,-2.81299287110011,0.11809834664336481,-0.01286557247105167,0.0,1285,0.3059709072113037,0.8007952329702078,0.7648230337219397,6.551531857316386,0.0
58,1.2146854400634766,-7.184904464222796,9.364473058361945,42.7517015603499,-19.431159995576646,0.0,0.5427897458137755,0.1,0.010071992874145508,0.2820320129394531,0.05009112,0.16233723,-3.250184030412379,0.09397809682446161,-0.13415909073817564,0.0,1284,0.44052767753601074,1.1497576691215003,0.26397631910295916,6.596366921499437,0.0
59,1.2296409606933594,12.911828007860601,70.66857730699721,333.79182625821255,-18.920969357591886,0.0,0.5704572437695377,0.1,0.009977102279663086,0.23371338844299316,0.04995828,0.2716044,-1.6339828265850809,0.19864855654390903,0.26759559723774995,0.0,1318,0.3174896240234375,0.8846404951748632,0.7193268516566804,6.750712257183023,0.0
60,1.133770227432251,18.25383615470047,71.35085879721888,322.6260895497904,-18.592050205159346,0.0,0.6199297866449159,0.1,0.026346445083618164,0.2863788604736328,0.04980329,0.25861466,0.3547990715434741,0.1736973401202804,0.3745626640414675,0.0,1309,0.32059335708618164,0.6399440230008402,0.5620739167518641,6.633857004798409,0.0
61,1.3220524787902832,13.294600864417836,80.92632895383686,464.80288278412957,-21.449297889173078,2.0833333333333335,0.5707705013456402,0.1,0.014741897583007812,0.2632715702056885,0.049695313,0.2610062,1.6487792508309103,0.15780946772160087,0.2749696872215406,2.0833333333333335,1321,0.3083674907684326,0.7192731486424799,0.6775004156152377,11.962108148761889,0.0
62,1.2206120491027832,6.2057030272864635,69.89958103850107,493.68881551433293,-19.55724064264714,1.0416666666666667,0.5769581227537163,0.1,0.03601717948913574,0.27451276779174805,0.049994305,0.33099037,2.1044716284764657,0.1241975320223447,0.13275445317458684,1.0416666666666667,1295,0.34787940979003906,0.657844102705789,0.5961089010762505,27.12441720859676,0.0
63,1.2094099521636963,1.103339244818978,54.63685650021826,493.87392572139987,-18.95484921952376,1.0416666666666667,0.5673817035485652,0.1,0.027939796447753906,0.27562952041625977,0.051852044,0.39326808,2.004358390110717,0.09270335360313203,0.031231631657963266,1.0416666666666667,1322,0.3280458450317383,0.7660555001104419,0.717207959039588,78.25451186262327,12.5
64,1.2416789531707764,9.339617908485772,67.19730893167288,384.20340472257266,-18.88882390217906,1.0416666666666667,0.6028978033268885,0.1,0.04404401779174805,0.22219085693359375,0.050491955,0.34425256,2.737884341948223,0.11523962161629575,0.19575140734488913,1.0416666666666667,1312,0.31386232376098633,0.6678791809141988,0.5886932695492993,82.11963852545651,12.5
65,1.3620891571044922,24.482913020090947,93.57065508777038,394.22446821993884,-19.53934556327804,2.0833333333333335,0.5358959012968226,0.1,0.0054051876068115234,0.22084283828735352,0.050294887,0.24953072,4.912387209762496,0.20933037436630406,0.4984516702726051,2.0833333333333335,1344,0.3184530735015869,0.5565266645119774,0.4928918466399802,70.86938309108149,12.5
66,1.1246225833892822,30.204063697650167,87.7126339856856,344.3021014132541,-21.629027262398168,0.0,0.5856678927483713,0.1,0.02003192901611328,0.20273876190185547,0.04963187,0.22504032,7.441554858551264,0.1888131316693258,0.6124274099928916,0.0,1339,0.3251535892486572,0.5003088584207279,0.44206353816830923,62.629914565987164,12.5
67,1.2936646938323975,45.02631037210333,118.07910200683932,494.0579808098677,-18.38246016502314,4.166666666666667,0.5748127128386048,0.1,0.029969453811645508,0.25731348991394043,0.050249226,0.24707562,11.200030409906471,0.18200055557083292,0.9100556422392115,4.166666666666667,1316,0.28032636642456055,0.4996250718543478,0.42498759871201125,57.62658111853134,12.5
68,1.3701756000518799,26.21489368538404,101.24832861627173,443.95027312014406,-19.0939432483248,4.166666666666667,0.5415260616564158,0.1,0.028533220291137695,0.2724285125732422,0.049945146,0.22563902,12.701516737454229,0.13095543897283848,0.533835244838075,4.166666666666667,1316,0.3428375720977783,0.4562289525672352,0.3751512162452612,53.03194362491655,12.5
69,1.259152889251709,21.794218950665776,87.40352823208143,433.8379998336101,-20.03166023338577,1.0416666666666667,0.5200530472473984,0.1,0.012216329574584961,0.2871894836425781,0.050141644,0.2505771,13.610786958775385,0.22852150938862073,0.4447095476373813,1.0416666666666667,1335,0.23933124542236328,0.4539796286177932,0.4139029927655202,50.58362986663931,6.25
70,1.4357140064239502,56.70635436455918,140.33044282527646,684.431538331877,-18.440578464390274,9.375,0.6244328332481498,0.1,0.005471467971801758,0.24382901191711426,0.05047853,0.18524364,17.920343699353765,0.2824728148153163,1.1425456655285846,9.375,1402,0.32789158821105957,0.3832996731649554,0.3349011359681853,143.3005764918243,12.5
71,1.580622911453247,30.582802304691683,98.34382873955855,494.9948547608447,-19.88737551916381,2.0833333333333335,0.6254473178599068,0.1,0.04091382026672363,0.20764732360839844,0.050544035,0.17155914,19.186589559887558,0.23470066353759267,0.6206615045823293,2.0833333333333335,1405,0.3254208564758301,0.7709361652899587,0.6064473642219249,128.42492087481577,12.5
72,1.4928297996520996,28.418246934979834,103.69635838731762,464.32019093824744,-20.209722308718906,4.166666666666667,0.5413888421130866,0.1,0.018484830856323242,0.27319836616516113,0.05050795,0.2918597,20.109755297396788,0.13835186885634884,0.5773210734029918,4.166666666666667,1334,0.38137340545654297,0.5020157341858197,0.3685668236352889,138.14775360265986,12.5
73,1.468217134475708,41.44246141966064,114.72300001694492,464.6928777100247,-19.412177646052143,3.125,0.6001707758175548,0.1,0.027217626571655273,0.2683064937591553,0.049189586,0.18787743,22.243025909623174,0.1681529123886704,0.8379352395381178,3.125,1365,0.2991025447845459,0.32702038748072493,0.30511740544972443,111.17790209253103,6.25
74,1.482485294342041,16.119038121887215,72.6106213587408,383.27646275581526,-18.03804988933686,1.0416666666666667,0.5609279739825098,0.1,0.03417372703552246,0.29253172874450684,0.049966395,0.18784787,21.63062713084958,0.17708560283554045,0.3317385689822091,1.0416666666666667,1358,0.32524824142456055,0.8098655659049305,0.7014314270864503,122.61824230679821,12.5
75,1.4017362594604492,43.06255836621301,125.43467005046999,516.1202663370165,-18.565896222401175,5.208333333333333,0.5682574588636038,0.1,0.010411500930786133,0.19212818145751953,0.049691178,0.22243212,23.77382025438592,0.20799007594455018,0.8704613267788681,5.208333333333333,1376,0.2912759780883789,0.46343779019968906,0.39065200110948206,108.61303934163045,18.75
76,1.4401841163635254,53.1806504451766,133.9149377258117,555.2707210308658,-20.39580956099327,7.291666666666667,0.6096614627705941,0.1,0.03839707374572754,0.27980685234069824,0.05070803,0.19925311,26.714503273464988,0.19881031376894368,1.0732070917268495,7.291666666666667,1387,0.28762054443359375,0.447967486288175,0.41083158949721194,155.3537135644782,12.5
77,1.3222968578338623,34.25475109998488,116.35310837687405,673.8462650444677,-19.95595571872533,4.166666666666667,0.5672412868656955,0.1,0.022420883178710938,0.2321779727935791,0.051154867,0.24391638,27.468528056116977,0.15457052601871926,0.6937749095073448,4.166666666666667,1375,0.31166553497314453,0.5352677995610221,0.49245289350446886,161.97767150953234,18.75
78,1.5454728603363037,26.12925359377545,106.534833830014,607.6268624960013,-19.17108328620764,3.125,0.5714830971502022,0.1,0.01871037483215332,0.2567577362060547,0.050198816,0.25794938,27.334600609882823,0.13285683662676837,0.5315360094532098,3.125,1371,0.33768391609191895,0.5779336911334929,0.5514706191644725,168.67042750453876,18.75
79,1.5286304950714111,41.31920951710719,119.27893305437904,555.1699953543061,-18.68531666885142,3.125,0.5811965274254184,0.1,0.01737236976623535,0.2754709720611572,0.050004035,0.20318304,28.73306150060526,0.21201493117020767,0.8350002596564378,3.125,1395,0.3502938747406006,0.4593537597001192,0.4302310529026613,130.90780295270304,12.5
80,1.4411654472351074,40.30200238430913,119.11086337620563,444.33288394845886,-18.752781009667764,4.166666666666667,0.6179676679833211,0.1,0.010014057159423828,0.24580812454223633,0.050061025,0.19351503,29.889955588975646,0.09062169469980419,0.8152685204759468,4.166666666666667,1383,0.2986421585083008,0.450662956981518,0.43591476716266175,119.37052497114276,12.5
81,1.650803565979004,69.47133922881771,180.75465954814544,989.5122124971407,-18.98779918138583,11.458333333333334,0.61050779008744,0.1,0.014177322387695312,0.28889012336730957,0.05161733,0.22269233,33.84809395295986,0.2181492167775726,1.3985576447784085,11.458333333333334,1423,0.3475356101989746,0.48791246116011466,0.39759806314673746,103.1743620189795,12.5
82,1.3745100498199463,50.7686364219794,137.47949084738553,565.0309608480661,-19.449011985681068,9.375,0.6270762205884486,0.1,0.024293899536132812,0.26188039779663086,0.050794363,0.17063576,35.54014819986181,0.20873559109038697,1.0247565521717377,9.375,1471,0.3584141731262207,0.5779012974946929,0.44252922347104,92.8598407809823,6.25
83,1.2841691970825195,41.23910989103312,126.39252332332259,726.5269204165834,-18.480555102658606,6.25,0.6104194467342978,0.1,0.011677980422973633,0.27996325492858887,0.051159605,0.18473782,36.11004436897895,0.2164325326706902,0.834166297283306,6.25,1482,0.304776668548584,0.774574755516715,0.690157078755819,95.70009356637216,6.25
84,1.4886372089385986,56.68207877274381,144.3521413306549,614.7082713703286,-18.385887730973717,7.291666666666667,0.5860873383842822,0.1,0.029018163681030273,0.27890563011169434,0.05042961,0.20616569,38.16724780935544,0.12282697962946738,1.1426673687524913,7.291666666666667,1430,0.3474268913269043,0.5229643365827489,0.44166358372949055,116.63725321499624,18.75
85,1.4853711128234863,40.06035782066889,123.9322528291363,493.4424353981211,-18.97549935065579,5.208333333333333,0.5659291034306881,0.1,0.029198408126831055,0.24741768836975098,0.049863294,0.22480191,38.35655881048678,0.1895437142749695,0.8102185173373337,5.208333333333333,1407,0.3339712619781494,0.44166895003689605,0.3848130913813773,123.04767181598434,6.25
86,1.4902453422546387,37.81603829049402,122.04797441819271,475.08781974346545,-21.826906759431285,4.166666666666667,0.5977986297707978,0.1,0.06266617774963379,0.24720144271850586,0.049619198,0.19528633,38.3025067584875,0.15986044973479094,0.7652578300898121,4.166666666666667,1444,0.3608379364013672,0.33616866602741996,0.3216673494557974,102.00232894252302,12.5
87,1.3777782917022705,56.53583776265134,165.67079087207716,1118.7050349479675,-18.407676727574167,6.25,0.6296091159931876,0.1,0.024257421493530273,0.29091358184814453,0.050569594,0.22952498,40.12583985890389,0.2318483632241113,1.1392778664611916,6.25,1521,0.4844648838043213,0.6722918835437345,0.6396785576392044,121.80765351932456,18.75
88,1.3745009899139404,44.796441310567076,132.80632132025156,564.2641707334512,-18.393595504528584,7.291666666666667,0.607721755582685,0.1,0.010280370712280273,0.250993013381958,0.049424212,0.17877607,40.59290000407021,0.21276971543753528,0.9048250044928485,7.291666666666667,1482,0.37363600730895996,0.6070700946079433,0.5203681970335015,119.40406415423905,12.5
89,1.3750426769256592,43.09271246818502,123.42316602267114,565.4286306798336,-19.137705346808488,4.166666666666667,0.5974295754769786,0.1,0.029845714569091797,0.3025503158569336,0.050427213,0.19215095,40.842881250481696,0.16649698168839303,0.8708013214442518,4.166666666666667,1538,0.37755918502807617,0.629689574879569,0.5737413950753147,104.31655764511007,18.75
90,1.3360350131988525,59.70309554996218,148.41205026299443,553.7548699135265,-19.360329376534814,9.375,0.6144132330675124,0.1,0.04199838638305664,0.26025390625,0.049417343,0.1976454,42.72890268042975,0.1996812095077655,1.20287153793934,9.375,1497,0.3222048282623291,0.5451867485689376,0.4995601492580455,104.88921932400694,18.75
91,1.2338781356811523,77.25926981134937,173.92824688476972,686.2701930297978,-20.766187781811837,9.375,0.6553548830090502,0.1,0.028639793395996094,0.26470303535461426,0.05045397,0.17561536,46.181939393521716,0.2082271261448204,1.5537819705900662,9.375,1490,0.34085822105407715,0.4025552328902476,0.3602753277296367,98.40732846062515,18.75
92,1.3833568096160889,82.15340198148503,183.86751445213156,878.6681737281378,-19.521943522913304,11.458333333333334,0.625706549172748,0.1,0.017091751098632812,0.23588275909423828,0.050288036,0.19141729,49.77908565231805,0.2370993998531096,1.6517799572769878,11.458333333333334,1542,0.4226531982421875,0.40994731467458123,0.38681661829717073,90.7834176739142,6.25
93,1.1869463920593262,57.77494707235311,147.64243555016245,700.1454679553801,-21.093804703767336,7.291666666666667,0.6443510822264763,0.1,0.04218292236328125,0.34076428413391113,0.049909268,0.15917088,50.57867179432156,0.19186795957597655,1.1645943801130896,7.291666666666667,1596,0.37883520126342773,0.7175175552878722,0.54429691689717,91.94187207703793,6.25
94,1.3822083473205566,66.46282116870115,169.83529772761824,746.3265082978464,-19.377158112553207,10.416666666666666,0.6215277637095745,0.1,0.009799718856811523,0.33272838592529297,0.05023112,0.18099497,52.16708673175952,0.22326290048867312,1.338489123496376,10.416666666666666,1600,0.36832499504089355,0.5046948248963126,0.4894158658017652,98.18179300719575,6.25
95,1.2780907154083252,61.143247782140826,155.0826301447053,635.615965986155,-22.256633585551803,8.333333333333334,0.6561012146931027,0.1,0.012279033660888672,0.26880621910095215,0.05021164,0.18069646,53.06470283679765,0.20277159966058445,1.2313647678447126,8.333333333333334,1545,0.45015692710876465,0.42374053869256445,0.37671797714327454,95.31601618759701,12.5
96,1.3013577461242676,91.28698745992817,178.21004496136442,598.3005822102207,-17.789790779194735,12.5,0.619914024546627,0.1,0.016506671905517578,0.24805331230163574,0.050861143,0.18448175,56.8869312991107,0.26505343915051083,1.8346632307899498,12.5,1535,0.39743757247924805,0.41405230245750985,0.3747854396755942,89.62082593237247,12.5
97,1.4045460224151611,43.53405687652852,119.3665529963623,547.1663318284337,-18.722170413526317,3.125,0.6448014862487967,0.1,0.013180732727050781,0.31178712844848633,0.050311584,0.1662036,55.551643856852486,0.15081402250162634,0.8796276056159701,3.125,1568,0.4270777702331543,0.5855675644266245,0.4196035228753347,90.37523772273015,6.25
98,1.3854551315307617,75.81959575513055,170.4813871912181,585.893621335092,-18.973821457537245,14.583333333333334,0.7000060191781827,0.1,0.034152984619140625,0.34496617317199707,0.049706403,0.15116528,57.578439046680295,0.3103580160027408,1.5252076739478635,14.583333333333334,1658,0.43096494674682617,0.53840008635461,0.4951037627573484,94.8088398243145,6.25
99,1.501408338546753,59.58216130393445,160.37758504534415,917.6990321881473,-18.296315812926288,7.291666666666667,0.6704237091576688,0.1,0.0350492000579834,0.2824556827545166,0.049262445,0.18146323,57.77881127240571,0.2564272668756625,1.2006590896443778,7.291666666666667,1572,0.41921162605285645,0.5712020789198097,0.5590684925427503,94.85843333900718,12.5
100,1.2190515995025635,44.981762636753366,147.05408913743076,675.4158192274197,-19.766750400209233,8.333333333333334,0.683848323225494,0.1,0.00952601432800293,0.28438329696655273,0.05137346,0.18641065,56.499106408840476,0.1376302162422812,0.9089279280716385,8.333333333333334,1503,0.4189627170562744,0.44838533418535065,0.40103185848747464,124.04271761538311,18.75
101,1.173856496810913,62.462821577929795,165.5102777767415,806.812001213571,-27.13138907036916,9.375,0.6591885261377962,0.1,0.031159639358520508,0.26882243156433105,0.050380718,0.16680865,57.09547792574941,0.21802527268438643,1.2583559386657794,9.375,1574,0.4324812889099121,0.46922538297162414,0.4492166275591167,104.22613503609453,12.5
102,1.3725254535675049,63.245059757231,168.07790775619026,686.2146556011872,-19.30188521482762,11.458333333333334,0.6609619624814591,0.1,0.005331277847290039,0.29409265518188477,0.049162738,0.16083634,57.71043610889757,0.2557918214103086,1.2737893130346525,11.458333333333334,1562,0.3767821788787842,0.4772038773657221,0.46407180201259574,99.9322269669994,12.5
103,1.6394095420837402,80.15883950334516,190.56146744639162,761.0765647228352,-18.265224762909302,11.458333333333334,0.6580703877957694,0.1,0.009797811508178711,0.23343634605407715,0.050486438,0.1940472,59.95527644834233,0.2771481929730318,1.6124136911452684,11.458333333333334,1604,0.44232773780822754,0.572432421721234,0.5360745913912661,97.89856827331448,12.5
104,1.4439733028411865,79.55665297575969,185.4027909295668,685.9054282199486,-19.766228642917994,13.541666666666666,0.6858938396108143,0.1,0.010046958923339844,0.4250319004058838,0.050376277,0.16451843,61.91541410108407,0.21902842640886222,1.6003579276864819,13.541666666666666,1618,0.44470882415771484,0.3889071946355995,0.35444974622913084,99.168036980313,12.5
105,1.621274471282959,79.46033265911387,191.77847659702442,784.6530888562268,-18.61529836929048,12.5,0.6525406625660278,0.1,0.028192996978759766,0.29769468307495117,0.050584048,0.16200176,63.66990595688705,0.19805975274344836,1.5979613560558148,12.5,1596,0.3266899585723877,0.44022208334958784,0.4279682208697501,97.59855453372927,18.75
106,1.7287962436676025,85.56394509325935,184.81376073351475,825.971416688853,-19.035590322591013,10.416666666666666,0.7211765546343579,0.1,0.010206937789916992,0.3304910659790039,0.050004885,0.15594986,65.85930987052429,0.3102734526323619,1.720195372357298,10.416666666666666,1791,0.5043816566467285,0.5175643544691687,0.4967028664250196,93.21436413115953,12.5
107,1.6336193084716797,66.53737464124909,171.60604711876013,817.1184796942223,-18.604239071817272,9.375,0.6968956065734693,0.1,0.026813983917236328,0.3498690128326416,0.049937304,0.1500317,65.92711634759677,0.22779457010977122,1.3401709949722915,9.375,1727,0.42583298683166504,0.609479080996562,0.482734256258105,106.64956559137332,12.5
108,1.4195163249969482,90.51206549453002,217.00272166685923,907.4790836993283,-21.100867464986266,11.458333333333334,0.7355187484908824,0.1,0.03174185752868652,0.4149162769317627,0.049834337,0.15430629,68.3856112622901,0.2494488974762122,1.8196355186951294,11.458333333333334,1717,0.3902134895324707,0.6313166888749395,0.5812743706323923,101.46125707018021,12.5
109,1.778076410293579,93.70597200465033,205.547558047686,818.1800318439555,-18.172236204403692,13.541666666666666,0.7528693111247374,0.1,0.027795791625976562,0.28688883781433105,0.05060064,0.15232997,70.91764733652612,0.2730990007154466,1.8832374314575029,13.541666666666666,1840,0.43735837936401367,0.5912818281148738,0.5634057687430927,105.21246616407457,18.75
110,1.3567991256713867,88.80060130851048,204.93823058738397,807.4359710874608,-19.83190575670883,11.458333333333334,0.6721232570940356,0.1,0.021989822387695312,0.3712272644042969,0.051078986,0.16526678,72.70594273372456,0.1765086063045831,1.785225992240443,11.458333333333334,1701,0.41063427925109863,0.46207397148895235,0.4348354730328262,101.23892538403666,12.5
111,1.609727144241333,96.59482270529735,209.39956171220624,1020.2550637192954,-18.356508206044733,13.541666666666666,0.6923852576241558,0.1,0.021871566772460938,0.29530787467956543,0.050246794,0.15984114,75.09483073088184,0.16109899555529497,1.9403783632934337,13.541666666666666,1763,0.4792170524597168,0.6072262321502421,0.5065824554878618,102.9434694308905,12.5
112,1.7789058685302734,137.1683646384743,248.33052873438544,978.8951844998209,-18.769801221040733,18.75,0.7181538600293508,0.1,0.038254737854003906,0.294724702835083,0.050142284,0.15578581,81.30218412164109,0.2804191286907273,2.7527039464615726,18.75,1828,0.5105545520782471,0.4206475009427922,0.345869517553476,100.77041004607541,12.5
113,1.5285232067108154,94.30909745794422,187.67304653749588,687.4703664742981,-19.213440453310067,12.5,0.7579687616446403,0.1,0.03478097915649414,0.2920825481414795,0.050139103,0.13449499,82.6028754552714,0.26807186915464665,1.8954218885912935,12.5,1865,0.5397107601165771,0.5346864225987523,0.3866957142373136,92.61887766270225,12.5
114,1.4188921451568604,118.06339152752747,234.84936397645382,841.5084578344965,-18.75121507733384,15.625,0.6900234145856483,0.1,0.0378422737121582,0.25148987770080566,0.049583185,0.16332509,86.14892706249702,0.28437472203520775,2.3704035330783824,15.625,1877,0.5120584964752197,0.4390255584064597,0.4006228080306935,101.99186166387184,12.5
115,1.6489415168762207,104.00094555063492,219.8696064092922,1020.4999626341536,-18.854047833519353,11.458333333333334,0.7272519092628426,0.1,0.031357765197753906,0.34416675567626953,0.050062202,0.14958179,87.93412891131081,0.29888155985310944,2.0887496056897206,11.458333333333334,1936,0.5099771022796631,0.4981596006211801,0.47653878845451797,101.46458709647717,12.5
116,1.5284314155578613,65.82741151406645,246.78065267012641,1211.9513463762785,-1056.1583852119547,9.375,0.43471485503013974,0.1,0.03942704200744629,0.4045228958129883,0.047158662,0.098173775,85.72345717158638,-0.5353993065470294,1.3264321398614787,9.375,1855,0.39142537117004395,0.8713851940338307,0.8300603795173204,114.44092211513907,12.5
117,1.3009452819824219,102.84787078998146,241.7535193130716,1243.7092625716864,-19.015110917498145,14.583333333333334,0.735694851794755,0.1,0.03080129623413086,0.23072361946105957,0.050468713,0.15258515,87.43589853342588,0.24268717324566844,2.066025843433099,14.583333333333334,1930,0.5500977039337158,0.5692088699086435,0.5495729725870904,103.85822534168076,12.5
118,1.513702392578125,89.08981731540604,209.0309614883904,940.5117019293099,-274.67514638927713,13.541666666666666,0.6607182156000336,0.1,0.03718161582946777,0.4646472930908203,0.04935835,0.17096059,87.6012904116239,0.13923249491433298,1.7907433525913101,13.541666666666666,1861,0.5190508365631104,0.5406962976194593,0.51054859643169,115.45268708776456,12.5
119,1.3058583736419678,75.76850190603666,183.2838895192299,999.2669843483509,-21.75210344665418,10.416666666666666,0.6932988528508192,0.1,0.03913140296936035,0.30532002449035645,0.04886516,0.20475566,86.41801156106519,0.16508495576665685,1.5246193788702314,10.416666666666666,1848,0.5926597118377686,0.6575488827586357,0.6008500644861121,109.96463141508178,12.5
120,1.5001142024993896,65.45721878979113,159.11655750349084,800.8851105388908,-19.750669347415712,8.333333333333334,0.726106355938638,0.1,0.03733468055725098,0.41544651985168457,0.050081704,0.14990261,84.32193228393778,0.2293928222096866,1.3183701829186303,8.333333333333334,1816,0.4619903564453125,0.6213985623300238,0.5460939465132777,104.3530750439099,18.75
121,1.3575968742370605,112.87829194490882,226.53107264323438,958.3704154345907,-24.63501224334168,15.625,0.6761073534021123,0.1,0.03320765495300293,0.419705867767334,0.049197793,0.23361616,87.1775682500349,0.2824845057683561,2.2665667153979467,15.625,1958,0.5423400402069092,0.5402065637147703,0.49253392272878993,100.19593060074517,12.5
122,1.4290885925292969,69.18892678480486,187.27081818986613,850.5145206135248,-20.26128021026144,10.416666666666666,0.6270686148120527,0.1,0.01371622085571289,0.390303373336792,0.049499914,0.15515126,85.3787041035119,0.2573960118780802,1.416498299133963,10.416666666666666,1885,0.5021321773529053,0.6255176322085452,0.5846316541342705,97.14385775823104,12.5
123,1.4292588233947754,97.3787212062985,202.83310239917614,791.6960993204943,-18.713040310429506,11.458333333333334,0.7573626433997497,0.1,0.027525901794433594,0.28850507736206055,0.049725585,0.14116661,86.57870581379055,0.3087245776657862,1.9574755378869628,11.458333333333334,1946,0.49587535858154297,0.5794829332416431,0.5257691327097469,104.77308732550883,12.5
124,1.5733139514923096,79.01267183828281,178.90720692456873,677.2950415035502,-20.143761483362937,11.458333333333334,0.743786363415591,0.1,0.016720056533813477,0.2573549747467041,0.049961183,0.14847454,85.82210241623977,0.2725231203547043,1.5893975507009637,11.458333333333334,1971,0.4641575813293457,0.5490174304674954,0.5233421275028605,107.8047600466162,18.75
125,1.2653577327728271,92.49073547343262,185.75751810173847,753.9123994165045,-21.231201181932477,10.416666666666666,0.7190094759623216,0.1,0.042812347412109375,0.33681225776672363,0.049543753,0.15651889,86.48896572195906,0.2636697213122216,1.8590279020375686,10.416666666666666,1978,0.561208963394165,0.47031072084140935,0.4530745306365009,98.28577292285885,6.25
126,1.4632680416107178,111.63869409447379,221.53945890774798,949.593697644752,-19.617965340486794,17.708333333333332,0.7940036450273886,0.1,0.03640627861022949,0.32392239570617676,0.04965598,0.134864,89.00393855921052,0.25407038159339385,2.242003145801635,17.708333333333332,2113,0.44392895698547363,0.4862629514133386,0.4669308084364416,112.34137370045715,18.75
127,1.8277208805084229,135.05836401759063,238.91902503706925,1002.1332236873591,-19.44398072709671,19.791666666666668,0.626922211639974,0.1,0.0434262752532959,0.3071556091308594,0.043010786,0.106104046,93.60938110504854,0.31502256286327407,2.710109364892576,19.791666666666668,2163,0.534360408782959,0.45136485169106577,0.4232842901133721,107.77995178355827,18.75
128,1.5527234077453613,120.81701506538256,227.44470284792575,939.1507881642364,-19.66734008610399,18.75,0.7084808329943643,0.1,0.009256362915039062,0.30098581314086914,0.049980763,0.15223332,96.33014450108195,0.19281908025596506,2.425012514832765,18.75,1937,0.538010835647583,0.39970519383480513,0.3871347215487706,102.3816502530132,18.75
129,1.4461147785186768,82.63774206490838,214.37389414399775,1060.7930669631705,-20.750044465614167,10.416666666666666,0.76834427135149,0.1,0.025114774703979492,0.3016211986541748,0.05042482,0.13866177,94.96090425746459,0.18767722938909626,1.6615693778226772,10.416666666666666,1935,0.5529801845550537,0.5714450779660171,0.5283235626113015,104.3089175841584,12.5
130,1.5747344493865967,92.92988560925095,212.5172598780935,999.7149527320017,-20.501684447804216,12.5,0.7922305274383109,0.1,0.021152496337890625,0.3492765426635742,0.04975311,0.13485457,94.75780239264323,0.2813664228490575,1.86721778203433,12.5,1967,0.5203354358673096,0.45315154233296756,0.43681076742240577,117.20548301048743,18.75
131,1.6170148849487305,104.41782226515524,207.63908129347737,867.6431743657569,-18.097560680018194,15.625,0.7504926717773384,0.1,0.030405044555664062,0.3081643581390381,0.050880507,0.14541462,95.72380437989443,0.3137358029129617,2.098063111090717,15.625,2125,0.5567116737365723,0.46923843685018973,0.45080074229768674,112.39062124676803,18.75
132,1.748666524887085,100.01514645871238,218.45959777445668,809.2477326897551,-19.1548389155925,13.541666666666666,0.6836854285521685,0.1,0.01699233055114746,0.257338285446167,0.049858414,0.2851464,96.15293858777623,0.35083587343339323,2.0090420277565095,13.541666666666666,2066,0.5289521217346191,0.5690408785988155,0.4759348844969608,112.49348078637875,18.75
133,1.7006454467773438,92.11949360977393,217.95179435890645,928.3781132591165,-19.556416686145557,13.541666666666666,0.7070001685077925,0.1,0.02680349349975586,0.31068873405456543,0.0495509,0.15585415,95.749594089976,0.23991548631319107,1.8515049797987917,13.541666666666666,2020,0.46889424324035645,0.548723481869579,0.49641816975892483,107.69643448761632,18.75
134,1.6663241386413574,94.81018473738118,212.45509558775348,1043.379982289824,-21.018047987283587,14.583333333333334,0.7884314441583863,0.1,0.03270840644836426,0.35723280906677246,0.049248736,0.14420393,95.65565315471652,0.2611087201751139,1.9052517397522333,14.583333333333334,2006,0.5463888645172119,0.5674299712714506,0.535277208481382,107.43773038234073,18.75
135,1.5940396785736084,110.28154699215612,222.7526763913467,960.4690884872632,-18.915700205547743,16.666666666666668,0.7166497992235868,0.1,0.0432283878326416,0.22097349166870117,0.051025473,0.15578865,97.11824253846049,0.2686354135630471,2.2146388495377676,16.666666666666668,2091,0.5712313652038574,0.4869548779792467,0.47262859715320993,108.45480539612032,18.75
136,1.4212682247161865,90.23493976371208,202.12257443954303,889.0922510517543,-23.652531537477657,12.5,0.7546403455177676,0.1,0.027289390563964844,0.26917004585266113,0.050490394,0.147206,96.42991226098566,0.2647542155494502,1.813505467353826,12.5,2070,0.5900938510894775,0.5676775048105128,0.5289010848149986,110.35778787926589,25.0
137,1.4297418594360352,93.01127163011206,211.51057572078102,757.1533826560993,-20.24783182753449,13.541666666666666,0.6732979614588385,0.1,0.01259922981262207,0.298447847366333,0.04871563,0.17620881,96.0880481978983,0.28160933367404123,1.8689855079696365,13.541666666666666,2096,0.4815082550048828,0.5916638856690367,0.5677238636864237,111.14570262915808,18.75
138,1.4657928943634033,116.22583653165206,255.13667709820785,989.3245344233458,-19.026359070936,14.583333333333334,0.7468517235060107,0.1,0.033935546875,0.2457880973815918,0.04979587,0.15499668,98.10182703127369,0.2153038275862871,2.3332116446473843,14.583333333333334,2097,0.507655143737793,0.5193078201663899,0.4683171579538634,112.4877563660402,18.75
139,1.4538919925689697,130.18388091405004,240.93787831198165,858.1266386013605,-275.4800132322977,20.833333333333332,0.764377377538193,0.1,0.010421037673950195,0.2885305881500244,0.050016474,0.13340637,101.31003241955132,0.17287093519554722,2.612793501867649,20.833333333333332,2098,0.5349256992340088,0.4404876837602969,0.41750767330126665,107.36834511494172,18.75
140,1.4025375843048096,94.80383919497763,202.06777992579362,1070.1612844643043,-20.231545493905173,13.541666666666666,0.7485939406036509,0.1,0.026494503021240234,0.33862900733947754,0.04991801,0.15474151,100.65941309709396,0.28367019650929126,1.9054641537801211,13.541666666666666,2056,0.4947986602783203,0.5165546020819111,0.48115380170883965,110.9588748007181,18.75
141,1.6045451164245605,167.1804932295545,297.2817241914459,1022.6389537567138,-19.132861170979552,20.833333333333332,0.5020519882738043,0.1,0.03812384605407715,0.38205862045288086,0.033586767,0.24596353,107.31152111034002,0.3343926062633646,3.352416891728416,20.833333333333332,2178,0.45238542556762695,0.4998220242068717,0.4516391624643102,111.03124434571376,18.75
142,1.4661102294921875,62.61418252180224,169.67729004234343,792.732004805848,-19.714952251337806,8.333333333333334,0.7394749965392122,0.1,0.017257213592529297,0.3332548141479492,0.04971252,0.15184486,102.84178725148624,0.1727397115734117,1.261557546196569,8.333333333333334,2174,0.5032088756561279,0.8701287129967841,0.5358663149669586,111.06822338585363,18.75
143,1.2142083644866943,102.04830834931374,206.2493261397529,748.0140016728684,-18.84681737667738,16.666666666666668,0.7537505717775543,0.1,0.10642194747924805,0.3231077194213867,0.049979318,0.15838003,102.76243936126899,0.22703793780894488,2.05045492874236,16.666666666666668,2018,0.5329084396362305,0.4959041232942556,0.3965393389306867,115.354558109722,18.75
144,1.6021697521209717,91.83220747274724,206.32438680882095,702.4901002011921,-19.604745963485616,13.541666666666666,0.6787198387520578,0.1,0.026273250579833984,0.26395559310913086,0.04978365,0.16957222,101.66941617241682,0.14528836576719129,1.8457994136880538,13.541666666666666,1932,0.44272518157958984,0.4772360813422238,0.4204095137294285,115.23279174608805,18.75
145,1.8633627891540527,187.38565073343693,284.467979981066,1018.0204870402894,-19.410579250490763,25.0,0.7490127116113451,0.1,0.016973495483398438,0.2863645553588867,0.04961036,0.1507553,110.24103962851883,0.3866301280435633,3.757073009537176,25.0,2212,0.5355684757232666,0.418349476075268,0.3816721745817053,107.94136295752924,18.75
146,1.6829583644866943,96.03102860838369,239.6677737967563,1010.5026722242746,-20.194219535176348,12.5,0.7024563969538443,0.1,0.02310013771057129,0.33622264862060547,0.04994885,0.16091639,108.82003852650533,0.13185433643661357,1.9298389535507205,12.5,1801,0.4296579360961914,0.4278993569249572,0.3938275603285018,107.73562149429446,18.75
147,1.7171831130981445,86.71745624835876,211.33587620284115,951.9863056915299,-19.758560363553087,12.5,0.6998360049537755,0.1,0.01314854621887207,0.2602243423461914,0.049865995,0.18120556,106.60978029869068,0.260553826726547,1.7431058326166298,12.5,1859,0.4518115520477295,0.4690083952795019,0.43486431932168923,107.94211316453882,18.75
148,1.7113969326019287,87.89917994520243,197.07287762068364,939.5717470381345,-21.59541620283954,11.458333333333334,0.7056805856662032,0.1,0.0307466983795166,0.35225391387939453,0.049653154,0.15805542,104.73872026334185,0.21446222094802103,1.7674415106927024,11.458333333333334,1915,0.49285054206848145,0.4499445148991358,0.43013300887989125,109.18669217615309,12.5
149,1.6738770008087158,150.94582311210692,261.7325407226469,1043.0055675457722,-20.080654276340034,20.833333333333332,0.5092526523216802,0.1,0.03325796127319336,0.32730555534362793,0.022815984,4.6048355,109.35943054821837,0.310517028650121,3.0281432627851923,20.833333333333332,2205,0.6062788963317871,0.48352689806987625,0.44988664498720915,111.89182556599647,18.75
150,1.743358850479126,135.20370559470248,257.9856289463019,949.393619797215,-18.85676482660396,19.791666666666668,0.6919886981802936,0.1,0.048853397369384766,0.298443078994751,0.050242126,0.16871797,111.94385805286679,0.2660396652742804,2.713136317948319,19.791666666666668,2076,0.5989980697631836,0.39726144437547045,0.37279555648485835,109.32381902035503,18.75
151,1.3480889797210693,75.60789612684033,702.848423459938,999.7531261529954,-6310.954133325472,21.875,0.3848818748778874,0.1,0.037160396575927734,0.30149030685424805,0.037637196,0.059024006,108.31026186026415,-5.568838873236132,1.5210859109480441,21.875,2039,0.46126627922058105,1.00803483057821,0.9578485793697388,109.25299546831019,18.75
152,1.5732710361480713,101.89795456997642,218.43118505737792,921.7956171355888,-18.877356468263674,14.583333333333334,0.7548813091381096,0.1,0.010605096817016602,0.3239755630493164,0.049301714,0.1465971,107.66903113123539,0.2359983943998347,2.0472857962831643,14.583333333333334,2004,0.4387669563293457,0.737000946118795,0.4341869561997055,109.2743426681631,18.75
153,1.5624990463256836,107.39577563158055,217.8939663716585,1056.5328292916465,-19.021706059756443,14.583333333333334,0.752265248242411,0.1,0.01974940299987793,0.43645668029785156,0.050248362,0.14163758,107.6417055812699,0.26799043480499257,2.1570822701045675,14.583333333333334,1977,0.5033633708953857,0.43638436348623916,0.4143951819956346,112.49576884047627,18.75
154,1.6299967765808105,127.92968537158201,226.62747322912185,886.1181442464995,-19.589357268668405,17.708333333333332,0.7588248687222156,0.1,0.010395526885986328,0.3318920135498047,0.05004481,0.13799627,109.67050356030111,0.2974790863443836,2.567825066053922,17.708333333333332,2068,0.5348339080810547,0.40682739844002525,0.3943605183165486,109.23251049161674,18.75
155,1.6101861000061035,98.10458203584312,255.59036033863458,903.4872647818337,-737.6190071552223,15.625,0.7182135571360344,0.1,0.010344982147216797,0.24239420890808105,0.04956509,0.13560855,108.51391140785532,-0.17988895243806358,1.9710406795761621,15.625,2049,0.4781150817871094,0.6198220431670113,0.5723859421233034,108.82072460645995,18.75
156,1.4553120136260986,135.3731854815099,256.846261532151,989.2764388908254,-19.075069001514485,17.708333333333332,0.7760227588358063,0.1,0.03526878356933594,0.4117095470428467,0.04921966,0.14772941,111.19983881522079,0.2950689902831865,2.716615922362281,17.708333333333332,2052,0.4575316905975342,0.4672277170731009,0.40187405844928825,112.0727042711716,18.75
157,1.4479308128356934,66.54276427194635,181.1303316422965,878.9288900204959,-19.67002144880927,8.333333333333334,0.6638439037058436,0.1,0.02024102210998535,0.28537440299987793,0.049147137,0.15734413,106.73413136089334,0.2362510922813562,1.3396863245022546,8.333333333333334,1915,0.44745874404907227,0.5801467560894605,0.4845541323247328,109.05053604214578,18.75
158,1.480381727218628,127.05302832021498,227.16114893860546,960.7670987860203,-19.403855579483917,16.666666666666668,0.7371228385770208,0.1,0.04958510398864746,0.32198071479797363,0.050149146,0.1869484,108.76602105682551,0.3248746970616554,2.5499999327250875,16.666666666666668,2144,0.4777512550354004,0.37365207806411915,0.31500376314309986,112.30384437894682,18.75
159,1.6520869731903076,127.32768540360688,256.8825488855817,949.9377103419243,-21.22338915334135,17.708333333333332,0.7606943439462646,0.1,0.02339339256286621,0.2893049716949463,0.05062552,0.13088888,110.62218749150364,0.259242225297864,2.5552815214407887,17.708333333333332,2084,0.46948885917663574,0.42862908885384016,0.41404915168555967,114.33702220306866,18.75
160,1.6303448677062988,136.84116529731932,248.24735929665226,1039.202726251885,-18.87738177123573,17.708333333333332,0.7774923756331266,0.1,0.03534197807312012,0.28057241439819336,0.050157614,0.13777643,113.24408527208521,0.2978252906401048,2.7464724505682234,17.708333333333332,1999,0.4255197048187256,0.38443126259127425,0.3642909470230843,111.14765054550992,18.75
161,1.7308266162872314,158.1399409098632,259.5857722780377,1110.4160834998802,-19.881618635434734,15.625,0.7744698841392935,0.1,0.060576438903808594,0.31519150733947754,0.050149977,0.14900613,117.73367083586302,0.3419214570685251,3.17205391463024,15.625,2129,0.6129844188690186,0.36145831032552733,0.32807178797993214,122.03578383853728,18.75
162,1.6519172191619873,103.21942802319143,215.7200246715071,880.1550269454167,-19.850615223419602,14.583333333333334,0.69301121926143,0.1,0.030541419982910156,0.30890631675720215,0.05042127,0.15008004,116.28224655459587,0.2548451361248224,2.0739676998732697,14.583333333333334,2074,0.5411396026611328,0.47795218638174747,0.35396318462138315,111.31565520874358,18.75
163,1.9011969566345215,133.35696206937743,264.0777654010797,1000.4288236013748,-19.917269194750993,15.625,0.7729863014458704,0.1,0.04261040687561035,0.2617216110229492,0.050483115,0.14714962,117.98971810607402,0.2704086820311446,2.675907669908979,15.625,2177,0.5512490272521973,0.4927854801619152,0.44491551929757284,122.24929417908702,18.75
164,1.7824690341949463,99.62285904386498,212.45071459076158,731.3050851648261,-17.69390342506461,15.625,0.750896373976179,0.1,0.026085853576660156,0.24411296844482422,0.05010667,0.13670045,116.15303219985313,0.21411684592864413,2.000554239378904,15.625,2013,0.4583284854888916,0.3963068854633941,0.37770728660247876,119.58117743882744,18.75
165,1.6922719478607178,187.9313811168813,332.5974955537142,1512.4208818843467,-19.334842306851616,26.041666666666668,0.7487761652582152,0.1,0.007743120193481445,0.43713903427124023,0.051122725,0.14414357,123.33086709155596,0.2624793212529905,3.7677918342977,26.041666666666668,2125,0.41599011421203613,0.41128148858569513,0.3312306364899127,122.98049951523035,18.75
166,1.733250617980957,203.81736111665805,325.79910442396056,1487.0385901263794,-19.47504137704967,26.041666666666668,0.7536397864852561,0.1,0.010258674621582031,0.35609936714172363,0.05051057,0.14671575,131.37951649406617,0.3294695729459013,4.084874255124958,26.041666666666668,2206,0.39364027976989746,0.4114910835094558,0.37235474664799956,126.82789379679966,18.75
167,1.6348307132720947,149.6923456559721,271.30216154312785,1039.1783025570483,-19.070287334820456,20.833333333333332,0.7737656981411722,0.1,0.016097545623779297,0.301865816116333,0.050562724,0.13890739,133.21079941025675,0.2965056934634694,3.002545184756688,20.833333333333332,2066,0.37584900856018066,0.3220611358385151,0.29347977459949837,126.66025400438326,18.75
168,1.6713225841522217,119.22178432408633,273.1350373786114,1171.8823425515325,-242.46543102238056,16.666666666666668,0.7565528606378705,0.1,0.04608631134033203,0.26129770278930664,0.051378876,0.15498425,131.81189790163972,0.1523376958758773,2.3937007087768003,16.666666666666668,2086,0.3810749053955078,0.5231349524072453,0.4860473485504549,123.61030397872253,18.75
169,1.752453327178955,123.98992882474526,256.5006342464809,1032.1112772840083,-17.745995162858325,17.708333333333332,0.4193974001636442,0.1,0.010225296020507812,0.29256749153137207,0.031883635,2.3982315,131.02970099395029,0.24095518039481892,2.4891997246709994,17.708333333333332,2103,0.4102804660797119,0.48188013501302457,0.4305577713541908,123.54148114890506,18.75
170,1.6602160930633545,144.41052173476098,276.8705440048699,1291.0794145856369,-27.250412126179334,18.75,0.6918795533673902,0.1,0.010415077209472656,0.36911630630493164,0.049803726,0.22532883,132.36778306803137,0.3411849433200976,2.8970468881237146,18.75,2264,0.40798091888427734,0.3659875447248242,0.3487174024094133,122.94277505914263,18.75
171,1.6374480724334717,121.72815653719057,228.8265059406543,879.7744392129914,-19.38773701779062,18.75,0.7559155644815231,0.1,0.06468367576599121,0.3013570308685303,0.049624268,0.14432827,131.3038204149473,0.3004827579394444,2.443764266551849,18.75,2251,0.4567296504974365,0.43721615313454787,0.3932982663109873,123.59336421044159,18.75
172,1.6372439861297607,125.87059198590926,275.0864457983005,1314.5817375097645,-545.301520445053,17.708333333333332,0.7567801284613934,0.1,0.026139020919799805,0.35851454734802246,0.050218556,0.13298155,130.7604975720435,-0.08641613626200602,2.5263407987267015,17.708333333333332,2204,0.5705087184906006,0.456449278313289,0.4218528176700902,132.382967503699,25.0
173,1.494981050491333,124.40060879573832,254.49474739551547,901.0690834295905,-19.177282432077362,15.625,0.7998433001417181,0.1,0.040320634841918945,0.27489304542541504,0.04986172,0.1416958,130.12450869441298,0.242003827074198,2.4971013064883283,15.625,2081,0.5173170566558838,0.38125720798339274,0.34251630286104284,128.55979232901075,18.75
174,1.7217738628387451,87.88442151957184,535.1113530084167,1069.0043575643697,-4491.648127979157,17.708333333333332,0.7193325841247991,0.1,0.013305902481079102,0.2914848327636719,0.050455537,0.07762662,125.90049997692887,-2.122304811002971,1.766206062214268,17.708333333333332,2251,0.5294272899627686,1.0370277496111793,0.9578988136756174,137.9147877170029,25.0
175,1.5201826095581055,179.08445173109672,289.6725885864152,1122.0725838505166,-19.13507583652673,22.916666666666668,0.7820678836693605,0.1,0.01055288314819336,0.2821047306060791,0.04932357,0.13856418,131.21889515234565,0.3471740030312683,3.5908411783365164,22.916666666666668,2310,0.4946928024291992,0.599078847021921,0.29691205783928987,134.8743608604814,25.0
176,1.3994300365447998,140.54187844746107,259.0861141096431,1010.662691924018,-19.051741180459608,17.708333333333332,0.761930018178213,0.1,0.010438680648803711,0.29222559928894043,0.049142987,0.13809939,132.1511934818572,0.3568695421664117,2.8194694150731494,17.708333333333332,2207,0.43602943420410156,0.3586252405278022,0.32784223874928015,131.76744505010203,25.0
177,1.6628968715667725,158.222595476122,280.0187770975857,1050.6405208535914,-19.299593468527284,21.875,0.7783532598071673,0.1,0.03394603729248047,0.23692083358764648,0.049184754,0.13771927,134.7583336812837,0.2842152294247057,3.173434355157608,21.875,2191,0.4701063632965088,0.353964209555513,0.3237484643294267,21.62280130705905,25.0
178,1.6133720874786377,163.89992640885956,270.3114550940105,979.9210189968194,-20.055034270316597,22.916666666666668,0.7797028635244367,0.1,0.010296344757080078,0.3259313106536865,0.049040113,0.13540621,137.67249295404127,0.31457155553954497,3.2873243873752416,22.916666666666668,2261,0.5381348133087158,0.36778149510873337,0.3448246779938836,128.80592436694403,18.75
179,1.6103572845458984,150.06573692301393,272.73387439403496,1049.5503328768027,-20.687078321325338,18.75,0.8362776764763085,0.1,0.019905805587768555,0.25204944610595703,0.04974754,0.12746836,138.91181735093855,0.36143351032163773,3.017105775502588,18.75,2284,0.5070383548736572,0.4188173796670993,0.3425492210965018,122.90448169445936,25.0
180,1.627077579498291,136.59334833935515,261.0715734779523,890.8239250592156,-212.1803780955773,19.791666666666668,0.7127380121135376,0.1,0.034773826599121094,0.3505828380584717,0.049911443,0.14693984,138.6799704497802,0.08243095228557999,2.7407329726984755,19.791666666666668,2057,0.5328805446624756,0.3598777436335643,0.29741175206465986,136.6373349934039,25.0
181,1.7047410011291504,143.64445958226665,279.46673885559443,1299.5847708885894,-74.17567290474602,16.666666666666668,0.6978522882916021,0.1,0.02637457847595215,0.2935175895690918,0.04984395,0.39862308,139.17641936302886,0.1575958411142642,2.8820078099956006,16.666666666666668,2257,0.4762687683105469,0.41137537235647104,0.38760630900694165,144.33799396169672,25.0
182,1.9638137817382812,183.77213770732706,290.5216330347199,989.9573562076057,-18.22150049283941,26.041666666666668,0.7839811315689346,0.1,0.03462409973144531,0.33704328536987305,0.050897986,0.1911394,143.63599119745868,0.3933729943052336,3.6846599102326443,26.041666666666668,2323,0.5145459175109863,0.3276251646288495,0.31359187457383314,161.44160448686904,25.0
183,1.9657752513885498,138.99799971766674,268.324488839857,971.636262705236,-20.975720364392235,18.75,0.6016228885142857,0.1,0.01622486114501953,0.259479284286499,0.048293445,5.354166,143.1721920494795,0.35108013158971246,2.7887901472487564,18.75,2185,0.44288015365600586,0.3395995122210588,0.29989090374927274,171.5506734312048,25.0
184,1.9323961734771729,157.22574714546857,316.663795192669,1434.3472182601438,-18.786726397401814,18.75,0.7671197892901435,0.1,0.036099910736083984,0.2658665180206299,0.049958423,0.15707101,144.5775475590784,0.2543806309894184,3.1532346955417245,18.75,2113,0.49759864807128906,0.3598998211894635,0.2877785463479547,161.88024144077843,25.0
185,1.7853002548217773,117.87586162348929,258.7096717263362,1061.2447289907775,-20.127416681171823,14.583333333333334,0.8112401022132913,0.1,0.036939144134521484,0.32439208030700684,0.05112045,0.1225936,141.90737896551948,0.23968656581868378,2.3665759672166353,14.583333333333334,2281,0.6692349910736084,0.4305433788732661,0.37409791903431333,162.49693405365082,25.0
186,1.6936044692993164,119.88181963298955,239.5315047680877,1049.6279859388615,-180.93807495547526,15.625,0.7841645784150582,0.1,0.029079437255859375,0.32541942596435547,0.050065294,0.13246416,139.7048230322665,0.20715805816289254,2.4067883298253423,15.625,2178,0.43938636779785156,0.4294596505552756,0.36579626454153136,172.35397159501395,25.0
187,1.7921013832092285,122.86148845817844,258.1355549881031,1061.345623788952,-18.909116810487813,19.791666666666668,0.7507236932968863,0.1,0.04665064811706543,0.33661365509033203,0.04960759,0.14900325,138.0204895748577,0.24409416127521374,2.4669998516750056,19.791666666666668,2037,0.5265555381774902,0.3788089369653425,0.3397869999931593,169.48941282992158,25.0
188,1.5866470336914062,145.67176489787258,286.7967859816435,1232.6174044165018,-17.840615197851932,20.833333333333332,0.8105819883157859,0.1,0.027007341384887695,0.3364877700805664,0.049736653,0.13741192,138.78561710715917,0.3044991333131457,2.9220428406791754,20.833333333333332,2235,0.46860313415527344,0.3046553922865331,0.2700317413981117,5.61631254211504,25.0
189,1.5020101070404053,132.9519646717641,294.5103097222824,1439.0444235912323,-18.242098802594956,17.708333333333332,0.7759621116394059,0.1,0.025695085525512695,0.24640178680419922,0.049373176,0.143574,138.20225186361967,0.26842069049151074,2.6680029610408247,17.708333333333332,2163,0.5496077537536621,0.38214001911747375,0.35186712292229344,159.3480109714442,25.0
190,1.6824281215667725,174.737849661318,302.07177161752855,1340.6366350176395,-18.98010302867239,20.833333333333332,0.7649882664834378,0.1,0.06150031089782715,0.3256504535675049,0.05079045,0.13633311,141.8558116433895,0.33375698170699647,3.5041037883368453,20.833333333333332,2234,0.5597710609436035,0.35009032316487254,0.3260051238154691,148.1154249393497,25.0
191,1.670250415802002,157.32896130339023,285.9067072634265,1374.626496557343,-18.511103909237,17.708333333333332,0.7347752497679464,0.1,0.021789073944091797,0.35048389434814453,0.04986481,0.14985676,143.40312660938957,0.30656487287105016,3.1561979500728117,17.708333333333332,2147,0.5706737041473389,0.37986457132831414,0.36837714736448135,160.18642307459913,25.0
192,1.5178618431091309,167.85726017665814,309.06027948010734,1160.4688841120822,-18.65528020438419,21.875,0.7364208840247248,0.1,0.02529001235961914,0.31165289878845215,0.04987036,0.14399211,145.84853996611642,0.24783997115630174,3.366182933953919,21.875,2062,0.5481069087982178,0.3228662856098649,0.26992494161928177,-744.4533245925483,25.0
193,1.6827433109283447,129.65260482307087,278.1118621746466,1181.144516008532,-224.83508997735922,15.625,0.7350857606585576,0.1,0.010741710662841797,0.24969935417175293,0.050941348,0.13590945,144.22894645181188,0.0811413280693687,2.602288253014477,15.625,2078,0.4453732967376709,0.30841850223359757,0.2901166725682194,180.66322661911806,25.0
194,1.593627691268921,175.58668225580732,321.3135795927058,1264.0994487343735,-17.934777009174375,20.833333333333332,0.7309247775434563,0.1,0.02371835708618164,0.3283729553222656,0.049574133,0.15473032,147.36472003221144,0.1459517973108652,3.5202489060126005,20.833333333333332,2153,0.46202921867370605,0.3733464061660373,0.33932415764418317,173.03008008283487,25.0
195,1.6141467094421387,133.78960804786203,231.66270180022724,1095.1926868151613,-19.164815247458975,19.791666666666668,0.7798299986518547,0.1,0.026845932006835938,0.2905869483947754,0.05041319,0.12945011,146.0072088337765,0.32474897573509004,2.6848280690800266,19.791666666666668,2261,0.5914468765258789,0.3669397626351031,0.2804051396323021,182.63622041366932,25.0
196,1.7580926418304443,211.29418344161328,315.7375592349614,1181.9928578800343,-17.38329036860066,29.166666666666668,0.7592844711324187,0.1,0.03524637222290039,0.3456573486328125,0.04998919,0.14510943,152.5359062945602,0.33844624385326477,4.234385355827375,29.166666666666668,2253,0.5432775020599365,0.28827056224059405,0.25051278971463947,195.2497796451348,25.0
197,1.6091630458831787,172.5168987854764,316.55122070860716,1172.6578485958137,-19.823448947738832,23.958333333333332,0.7233127600330325,0.1,0.010661840438842773,0.2739589214324951,0.04943427,0.73259765,154.5340055436518,0.3061676276073034,3.4597346113937246,23.958333333333332,2272,0.5865991115570068,0.31037596055370437,0.29425087396739535,219.57742312791714,25.0
198,1.7449936866760254,132.9154981692897,272.37693207801783,1354.638140662897,-18.94201411926094,17.708333333333332,0.7815818670308229,0.1,0.054205894470214844,0.27904367446899414,0.050795913,0.13722204,152.3721548062156,0.21189927750699836,2.667133725694279,17.708333333333332,2127,0.4706571102142334,0.37369520360226144,0.34694352843825876,206.12314956262102,25.0
199,1.613642930984497,229.17947044383166,333.6317736144867,1277.5719044779298,-17.989887068825446,30.208333333333332,0.7747670449415593,0.1,0.03127694129943848,0.28296756744384766,0.049484804,0.13706638,160.05288636997722,0.38744031910578763,4.592595487755253,30.208333333333332,2371,0.5472941398620605,0.2138659294293291,0.18530417140314134,213.2079275162869,25.0
200,1.7652010917663574,240.1293365369554,335.56493468809765,1262.3035711865232,-17.29332495107752,31.25,0.7783041128151639,0.1,0.023958206176757812,0.41407203674316406,0.049175307,0.12857436,168.06053138667505,0.4450946496294792,4.811092186259158,31.25,2435,0.5559296607971191,0.2625054597342546,0.24375900377227955,209.4641296107776,25.0
201,1.7355022430419922,190.24719779984267,351.7536689890004,1122.7798518385596,-1227.6354033311673,27.083333333333332,0.5784172506941929,0.1,0.010604143142700195,0.25347900390625,0.048395682,0.115392104,170.2791980279918,-0.1638570627974629,3.8136572216771323,27.083333333333332,2303,0.4728102684020996,0.5147824101776812,0.471590212202018,304.95261719910275,25.0
202,1.8495640754699707,69.84267369065837,799.6371475822535,1495.078504220632,-7146.808950481483,16.666666666666668,0.5238059596059255,0.1,0.022242069244384766,0.2552032470703125,0.049122863,0.069047086,160.23554559425847,-4.606163233737674,1.4050237697372188,16.666666666666668,2143,0.6090168952941895,0.9757788757917438,0.9236288700495398,298.1887839410382,25.0
203,1.597048282623291,167.24242258018035,310.6044511811919,1242.405722488478,-18.715791069240364,19.791666666666668,0.7694096868057888,0.1,0.024819135665893555,0.2607283592224121,0.050272565,0.16563667,160.93623329285066,0.24344025304030403,3.353903217089581,19.791666666666668,2117,0.5410137176513672,0.4897778963412172,0.2942800348799043,306.47223642041376,25.0
204,1.6263556480407715,144.60590971794613,296.0007912138032,1263.134508079472,-18.674443039563347,16.666666666666668,0.6975995702551236,0.1,0.024361371994018555,0.2817046642303467,0.04985308,0.15238252,159.3032009353602,0.2517395337843036,2.901554666862069,16.666666666666668,2165,0.4378960132598877,0.34200538384137125,0.32223002104960535,222.74919659720277,25.0
205,1.5961737632751465,151.00614633960782,267.7801623190205,1161.6496315667025,-32.78307670982377,21.875,0.7673880945828215,0.1,0.02089071273803711,0.31233668327331543,0.050350003,0.14322427,158.47349547578497,0.31034794838016405,3.02992249836808,21.875,2237,0.48355913162231445,0.3839458503852949,0.3220143324752916,223.34232484599642,25.0
206,1.6733567714691162,153.39377960379554,297.7925247815335,1304.2844212790087,-18.69410940838587,18.75,0.7494838114119811,0.1,0.030740022659301758,0.3939070701599121,0.050770696,0.2079103,157.96552388858603,0.35449533926152466,3.076970585217257,18.75,2312,0.48932313919067383,0.3782942330297359,0.34356160689484716,220.07646363367644,25.0
207,1.6956889629364014,200.863796702318,349.27889892668156,1484.9706066688568,-18.19700166098267,23.958333333333332,0.7785782111437256,0.1,0.010621786117553711,0.3162846565246582,0.050463416,0.14587183,162.25535116995923,0.31839359869340206,4.0265195379188485,23.958333333333332,2241,0.46270298957824707,0.25361826993070324,0.23240845318302078,219.04665509926483,25.0
208,1.4164400100708008,160.5083264204643,298.08666900630635,1255.6760106956403,-20.54774729636025,19.791666666666668,0.825620384478289,0.1,0.03823566436767578,0.26641416549682617,0.050602783,0.12456934,162.08064869500973,0.2960089400046149,3.2193160717200393,19.791666666666668,2272,0.5313897132873535,0.3720186242627957,0.329019319365543,313.8674685103926,25.0
209,1.55472731590271,173.33450322071926,274.17625960563134,1114.2728094441788,-22.125092229229374,22.916666666666668,0.7886004940656159,0.1,0.03867626190185547,0.2607600688934326,0.050079916,0.13441917,163.20603414758068,0.32803629005560014,3.475611865253138,22.916666666666668,2397,0.5667202472686768,0.36850963044226226,0.29906654072803196,297.24972673202876,25.0
210,1.6202075481414795,198.5259410567859,305.675183632436,1254.4895348789132,-24.834279362925436,26.041666666666668,0.7625530579929654,0.1,0.03198647499084473,0.2673606872558594,0.049596872,0.14029814,166.7380248385012,0.3109081785291208,3.979584890836179,26.041666666666668,2294,0.5805783271789551,0.2682382233279589,0.23067770253800984,289.8523907194111,25.0
211,1.6741430759429932,172.17807894965645,310.0030120055113,1273.704544649457,-19.88599989744492,20.833333333333332,0.7575797247192173,0.1,0.03021073341369629,0.2581770420074463,0.050032806,0.14444491,167.2820302496167,0.2900521787244789,3.4526268933575985,20.833333333333332,2273,0.5432748794555664,0.2876856518436492,0.2766457351963774,301.3367886084419,25.0
212,1.8656337261199951,209.68039323004544,338.8275911066543,1363.024768768901,-20.34166853826163,28.125,0.7865038512267657,0.1,0.027333974838256836,0.24031281471252441,0.049983155,0.13339558,171.52186654765958,0.31145332746110044,4.202809422943749,28.125,2312,0.5359053611755371,0.30192001982965955,0.29095258874085195,302.42311278150606,25.0
213,1.8707287311553955,205.6040029670281,330.0112218952876,1313.485939654113,-18.604274113020438,25.0,0.6182590446598065,0.1,0.02735304832458496,0.3994114398956299,0.0382039,0.10082434,174.93008018959642,0.2549510871255358,4.120896080103971,25.0,2422,0.5801823139190674,0.31678471784149087,0.30542063105162676,314.37369417444734,25.0
214,1.6431787014007568,185.79700509321233,309.0338498523634,1252.6766432163236,-18.408700222843557,22.916666666666668,0.782497364376565,0.1,0.016933202743530273,0.2962939739227295,0.050303075,0.13201898,176.01677267995802,0.38173174432088963,3.725032966379583,22.916666666666668,2263,0.4848160743713379,0.30622765674196,0.2891268024172476,220.52598024657894,25.0
215,1.7047474384307861,209.85973787295643,340.97205762639675,1413.5474336947254,-34.290859576298814,22.916666666666668,0.7997984694274201,0.1,0.03329300880432129,0.20439767837524414,0.050470483,0.15821566,179.40106919925788,0.33710361704103775,4.20597799697797,22.916666666666668,2300,0.555997371673584,0.24081987895631823,0.2197869850615275,178.3396135961795,25.0
216,1.73616623878479,217.62035770981058,352.6169798758495,1411.1721603016979,-19.73089516321896,26.041666666666668,0.7890266692976687,0.1,0.03554081916809082,0.31647300720214844,0.049589023,0.13613315,183.22299805031315,0.33982846805904016,4.361283806556734,26.041666666666668,2398,0.49819111824035645,0.308439184958768,0.28924840550017117,227.98983433587836,25.0
217,1.690999984741211,231.39201393145558,390.70262387214854,1566.4466095082673,-639.1846752655538,28.125,0.7526012378833885,0.1,0.029186487197875977,0.33275413513183594,0.049441595,0.115351796,188.03989963842739,-0.43424518107433524,4.6363031136320565,28.125,2378,0.5825331211090088,0.3719907386500521,0.34915591762937337,213.0167988634053,25.0
218,1.8289995193481445,188.28946927160925,325.2726805689758,1464.0917391733583,-19.711887145683647,22.916666666666668,0.7544133679528153,0.1,0.03985714912414551,0.3374297618865967,0.04964775,0.15131693,188.0648566017456,0.3689229845250668,3.7746124811548163,22.916666666666668,2340,0.5810627937316895,0.28181863381615474,0.25823132795247516,209.26127234646853,25.0
219,1.4944002628326416,176.34532318109652,306.9509333602543,1188.1831689694752,-18.994954090654307,25.0,0.7243423998882094,0.1,0.030055999755859375,0.29262638092041016,0.050005402,0.15294905,186.89290325968068,0.26309508501029216,3.5358764071380393,25.0,2226,0.538102388381958,0.24741678595624508,0.21218641597921004,225.02510132895733,25.0
220,1.7988674640655518,255.18590852118834,379.19105300443096,1435.6693997820764,-18.323440771924975,29.166666666666668,0.8178493330338878,0.1,0.03783583641052246,0.4116551876068115,0.045826524,0.16784692,193.72220378583143,0.42815554347958557,5.113518454663208,29.166666666666668,2622,0.6803820133209229,0.2946969479124628,0.2675273610151216,-48.70903148871377,25.0
221,1.6997003555297852,215.88943260403718,645.1044542214761,2117.806474450321,-4718.718917423663,32.291666666666664,0.7343494148525912,0.1,0.04742169380187988,0.28285670280456543,0.049119297,0.077108964,195.938926667652,-1.1943100215600781,4.326359732786805,32.291666666666664,2434,0.542881965637207,0.7990840659411689,0.7647159691905485,298.00001051515727,25.0
222,1.8597853183746338,229.12962621962652,365.5879020837213,1737.8450532680602,-17.654745427358606,25.0,0.8094374420819391,0.1,0.026233434677124023,0.33339476585388184,0.05007095,0.13287178,199.25799662284948,0.43214911458935945,4.591137143412902,25.0,2534,0.6652188301086426,0.36897743445569364,0.25355218812570435,316.11028963976304,25.0
223,1.517878532409668,202.86064364163295,343.4980257906332,1485.9311324501505,-18.503741880576527,25.0,0.8054215153408056,0.1,0.03225207328796387,0.33461809158325195,0.050111525,0.13940859,199.61826132472783,0.3545441775618834,4.066331231971848,25.0,2260,0.6040146350860596,0.306782598136823,0.27203981658418924,307.5167382463411,25.0
224,1.5489983558654785,182.40340281402914,319.1445953646178,1163.7836864594142,-21.430328206750495,25.0,0.7228506680864318,0.1,0.02026677131652832,0.26977062225341797,0.050576605,0.15939094,197.89677547365798,0.2493101753432566,3.657285944213296,25.0,2232,0.4254016876220703,0.3338445077155433,0.2824501414220864,299.1601921592434,25.0
225,1.6887884140014648,161.5379695227232,305.58431265856615,1595.5089704399281,-18.534001505369503,21.875,0.7311767481857089,0.1,0.010625839233398438,0.3381931781768799,0.04951498,0.18753688,194.26089487856453,0.33210452246950833,3.2394883706830613,21.875,2228,0.5185701847076416,0.3017326228453363,0.268628484403646,298.46228493726204,25.0
226,1.7106363773345947,153.99443534291163,339.80895820258365,1597.2539808016745,-307.6533027334722,19.791666666666668,0.6680361391689412,0.1,0.03715991973876953,0.3055691719055176,0.051102024,0.16983384,190.23424892499924,-0.09519490817833541,3.089070665828667,19.791666666666668,2195,0.5481979846954346,0.34864021885330915,0.3071967616493347,271.7410915698851,25.0
227,1.9151396751403809,227.23362332087618,361.757796750719,1678.9879148127632,-20.132128095936984,29.166666666666668,0.8041019598823826,0.1,0.029731035232543945,0.3509218692779541,0.050111976,0.14898992,193.93418636458694,0.3572698582972184,4.553420974776949,29.166666666666668,2564,0.6038212776184082,0.2805169627792779,0.24767954009166682,292.46699923941287,25.0
228,1.8393850326538086,156.40115110777356,322.81959203673784,1344.86615802363,-20.64525001938256,20.833333333333332,0.7603503835159774,0.1,0.03249764442443848,0.28461623191833496,0.049684424,0.1548669,190.1808828389056,0.28811717628260713,3.136031416622521,20.833333333333332,2422,0.5162858963012695,0.278690362957725,0.25086082386418895,291.56459917884746,25.0
229,1.6527366638183594,160.53682144194764,282.7948574008372,943.0596425715693,-24.1710899837271,19.791666666666668,0.757392260894875,0.1,0.010565996170043945,0.26148533821105957,0.050934892,0.13648622,187.2164766992098,0.2889725343173189,3.219743139798442,19.791666666666668,2255,0.5419628620147705,0.26901337060635294,0.23495023064729506,265.59078661396353,25.0
230,1.9655754566192627,253.05408834327264,398.5374094038792,1706.0606488867345,-19.20575546054507,29.166666666666668,0.8217593696020666,0.1,0.010765314102172852,0.31191539764404297,0.050034042,0.13083014,193.8002378636161,0.3305430834886942,5.070093814310287,29.166666666666668,2458,0.4824545383453369,0.3110242344697811,0.25859583930543306,232.01361547848063,25.0
231,1.859745740890503,261.7673170469404,396.28001513367644,1566.8955855772208,-18.84961178675151,30.208333333333332,0.8609530800788184,0.1,0.02447652816772461,0.29384565353393555,0.049609143,0.1266008,200.59694578194853,0.3732071961731636,5.244149375740271,30.208333333333332,2433,0.4633779525756836,0.2536274087293622,0.24318192373832923,175.6249673532388,25.0
232,1.6223013401031494,200.75416994079174,347.77451566340585,1288.7151434638135,-325.83312353747436,25.0,0.7701997147105868,0.1,0.03027486801147461,0.3262825012207031,0.04866555,0.12665386,200.61266819783287,-0.09199028168158406,4.024403161337137,25.0,2306,0.506096363067627,0.22752377608053143,0.2124881012013268,170.00600968064563,25.0
233,1.7760615348815918,96.66410293901633,1269.7481818902904,1283.9310336545004,-11860.337002598115,29.166666666666668,0.7653772763564944,0.1,0.010751724243164062,0.33058738708496094,0.049039688,0.0705454,190.21781167195124,-7.9386109914801715,1.942243733922594,29.166666666666668,2383,0.552077054977417,0.9778405121059155,0.9383524463267374,177.90669173392217,25.0
234,1.5232229232788086,219.62415492958328,398.8430744648236,2188.2522723637617,-18.50556549158756,23.958333333333332,0.7531537766583453,0.1,0.027116060256958008,0.3399698734283447,0.049328018,0.1469467,193.15844599771447,0.3524635093108655,4.401707342941141,23.958333333333332,2331,0.5611839294433594,0.47185895476117684,0.3347617197210182,207.8465201309523,25.0
235,1.7355589866638184,226.77124896374016,353.222520818082,1667.1248622528235,-20.12861555649407,25.0,0.8164414954716195,0.1,0.04195284843444824,0.2605164051055908,0.050120477,0.12324243,196.51972629431702,0.42120144166341067,4.543854524779687,25.0,2498,0.48304080963134766,0.33941738123564386,0.3166391788092107,166.96124646434018,25.0
236,1.647963285446167,192.47425746688316,345.5635647951751,1595.1040910197883,-18.02619712419999,21.875,0.7595894649673788,0.1,0.06055712699890137,0.3291585445404053,0.05052455,0.14095621,196.11517941157365,0.2989299375754197,3.8586417817040366,21.875,2431,0.5721323490142822,0.32426731743270276,0.2940295815441162,196.15779077893376,25.0
237,1.6472017765045166,216.71703634795688,400.6370900440113,1640.1816012549612,-711.8390641682892,23.958333333333332,0.7604909264826268,0.1,0.036772727966308594,0.3409304618835449,0.04945417,0.15297468,198.175365105212,0.0806528883921942,4.34312311888845,23.958333333333332,2435,0.5151243209838867,0.41479258169928623,0.3987744876993235,184.38912090926473,25.0
238,1.6213099956512451,187.6483101600346,368.743687489082,1566.9767560448695,-19.812564662765837,20.833333333333332,0.8021992440728697,0.1,0.027853965759277344,0.3778235912322998,0.049919147,0.129732,197.12265961069426,0.37647942980571497,3.7620173054234853,20.833333333333332,2538,0.47881197929382324,0.27476719442927344,0.25065706334874666,190.87653147312503,25.0
239,1.6761417388916016,105.22345570525533,232.47472462339138,1232.4895430445695,-19.24699785305068,14.583333333333334,0.7097959404278046,0.1,0.010162353515625,0.2986278533935547,0.050264385,0.15993167,187.93273922015038,0.188339775103283,2.1136102465057243,14.583333333333334,2257,0.4683825969696045,0.39294670467219395,0.3415622682526216,173.89855926161525,25.0
240,1.6006171703338623,202.73989234437258,344.0960184747824,1447.7028046717342,-18.944405618631944,19.791666666666668,0.7904110986625725,0.1,0.034842491149902344,0.2671387195587158,0.05034637,0.13877165,189.41345453257262,0.27007578890909006,4.063902162852,19.791666666666668,2384,0.5344851016998291,0.22592069862052577,0.19897943378184163,151.8936831908369,25.0
241,1.574507474899292,265.97820490541056,446.0335898931489,2033.516031300512,-18.13614269241962,27.083333333333332,0.8429447781220258,0.1,0.02357935905456543,0.30261802673339844,0.04979967,0.12638254,197.0699295698564,0.39282241430885684,5.328285980104726,27.083333333333332,2593,0.5481791496276855,0.3195157367212073,0.3004891908622272,143.752059634654,25.0
242,1.8159520626068115,165.15136677085218,372.65376201831003,1898.6831837525874,-19.266609430644337,17.708333333333332,0.7706945321230616,0.1,0.026195287704467773,0.38578176498413086,0.050115,0.14152525,193.878073289956,0.24907359471702062,3.317185881066827,17.708333333333332,2270,0.5008544921875,0.3688084396814097,0.3240614005330627,150.86666552623186,25.0
243,1.5985548496246338,280.54674156980064,414.49575739961324,1713.1066598915486,-21.025372662589184,32.291666666666664,0.855595538111269,0.1,0.011909246444702148,0.3109438419342041,0.050054636,0.12886275,202.54494011794048,0.3301551030977835,5.620332409370374,32.291666666666664,2582,0.6447057723999023,0.22773773983543383,0.20006839254533593,180.95469661009327,25.0
244,1.8032758235931396,186.36904179318358,358.3921251122939,1379.8918636666567,-18.29237971447585,19.791666666666668,0.7692367384463326,0.1,0.010699987411499023,0.29759907722473145,0.050109852,0.14248575,200.9273502854648,0.27927291343501154,3.736464916667064,19.791666666666668,2480,0.46644067764282227,0.3103268096926634,0.2861328804885049,177.82906263604764,25.0
245,1.8182997703552246,254.80083208066546,447.22948983590123,2494.8721408500182,-18.35355445842767,27.083333333333332,0.8735715683900467,0.1,0.03167295455932617,0.3476109504699707,0.05022148,0.12479786,206.31469846498487,0.34845871955438995,5.104755803464328,27.083333333333332,2525,0.5714428424835205,0.31069220791967156,0.2841200937688798,171.58823111439352,25.0
246,1.9677011966705322,185.6008390346318,339.6990542524462,1473.9317414116051,-17.938304083834808,18.75,0.7931662681051919,0.1,0.013552665710449219,0.34212493896484375,0.050311364,0.12957078,204.24331252194958,0.31198913837540304,3.720368575539006,18.75,2447,0.5024337768554688,0.3018340960892611,0.25244858334310766,166.96478975909457,25.0
247,1.922844409942627,224.51145515136363,405.6785041059276,1579.7609824701933,-18.860540699170276,23.958333333333332,0.757984789845024,0.1,0.038942575454711914,0.2810494899749756,0.05013189,0.14637063,206.270126784891,0.251918595447085,4.499421667420468,23.958333333333332,2327,0.5190310478210449,0.26829704298861473,0.23387139000336937,144.95329113251972,25.0
248,1.9434032440185547,218.28923010912004,383.6739296471455,1365.0200786160576,-17.882284268873903,21.875,0.8263077300665198,0.1,0.013702154159545898,0.31658053398132324,0.049391784,0.12022547,207.4720371173139,0.33042627822934884,4.374292060057523,21.875,2441,0.5205750465393066,0.2752306443531228,0.25010295993977844,143.2836190945135,25.0
249,1.7928729057312012,215.69912256829357,383.4409909632406,1403.7384100483944,-18.45758675384319,22.916666666666668,0.8011124693810062,0.1,0.021083831787109375,0.36086416244506836,0.05055657,0.13569522,208.29474566241188,0.30371763718309425,4.322753358704208,22.916666666666668,2412,0.5638411045074463,0.29558249208304427,0.2909630192036321,152.8198897628736,25.0
250,1.6167891025543213,190.85881029483917,394.22816243636316,1777.6839614821326,-18.99185875868786,18.75,0.8001470589720707,0.1,0.04138994216918945,0.3558025360107422,0.05016417,0.1321441,206.55115212565462,0.2790102571530788,3.8263053153992317,18.75,2319,0.5130460262298584,0.33141398574348724,0.31348183033793914,157.63891578775434,25.0
251,2.0143606662750244,362.74817940464345,531.3840304326574,2384.337546431902,-24.829538234766957,36.458333333333336,0.8725058860470732,0.1,0.032294273376464844,0.34902358055114746,0.04948175,0.13099255,222.17085485355352,0.4271947534366634,7.261210383551815,36.458333333333336,2858,0.595604419708252,0.3328222711665219,0.2907385191757778,145.98757467238556,25.0
252,1.8636679649353027,301.54678750158547,481.1326091189253,1717.984443159081,-18.773766864490845,26.041666666666668,0.9055826545260155,0.1,0.010373830795288086,0.2358236312866211,0.050183985,0.10667399,230.10844811835673,0.3500470909333218,6.039875238037503,26.041666666666668,2529,0.528972864151001,0.24781884439629454,0.2229116324671937,149.14427544457646,25.0
253,1.5122766494750977,257.52983254991153,442.5836729405512,2387.8965162962604,-18.68125145283078,25.0,0.8061017439819149,0.1,0.013227701187133789,0.34178662300109863,0.04973498,0.1377281,232.85058656151222,0.2911984923195076,5.156873366746896,25.0,2557,0.519913911819458,0.3126741669759399,0.29333499212526826,146.64988869127626,25.0
254,1.7214040756225586,218.0620157371586,372.2209610247105,1585.4819089140815,-17.91778210392176,26.041666666666668,0.6854471772809613,0.1,0.030167579650878906,0.23933982849121094,0.04828584,0.17481592,231.37172947907686,0.3569212437824954,4.370610081897535,26.041666666666668,2595,0.46886515617370605,0.32276472336676115,0.24835714117255642,145.0431673120551,25.0
255,1.7543256282806396,199.82679800148233,386.2663221761813,1850.6141296069018,-444.23739072058095,22.916666666666668,0.7260740133431461,0.1,0.028576374053955078,0.3886890411376953,0.050257035,0.92194,228.2172363313174,0.1686413853414255,4.00492858076009,22.916666666666668,2440,0.5043761730194092,0.2858557234013481,0.2534519886758143,148.61275465159184,25.0
256,1.8024535179138184,315.6940572085037,468.34982986605365,2079.701960881874,-19.53862561681732,35.416666666666664,0.9121810099142981,0.1,0.030095338821411133,0.26825451850891113,0.04942479,0.1179015,236.96491841903602,0.39017949229930227,6.322640109247591,35.416666666666664,2660,0.6145651340484619,0.3051571756094505,0.2629927344024795,149.13098427596236,25.0
257,1.9654088020324707,212.89253955742137,422.6099741771454,2470.442611026894,-35.00204412837774,22.916666666666668,0.8222865718172897,0.1,0.03025197982788086,0.22427630424499512,0.05058723,0.13917243,234.55768053287457,0.32816169556333913,4.267305507198291,22.916666666666668,2586,0.6251161098480225,0.3242511872365304,0.3005204555392767,152.73189282014414,25.0
258,1.792689323425293,147.57990912198804,322.18799531262,1426.5669527127498,-17.73008695229342,13.541666666666666,0.7883931782884536,0.1,0.026456832885742188,0.2630889415740967,0.049596086,0.12609904,225.85990339178593,0.2630948312826973,2.9604821992441326,13.541666666666666,2388,0.46657228469848633,0.39843813036819237,0.2370045144078342,152.64704852885805,25.0
259,1.6292426586151123,200.96702915120565,373.0022722941215,1848.042810398356,-25.104555895982394,22.916666666666668,0.7545955226624113,0.1,0.030204296112060547,0.325869083404541,0.049298298,0.29794657,223.37061596772793,0.2822186998722019,4.027538100555922,22.916666666666668,2593,0.5551271438598633,0.34870653154169146,0.30352514180041695,158.24121268739674,25.0
260,1.85603928565979,191.88930850834353,414.85781346396493,1524.885314663359,-1647.9370067973155,22.916666666666668,0.7237881974144463,0.1,0.03861737251281738,0.38608551025390625,0.049989805,0.0944626,220.2224852217895,0.38561265404662987,4.271981572228355,22.916666666666668,2592,0.5487790107727051,0.4944633459979548,0.46888190551545506,154.10744300937827,25.0
261,1.7261207103729248,174.61688867067718,467.96080223043174,1529.8746420541959,-3002.071972336652,22.916666666666668,0.5623187252835925,0.1,0.03136134147644043,0.3714416027069092,0.050250635,0.07719185,215.66192556667826,-0.5886868753830661,3.5005265320727297,22.916666666666668,2616,0.49956750869750977,0.756420768258827,0.7034650782645132,164.34503778077024,25.0
262,1.6895196437835693,286.5779703900355,407.73950638003635,1708.1170199783403,-18.31714826520365,30.208333333333332,0.880455455351344,0.1,0.010831832885742188,0.3401014804840088,0.049929798,0.12233678,222.753530049014,0.452855044469342,5.768707018126366,30.208333333333332,2802,0.6205227375030518,0.2811017977254307,0.2480845806365727,161.39366492211292,25.0
263,1.6490898132324219,218.50193778520887,417.1837468988376,2269.5314327811407,-17.967228303232666,23.958333333333332,0.8378662014533793,0.1,0.027225255966186523,0.27573633193969727,0.04919246,0.13283914,222.32837082263347,0.3391484430451161,4.37887968851535,23.958333333333332,2544,0.49111461639404297,0.38260193798728975,0.36160831644941066,165.57648159281666,25.0
264,1.9151642322540283,275.8036017660978,421.40825444265505,1849.2037395258053,-18.78960189906799,30.208333333333332,0.8490386589522518,0.1,0.07157421112060547,0.2416234016418457,0.049946703,0.12149868,227.67589391697993,0.3987035858282355,5.524878542620001,30.208333333333332,2752,0.504436731338501,0.2258913215259184,0.18479288541075703,155.1668541535343,25.0
265,1.6672332286834717,229.2166301331214,319.90158754764747,1209.4580839558762,-18.106944575331163,32.291666666666664,0.8269049859419134,0.1,0.010291576385498047,0.26100993156433105,0.050288588,0.12317752,227.82996753859408,0.3386754230054607,4.5935196027475556,32.291666666666664,2516,0.525364875793457,0.23514712966190277,0.19009799406375744,163.29918443448426,25.0
266,1.745391607284546,233.83774952841463,356.04059109482563,1426.3937693789562,-20.520598972696,27.083333333333332,0.8120531833651383,0.1,0.03820681571960449,0.27333593368530273,0.050031133,0.12415963,228.43074573757613,0.3179212219114608,4.683445418603241,27.083333333333332,2510,0.5279726982116699,0.2548915945711516,0.23435975363972994,163.0029769835446,25.0
267,1.8511624336242676,310.7524292492645,411.8783083230232,1676.9724873079408,-18.865137922580093,35.416666666666664,0.8853634875177795,0.1,0.023993730545043945,0.3272676467895508,0.050277803,0.12210459,236.66291408874497,0.4329533806685202,6.222795829999014,35.416666666666664,2929,0.5561659336090088,0.3181257833825609,0.2823199885086485,162.19097801921964,25.0
268,1.9392426013946533,198.07457724715843,365.56697215391483,1786.577208330748,-19.397639745565893,17.708333333333332,0.892107471247502,0.1,0.026583433151245117,0.2452716827392578,0.05038131,0.1216288,232.80408040458633,0.1847833501456468,3.970523724126057,17.708333333333332,2622,0.6731436252593994,0.32346940847742883,0.3037710200929232,160.50908567372412,25.0
269,1.9377715587615967,213.26437380333763,375.22242756425385,1678.9788949265942,-18.14352090554918,23.958333333333332,0.7754248114451838,0.1,0.042264461517333984,0.2681081295013428,0.0505703,0.15899606,230.85010974446146,0.3416379836216727,4.274113983380648,23.958333333333332,2663,0.49278855323791504,0.27772029448909114,0.25604941511855356,168.67610022458933,25.0
270,1.8650412559509277,276.86100949642827,395.7472315894153,1423.6652374681016,-18.147726093124334,29.166666666666668,0.7957338700461775,0.1,0.03529548645019531,0.34114551544189453,0.049439475,0.22780064,235.45119971965815,0.34374496068986354,5.546734278490785,29.166666666666668,2824,0.63248610496521,0.2859273483491226,0.26699488263233434,152.88018694646013,25.0
271,1.9243202209472656,205.50464308821475,339.5398314842182,1455.9059418246336,-20.62286466169278,21.875,0.8322769325798655,0.1,0.03749871253967285,0.34723925590515137,0.049738146,0.11804271,232.4565440565138,0.3531898200933592,4.119107345866886,21.875,2661,0.47432637214660645,0.33384258847899406,0.2893548159397274,166.77671944880925,25.0
272,2.0525128841400146,254.58453217612228,433.6970963643393,1518.5628248395576,-1235.1981141531646,32.291666666666664,0.7064936002228445,0.1,0.04461383819580078,0.31133008003234863,0.049722217,0.10833507,234.66934286847464,0.05382931860079195,5.100674493992124,32.291666666666664,2737,0.48908281326293945,0.33483453902707516,0.2919509986549197,163.52978624084332,25.0
273,1.64479398727417,172.11515084813163,364.99424450706766,1646.644172127405,-838.0216359135667,18.75,0.8099177546279418,0.1,0.014254093170166016,0.30677223205566406,0.050089944,0.117549166,228.41392366644035,-0.09835764861843917,3.4508394216219034,18.75,2619,0.5076122283935547,0.3547966699315724,0.29194971729346314,168.53704167018546,25.0
274,1.8290598392486572,246.29897367313166,405.8620172686221,1627.966295384284,-19.417143039801935,27.083333333333332,0.8686195771202316,0.1,0.028746366500854492,0.3127751350402832,0.05009163,0.12302386,230.20242866710947,0.29423460821301434,4.934485031502791,27.083333333333332,2612,0.5624063014984131,0.23515867073311783,0.21230761124335626,159.7331355356151,25.0
275,1.8484454154968262,280.38794336466503,449.98313030203593,1980.1248643108552,-18.859812179972607,27.083333333333332,0.8463450329267774,0.1,0.027059316635131836,0.2674093246459961,0.050082684,0.12255223,235.22098013686505,0.32797520570299804,5.6164894719924945,27.083333333333332,2559,0.4647955894470215,0.23456478344374285,0.2171161211870542,145.09870148378565,18.75
276,1.773303747177124,234.99864741189126,401.9906345301777,1750.538019910402,-20.476673133258252,28.125,0.7731949893550624,0.1,0.026683330535888672,0.19927740097045898,0.05002278,0.14855379,235.19874686436768,0.28013257721252977,4.708461865455741,28.125,2444,0.4286623001098633,0.21697040107184296,0.20330096273648066,149.60528171019757,25.0
277,1.7885971069335938,260.37572258267636,415.78446185937287,1777.0747817786728,-19.65031928554145,30.208333333333332,0.8005059269121594,0.1,0.03003978729248047,0.31272125244140625,0.050194867,0.14518514,237.71644443619854,0.3790421397584205,5.215936486597429,30.208333333333332,2603,0.49934911727905273,0.27375839993996565,0.25863620800751586,151.7303174764421,25.0
278,1.8597075939178467,240.42059070144728,386.0829559713045,1627.8426467827128,-18.946309110415655,25.0,0.8303017047444496,0.1,0.010827779769897461,0.2762947082519531,0.049596176,0.14874348,237.9868590627234,0.32574844981300916,4.817336904977869,25.0,2747,0.5382747650146484,0.2561675879236612,0.24119685964128423,153.60363708517076,25.0
279,1.7028558254241943,293.8818102622284,498.7300068040189,2122.0397673939297,-18.32038193139456,27.083333333333332,0.8507903020155062,0.1,0.010739326477050781,0.25745439529418945,0.050017785,0.12838545,243.5763541826739,0.39171414710641383,5.886637068495056,27.083333333333332,2668,0.49167609214782715,0.2256542480135547,0.17936000320054465,156.8172327628636,25.0
280,1.826112985610962,245.1003493491847,376.95051562495024,1496.5785954294504,-18.894775645567172,30.208333333333332,0.8163345113448204,0.1,0.0675954818725586,0.31403493881225586,0.050261647,0.12179123,243.72875369932498,0.386378343165583,4.91089045323386,30.208333333333332,2613,0.5269882678985596,0.3454035558668996,0.27420537787248617,152.1544694698982,25.0
281,1.8937358856201172,244.74860935189363,360.90150551592745,1282.2510949986006,-20.372263625887197,28.125,0.8147805572321604,0.1,0.011323690414428711,0.30704689025878906,0.050248776,0.121497706,243.83073926458184,0.3438593320321895,4.904395714105814,28.125,2529,0.4296708106994629,0.21546278881999914,0.19670375866273995,160.3792707416909,25.0
282,1.9762043952941895,204.59968893548148,313.90165777669716,1194.4866073624444,-20.6186527565843,26.041666666666668,0.8617374021045089,0.1,0.02486395835876465,0.279874324798584,0.05040168,0.12486899,239.9076342316718,0.2899981212097629,4.098974411640082,26.041666666666668,2595,0.45102787017822266,0.2938798213470019,0.2535565067630718,159.60932348319733,25.0
283,1.641533374786377,218.34176517932215,374.30025717428254,1676.873546440828,-233.58190821291475,21.875,0.8675969507887764,0.1,0.011406660079956055,0.34835052490234375,0.049914315,0.120921545,237.75104732643683,0.17780129929159674,4.373901334971406,21.875,2708,0.5243067741394043,0.3379335438243278,0.31570225154315834,182.22964435317448,25.0
284,1.9237093925476074,278.28339550611014,425.5215605013877,1547.220511801826,-18.54737202651136,27.083333333333332,0.8861203713637661,0.1,0.010723352432250977,0.265303373336792,0.05014792,0.12775464,241.80428214440417,0.3788543177072999,5.574481856171911,27.083333333333332,2795,0.5476300716400146,0.18758922284592608,0.1649362214915234,136.41949148222764,25.0
285,2.141150951385498,389.4359324991592,494.3396110287141,2028.9159685896561,-20.563895983227987,37.5,0.9116210299032,0.1,0.006560802459716797,0.3997230529785156,0.0498507,0.11653145,256.56744717987965,0.4820015547779873,7.7972874039137166,37.5,2980,0.5186331272125244,0.30128867679847116,0.2706668903854029,170.28865002293327,25.0
286,1.8601586818695068,271.56108237532845,390.44798621889,1478.1351641110468,-19.89325747474716,33.333333333333336,0.8743834462113689,0.1,0.03824138641357422,0.2993605136871338,0.047740124,0.116097555,258.06681069942454,0.411374603078489,5.439876066197403,33.333333333333336,2817,0.5478532314300537,0.2893997557223876,0.2678178871696649,99.27284285146786,25.0
287,1.992295503616333,273.6044378575554,450.96019498709234,1983.1725826132035,-21.664647480806124,32.291666666666664,0.8833636642432946,0.1,0.010603189468383789,0.3940410614013672,0.050823316,0.12215134,259.62057341523763,0.344641371326375,5.481005840032196,32.291666666666664,2705,0.5839822292327881,0.2508085573183946,0.21093276430670485,158.1953743783182,18.75
288,1.8179304599761963,201.37585977432354,340.75523770806745,2058.366754523261,-19.87166058194844,23.958333333333332,0.8562399689567027,0.1,0.05701589584350586,0.23595333099365234,0.049764384,0.12695795,253.79610205114625,0.3759776422165136,4.036353086409076,23.958333333333332,2665,0.5646514892578125,0.3290513120118124,0.2973615717326274,152.62984279268372,18.75
289,1.8439998626708984,344.8147764738865,484.8926213442593,2290.9079746170796,-78.50645010941378,33.333333333333336,0.9264237609997967,0.1,0.023613929748535156,0.2233443260192871,0.050747454,0.11272419,262.89796949342025,0.45683568555514925,6.891659451214973,33.333333333333336,2901,0.5563175678253174,0.23403993576764645,0.2102050005042395,167.0357517779879,25.0
290,1.639507532119751,209.29430816962986,341.21868962192065,1474.7035555561351,-21.0609460608779,25.0,0.7977525785516555,0.1,0.01696038246154785,0.3222353458404541,0.050565686,0.12506466,257.5376033610412,0.2797346168125188,4.194678607602438,25.0,2602,0.4637796878814697,0.2951463969764244,0.25696947577022167,160.5640867367436,18.75
291,1.8504111766815186,315.30704585830694,446.52018664716115,1699.8586116507552,-18.234231722731096,32.291666666666664,0.8884049695490975,0.1,0.04830360412597656,0.3790137767791748,0.04975007,0.11474632,263.31454761076776,0.41046572321025493,6.315424472294378,32.291666666666664,2832,0.6513242721557617,0.2074817846676954,0.19062376046477444,169.75059312314715,25.0
292,1.9334824085235596,303.74913216757835,430.7368419972062,1403.94639363028,-18.94968114715632,32.291666666666664,0.879683615224723,0.1,0.0417170524597168,0.3760719299316406,0.049616046,0.11476806,267.3580060664488,0.43353907340926634,6.084018048124448,32.291666666666664,2922,0.5584182739257812,0.22905622939065406,0.20827152683087424,161.072734798471,18.75
293,1.825016736984253,294.13326614496077,419.82934336378526,1535.3466935240663,-19.179538264634573,33.333333333333336,0.8373980256581046,0.1,0.031026124954223633,0.36681222915649414,0.05002985,0.124578066,270.0355320743,0.4339718190725336,5.891233833750487,33.333333333333336,2800,0.4851682186126709,0.23387651834018827,0.211651588635569,170.46857432321295,25.0
294,2.1866214275360107,263.6131958069218,419.38762029129236,1930.5985946357416,-20.24752778088054,29.166666666666668,0.8536490176838584,0.1,0.0268404483795166,0.33751583099365234,0.050817512,0.12278848,269.3932984475622,0.37394237275619524,5.2814536814771005,29.166666666666668,2858,0.689971923828125,0.2477339363286555,0.21759873876125,195.29793314680288,25.0
295,2.114842653274536,347.05324965442924,479.55373989467944,2299.720725762423,-19.521242666211656,38.541666666666664,0.8647337654308161,0.1,0.03691530227661133,0.3405756950378418,0.05015834,0.124142915,277.1592935682489,0.452119513411946,6.949687831274552,38.541666666666664,2927,0.5775017738342285,0.2833654190087218,0.2436862286151468,195.68524280690977,25.0
296,1.9024412631988525,215.16371843426103,374.7559010908946,2123.7814437467105,-18.728324571594957,22.916666666666668,0.8479400825790337,0.1,0.04549837112426758,0.27417469024658203,0.05019893,0.120305195,270.95973605485017,0.31238534304597965,4.311174480893738,22.916666666666668,2757,0.5430262088775635,0.3163709467178102,0.28452051289062347,189.9671125086882,25.0
297,2.3057057857513428,303.818522340885,396.985633644391,1422.9882692946983,-127.07239062565621,34.375,0.7862254639357107,0.1,0.010909318923950195,0.3046226501464844,0.049914222,1.1821743,274.24561468345365,0.31206052648982346,6.085264264349622,34.375,2915,0.5703051090240479,0.23321213853547101,0.21350721886699173,190.1235187328615,25.0
298,2.0840888023376465,310.74460535869554,457.5619186867125,1789.0124550703345,-20.27221893169167,29.166666666666668,0.8546226383716566,0.1,0.041428565979003906,0.40593957901000977,0.04985025,0.112345465,277.89551375097784,0.41097675716762794,6.224034359390255,29.166666666666668,2861,0.6288535594940186,0.20146452383810948,0.1679418534833009,176.86076020832672,25.0
299,1.8961350917816162,342.00057180821415,466.6156393833599,1828.6658465928604,-18.797356933014633,36.458333333333336,0.891038311739508,0.1,0.03295755386352539,0.28923654556274414,0.050053008,0.1191073,284.3060195567015,0.45413790070396914,6.845468330965261,36.458333333333336,3045,0.6143636703491211,0.2970965883746375,0.2646405342025984,181.11446071132357,25.0
300,1.8245491981506348,346.2023204487385,496.4976465585388,2579.5276309623146,-17.890983291703634,32.291666666666664,0.9076511877537579,0.1,0.03902578353881836,0.3389005661010742,0.049944226,0.12281805,290.4956496459052,0.4578385917273656,6.932287286418313,32.291666666666664,3006,0.5461258888244629,0.23902889879038697,0.21876403726741273,194.02768247257515,25.0
301,1.9385669231414795,387.3637523858731,494.30456813072374,2113.0733000834866,-18.834734540422744,38.541666666666664,0.9508809204837005,0.1,0.06532502174377441,0.373244047164917,0.049597275,0.110150725,300.182459919902,0.5138437116185389,7.756318061164954,38.541666666666664,3098,0.658862829208374,0.18139942627135755,0.16120924102899428,188.71404688591187,31.25
302,1.8985538482666016,313.5248144159888,469.4030414944062,1948.4857501112474,-18.259499240009823,31.25,0.8661609132332208,0.1,0.02003788948059082,0.3033430576324463,0.049633995,0.122149244,301.51669536951067,0.40781122956873483,6.278553355686394,31.25,2922,0.535839319229126,0.24189236431485925,0.22969667767047358,176.78567846441734,31.25
303,1.833303451538086,279.2879376243138,427.1781063311152,1658.0817775156297,-848.7556743900652,36.458333333333336,0.8592335040612021,0.1,0.04717087745666504,0.3419463634490967,0.04906568,0.100472726,299.293819594991,-0.2860266926546062,5.606875571014083,36.458333333333336,2766,0.5121715068817139,0.2787342132370491,0.2556051957015927,178.11455113486952,25.0
304,2.0218329429626465,299.40465352528315,403.5726317661944,1603.771323542935,-18.59790607955392,37.5,0.8892262603312725,0.1,0.022490501403808594,0.42188262939453125,0.0498229,0.116965316,299.3049029880202,0.3964076015267308,5.997584420260836,37.5,2934,0.5687732696533203,0.24959328121887928,0.22508109747709873,182.3674885489233,31.25
305,2.1098899841308594,343.9165306562781,494.3481049183649,1907.388054255663,-351.4220064494776,34.375,0.8491410512797657,0.1,0.029062986373901367,0.27802348136901855,0.049401343,0.11225566,303.766065754846,0.41852890570103907,7.0391752882235075,34.375,2879,0.5351080894470215,0.25461698734984584,0.21947619553827696,178.55784723326576,31.25
306,1.9059336185455322,337.39295295843453,459.4926343056849,1557.6500699903952,-18.054604291949218,36.458333333333336,0.8367157355737143,0.1,0.02683544158935547,0.348374605178833,0.050278563,0.13283192,307.1287544752049,0.3467820412590621,6.755378899180006,36.458333333333336,2814,0.4446272850036621,0.2669159070127898,0.23186958137969385,176.77157957552652,31.25
307,1.7777206897735596,331.9026664140927,440.3694977086292,1495.2820160960232,-19.17119668699037,37.5,0.9196625293393154,0.1,0.0302734375,0.28421926498413086,0.049042057,0.11717878,309.6061456690937,0.4086402948909109,6.6471620400404205,37.5,3053,0.7070519924163818,0.16899117854985543,0.141948943574346,174.9142226432192,31.25
308,1.9974150657653809,386.4274221725809,452.4639670908622,1739.8161157544598,-18.64353019653626,38.541666666666664,0.9048705457675912,0.1,0.03067183494567871,0.4318726062774658,0.04946122,0.12205692,317.2882733194424,0.519162969540629,7.7340264650991974,38.541666666666664,3146,0.6232357025146484,0.3135177715804972,0.2759465523795427,174.60026746524832,31.25
309,2.003634214401245,286.9317533926301,423.2689360272243,2009.5726996507447,-18.71053360619316,30.208333333333332,0.9179970054158163,0.1,0.02401137351989746,0.3420236110687256,0.049966324,0.110879295,314.2526213267612,0.3907851863801439,5.747314883188054,30.208333333333332,2911,0.46710872650146484,0.23888449236964526,0.20590204581776514,175.19618075674066,31.25
310,2.0373055934906006,288.5610157083228,461.44193466389424,1841.3804711982837,-19.337457361623272,27.083333333333332,0.876190725544339,0.1,0.02783513069152832,0.3680262565612793,0.049963456,0.11891706,311.68346076491736,0.31870166560135615,5.779694591227275,27.083333333333332,2724,0.523059606552124,0.2596632271317142,0.20576406861949606,178.734118400628,31.25
311,1.9783318042755127,315.07658203297547,461.415518307676,1848.6355676856253,-91.6804791357839,30.208333333333332,0.8587939151586259,0.1,0.02981114387512207,0.3331754207611084,0.050012015,0.13121629,312.02277289172315,0.2953771234010079,6.3106878788663145,30.208333333333332,2896,0.5695915222167969,0.18504015252168798,0.16117539853937818,182.70395321856049,31.25
312,1.8368501663208008,300.17964243832165,392.89766287411845,1619.357133216484,-18.512135916430267,34.375,0.8341279213865435,0.1,0.06387591361999512,0.2811446189880371,0.049873367,0.12039746,310.83845984638305,0.3793029596914648,6.012789598045646,34.375,2832,0.6224105358123779,0.19757814400335527,0.16102879498714767,174.57363158551573,31.25
313,1.9330151081085205,286.0363792061195,451.35922477032506,1830.0515417521246,-19.388091580188053,31.25,0.8569675294113014,0.1,0.029918909072875977,0.33791565895080566,0.050766032,0.12083728,308.3582517823567,0.31596463875873654,5.728450615587595,31.25,2926,0.673936128616333,0.21512923130500589,0.19951579412157638,165.49425720134326,25.0
314,1.8880605697631836,371.3652734926911,530.0602066237216,2169.8563342093157,-19.720967006356155,37.5,0.8182397046216253,0.1,0.021996021270751953,0.3087167739868164,0.050029483,0.13698015,314.65895395339015,0.3935342718541393,7.436137599389092,37.5,2747,0.5078630447387695,0.19972117584962493,0.17950616974188457,159.2578022388376,25.0
315,1.9168100357055664,315.6828178432456,523.1091190612274,2569.912161502073,-18.566428864767456,30.208333333333332,0.865956381120468,0.1,0.034624338150024414,0.370147705078125,0.050287474,0.12364931,314.76134034237566,0.4243161442963199,6.32267805524053,30.208333333333332,2886,0.6273102760314941,0.28174792767094287,0.2500562863767886,161.1660439623064,25.0
316,1.7363166809082031,334.439348216308,463.3263111313113,1647.3404074042967,-19.010852800066594,34.375,0.9230994175037888,0.1,0.030715227127075195,0.30106496810913086,0.050095204,0.11690154,316.72914112976895,0.41294740572415023,6.696945833386725,34.375,2872,0.5143344402313232,0.1771746694600656,0.1435319881556009,168.7305858692361,25.0
317,1.8443264961242676,377.95899520505765,501.3794859224643,2323.292501348946,-18.694280508598744,37.5,0.8810680530521438,0.1,0.01755213737487793,0.3148946762084961,0.049650963,0.12724553,322.8521265372978,0.4115132753348001,7.567675151870167,37.5,3007,0.5324208736419678,0.22967961334594283,0.2011998813218723,136.45210443739964,18.75
318,2.0631513595581055,292.1350343095493,456.32155653468527,1838.075648718173,-20.87037679729343,30.208333333333332,0.8992430990874116,0.1,0.01890277862548828,0.3562016487121582,0.05024294,0.1139622,319.78041731452294,0.35570277095982156,5.851042113865077,30.208333333333332,2733,0.5300455093383789,0.2623421037117151,0.23117045752564483,172.6880259689578,25.0
319,2.1337826251983643,267.89505667572644,390.8023441776142,1403.036026672016,-18.498982085233873,28.125,0.8505403464618956,0.1,0.03472161293029785,0.39568567276000977,0.04945754,0.11876826,314.5918812506433,0.36465212952235104,5.366474909316362,28.125,2705,0.5370521545410156,0.19607668578910684,0.17070279389841145,181.40700335802785,25.0
320,2.199596643447876,258.8010496133747,539.9260253244071,1787.3181907628225,-3048.783557745208,32.291666666666664,0.6411877906959097,0.1,0.022313594818115234,0.3844263553619385,0.04987537,0.07191053,309.01279808691646,-0.49612483221175224,5.1833782372589825,32.291666666666664,2978,0.6493306159973145,0.5823901553587223,0.5478622101408441,164.28040910513235,25.0
321,2.0451762676239014,356.5762292032785,545.9770202744144,2239.644340474925,-19.619826570526108,30.208333333333332,0.8895593694268465,0.1,0.010701417922973633,0.2883148193359375,0.04930185,0.1194724,313.7691411985527,0.4030030117014592,7.139093253436736,30.208333333333332,2817,0.5117170810699463,0.22540750160331893,0.20989929874177973,188.95121959997041,31.25
322,1.9251036643981934,329.97466758046767,481.5178008697136,2130.1822774481625,-18.341276301371728,32.291666666666664,0.8544104619235636,0.1,0.013869524002075195,0.3056161403656006,0.050300077,0.12408465,315.3896938367442,0.41600470364567116,6.607399775459851,32.291666666666664,2745,0.4469125270843506,0.2341022880954436,0.20922855035255297,194.86661768001414,31.25
323,2.037799119949341,432.32325595154293,500.88811849225783,2009.3383456387212,-18.22606126571814,43.75,0.8855367590532724,0.1,0.041092634201049805,0.636770486831665,0.04977715,0.11777509,327.0830500482241,0.5053057538634925,8.641060428833296,43.75,3171,0.6198828220367432,0.2568167478518455,0.19390059276028193,178.75669987117345,31.25
324,1.9697744846343994,438.6443153926178,490.9990031301925,2019.8511530882906,-18.784332955720757,45.833333333333336,0.8888231515229256,0.1,0.02301955223083496,0.3418266773223877,0.049628463,0.11768712,338.23917658266345,0.44020683936189037,8.781740876597647,45.833333333333336,3025,0.5507650375366211,0.15683503281761088,0.13922495879027694,179.28241960592987,25.0
325,1.7183728218078613,354.9340799527001,456.13369886719505,1878.4425627584446,-231.78221252821817,39.583333333333336,0.8698902570603536,0.1,0.035039424896240234,0.36342287063598633,0.050063886,0.12022023,339.9086669196671,0.2702003051641638,7.108645370298429,39.583333333333336,2829,0.5333075523376465,0.29035447265678704,0.2579882026778982,183.6458188270876,31.25
326,1.8523385524749756,319.78459659403245,482.07269535736583,1949.741094454954,-18.318415729816063,30.208333333333332,0.8865491951295741,0.1,0.03041672706604004,0.35683774948120117,0.050165065,0.11242069,337.89625988710367,0.3766562956337385,6.403547063985374,30.208333333333332,2837,0.6611053943634033,0.1897790778139521,0.1669327612614409,177.02143403701194,25.0
327,1.8837106227874756,391.6886605170386,544.7653010826998,2120.498279678167,-17.60059234525216,33.333333333333336,0.8905741035386053,0.1,0.03586626052856445,0.25870800018310547,0.04977801,0.11366918,343.2754999500971,0.4315875558904934,7.84150839722236,33.333333333333336,2999,0.5467584133148193,0.21293695658279968,0.18697180104561573,192.7778160737285,31.25
328,1.7055940628051758,443.6417191362771,569.8526923718254,2199.2745583923893,-17.943546103344914,40.625,0.8716339390544959,0.1,0.02135181427001953,0.340595006942749,0.050108895,0.12606375,353.31212186871517,0.41400472120630755,8.88062732525316,40.625,2994,0.634660005569458,0.24337206607681708,0.2244964984492487,197.5404001847296,31.25
329,1.968989372253418,423.5521652523851,505.1474395705837,2058.698218190058,-19.114744197119997,41.666666666666664,0.9025528008339723,0.1,0.0375363826751709,0.24834895133972168,0.049856022,0.11423621,360.3361262070822,0.44429126407649494,8.478134238118782,41.666666666666664,3078,0.5567450523376465,0.17774489925404993,0.1652237815939973,185.28454408197697,25.0
330,1.9977936744689941,388.2523905521933,504.08063950317364,2419.3819590716107,-20.34155587089372,37.5,0.9012225550484666,0.1,0.02422928810119629,0.29678964614868164,0.050748046,0.11196846,363.12775264159336,0.460880406441513,7.774353891028082,37.5,2973,0.6437394618988037,0.23907122063758965,0.22432037043898614,213.5423541360929,31.25
331,2.300827980041504,352.93376029696793,505.0029667540883,2020.5924587363015,-18.88448220657643,34.375,0.8901649028883976,0.1,0.04056906700134277,0.29171133041381836,0.049420383,0.11773077,362.10835340713083,0.41307525175205023,7.067175289978536,34.375,2881,0.5774390697479248,0.1648593765910403,0.1497924577888189,179.07502370162518,25.0
332,2.0497183799743652,296.63677310800375,472.22831887902703,2220.196409341891,-18.165736483106723,28.125,0.7501308142580004,0.1,0.025208234786987305,0.3795614242553711,0.045871735,0.08690697,355.56119537721816,0.43481921278953345,5.927826241131355,28.125,2868,0.489058256149292,0.27070722756963916,0.2440041963235673,188.4354027084562,31.25
333,2.109480857849121,459.0293732129994,643.5090630684745,2570.161365419712,-20.877752864322307,38.541666666666664,0.8859660828215423,0.1,0.02933335304260254,0.2789151668548584,0.049849387,0.122631535,365.90801316079626,0.4410393743178733,9.175829130356073,38.541666666666664,3047,0.4617130756378174,0.23962729640675784,0.1932647636925617,175.89376058958797,25.0
334,2.0014121532440186,329.71076875854914,484.8458908433207,1767.169289678835,-19.458650519856775,32.291666666666664,0.8191670701456569,0.1,0.010485649108886719,0.3769645690917969,0.050340828,0.124625035,362.2882887205716,0.3660646954074742,6.6022332589070265,32.291666666666664,2705,0.5887937545776367,0.29774538694555985,0.2288468033109192,221.31196495349707,31.25
335,1.8914778232574463,335.5562272313367,486.6039567897035,1558.5529518808878,-996.0783862907709,34.375,0.7899907585360496,0.1,0.01723957061767578,0.3920109272003174,0.05006912,0.10863083,359.61508257164814,-0.3367724477467888,6.720783513991649,34.375,2777,0.5110800266265869,0.20189983116959012,0.1888714220730532,295.9497904658495,31.25
336,1.8451306819915771,356.7653545506384,468.9712192343172,1678.644528572126,-19.282712786696415,40.625,0.8630064710337328,0.1,0.011763572692871094,0.35437989234924316,0.0500307,0.12666142,359.3301097695472,0.38370271624149427,7.144300015567371,40.625,2676,0.5423204898834229,0.2137081399285755,0.18046843159318723,342.9664554325043,31.25
337,1.7671372890472412,380.00468443321546,500.5576071007331,2322.428855794435,-25.203486789609574,37.5,0.8476663991168043,0.1,0.023889541625976562,0.24160146713256836,0.050255563,0.13125911,361.39756723591404,0.4560388628820859,7.6080874813542705,37.5,2957,0.5658495426177979,0.19389792331403571,0.1654932345545179,307.17723637908136,31.25
