Iter | Sampling Pol | Evaluation Pol | Best (Sampled) 
   0 -357.26 -287.48 -100000000.00 
   1 -358.16 -284.44 -357.26 
   2 -359.24 -288.05 -357.26 
   3 -359.36 -290.48 -357.26 
   4 -357.42 -301.00 -357.26 
   5 -363.15 -305.44 -357.26 
   6 -360.46 -289.79 -357.26 
   7 -359.39 -284.64 -357.26 
   8 -355.48 -273.22 -357.26 
   9 -349.42 -268.89 -355.48 
  10 -347.83 -270.68 -349.42 
  11 -334.15 -271.31 -347.83 
  12 -325.87 -264.49 -334.15 
  13 -309.71 -260.08 -325.87 
  14 -301.90 -246.66 -309.71 
  15 -293.66 -235.27 -301.90 
  16 -285.69 -225.05 -293.66 
  17 -276.57 -212.31 -285.69 
  18 -270.67 -198.42 -276.57 
  19 -264.80 -189.41 -270.67 
  20 -259.81 -189.92 -264.80 
  21 -254.12 -195.94 -259.81 
  22 -245.76 -204.57 -254.12 
  23 -234.42 -199.63 -245.76 
  24 -228.77 -201.39 -234.42 
  25 -224.74 -206.14 -228.77 
  26 -222.07 -210.11 -224.74 
  27 -214.29 -210.50 -222.07 
  28 -207.93 -214.37 -214.29 
  29 -203.45 -213.98 -207.93 
  30 -201.42 -211.11 -203.45 
  31 -199.27 -210.77 -201.42 
  32 -198.11 -207.37 -199.27 
  33 -195.72 -202.10 -198.11 
  34 -194.43 -203.58 -195.72 
  35 -192.46 -205.51 -194.43 
  36 -190.31 -205.57 -192.46 
  37 -188.47 -205.13 -190.31 
  38 -186.83 -205.60 -188.47 
  39 -185.17 -204.45 -186.83 
  40 -182.24 -201.86 -185.17 
  41 -180.24 -188.24 -182.24 
  42 -176.44 -177.60 -180.24 
  43 -173.98 -171.63 -176.44 
  44 -172.23 -155.57 -173.98 
  45 -168.98 -150.60 -172.23 
  46 -164.17 -138.42 -168.98 
  47 -159.94 -141.05 -164.17 
  48 -157.62 -118.56 -159.94 
  49 -156.03 -114.32 -157.62 
  50 -154.09 -104.10 -156.03 
  51 -152.43 -111.30 -154.09 
  52 -150.62 -105.30 -152.43 
  53 -148.07 -91.83 -150.62 
  54 -146.49 -94.87 -148.07 
  55 -143.26 -85.70 -146.49 
  56 -145.10 -78.83 -143.26 
  57 -140.02 -83.11 -143.26 
  58 -140.34 -64.83 -140.02 
  59 -135.86 -100.97 -140.02 
  60 -132.47 -78.41 -135.86 
  61 -131.96 -8.15 -132.47 
  62 -127.93 16.73 -131.96 
  63 -123.84 38.68 -127.93 
  64 -119.05 162.71 -123.84 
  65 -112.58 216.46 -119.05 
  66 -110.48 173.69 -112.58 
  67 -105.75 208.65 -110.48 
  68 -107.33 71.31 -105.75 
  69 -102.69 202.21 -105.75 
  70 -97.33 273.95 -102.69 
  71 -92.21 292.73 -97.33 
  72 -84.22 139.61 -92.21 
  73 -75.57 203.66 -84.22 
  74 -70.35 97.88 -75.57 
  75 -58.55 61.81 -70.35 
  76 -52.28 95.06 -58.55 
  77 -49.48 70.49 -52.28 
  78 -41.28 33.18 -49.48 
  79 -26.85 80.85 -41.28 
  80 -7.79 40.52 -26.85 
  81  3.66 27.27 -7.79 
  82 18.51 10.71  3.66 
  83 36.79  5.79 18.51 
  84 53.30 -11.23 36.79 
  85 58.58 49.14 53.30 
  86 102.99 62.87 58.58 
  87 127.79 -7.03 102.99 
  88 157.88 -50.89 127.79 
  89 182.62 49.44 157.88 
  90 181.64 32.02 182.62 
  91 200.52 111.85 182.62 
  92 205.67 52.60 200.52 
  93 215.17 57.20 205.67 
  94 224.39 40.67 215.17 
  95 239.15 197.84 224.39 
  96 245.95 280.42 239.15 
  97 253.03 192.58 245.95 
  98 255.95 245.86 253.03 
  99 271.91 280.63 255.95 
 100 273.68 281.42 271.91 
 101 270.14 197.00 273.68 
 102 273.94 286.03 273.68 
 103 275.86 172.72 273.94 
 104 277.39 288.40 275.86 
 105 276.77 283.71 277.39 
 106 281.88 291.55 277.39 
 107 282.61 284.56 281.88 
 108 283.46 285.58 282.61 
 109 286.48 288.40 283.46 
 110 286.33 285.74 286.48 
 111 287.62 288.60 286.48 
 112 287.91 286.98 287.62 
 113 284.15 286.15 287.91 
 114 286.50 286.80 287.91 
 115 287.48 287.85 287.91 
 116 288.71 285.21 287.91 
 117 283.51 285.89 288.71 
 118 285.08 286.31 288.71 
 119 288.48 287.78 288.71 
 120 289.44 289.19 288.71 
 121 290.46 292.27 289.44 
 122 290.48 288.05 290.46 
 123 290.46 289.33 290.48 
 124 290.72 291.49 290.48 
 125 291.98 291.82 290.72 
 126 292.29 292.21 291.98 
 127 290.29 292.69 292.29 
 128 291.51 289.76 292.29 
 129 291.98 289.84 292.29 
 130 292.45 291.29 292.29 
 131 292.70 290.87 292.45 
 132 291.61 291.63 292.70 
 133 293.74 293.34 292.70 
 134 293.70 292.01 293.74 
 135 292.66 291.80 293.74 
 136 292.42 291.82 293.74 
 137 292.95 292.44 293.74 
 138 292.41 290.90 293.74 
 139 293.68 291.35 293.74 
 140 293.88 292.42 293.74 
 141 295.01 291.61 293.88 
 142 294.59 294.11 295.01 
 143 295.05 291.82 295.01 
 144 294.19 292.32 295.05 
 145 295.82 294.92 295.05 
 146 293.40 292.03 295.82 
 147 295.09 292.68 295.82 
 148 295.41 293.67 295.82 
 149 295.50 293.98 295.82 
 150 297.13 294.45 295.82 
 151 296.75 294.67 297.13 
 152 295.52 293.85 297.13 
 153 295.87 295.27 297.13 
 154 295.63 294.65 297.13 
 155 296.42 294.97 297.13 
 156 296.75 295.40 297.13 
 157 297.70 294.70 297.13 
 158 296.94 297.07 297.70 
 159 296.60 295.03 297.70 
 160 298.43 296.59 297.70 
 161 297.90 298.20 298.43 
 162 298.10 295.09 298.43 
 163 297.31 296.24 298.43 
 164 298.53 294.66 298.43 
 165 298.41 295.53 298.53 
 166 299.00 298.59 298.53 
 167 300.48 296.05 299.00 
 168 299.17 297.83 300.48 
 169 301.43 297.35 300.48 
 170 299.62 296.06 301.43 
 171 299.43 307.57 301.43 
 172 301.10 298.04 301.43 
 173 302.02 300.52 301.43 
 174 301.56 296.89 302.02 
 175 301.26 302.96 302.02 
 176 305.24 304.12 302.02 
 177 306.35 285.10 305.24 
 178 298.29 297.93 306.35 
 179 303.12 309.08 306.35 
 180 301.05 296.50 306.35 
 181 303.93 297.37 306.35 
 182 302.83 305.38 306.35 
 183 300.52 302.39 306.35 
 184 302.66 331.29 306.35 
 185 303.13 284.32 306.35 
 186 302.10 306.30 306.35 
 187 305.71 310.03 306.35 
 188 308.06 291.87 306.35 
 189 303.63 307.74 308.06 
 190 308.07 293.40 308.06 
 191 307.05 303.18 308.07 
 192 309.85 290.84 308.07 
 193 309.44 294.26 309.85 
 194 310.29 293.03 309.85 
 195 308.38 296.61 310.29 
 196 309.14 327.17 310.29 
 197 315.71 290.14 310.29 
 198 311.01 297.94 315.71 
 199 307.99 294.67 315.71 
 200 315.74 298.66 315.71 
 201 318.42 294.53 315.74 
 202 315.90 298.08 318.42 
 203 318.11 295.07 318.42 
 204 313.41 287.77 318.42 
 205 315.36 296.21 318.42 
 206 312.58 297.82 318.42 
 207 313.55 297.04 318.42 
 208 311.67 291.84 318.42 
 209 313.65 296.59 318.42 
 210 314.23 294.41 318.42 
 211 315.29 293.10 318.42 
 212 314.33 291.27 318.42 
 213 319.28 292.72 318.42 
 214 317.43 285.41 319.28 
 215 303.07 292.21 319.28 
 216 316.25 296.26 319.28 
 217 318.22 293.02 319.28 
 218 317.42 294.50 319.28 
 219 319.12 296.93 319.28 
 220 313.26 294.56 319.28 
 221 316.02 296.45 319.28 
 222 315.31 292.87 319.28 
 223 314.56 294.04 319.28 
 224 315.81 290.32 319.28 
 225 320.17 294.25 319.28 
 226 315.88 283.92 320.17 
 227 317.00 289.71 320.17 
 228 321.57 290.09 320.17 
 229 324.03 289.73 321.57 
 230 319.79 290.78 324.03 
 231 316.32 293.48 324.03 
 232 321.90 290.00 324.03 
 233 327.85 291.53 324.03 
 234 321.22 291.59 327.85 
 235 323.38 291.27 327.85 
 236 316.93 292.58 327.85 
 237 326.01 296.57 327.85 
 238 330.72 291.00 327.85 
 239 329.75 286.08 330.72 
 240 313.56 295.02 330.72 
 241 326.90 288.78 330.72 
 242 322.81 293.95 330.72 
 243 325.19 297.01 330.72 
 244 320.94 287.70 330.72 
 245 329.07 288.38 330.72 
 246 330.96 292.27 330.72 
 247 327.63 292.14 330.96 
 248 328.90 296.19 330.96 
 249 312.79 291.87 330.96 
 250 319.52 291.50 330.96 
 251 320.40 292.98 330.96 
 252 328.96 290.31 330.96 
 253 328.51 292.26 330.96 
 254 321.44 291.06 330.96 
 255 325.50 291.33 330.96 
 256 318.36 328.67 330.96 
 257 323.33 291.60 330.96 
 258 325.73 289.47 330.96 
 259 324.13 298.84 330.96 
 260 321.95 292.30 330.96 
 261 328.13 291.26 330.96 
 262 331.81 294.18 330.96 
 263 336.25 293.43 331.81 
 264 325.73 294.62 336.25 
 265 329.71 295.52 336.25 
 266 329.49 295.02 336.25 
 267 330.64 293.38 336.25 
 268 330.59 293.47 336.25 
 269 324.34 292.31 336.25 
 270 328.16 293.39 336.25 
 271 333.40 294.64 336.25 
 272 327.98 294.68 336.25 
 273 333.19 296.10 336.25 
 274 336.01 293.81 336.25 
 275 328.77 293.78 336.25 
 276 330.35 293.62 336.25 
 277 335.55 292.22 336.25 
 278 335.62 292.61 336.25 
 279 337.29 302.92 336.25 
 280 327.45 294.56 337.29 
 281 332.96 291.70 337.29 
 282 326.48 293.70 337.29 
 283 332.77 295.18 337.29 
 284 342.78 294.64 337.29 
 285 338.80 297.09 342.78 
 286 335.41 298.65 342.78 
 287 339.72 297.08 342.78 
 288 336.28 291.14 342.78 
 289 330.21 295.11 342.78 
 290 335.35 292.87 342.78 
 291 335.16 292.78 342.78 
 292 342.86 295.67 342.78 
 293 340.33 305.03 342.86 
 294 324.33 294.76 342.86 
 295 340.42 293.68 342.86 
 296 334.41 296.19 342.86 
 297 335.61 295.20 342.86 
 298 326.46 296.76 342.86 
 299 327.16 296.79 342.86 
 300 328.07 296.12 342.86 
 301 338.21 295.87 342.86 
 302 339.44 298.43 342.86 
 303 335.87 298.74 342.86 
 304 339.79 307.21 342.86 
 305 331.94 295.08 342.86 
 306 329.90 297.19 342.86 
 307 339.86 295.72 342.86 
 308 332.33 295.91 342.86 
 309 331.85 297.85 342.86 
 310 345.19 298.63 342.86 
 311 335.24 294.42 345.19 
 312 332.27 293.89 345.19 
 313 342.34 295.46 345.19 
 314 343.51 295.34 345.19 
 315 342.46 297.14 345.19 
 316 333.15 298.13 345.19 
 317 337.81 294.50 345.19 
 318 347.97 295.88 345.19 
 319 346.80 292.40 347.97 
 320 340.50 294.79 347.97 
 321 344.18 294.15 347.97 
 322 337.55 296.60 347.97 
 323 345.86 294.81 347.97 
 324 339.40 299.98 347.97 
 325 347.64 292.92 347.97 
 326 348.97 292.25 347.97 
 327 345.45 297.32 348.97 
 328 347.00 289.93 348.97 
 329 338.98 291.11 348.97 
 330 341.26 297.77 348.97 
 331 341.63 291.66 348.97 
 332 344.31 292.37 348.97 
 333 340.48 293.17 348.97 
 334 345.01 287.46 348.97 
 335 342.57 292.68 348.97 
 336 341.09 288.19 348.97 
 337 348.79 293.29 348.97 
 338 349.63 287.37 348.97 
 339 356.74 285.15 349.63 
 340 348.83 291.79 356.74 
 341 351.80 287.55 356.74 
 342 356.90 293.11 356.74 
 343 349.87 293.25 356.90 
 344 358.27 293.13 356.90 
 345 355.14 288.78 358.27 
 346 364.59 287.64 358.27 
 347 358.28 289.17 364.59 
 348 357.45 288.51 364.59 
 349 367.30 288.69 364.59 
 350 356.31 283.68 367.30 
 351 367.57 289.60 367.30 
 352 367.99 290.33 367.57 
 353 359.93 290.11 367.99 
 354 367.58 289.11 367.99 
 355 377.15 284.90 367.99 
 356 375.54 288.57 377.15 
 357 372.38 283.67 377.15 
 358 373.02 292.04 377.15 
 359 373.98 284.26 377.15 
 360 374.63 288.96 377.15 
 361 377.35 288.84 377.15 
 362 381.39 288.59 377.35 
 363 378.48 284.71 381.39 
 364 378.21 284.17 381.39 
 365 378.83 283.88 381.39 
 366 391.06 288.15 381.39 
 367 385.28 284.60 391.06 
 368 387.69 283.75 391.06 
 369 390.65 288.82 391.06 
 370 394.70 289.34 391.06 
 371 399.55 289.79 394.70 
 372 390.73 284.90 399.55 
 373 401.18 285.01 399.55 
 374 404.89 284.73 401.18 
 375 412.63 284.46 404.89 
 376 406.97 284.86 412.63 
 377 414.88 285.27 412.63 
 378 424.15 286.20 414.88 
 379 419.57 281.16 424.15 
 380 426.65 286.02 424.15 
 381 444.67 285.35 426.65 
 382 434.09 285.97 444.67 
 383 426.85 286.98 444.67 
 384 435.21 287.11 444.67 
 385 447.71 286.53 444.67 
 386 434.21 289.23 447.71 
 387 441.89 285.76 447.71 
 388 455.03 286.13 447.71 
 389 469.34 286.50 455.03 
 390 441.82 286.12 469.34 
 391 446.05 291.12 469.34 
 392 452.47 290.67 469.34 
 393 447.80 285.73 469.34 
 394 470.88 290.30 469.34 
 395 458.47 286.37 470.88 
 396 436.98 286.65 470.88 
 397 467.03 286.63 470.88 
 398 455.64 285.93 470.88 
 399 455.29 290.06 470.88 
 400 458.57 285.22 470.88 
 401 446.93 285.14 470.88 
 402 459.13 284.91 470.88 
 403 475.64 285.10 470.88 
 404 485.23 285.55 475.64 
 405 475.43 284.93 485.23 
 406 488.83 284.65 485.23 
 407 467.49 285.17 488.83 
 408 474.35 290.36 488.83 
 409 487.52 285.47 488.83 
 410 477.01 290.95 488.83 
 411 484.39 291.29 488.83 
 412 487.38 291.35 488.83 
 413 495.27 292.53 488.83 
 414 492.48 291.66 495.27 
 415 495.08 292.34 495.27 
 416 491.37 292.69 495.27 
 417 501.95 293.26 495.27 
 418 510.43 293.06 501.95 
 419 507.97 293.26 510.43 
 420 510.55 288.41 510.43 
 421 514.24 288.93 510.55 
 422 520.21 288.87 514.24 
 423 521.52 289.43 520.21 
 424 512.69 288.51 521.52 
 425 544.82 284.66 521.52 
 426 547.00 289.22 544.82 
 427 548.03 284.58 547.00 
 428 562.63 409.84 548.03 
 429 566.34 470.31 562.63 
 430 557.80 469.86 566.34 
 431 558.72 482.26 566.34 
 432 558.07 523.32 566.34 
 433 543.39 503.24 566.34 
 434 555.96 519.74 566.34 
 435 554.17 523.85 566.34 
 436 568.20 459.01 566.34 
 437 582.77 442.76 568.20 
 438 569.69 471.21 582.77 
 439 565.66 491.52 582.77 
 440 570.90 439.00 582.77 
 441 578.05 471.45 582.77 
 442 562.56 483.54 582.77 
 443 583.58 491.51 582.77 
 444 575.66 568.57 583.58 
 445 578.49 503.64 583.58 
 446 570.31 446.78 583.58 
 447 587.98 483.15 583.58 
 448 587.38 527.30 587.98 
 449 593.01 543.69 587.98 
 450 584.25 499.32 593.01 
 451 589.84 418.33 593.01 
 452 585.17 563.68 593.01 
 453 593.72 568.03 593.01 
 454 587.87 559.95 593.72 
 455 592.52 519.53 593.72 
 456 587.29 450.78 593.72 
 457 590.89 482.72 593.72 
 458 609.91 514.67 593.72 
 459 599.84 421.62 609.91 
 460 596.83 522.87 609.91 
 461 599.67 559.71 609.91 
 462 596.53 567.56 609.91 
 463 599.02 539.35 609.91 
 464 605.72 580.15 609.91 
 465 604.54 592.59 609.91 
 466 601.60 596.73 609.91 
 467 605.92 596.56 609.91 
 468 610.22 596.73 609.91 
 469 608.57 633.23 610.22 
 470 608.49 645.52 610.22 
 471 599.17 588.12 610.22 
 472 612.55 620.37 610.22 
 473 608.63 620.17 612.55 
 474 617.45 632.38 612.55 
 475 618.13 612.19 617.45 
 476 620.11 640.95 618.13 
 477 624.20 645.44 620.11 
 478 616.52 645.52 624.20 
 479 612.45 641.70 624.20 
 480 615.79 645.28 624.20 
 481 616.14 641.30 624.20 
 482 619.86 645.48 624.20 
 483 627.95 641.54 624.20 
 484 623.47 641.20 627.95 
 485 620.83 645.25 627.95 
 486 617.62 645.52 627.95 
 487 622.25 645.74 627.95 
 488 626.25 645.71 627.95 
 489 623.61 645.73 627.95 
 490 617.36 641.13 627.95 
 491 624.20 628.63 627.95 
 492 630.61 645.80 627.95 
 493 626.14 646.14 630.61 
 494 628.25 646.03 630.61 
 495 624.59 646.00 630.61 
 496 630.82 646.34 630.61 
 497 626.88 642.23 630.82 
 498 629.09 646.72 630.82 
 499 631.25 650.84 630.82 
 500 622.89 650.55 631.25 
 501 623.45 650.73 631.25 
 502 633.04 646.79 631.25 
 503 623.26 646.84 633.04 
 504 633.53 646.73 633.04 
 505 630.10 642.34 633.53 
 506 631.00 633.50 633.53 
 507 633.19 629.47 633.53 
 508 629.64 633.64 633.53 
 509 628.70 642.49 633.53 
 510 624.90 647.09 633.53 
 511 625.30 642.71 633.53 
 512 637.90 651.03 633.53 
 513 631.99 650.98 637.90 
 514 628.39 651.00 637.90 
 515 636.16 650.93 637.90 
 516 629.62 651.09 637.90 
 517 632.31 655.17 637.90 
 518 634.43 655.15 637.90 
 519 634.21 651.03 637.90 
 520 638.26 651.09 637.90 
 521 632.37 659.09 638.26 
 522 641.18 654.99 638.26 
 523 636.75 655.17 641.18 
 524 636.67 655.76 641.18 
 525 635.38 659.15 641.18 
 526 635.18 654.99 641.18 
 527 636.41 650.80 641.18 
 528 633.61 650.91 641.18 
 529 636.61 654.96 641.18 
 530 641.51 655.44 641.18 
 531 634.09 651.34 641.51 
 532 636.32 655.15 641.51 
 533 635.65 655.08 641.51 
 534 641.28 654.87 641.51 
 535 639.22 654.94 641.51 
 536 642.03 654.89 641.51 
 537 642.17 654.93 642.03 
 538 644.13 654.83 642.17 
 539 639.33 655.03 644.13 
 540 644.59 655.54 644.13 
 541 641.72 650.68 644.59 
 542 642.63 654.76 644.59 
 543 643.12 650.72 644.59 
 544 642.92 646.56 644.59 
 545 644.31 654.78 644.59 
 546 644.99 658.76 644.59 
 547 642.09 654.92 644.99 
 548 638.22 650.62 644.99 
 549 644.56 654.72 644.99 
 550 643.36 650.59 644.99 
 551 643.88 659.30 644.99 
 552 638.89 659.14 644.99 
 553 640.99 658.80 644.99 
 554 645.52 658.94 644.99 
 555 644.74 658.95 645.52 
 556 644.97 658.84 645.52 
 557 642.54 654.39 645.52 
 558 640.78 658.73 645.52 
 559 645.05 654.53 645.52 
 560 641.40 658.91 645.52 
 561 646.78 659.51 645.52 
 562 647.63 659.66 646.78 
 563 646.52 660.27 647.63 
 564 645.22 656.06 647.63 
 565 648.67 660.57 647.63 
 566 644.29 660.58 648.67 
 567 649.62 659.88 648.67 
 568 642.74 659.53 649.62 
 569 646.57 659.60 649.62 
 570 644.15 655.52 649.62 
 571 638.46 655.55 649.62 
 572 646.57 660.09 649.62 
 573 642.78 660.52 649.62 
 574 649.35 660.66 649.62 
 575 647.92 660.34 649.62 
 576 648.92 661.20 649.62 
 577 647.80 661.31 649.62 
 578 648.85 662.07 649.62 
 579 649.85 661.88 649.62 
 580 651.59 661.68 649.85 
 581 650.29 661.90 651.59 
 582 650.11 662.29 651.59 
 583 646.27 662.25 651.59 
 584 650.40 662.06 651.59 
 585 648.71 661.95 651.59 
 586 652.49 661.62 651.59 
 587 651.45 661.45 652.49 
 588 652.52 661.27 652.49 
 589 652.05 661.66 652.52 
 590 652.44 661.74 652.52 
 591 650.66 661.95 652.52 
 592 652.75 662.15 652.52 
 593 652.95 662.12 652.75 
 594 653.15 662.26 652.95 
 595 652.41 662.36 653.15 
 596 653.48 662.29 653.15 
 597 652.75 662.08 653.48 
 598 649.28 662.11 653.48 
 599 652.05 662.25 653.48 
 600 653.73 661.23 653.48 
 601 652.22 660.85 653.73 
 602 651.49 652.63 653.73 
 603 654.62 652.70 653.73 
 604 655.05 632.34 654.62 
 605 654.13 628.30 655.05 
 606 652.81 611.94 655.05 
 607 656.45 644.23 655.05 
 608 656.15 636.02 656.45 
 609 654.48 615.67 656.45 
 610 656.40 619.58 656.45 
 611 656.33 603.23 656.45 
 612 656.98 578.54 656.45 
 613 656.12 549.71 656.98 
 614 660.36 574.42 656.98 
 615 660.04 590.84 660.36 
 616 661.07 570.25 660.36 
 617 662.25 545.59 661.07 
 618 664.30 537.19 662.25 
 619 663.89 541.39 664.30 
 620 662.94 524.84 664.30 
 621 659.77 541.32 664.30 
 622 660.24 561.87 664.30 
 623 663.55 566.03 664.30 
 624 659.57 569.97 664.30 
 625 667.50 545.39 664.30 
 626 662.83 549.47 667.50 
 627 664.36 573.98 667.50 
 628 665.85 590.46 667.50 
 629 662.94 582.40 667.50 
 630 664.90 594.55 667.50 
 631 666.61 615.11 667.50 
 632 663.46 594.62 667.50 
 633 666.50 586.48 667.50 
 634 666.53 603.02 667.50 
 635 662.33 590.77 667.50 
 636 666.75 619.37 667.50 
 637 666.81 602.86 667.50 
 638 666.41 619.30 667.50 
 639 667.71 619.25 667.50 
 640 667.76 615.09 667.71 
 641 667.11 611.06 667.76 
 642 666.83 598.67 667.76 
 643 666.71 610.94 667.76 
 644 668.02 623.18 667.76 
 645 668.16 623.20 668.02 
 646 666.93 619.16 668.16 
 647 667.72 610.99 668.16 
 648 667.78 615.15 668.16 
 649 667.38 623.30 668.16 
 650 668.66 623.40 668.16 
 651 667.45 627.59 668.66 
 652 668.74 623.53 668.66 
 653 668.88 615.43 668.74 
 654 669.12 611.21 668.88 
 655 667.20 615.38 669.12 
 656 667.89 619.43 669.12 
 657 669.08 611.30 669.12 
 658 666.77 607.16 669.12 
 659 669.15 607.09 669.12 
 660 668.75 611.17 669.15 
 661 667.79 607.01 669.15 
 662 669.07 606.97 669.15 
 663 666.27 602.93 669.15 
 664 669.09 602.76 669.15 
 665 668.65 602.89 669.15 
 666 669.02 602.97 669.15 
 667 669.42 598.89 669.15 
 668 669.88 594.80 669.42 
 669 669.64 590.63 669.88 
 670 669.42 586.38 669.88 
 671 669.70 586.48 669.88 
 672 668.06 590.47 669.88 
 673 668.97 578.32 669.88 
 674 670.49 582.37 669.88 
 675 669.42 582.50 670.49 
 676 669.71 582.59 670.49 
 677 669.41 578.53 670.49 
 678 668.16 574.40 670.49 
 679 670.69 574.55 670.49 
 680 670.93 578.61 670.69 
 681 670.15 578.64 670.93 
 682 669.35 586.75 670.93 
 683 669.94 586.74 670.93 
 684 670.57 582.75 670.93 
 685 670.82 598.99 670.93 
 686 670.49 594.96 670.93 
 687 671.08 594.95 670.93 
 688 671.24 590.85 671.08 
 689 671.60 599.07 671.24 
 690 671.15 590.96 671.60 
 691 667.67 590.96 671.60 
 692 670.66 586.86 671.60 
 693 670.65 578.62 671.60 
 694 670.33 582.77 671.60 
 695 670.64 586.97 671.60 
 696 671.78 591.05 671.60 
 697 671.31 582.87 671.78 
 698 670.80 591.07 671.78 
 699 672.46 599.20 671.78 
 700 671.15 595.21 672.46 
 701 671.43 587.24 672.46 
 702 672.25 595.36 672.46 
 703 672.77 599.44 672.46 
 704 672.46 595.19 672.77 
 705 673.08 591.27 672.77 
 706 672.44 595.57 673.08 
 707 671.92 599.58 673.08 
 708 671.35 591.32 673.08 
 709 673.30 603.34 673.08 
 710 673.02 603.46 673.30 
 711 673.32 603.41 673.30 
 712 673.03 599.39 673.32 
 713 672.71 599.51 673.32 
 714 672.92 607.93 673.32 
 715 673.66 620.18 673.32 
 716 672.90 636.57 673.66 
 717 673.80 628.32 673.66 
 718 673.51 628.30 673.80 
 719 673.82 620.11 673.80 
 720 672.74 624.07 673.82 
 721 674.02 648.67 673.82 
 722 673.82 640.54 674.02 
 723 674.19 628.34 674.02 
 724 674.01 636.63 674.19 
 725 673.26 628.42 674.19 
 726 674.35 616.11 674.19 
 727 672.65 620.22 674.35 
 728 673.71 640.77 674.35 
 729 673.50 644.96 674.35 
 730 672.42 628.48 674.35 
 731 674.22 615.92 674.35 
 732 674.26 616.10 674.35 
 733 674.13 624.26 674.35 
 734 674.19 620.17 674.35 
 735 674.23 624.34 674.35 
 736 673.71 636.56 674.35 
 737 674.23 644.82 674.35 
 738 669.06 644.84 674.35 
 739 673.94 648.98 674.35 
 740 674.49 636.50 674.35 
 741 673.55 652.92 674.49 
 742 674.35 644.70 674.49 
 743 673.45 652.89 674.49 
 744 674.80 657.10 674.49 
 745 674.68 657.06 674.80 
 746 674.24 661.16 674.80 
 747 672.81 644.77 674.80 
 748 674.40 644.65 674.80 
 749 674.09 644.75 674.80 
 750 674.46 644.78 674.80 
 751 674.52 652.99 674.80 
 752 674.41 649.00 674.80 
 753 674.76 648.95 674.80 
 754 674.98 653.07 674.80 
 755 674.95 665.41 674.98 
 756 674.79 669.67 674.98 
 757 674.81 673.83 674.98 
 758 674.61 673.89 674.98 
 759 674.62 673.92 674.98 
 760 674.88 674.27 674.98 
 761 674.12 673.92 674.98 
 762 675.06 673.93 674.98 
 763 674.65 674.03 675.06 
 764 675.07 665.71 675.06 
 765 675.02 673.84 675.07 
 766 675.01 673.93 675.07 
 767 674.78 674.06 675.07 
 768 672.96 674.03 675.07 
 769 674.51 674.11 675.07 
 770 674.77 674.35 675.07 
 771 674.79 674.21 675.07 
 772 675.31 674.03 675.07 
 773 674.84 674.10 675.31 
 774 675.10 674.45 675.31 
 775 675.28 674.35 675.31 
 776 675.06 674.60 675.31 
 777 675.13 674.63 675.31 
 778 674.20 674.56 675.31 
 779 673.21 674.79 675.31 
 780 674.66 674.97 675.31 
 781 675.07 674.95 675.31 
 782 674.45 674.94 675.31 
 783 675.03 674.97 675.31 
 784 674.91 675.08 675.31 
 785 675.09 674.98 675.31 
 786 675.19 674.90 675.31 
 787 675.22 674.69 675.31 
 788 675.31 674.69 675.31 
 789 675.33 674.48 675.31 
 790 674.86 674.43 675.33 
 791 674.89 674.28 675.33 
 792 674.24 674.45 675.33 
 793 675.29 674.49 675.33 
 794 675.46 674.42 675.33 
 795 675.14 674.56 675.46 
 796 675.20 674.53 675.46 
 797 674.76 674.49 675.46 
 798 675.03 674.07 675.46 
 799 675.36 669.90 675.46 
 800 675.47 673.86 675.46 
 801 675.42 673.90 675.47 
 802 673.38 674.00 675.47 
 803 674.86 674.02 675.47 
 804 675.38 673.99 675.47 
 805 673.65 665.66 675.47 
 806 675.44 673.97 675.47 
 807 675.10 674.13 675.47 
 808 675.20 674.16 675.47 
 809 674.94 674.04 675.47 
 810 675.24 673.97 675.47 
 811 675.08 674.05 675.47 
 812 675.15 674.03 675.47 
 813 675.17 674.04 675.47 
 814 675.19 674.08 675.47 
 815 674.88 674.11 675.47 
 816 675.14 674.07 675.47 
 817 675.44 674.10 675.47 
 818 674.35 674.12 675.47 
 819 675.27 674.04 675.47 
 820 673.76 674.17 675.47 
 821 675.40 674.10 675.47 
 822 675.29 670.01 675.47 
 823 675.32 665.91 675.47 
 824 675.33 666.00 675.47 
 825 675.18 669.88 675.47 
 826 675.18 674.06 675.47 
 827 675.51 673.96 675.47 
 828 675.55 674.01 675.51 
 829 674.78 669.84 675.55 
 830 675.64 665.87 675.55 
 831 675.58 666.00 675.64 
 832 675.31 661.86 675.64 
 833 675.09 670.03 675.64 
 834 675.44 670.18 675.64 
 835 675.48 670.16 675.64 
 836 675.39 674.34 675.64 
 837 675.12 674.26 675.64 
 838 675.71 670.07 675.64 
 839 675.65 665.96 675.71 
 840 676.04 665.88 675.71 
 841 675.24 669.91 676.04 
 842 676.45 665.77 676.04 
 843 675.47 657.65 676.45 
 844 676.59 673.95 676.45 
 845 674.58 678.16 676.59 
 846 676.16 678.32 676.59 
 847 676.49 678.33 676.59 
 848 674.38 678.40 676.59 
 849 674.39 678.42 676.59 
 850 670.54 678.47 676.59 
 851 676.05 674.42 676.59 
 852 676.43 678.41 676.59 
 853 676.45 674.28 676.59 
 854 676.22 674.47 676.59 
 855 676.54 678.32 676.59 
 856 677.00 674.30 676.59 
 857 677.09 674.36 677.00 
 858 677.25 678.46 677.09 
 859 672.41 678.52 677.25 
 860 676.99 678.56 677.25 
 861 676.30 678.69 677.25 
 862 677.92 678.68 677.25 
 863 674.91 678.57 677.92 
 864 677.49 678.63 677.92 
 865 677.17 678.45 677.92 
 866 677.06 678.62 677.92 
 867 677.56 678.51 677.92 
 868 676.30 678.62 677.92 
 869 676.24 678.66 677.92 
 870 677.57 678.55 677.92 
 871 677.95 678.46 677.92 
 872 677.63 678.51 677.95 
 873 677.95 678.50 677.95 
 874 677.94 678.46 677.95 
 875 677.98 678.54 677.95 
 876 677.96 678.42 677.98 
 877 676.18 678.47 677.98 
 878 677.31 678.46 677.98 
 879 678.08 678.55 677.98 
 880 677.06 678.61 678.08 
 881 677.90 678.57 678.08 
 882 678.06 678.36 678.08 
 883 677.79 678.44 678.08 
 884 678.44 678.51 678.08 
 885 677.81 678.54 678.44 
 886 678.04 678.45 678.44 
 887 677.41 678.40 678.44 
 888 677.86 678.35 678.44 
 889 677.01 678.33 678.44 
 890 677.82 678.58 678.44 
 891 675.41 678.63 678.44 
 892 677.68 678.61 678.44 
 893 678.27 678.72 678.44 
 894 676.87 678.72 678.44 
 895 676.83 678.74 678.44 
 896 678.47 678.82 678.44 
 897 677.85 678.88 678.47 
 898 678.24 678.96 678.47 
 899 678.39 678.98 678.47 
 900 678.50 678.93 678.47 
 901 678.42 678.89 678.50 
 902 677.72 678.74 678.50 
 903 678.36 678.66 678.50 
 904 678.60 678.79 678.50 
 905 678.87 678.86 678.60 
 906 677.76 678.79 678.87 
 907 677.51 678.77 678.87 
 908 678.56 678.85 678.87 
 909 678.63 678.97 678.87 
 910 678.59 678.97 678.87 
 911 676.19 678.93 678.87 
 912 678.39 679.08 678.87 
 913 678.77 678.98 678.87 
 914 678.60 679.02 678.87 
 915 678.48 679.16 678.87 
 916 678.90 679.13 678.87 
 917 678.59 679.08 678.90 
 918 679.21 679.13 678.90 
 919 678.64 679.03 679.21 
 920 678.99 679.31 679.21 
 921 679.27 679.23 679.21 
 922 678.65 679.33 679.27 
 923 678.96 679.20 679.27 
 924 679.29 679.00 679.27 
 925 679.05 679.00 679.29 
 926 678.76 678.93 679.29 
 927 679.20 678.89 679.29 
 928 679.17 678.86 679.29 
 929 678.28 679.08 679.29 
 930 679.33 679.20 679.29 
 931 677.74 679.28 679.33 
 932 678.00 679.36 679.33 
 933 679.37 679.31 679.33 
 934 677.84 679.38 679.37 
 935 677.04 679.44 679.37 
 936 679.39 679.32 679.37 
 937 679.55 679.29 679.39 
 938 679.28 679.32 679.55 
 939 678.92 679.49 679.55 
 940 678.94 679.42 679.55 
 941 679.30 679.47 679.55 
 942 679.32 679.54 679.55 
 943 679.46 679.58 679.55 
 944 679.59 679.71 679.55 
 945 679.51 679.68 679.59 
 946 679.54 679.64 679.59 
 947 679.57 679.61 679.59 
 948 679.31 679.57 679.59 
 949 679.48 679.45 679.59 
 950 679.69 679.40 679.59 
 951 679.32 679.51 679.69 
 952 679.51 679.48 679.69 
 953 679.64 679.45 679.69 
 954 679.66 679.40 679.69 
 955 679.60 679.33 679.69 
 956 679.47 679.37 679.69 
 957 676.72 679.50 679.69 
 958 679.72 679.63 679.69 
 959 679.66 679.69 679.72 
 960 679.53 679.90 679.72 
 961 679.55 679.97 679.72 
 962 679.69 679.96 679.72 
 963 679.48 679.85 679.72 
 964 678.31 679.87 679.72 
 965 679.71 679.81 679.72 
 966 679.79 679.72 679.72 
 967 679.70 679.63 679.79 
 968 678.79 679.54 679.79 
 969 679.55 679.57 679.79 
 970 679.42 679.48 679.79 
 971 678.44 679.47 679.79 
 972 679.35 679.58 679.79 
 973 679.72 679.81 679.79 
 974 679.36 679.93 679.79 
 975 679.55 679.85 679.79 
 976 679.27 679.75 679.79 
 977 678.79 679.74 679.79 
 978 679.54 679.78 679.79 
 979 679.36 679.74 679.79 
 980 679.61 679.81 679.79 
 981 679.88 679.96 679.79 
 982 679.84 679.92 679.88 
 983 679.83 679.93 679.88 
 984 679.32 679.93 679.88 
 985 679.89 680.00 679.88 
 986 679.76 679.98 679.89 
 987 679.78 680.20 679.89 
 988 679.97 680.25 679.89 
 989 679.90 680.20 679.97 
 990 679.80 680.04 679.97 
 991 679.18 680.04 679.97 
 992 678.96 679.97 679.97 
 993 679.78 679.98 679.97 
 994 679.66 679.92 679.97 
 995 679.84 679.70 679.97 
 996 679.80 679.64 679.97 
 997 679.60 679.51 679.97 
 998 679.52 679.66 679.97 
 999 679.01 679.67 679.97 
1000 679.76 679.69 679.97 
1001 679.87 679.77 679.97 
1002 679.88 679.71 679.97 
1003 679.84 679.74 679.97 
1004 679.98 679.81 679.97 
1005 679.42 679.52 679.98 
1006 679.10 679.48 679.98 
1007 679.97 679.51 679.98 
1008 679.92 679.55 679.98 
1009 679.82 679.49 679.98 
1010 679.91 679.44 679.98 
1011 678.41 679.48 679.98 
1012 679.43 679.54 679.98 
1013 679.32 679.57 679.98 
1014 679.94 679.75 679.98 
1015 679.59 679.91 679.98 
1016 680.04 679.99 679.98 
1017 680.05 679.94 680.04 
1018 679.94 679.99 680.05 
1019 679.94 680.05 680.05 
1020 679.78 680.10 680.05 
1021 679.42 680.03 680.05 
1022 679.95 679.98 680.05 
1023 680.06 679.87 680.05 
1024 678.81 679.86 680.06 
1025 680.13 679.85 680.06 
1026 679.92 679.96 680.13 
1027 679.94 679.83 680.13 
1028 680.07 679.89 680.13 
1029 679.87 679.92 680.13 
1030 680.07 679.94 680.13 
1031 679.91 679.86 680.13 
1032 680.20 679.86 680.13 
1033 679.87 679.82 680.20 
1034 680.02 679.88 680.20 
1035 680.01 679.83 680.20 
1036 680.05 679.79 680.20 
1037 679.97 679.82 680.20 
1038 680.15 679.94 680.20 
1039 680.12 679.95 680.20 
1040 679.83 679.91 680.20 
1041 679.98 679.88 680.20 
1042 679.71 679.87 680.20 
1043 680.10 679.83 680.20 
1044 679.78 679.87 680.20 
1045 679.76 679.88 680.20 
1046 679.89 679.76 680.20 
1047 680.01 679.88 680.20 
1048 680.07 679.77 680.20 
1049 680.15 679.79 680.20 
1050 680.27 679.90 680.20 
1051 680.10 679.89 680.27 
1052 680.10 679.81 680.27 
1053 680.28 679.80 680.27 
1054 679.23 679.76 680.28 
1055 680.22 679.69 680.28 
1056 680.19 679.72 680.28 
1057 680.15 679.68 680.28 
1058 680.21 679.70 680.28 
1059 680.17 679.80 680.28 
1060 680.15 679.81 680.28 
1061 680.25 679.90 680.28 
1062 680.26 679.97 680.28 
1063 680.18 680.01 680.28 
1064 680.23 680.14 680.28 
1065 680.39 680.11 680.28 
1066 680.03 680.14 680.39 
1067 680.17 680.08 680.39 
1068 680.39 680.03 680.39 
1069 680.39 679.98 680.39 
1070 680.32 680.10 680.39 
1071 680.26 680.12 680.39 
1072 680.24 680.13 680.39 
1073 679.99 679.98 680.39 
1074 680.31 679.91 680.39 
1075 680.34 679.95 680.39 
1076 680.32 680.04 680.39 
1077 680.30 679.98 680.39 
1078 680.35 680.01 680.39 
1079 679.83 680.07 680.39 
1080 680.19 680.06 680.39 
1081 680.12 680.11 680.39 
1082 680.28 680.15 680.39 
1083 680.29 680.13 680.39 
1084 680.23 680.12 680.39 
1085 679.27 680.13 680.39 
1086 679.95 680.19 680.39 
1087 680.25 680.17 680.39 
1088 680.25 680.09 680.39 
1089 680.37 680.09 680.39 
1090 680.27 680.09 680.39 
1091 680.36 680.13 680.39 
1092 680.35 680.03 680.39 
1093 680.40 680.01 680.39 
1094 680.38 680.09 680.40 
1095 680.35 680.09 680.40 
1096 680.48 680.11 680.40 
1097 680.38 680.15 680.48 
1098 680.38 680.19 680.48 
1099 680.27 680.04 680.48 
1100 680.43 679.99 680.48 
1101 680.53 680.01 680.48 
1102 680.35 679.97 680.53 
1103 680.02 680.09 680.53 
1104 680.05 680.02 680.53 
1105 679.53 679.89 680.53 
1106 680.37 679.82 680.53 
1107 679.85 679.78 680.53 
1108 680.37 679.78 680.53 
1109 680.26 679.86 680.53 
1110 680.33 679.94 680.53 
1111 680.36 679.92 680.53 
1112 680.36 679.94 680.53 
1113 680.43 679.98 680.53 
1114 680.32 680.01 680.53 
1115 680.45 680.09 680.53 
1116 680.09 680.08 680.53 
1117 680.52 680.14 680.53 
1118 680.42 680.19 680.53 
1119 680.45 680.11 680.53 
1120 680.43 680.24 680.53 
1121 680.37 680.20 680.53 
1122 679.97 680.18 680.53 
1123 680.48 680.23 680.53 
1124 680.45 680.22 680.53 
1125 680.51 680.21 680.53 
1126 680.49 680.27 680.53 
1127 680.59 680.23 680.53 
1128 680.66 680.28 680.59 
1129 680.63 680.31 680.66 
1130 680.41 680.24 680.66 
1131 680.55 680.23 680.66 
1132 680.65 680.24 680.66 
1133 680.49 680.24 680.66 
1134 680.53 680.29 680.66 
1135 680.60 680.31 680.66 
1136 680.64 680.35 680.66 
1137 680.61 680.37 680.66 
1138 680.67 680.39 680.66 
1139 680.33 680.32 680.67 
1140 680.52 680.34 680.67 
1141 680.79 680.26 680.67 
1142 680.21 680.31 680.79 
1143 680.55 680.24 680.79 
1144 680.57 680.17 680.79 
1145 680.64 680.12 680.79 
1146 680.69 680.06 680.79 
1147 680.57 680.09 680.79 
1148 680.62 680.06 680.79 
1149 680.72 680.12 680.79 
1150 680.62 680.13 680.79 
1151 680.63 680.09 680.79 
1152 680.71 680.08 680.79 
1153 680.74 680.14 680.79 
1154 680.70 680.12 680.79 
1155 680.62 680.13 680.79 
1156 680.72 680.17 680.79 
1157 680.77 680.16 680.79 
1158 680.69 680.04 680.79 
1159 680.28 680.01 680.79 
1160 680.73 680.02 680.79 
1161 680.63 680.09 680.79 
1162 680.70 680.03 680.79 
1163 680.64 680.09 680.79 
1164 680.46 680.16 680.79 
1165 679.80 680.07 680.79 
1166 680.71 680.03 680.79 
1167 680.71 680.07 680.79 
1168 680.17 680.07 680.79 
1169 680.73 680.08 680.79 
1170 680.77 679.96 680.79 
1171 680.74 679.89 680.79 
1172 680.71 679.83 680.79 
1173 680.68 679.90 680.79 
1174 680.74 679.92 680.79 
1175 680.55 679.92 680.79 
1176 680.66 679.99 680.79 
1177 680.76 680.07 680.79 
1178 680.71 680.02 680.79 
1179 680.64 679.96 680.79 
1180 680.55 679.93 680.79 
1181 680.69 679.92 680.79 
1182 680.74 679.96 680.79 
1183 680.79 680.03 680.79 
1184 680.77 680.11 680.79 
1185 680.72 680.16 680.79 
1186 680.79 680.10 680.79 
1187 680.84 680.20 680.79 
1188 680.80 680.27 680.84 
1189 680.37 680.34 680.84 
1190 680.79 680.27 680.84 
1191 680.25 680.38 680.84 
1192 680.18 680.46 680.84 
1193 680.78 680.46 680.84 
1194 680.80 680.45 680.84 
1195 680.78 680.51 680.84 
1196 680.52 680.43 680.84 
1197 680.80 680.39 680.84 
1198 680.79 680.41 680.84 
1199 680.80 680.52 680.84 
1200 680.88 680.41 680.84 
1201 680.86 680.42 680.88 
1202 680.71 680.47 680.88 
1203 680.93 680.46 680.88 
1204 680.82 680.42 680.93 
1205 680.76 680.42 680.93 
1206 680.95 680.42 680.93 
1207 680.90 680.49 680.95 
1208 680.87 680.59 680.95 
1209 680.84 680.61 680.95 
1210 680.94 680.61 680.95 
1211 680.91 680.60 680.95 
1212 679.91 680.67 680.95 
1213 680.75 680.63 680.95 
1214 680.90 680.61 680.95 
1215 681.00 680.60 680.95 
1216 680.66 680.64 681.00 
1217 680.92 680.65 681.00 
1218 677.99 680.72 681.00 
1219 680.62 680.75 681.00 
1220 680.36 680.74 681.00 
1221 680.68 680.70 681.00 
1222 680.79 680.65 681.00 
1223 680.67 680.72 681.00 
1224 680.83 680.71 681.00 
1225 680.91 680.74 681.00 
1226 680.85 680.71 681.00 
1227 680.69 680.73 681.00 
1228 680.85 680.68 681.00 
1229 680.98 680.74 681.00 
1230 680.90 680.72 681.00 
1231 680.98 680.61 681.00 
1232 680.96 680.60 681.00 
1233 681.00 680.64 681.00 
1234 680.92 680.64 681.00 
1235 680.99 680.72 681.00 
1236 680.88 680.74 681.00 
1237 680.79 680.67 681.00 
1238 680.94 680.58 681.00 
1239 680.85 680.64 681.00 
1240 680.83 680.62 681.00 
1241 680.92 680.63 681.00 
1242 680.91 680.62 681.00 
1243 680.97 680.61 681.00 
1244 680.93 680.63 681.00 
1245 680.99 680.56 681.00 
1246 680.95 680.60 681.00 
1247 681.02 680.60 681.00 
1248 673.82 680.57 681.02 
1249 681.10 680.55 681.02 
1250 681.02 680.58 681.10 
1251 680.97 680.46 681.10 
1252 680.99 680.42 681.10 
1253 679.41 680.31 681.10 
1254 680.92 680.21 681.10 
1255 680.87 680.13 681.10 
1256 680.90 680.03 681.10 
1257 680.77 680.14 681.10 
1258 680.53 680.18 681.10 
1259 680.58 680.04 681.10 
1260 680.72 680.01 681.10 
1261 680.78 680.05 681.10 
1262 680.72 680.09 681.10 
1263 680.14 680.11 681.10 
1264 680.60 680.12 681.10 
1265 680.71 680.01 681.10 
1266 680.12 680.01 681.10 
1267 676.40 679.91 681.10 
1268 675.39 680.02 681.10 
1269 679.51 679.96 681.10 
1270 675.70 679.78 681.10 
1271 680.07 679.80 681.10 
1272 680.11 679.86 681.10 
1273 680.38 679.84 681.10 
1274 680.43 680.00 681.10 
1275 680.64 680.01 681.10 
1276 680.42 680.02 681.10 
1277 680.50 680.01 681.10 
1278 680.37 680.14 681.10 
1279 680.34 680.17 681.10 
1280 677.69 680.10 681.10 
1281 680.06 680.06 681.10 
1282 680.39 680.06 681.10 
1283 680.78 680.03 681.10 
1284 680.76 680.05 681.10 
1285 680.71 680.04 681.10 
1286 680.87 680.08 681.10 
1287 680.63 680.15 681.10 
1288 680.48 680.22 681.10 
1289 680.74 680.17 681.10 
1290 680.65 680.17 681.10 
1291 680.79 680.23 681.10 
1292 679.86 680.18 681.10 
1293 680.61 680.10 681.10 
1294 680.45 680.08 681.10 
1295 672.15 680.13 681.10 
1296 680.74 680.16 681.10 
1297 680.70 680.22 681.10 
1298 680.69 680.27 681.10 
1299 680.72 680.35 681.10 
1300 680.75 680.36 681.10 
1301 680.70 680.35 681.10 
1302 680.64 680.40 681.10 
1303 680.41 680.43 681.10 
1304 680.49 680.40 681.10 
1305 680.18 680.37 681.10 
1306 680.56 680.35 681.10 
1307 680.75 680.37 681.10 
1308 680.82 680.33 681.10 
1309 680.86 680.37 681.10 
1310 680.92 680.31 681.10 
1311 680.81 680.36 681.10 
1312 680.94 680.39 681.10 
1313 680.91 680.34 681.10 
1314 680.72 680.29 681.10 
1315 680.54 680.32 681.10 
1316 680.83 680.26 681.10 
1317 680.73 680.23 681.10 
1318 680.92 680.30 681.10 
1319 681.03 680.31 681.10 
1320 681.02 680.30 681.10 
1321 681.05 680.30 681.10 
1322 681.07 680.36 681.10 
1323 680.55 680.37 681.10 
1324 680.83 680.38 681.10 
1325 680.97 680.29 681.10 
1326 680.13 680.27 681.10 
1327 681.04 680.32 681.10 
1328 680.93 680.34 681.10 
1329 681.03 680.29 681.10 
1330 681.01 680.36 681.10 
1331 680.58 680.29 681.10 
1332 680.94 680.27 681.10 
1333 680.98 680.23 681.10 
1334 681.03 680.27 681.10 
1335 680.89 680.25 681.10 
1336 681.12 680.21 681.10 
1337 681.05 680.15 681.12 
1338 680.92 680.11 681.12 
1339 681.05 680.13 681.12 
1340 681.12 680.23 681.12 
1341 681.01 680.24 681.12 
1342 680.95 680.19 681.12 
1343 681.11 680.22 681.12 
1344 681.06 680.20 681.12 
1345 680.99 680.18 681.12 
1346 681.07 680.23 681.12 
1347 681.16 680.27 681.12 
1348 681.12 680.30 681.16 
1349 680.22 680.26 681.16 
1350 681.17 680.19 681.16 
1351 680.98 680.18 681.17 
1352 680.77 680.27 681.17 
1353 681.20 680.26 681.17 
1354 681.19 680.29 681.20 
1355 681.16 680.41 681.20 
1356 681.02 680.51 681.20 
1357 681.09 680.49 681.20 
1358 681.16 680.55 681.20 
1359 681.15 680.59 681.20 
1360 680.77 680.56 681.20 
1361 680.80 680.47 681.20 
1362 681.12 680.55 681.20 
1363 681.12 680.43 681.20 
1364 681.13 680.30 681.20 
1365 681.13 680.34 681.20 
1366 681.22 680.35 681.20 
1367 681.00 680.44 681.22 
1368 681.21 680.59 681.22 
1369 681.19 680.48 681.22 
1370 681.18 680.47 681.22 
1371 681.13 680.44 681.22 
1372 681.15 680.54 681.22 
1373 681.12 680.51 681.22 
1374 681.19 680.46 681.22 
1375 681.23 680.44 681.22 
1376 681.20 680.48 681.23 
1377 681.19 680.42 681.23 
1378 681.18 680.37 681.23 
1379 681.18 680.43 681.23 
1380 681.29 680.46 681.23 
1381 681.31 680.42 681.29 
1382 681.31 680.47 681.31 
1383 681.22 680.48 681.31 
1384 679.71 680.57 681.31 
1385 680.95 680.57 681.31 
1386 681.24 680.51 681.31 
1387 681.32 680.52 681.31 
1388 681.26 680.59 681.32 
1389 681.36 680.62 681.32 
1390 681.22 680.60 681.36 
1391 681.22 680.66 681.36 
1392 681.42 680.74 681.36 
1393 681.29 680.72 681.42 
1394 681.28 680.66 681.42 
1395 681.18 680.71 681.42 
1396 681.28 680.66 681.42 
1397 681.28 680.63 681.42 
1398 680.52 680.60 681.42 
1399 681.36 680.57 681.42 
1400 680.98 680.52 681.42 
1401 681.27 680.59 681.42 
1402 681.28 680.58 681.42 
1403 681.44 680.59 681.42 
1404 681.45 680.65 681.44 
1405 681.27 680.63 681.45 
1406 681.20 680.61 681.45 
1407 681.44 680.56 681.45 
1408 681.33 680.64 681.45 
1409 681.36 680.60 681.45 
1410 681.40 680.60 681.45 
1411 681.34 680.58 681.45 
1412 681.43 680.64 681.45 
1413 681.35 680.63 681.45 
1414 681.40 680.60 681.45 
1415 681.41 680.61 681.45 
1416 681.36 680.62 681.45 
1417 679.30 680.58 681.45 
1418 681.01 680.64 681.45 
1419 681.27 680.70 681.45 
1420 681.40 680.73 681.45 
1421 681.21 680.73 681.45 
1422 681.39 680.65 681.45 
1423 681.36 680.68 681.45 
1424 681.41 680.79 681.45 
1425 681.52 680.79 681.45 
1426 680.99 680.81 681.52 
1427 681.34 680.86 681.52 
1428 681.32 680.82 681.52 
1429 681.45 680.83 681.52 
1430 681.45 680.85 681.52 
1431 681.53 680.78 681.52 
1432 681.38 680.80 681.53 
1433 681.40 680.81 681.53 
1434 681.39 680.83 681.53 
1435 681.48 680.76 681.53 
1436 681.47 680.76 681.53 
1437 680.82 680.83 681.53 
1438 681.49 680.83 681.53 
1439 681.48 680.91 681.53 
1440 681.49 680.83 681.53 
1441 681.40 680.78 681.53 
1442 681.43 680.76 681.53 
1443 681.29 680.76 681.53 
1444 681.36 680.80 681.53 
1445 681.36 680.77 681.53 
1446 681.39 680.78 681.53 
1447 681.46 680.76 681.53 
1448 680.79 680.79 681.53 
1449 681.43 680.77 681.53 
1450 681.20 680.78 681.53 
1451 681.48 680.84 681.53 
1452 681.50 680.83 681.53 
1453 681.46 680.78 681.53 
1454 681.43 680.75 681.53 
1455 681.36 680.72 681.53 
1456 681.45 680.73 681.53 
1457 681.23 680.69 681.53 
1458 681.32 680.66 681.53 
1459 681.48 680.55 681.53 
1460 681.45 680.55 681.53 
1461 681.43 680.55 681.53 
1462 681.46 680.63 681.53 
1463 681.33 680.58 681.53 
1464 681.45 680.62 681.53 
1465 681.39 680.65 681.53 
1466 681.37 680.69 681.53 
1467 681.38 680.73 681.53 
1468 681.46 680.72 681.53 
1469 681.45 680.72 681.53 
1470 681.46 680.69 681.53 
1471 681.47 680.74 681.53 
1472 681.37 680.80 681.53 
1473 681.49 680.85 681.53 
1474 681.49 680.93 681.53 
1475 681.51 680.86 681.53 
1476 681.54 680.85 681.53 
1477 681.52 680.89 681.54 
1478 681.41 680.85 681.54 
1479 681.52 680.85 681.54 
1480 681.51 680.90 681.54 
1481 681.52 680.94 681.54 
1482 681.53 680.88 681.54 
1483 681.58 680.83 681.54 
1484 681.49 680.86 681.58 
1485 681.57 680.84 681.58 
1486 681.49 680.78 681.58 
1487 681.61 680.77 681.58 
1488 681.56 680.79 681.61 
1489 681.53 680.87 681.61 
1490 681.58 680.94 681.61 
1491 681.61 680.94 681.61 
1492 681.59 681.00 681.61 
1493 681.63 680.97 681.61 
1494 681.59 680.96 681.63 
1495 681.61 680.93 681.63 
1496 681.46 680.86 681.63 
1497 681.55 680.90 681.63 
1498 681.67 680.86 681.63 
1499 681.57 680.88 681.67 
1500 681.64 680.96 681.67 
1501 681.59 680.98 681.67 
1502 681.53 680.80 681.67 
1503 681.62 680.87 681.67 
1504 681.65 680.98 681.67 
1505 681.70 680.90 681.67 
1506 678.11 680.84 681.70 
1507 681.69 680.78 681.70 
1508 681.69 680.61 681.70 
1509 681.63 680.56 681.70 
1510 681.57 680.63 681.70 
1511 681.64 680.46 681.70 
1512 681.60 680.46 681.70 
1513 681.65 680.58 681.70 
1514 681.57 680.54 681.70 
1515 681.37 680.53 681.70 
1516 681.50 680.52 681.70 
1517 681.38 680.59 681.70 
1518 681.65 680.59 681.70 
1519 681.68 680.80 681.70 
1520 681.56 680.96 681.70 
1521 681.60 680.97 681.70 
1522 681.70 680.95 681.70 
1523 681.59 680.91 681.70 
1524 681.72 680.98 681.70 
1525 681.71 681.03 681.72 
1526 681.59 681.14 681.72 
1527 681.65 681.02 681.72 
1528 681.73 681.13 681.72 
1529 681.75 681.06 681.73 
1530 681.77 681.10 681.75 
1531 681.66 681.14 681.77 
1532 681.58 681.15 681.77 
1533 681.73 681.05 681.77 
1534 681.59 681.11 681.77 
1535 681.71 681.13 681.77 
1536 681.77 681.29 681.77 
1537 681.73 681.24 681.77 
1538 681.72 681.44 681.77 
1539 681.29 681.33 681.77 
1540 681.74 681.26 681.77 
1541 681.75 681.31 681.77 
1542 681.68 681.33 681.77 
1543 681.65 681.41 681.77 
1544 681.73 681.42 681.77 
1545 681.68 681.41 681.77 
1546 681.81 681.49 681.77 
1547 681.74 681.46 681.81 
1548 681.77 681.59 681.81 
1549 681.31 681.51 681.81 
1550 681.81 681.51 681.81 
1551 681.63 681.51 681.81 
1552 681.18 681.65 681.81 
1553 681.73 681.72 681.81 
1554 681.61 681.55 681.81 
1555 681.58 681.56 681.81 
1556 681.51 681.60 681.81 
1557 681.72 681.70 681.81 
1558 681.77 681.72 681.81 
1559 681.85 681.51 681.81 
1560 681.83 681.65 681.85 
1561 681.76 681.57 681.85 
1562 681.48 681.65 681.85 
1563 681.74 681.53 681.85 
1564 681.79 681.54 681.85 
1565 681.70 681.68 681.85 
1566 681.71 681.63 681.85 
1567 681.83 681.69 681.85 
1568 681.82 681.62 681.85 
1569 681.81 681.63 681.85 
1570 681.61 681.58 681.85 
1571 681.78 681.53 681.85 
1572 681.79 681.59 681.85 
1573 681.76 681.63 681.85 
1574 681.74 681.48 681.85 
1575 681.80 681.45 681.85 
1576 681.83 681.56 681.85 
1577 681.80 681.60 681.85 
1578 681.78 681.61 681.85 
1579 681.62 681.57 681.85 
1580 681.83 681.57 681.85 
1581 681.78 681.61 681.85 
1582 681.78 681.57 681.85 
1583 681.80 681.60 681.85 
1584 681.67 681.53 681.85 
1585 681.75 681.64 681.85 
1586 681.80 681.57 681.85 
1587 681.82 681.69 681.85 
1588 681.75 681.74 681.85 
1589 680.13 681.85 681.85 
1590 681.85 681.78 681.85 
1591 681.82 681.96 681.85 
1592 681.79 682.03 681.85 
1593 681.51 681.94 681.85 
1594 681.72 681.95 681.85 
1595 681.75 681.88 681.85 
1596 681.73 681.95 681.85 
1597 681.75 682.19 681.85 
1598 681.77 681.94 681.85 
1599 681.77 681.93 681.85 
1600 681.81 681.98 681.85 
1601 681.82 681.87 681.85 
1602 681.87 681.98 681.85 
1603 681.69 681.89 681.87 
1604 681.87 681.82 681.87 
1605 681.85 681.93 681.87 
1606 681.77 682.03 681.87 
1607 681.85 681.98 681.87 
1608 681.68 681.98 681.87 
1609 681.89 682.04 681.87 
1610 681.81 682.02 681.89 
1611 681.77 681.92 681.89 
1612 681.87 681.91 681.89 
1613 681.91 681.92 681.89 
1614 681.93 681.98 681.91 
1615 681.89 681.96 681.93 
1616 680.53 682.12 681.93 
1617 681.87 682.11 681.93 
1618 681.88 681.96 681.93 
1619 681.93 681.93 681.93 
1620 681.85 681.88 681.93 
1621 681.74 681.92 681.93 
1622 681.77 681.93 681.93 
1623 681.87 681.98 681.93 
1624 681.87 681.93 681.93 
1625 681.70 681.90 681.93 
1626 681.80 681.93 681.93 
1627 681.58 681.93 681.93 
1628 681.77 682.01 681.93 
1629 681.94 682.14 681.93 
1630 681.73 682.17 681.94 
1631 681.89 682.16 681.94 
1632 681.91 682.11 681.94 
1633 681.78 682.11 681.94 
1634 681.91 682.09 681.94 
1635 681.88 682.13 681.94 
1636 681.92 682.22 681.94 
1637 681.84 682.32 681.94 
1638 681.86 682.33 681.94 
1639 681.86 682.34 681.94 
1640 681.88 682.39 681.94 
1641 681.90 682.31 681.94 
1642 681.86 682.37 681.94 
1643 681.93 682.49 681.94 
1644 681.96 682.51 681.94 
1645 681.95 682.44 681.96 
1646 681.88 682.50 681.96 
1647 680.70 682.57 681.96 
1648 681.76 682.62 681.96 
1649 681.93 682.67 681.96 
1650 681.97 682.77 681.96 
1651 681.94 682.81 681.97 
1652 681.66 682.79 681.97 
1653 681.88 682.78 681.97 
1654 681.96 682.80 681.97 
1655 681.94 682.66 681.97 
1656 681.98 682.77 681.97 
1657 681.99 682.87 681.98 
1658 681.96 682.97 681.99 
1659 682.01 682.86 681.99 
1660 681.99 682.89 682.01 
1661 682.02 682.87 682.01 
1662 681.94 683.02 682.02 
1663 682.04 683.10 682.02 
1664 682.04 683.08 682.04 
1665 682.10 683.11 682.04 
1666 682.10 683.13 682.10 
1667 682.04 683.18 682.10 
1668 682.09 683.20 682.10 
1669 682.08 683.27 682.10 
1670 682.02 683.29 682.10 
1671 682.02 683.28 682.10 
1672 682.06 683.29 682.10 
1673 682.04 683.31 682.10 
1674 682.07 683.31 682.10 
1675 682.12 683.38 682.10 
1676 682.07 683.32 682.12 
1677 681.92 683.34 682.12 
1678 682.02 683.33 682.12 
1679 682.10 683.35 682.12 
1680 682.05 683.37 682.12 
1681 682.03 683.33 682.12 
1682 682.13 683.33 682.12 
1683 682.08 683.39 682.13 
1684 682.09 683.42 682.13 
1685 682.11 683.34 682.13 
1686 681.97 683.41 682.13 
1687 682.15 683.50 682.13 
1688 682.16 683.52 682.15 
1689 682.18 683.61 682.16 
1690 682.19 683.66 682.18 
1691 682.16 683.66 682.19 
1692 682.05 683.64 682.19 
1693 682.05 683.62 682.19 
1694 682.12 683.65 682.19 
1695 682.11 683.66 682.19 
1696 682.22 683.71 682.19 
1697 682.12 683.76 682.22 
1698 682.08 683.75 682.22 
1699 682.14 683.78 682.22 
1700 682.12 683.78 682.22 
1701 682.10 683.79 682.22 
1702 682.16 683.81 682.22 
1703 682.12 683.78 682.22 
1704 682.11 683.78 682.22 
1705 682.05 683.80 682.22 
1706 678.00 683.79 682.22 
1707 682.12 683.77 682.22 
1708 682.13 683.79 682.22 
1709 682.13 683.76 682.22 
1710 682.08 683.75 682.22 
1711 682.14 683.83 682.22 
1712 681.98 683.85 682.22 
1713 682.14 683.94 682.22 
1714 682.15 683.92 682.22 
1715 681.96 683.88 682.22 
1716 682.00 683.81 682.22 
1717 682.14 683.79 682.22 
1718 681.43 683.74 682.22 
1719 682.11 683.81 682.22 
1720 681.77 683.85 682.22 
1721 681.95 683.91 682.22 
1722 681.99 683.90 682.22 
1723 681.91 683.90 682.22 
1724 681.86 683.87 682.22 
1725 682.07 683.93 682.22 
1726 682.12 683.91 682.22 
1727 682.06 683.87 682.22 
1728 682.24 683.89 682.22 
1729 682.20 683.90 682.24 
1730 682.22 683.88 682.24 
1731 682.21 683.87 682.24 
1732 682.19 683.86 682.24 
1733 682.04 683.83 682.24 
1734 682.03 683.79 682.24 
1735 682.06 683.80 682.24 
1736 682.10 683.73 682.24 
1737 682.18 683.81 682.24 
1738 682.03 683.80 682.24 
1739 682.19 683.77 682.24 
1740 681.98 683.74 682.24 
1741 682.10 683.76 682.24 
1742 682.02 683.72 682.24 
1743 682.23 683.71 682.24 
1744 682.21 683.71 682.24 
1745 682.13 683.69 682.24 
1746 682.14 683.72 682.24 
1747 682.22 683.73 682.24 
1748 682.18 683.68 682.24 
1749 682.18 683.55 682.24 
1750 682.23 683.53 682.24 
1751 682.18 683.60 682.24 
1752 682.20 683.61 682.24 
1753 682.12 683.69 682.24 
1754 682.13 683.69 682.24 
1755 682.19 683.74 682.24 
1756 682.20 683.60 682.24 
1757 682.17 683.61 682.24 
1758 682.24 683.48 682.24 
1759 682.15 683.54 682.24 
1760 682.21 683.47 682.24 
1761 682.23 683.40 682.24 
1762 682.24 683.39 682.24 
1763 682.26 683.32 682.24 
1764 682.28 683.42 682.26 
1765 682.22 683.42 682.28 
1766 681.96 683.44 682.28 
1767 682.28 683.45 682.28 
1768 682.30 683.55 682.28 
1769 682.29 683.62 682.30 
1770 682.32 683.59 682.30 
1771 682.31 683.58 682.32 
1772 682.24 683.56 682.32 
1773 682.28 683.51 682.32 
1774 682.27 683.66 682.32 
1775 682.26 683.62 682.32 
1776 682.26 683.62 682.32 
1777 681.74 683.72 682.32 
1778 682.35 683.80 682.32 
1779 681.30 683.83 682.35 
1780 682.36 683.86 682.35 
1781 682.29 683.88 682.36 
1782 682.29 683.86 682.36 
1783 682.29 683.87 682.36 
1784 682.25 683.95 682.36 
1785 682.18 683.91 682.36 
1786 682.24 683.93 682.36 
1787 682.26 683.94 682.36 
1788 682.02 683.93 682.36 
1789 682.27 683.90 682.36 
1790 682.36 683.91 682.36 
1791 682.38 683.92 682.36 
1792 682.29 683.89 682.38 
1793 682.28 683.86 682.38 
1794 682.33 683.84 682.38 
1795 682.37 683.88 682.38 
1796 682.39 683.87 682.38 
1797 682.33 683.88 682.39 
1798 682.31 683.88 682.39 
1799 682.31 683.87 682.39 
1800 682.29 683.88 682.39 
1801 682.40 683.84 682.39 
1802 682.30 683.85 682.40 
1803 682.30 683.85 682.40 
1804 682.35 683.87 682.40 
1805 682.38 683.88 682.40 
1806 682.42 683.89 682.40 
1807 682.39 683.87 682.42 
1808 682.40 683.89 682.42 
1809 682.41 683.89 682.42 
1810 682.46 683.91 682.42 
1811 682.41 683.93 682.46 
1812 682.49 683.91 682.46 
1813 682.46 683.92 682.49 
1814 682.50 683.93 682.49 
1815 682.57 683.95 682.50 
1816 682.55 683.95 682.57 
1817 682.55 683.94 682.57 
1818 682.63 683.97 682.57 
1819 682.63 683.99 682.63 
1820 682.61 683.98 682.63 
1821 682.68 683.97 682.63 
1822 682.75 684.00 682.68 
1823 682.71 684.02 682.75 
1824 682.81 684.02 682.75 
1825 682.95 683.99 682.81 
1826 683.08 684.01 682.95 
1827 683.16 684.03 683.08 
1828 683.21 684.03 683.16 
1829 682.74 684.03 683.21 
1830 683.31 684.02 683.21 
1831 683.27 684.06 683.31 
1832 683.53 684.05 683.31 
1833 683.46 684.04 683.53 
1834 683.62 684.05 683.53 
1835 683.71 684.04 683.62 
1836 683.70 684.07 683.71 
1837 683.81 684.09 683.71 
1838 683.55 684.09 683.81 
1839 683.77 684.06 683.81 
1840 683.73 684.10 683.81 
1841 683.73 684.08 683.81 
1842 683.74 684.10 683.81 
1843 683.76 684.10 683.81 
1844 683.75 684.13 683.81 
1845 683.80 684.11 683.81 
1846 683.75 684.13 683.81 
1847 683.76 684.13 683.81 
1848 683.88 684.18 683.81 
1849 683.83 684.15 683.88 
1850 683.80 684.18 683.88 
1851 683.85 684.15 683.88 
1852 683.81 684.12 683.88 
1853 683.78 684.11 683.88 
1854 683.84 684.12 683.88 
1855 683.62 684.11 683.88 
1856 683.89 684.12 683.88 
1857 683.87 684.13 683.89 
1858 683.84 684.14 683.89 
1859 683.98 684.11 683.89 
1860 683.91 684.07 683.98 
1861 684.00 684.14 683.98 
1862 684.04 684.10 684.00 
1863 684.04 684.08 684.04 
1864 683.98 684.10 684.04 
1865 683.65 684.10 684.04 
1866 684.06 684.13 684.04 
1867 684.03 684.09 684.06 
1868 683.96 684.07 684.06 
1869 684.04 684.08 684.06 
1870 684.07 684.07 684.06 
1871 684.17 684.07 684.07 
1872 684.06 684.10 684.17 
1873 684.08 684.11 684.17 
1874 684.04 684.09 684.17 
1875 683.91 684.10 684.17 
1876 684.06 684.10 684.17 
1877 684.13 684.09 684.17 
1878 684.09 684.09 684.17 
1879 683.98 684.13 684.17 
1880 684.06 684.20 684.17 
1881 684.20 684.16 684.17 
1882 684.11 684.12 684.20 
1883 683.77 684.08 684.20 
1884 684.06 684.08 684.20 
1885 684.10 684.07 684.20 
1886 684.09 684.03 684.20 
1887 684.14 684.00 684.20 
1888 684.12 683.98 684.20 
1889 684.17 683.97 684.20 
1890 684.11 683.99 684.20 
1891 683.87 684.01 684.20 
1892 684.13 684.01 684.20 
1893 684.21 684.02 684.20 
1894 684.18 684.01 684.21 
1895 684.16 684.11 684.21 
1896 684.08 684.11 684.21 
1897 684.18 684.07 684.21 
1898 684.11 684.06 684.21 
1899 684.16 684.07 684.21 
1900 684.06 684.03 684.21 
1901 684.18 684.02 684.21 
1902 684.16 684.01 684.21 
1903 684.17 683.95 684.21 
1904 684.16 683.98 684.21 
1905 684.14 684.04 684.21 
1906 684.19 684.01 684.21 
1907 684.13 683.97 684.21 
1908 684.18 683.97 684.21 
1909 684.11 683.97 684.21 
1910 684.13 683.93 684.21 
1911 684.19 683.91 684.21 
1912 681.24 683.98 684.21 
1913 684.24 683.91 684.21 
1914 684.17 683.86 684.24 
1915 684.20 683.86 684.24 
1916 684.20 683.84 684.24 
1917 684.14 683.87 684.24 
1918 684.17 683.81 684.24 
1919 684.11 683.78 684.24 
1920 684.07 683.75 684.24 
1921 684.04 683.82 684.24 
1922 684.03 683.86 684.24 
1923 684.07 683.92 684.24 
1924 684.12 683.87 684.24 
1925 684.06 683.84 684.24 
1926 683.72 683.84 684.24 
1927 684.05 683.88 684.24 
1928 683.94 683.88 684.24 
1929 684.05 683.88 684.24 
1930 684.10 683.85 684.24 
1931 684.13 683.85 684.24 
1932 684.09 683.86 684.24 
1933 684.15 683.85 684.24 
1934 684.11 683.91 684.24 
1935 684.14 683.96 684.24 
1936 684.23 683.97 684.24 
1937 684.26 683.93 684.24 
1938 684.16 683.95 684.26 
1939 684.19 683.96 684.26 
1940 684.27 683.91 684.26 
1941 684.16 683.93 684.27 
1942 684.23 683.90 684.27 
1943 684.24 683.90 684.27 
1944 684.28 683.92 684.27 
1945 684.28 683.98 684.28 
1946 684.32 683.92 684.28 
1947 684.27 683.99 684.32 
1948 684.23 683.96 684.32 
1949 684.31 684.00 684.32 
1950 684.36 683.99 684.32 
1951 684.32 683.97 684.36 
1952 684.37 683.92 684.36 
1953 684.36 684.00 684.37 
1954 684.36 684.04 684.37 
1955 684.38 684.13 684.37 
1956 684.38 684.16 684.38 
1957 684.43 684.10 684.38 
1958 684.41 684.11 684.43 
1959 684.31 684.11 684.43 
1960 684.41 684.12 684.43 
1961 684.44 684.09 684.43 
1962 684.46 684.11 684.44 
1963 684.41 684.15 684.46 
1964 684.41 684.16 684.46 
1965 684.40 684.18 684.46 
1966 684.46 684.17 684.46 
1967 684.40 684.19 684.46 
1968 684.22 684.20 684.46 
1969 684.42 684.19 684.46 
1970 684.43 684.15 684.46 
1971 684.40 684.14 684.46 
1972 684.35 684.09 684.46 
1973 684.46 684.17 684.46 
1974 684.38 684.12 684.46 
1975 684.44 684.11 684.46 
1976 684.39 684.12 684.46 
1977 684.34 684.14 684.46 
1978 684.14 684.14 684.46 
1979 684.37 684.10 684.46 
1980 684.40 684.11 684.46 
1981 684.34 684.14 684.46 
1982 684.14 684.17 684.46 
1983 684.47 684.18 684.46 
1984 684.47 684.20 684.47 
1985 684.41 684.22 684.47 
1986 684.10 684.26 684.47 
1987 684.27 684.26 684.47 
1988 684.46 684.23 684.47 
1989 684.46 684.24 684.47 
1990 684.45 684.20 684.47 
1991 684.50 684.17 684.47 
1992 684.48 684.17 684.50 
1993 684.45 684.16 684.50 
1994 684.49 684.16 684.50 
1995 684.46 684.15 684.50 
1996 684.56 684.18 684.50 
1997 684.58 684.12 684.56 
1998 684.51 684.11 684.58 
1999 684.59 684.11 684.58 
2000 684.62 684.10 684.59 
2001 684.56 684.09 684.62 
2002 684.23 684.09 684.62 
2003 684.63 684.09 684.62 
2004 684.60 684.10 684.63 
2005 684.63 684.10 684.63 
2006 684.48 684.13 684.63 
2007 684.59 684.13 684.63 
2008 684.71 684.21 684.63 
2009 684.63 684.24 684.71 
2010 684.42 684.25 684.71 
2011 684.57 684.22 684.71 
2012 684.74 684.26 684.71 
2013 684.72 684.25 684.74 
2014 684.74 684.30 684.74 
2015 684.61 684.33 684.74 
2016 684.78 684.34 684.74 
2017 684.66 684.37 684.78 
2018 684.76 684.39 684.78 
2019 684.80 684.47 684.78 
2020 684.70 684.53 684.80 
2021 684.82 684.61 684.80 
2022 684.76 684.66 684.82 
2023 684.75 684.69 684.82 
2024 684.82 684.75 684.82 
2025 684.75 684.83 684.82 
2026 684.72 684.86 684.82 
2027 684.79 684.81 684.82 
2028 684.79 684.76 684.82 
2029 684.82 684.77 684.82 
2030 684.83 684.74 684.82 
2031 684.78 684.73 684.83 
2032 684.81 684.82 684.83 
2033 684.53 684.80 684.83 
2034 684.82 684.83 684.83 
2035 684.83 684.88 684.83 
2036 684.63 684.92 684.83 
2037 684.82 684.88 684.83 
2038 684.69 684.88 684.83 
2039 684.81 684.99 684.83 
2040 684.93 685.03 684.83 
2041 684.85 685.09 684.93 
2042 684.57 685.03 684.93 
2043 684.88 685.06 684.93 
2044 684.93 685.17 684.93 
2045 684.86 685.18 684.93 
2046 684.95 685.19 684.93 
2047 684.91 685.28 684.95 
2048 684.98 685.31 684.95 
2049 684.80 685.30 684.98 
2050 684.92 685.38 684.98 
2051 684.88 685.37 684.98 
2052 684.99 685.42 684.98 
2053 685.00 685.44 684.99 
2054 684.87 685.38 685.00 
2055 685.00 685.38 685.00 
2056 685.01 685.38 685.00 
2057 685.04 685.41 685.01 
2058 684.95 685.40 685.04 
2059 684.99 685.41 685.04 
2060 685.03 685.42 685.04 
2061 685.09 685.43 685.04 
2062 685.13 685.43 685.09 
2063 685.08 685.45 685.13 
2064 685.10 685.46 685.13 
2065 684.99 685.43 685.13 
2066 684.87 685.37 685.13 
2067 685.09 685.33 685.13 
2068 685.03 685.36 685.13 
2069 685.08 685.34 685.13 
2070 685.09 685.37 685.13 
2071 684.99 685.35 685.13 
2072 685.03 685.31 685.13 
2073 685.07 685.27 685.13 
2074 685.11 685.31 685.13 
2075 685.13 685.34 685.13 
2076 685.14 685.33 685.13 
2077 685.10 685.35 685.14 
2078 685.22 685.33 685.14 
2079 685.25 685.29 685.22 
2080 685.21 685.27 685.25 
2081 685.07 685.28 685.25 
2082 685.16 685.29 685.25 
2083 685.22 685.27 685.25 
2084 685.15 685.26 685.25 
2085 685.22 685.29 685.25 
2086 685.13 685.29 685.25 
2087 685.24 685.32 685.25 
2088 685.08 685.30 685.25 
2089 685.26 685.29 685.25 
2090 685.26 685.33 685.26 
2091 685.26 685.34 685.26 
2092 685.16 685.34 685.26 
2093 685.15 685.33 685.26 
2094 685.28 685.33 685.26 
2095 685.27 685.29 685.28 
2096 685.29 685.30 685.28 
2097 685.26 685.29 685.29 
2098 685.16 685.27 685.29 
2099 685.24 685.27 685.29 
2100 685.27 685.20 685.29 
2101 685.31 685.28 685.29 
2102 685.30 685.28 685.31 
2103 685.33 685.26 685.31 
2104 685.34 685.28 685.33 
2105 685.27 685.24 685.34 
2106 685.31 685.26 685.34 
2107 685.34 685.25 685.34 
2108 685.39 685.21 685.34 
2109 685.25 685.24 685.39 
2110 685.35 685.21 685.39 
2111 685.31 685.22 685.39 
2112 685.18 685.15 685.39 
2113 685.27 685.10 685.39 
2114 685.36 685.09 685.39 
2115 685.31 685.03 685.39 
2116 685.31 685.03 685.39 
2117 685.30 685.00 685.39 
2118 685.28 685.02 685.39 
2119 685.41 685.04 685.39 
2120 685.26 685.03 685.41 
2121 685.40 685.05 685.41 
2122 685.33 685.07 685.41 
2123 685.36 685.03 685.41 
2124 685.37 685.05 685.41 
2125 685.37 685.09 685.41 
2126 685.31 685.12 685.41 
2127 685.45 685.11 685.41 
2128 685.42 685.10 685.45 
2129 685.40 685.13 685.45 
2130 685.46 685.11 685.45 
2131 685.38 685.08 685.46 
2132 685.34 685.10 685.46 
2133 685.37 685.15 685.46 
2134 685.46 685.13 685.46 
2135 685.41 685.14 685.46 
2136 685.14 685.14 685.46 
2137 685.43 685.11 685.46 
2138 685.43 685.06 685.46 
2139 685.44 685.09 685.46 
2140 685.42 684.99 685.46 
2141 685.47 685.02 685.46 
2142 685.40 685.11 685.47 
2143 685.49 685.06 685.47 
2144 685.49 685.11 685.49 
2145 685.50 685.15 685.49 
2146 685.47 685.17 685.50 
2147 685.52 685.16 685.50 
2148 685.49 685.15 685.52 
2149 685.46 685.12 685.52 
2150 685.54 685.16 685.52 
2151 685.58 685.16 685.54 
2152 685.49 685.23 685.58 
2153 685.51 685.26 685.58 
2154 685.56 685.22 685.58 
2155 685.57 685.21 685.58 
2156 685.56 685.21 685.58 
2157 685.37 685.13 685.58 
2158 685.53 685.19 685.58 
2159 685.45 685.20 685.58 
2160 685.54 685.16 685.58 
2161 685.55 685.27 685.58 
2162 685.50 685.23 685.58 
2163 685.55 685.23 685.58 
2164 685.54 685.26 685.58 
2165 685.53 685.31 685.58 
2166 685.52 685.36 685.58 
2167 685.45 685.38 685.58 
2168 685.51 685.37 685.58 
2169 685.53 685.37 685.58 
2170 685.56 685.40 685.58 
2171 685.60 685.40 685.58 
2172 685.57 685.42 685.60 
2173 685.60 685.41 685.60 
2174 685.59 685.42 685.60 
2175 685.59 685.39 685.60 
2176 685.62 685.39 685.60 
2177 685.53 685.36 685.62 
2178 685.56 685.39 685.62 
2179 685.55 685.43 685.62 
2180 685.62 685.39 685.62 
2181 685.57 685.36 685.62 
2182 685.60 685.32 685.62 
2183 685.62 685.33 685.62 
2184 685.58 685.35 685.62 
2185 685.55 685.33 685.62 
2186 685.62 685.38 685.62 
2187 685.61 685.30 685.62 
2188 685.61 685.42 685.62 
2189 685.64 685.30 685.62 
2190 685.64 685.37 685.64 
2191 685.64 685.44 685.64 
2192 685.70 685.37 685.64 
2193 685.64 685.36 685.70 
2194 685.64 685.30 685.70 
2195 685.66 685.45 685.70 
2196 685.64 685.42 685.70 
2197 685.71 685.42 685.70 
2198 685.70 685.41 685.71 
2199 685.66 685.42 685.71 
2200 685.67 685.44 685.71 
2201 685.60 685.41 685.71 
2202 685.62 685.39 685.71 
2203 685.60 685.40 685.71 
2204 685.68 685.40 685.71 
2205 685.67 685.33 685.71 
2206 685.52 685.32 685.71 
2207 685.67 685.34 685.71 
2208 685.63 685.35 685.71 
2209 685.63 685.32 685.71 
2210 685.68 685.31 685.71 
2211 685.66 685.34 685.71 
2212 685.71 685.38 685.71 
2213 685.70 685.41 685.71 
2214 685.65 685.38 685.71 
2215 685.70 685.38 685.71 
2216 685.68 685.34 685.71 
2217 685.72 685.33 685.71 
2218 685.67 685.33 685.72 
2219 685.69 685.30 685.72 
2220 685.76 685.25 685.72 
2221 685.67 685.22 685.76 
2222 685.59 685.23 685.76 
2223 685.73 685.26 685.76 
2224 685.77 685.23 685.76 
2225 685.76 685.19 685.77 
2226 685.73 685.27 685.77 
2227 685.73 685.28 685.77 
2228 685.65 685.28 685.77 
2229 685.71 685.24 685.77 
2230 685.72 685.18 685.77 
2231 685.72 685.19 685.77 
2232 685.71 685.12 685.77 
2233 685.68 685.09 685.77 
2234 685.70 685.11 685.77 
2235 685.73 685.13 685.77 
2236 685.76 685.05 685.77 
2237 685.77 685.09 685.77 
2238 685.80 685.12 685.77 
2239 685.74 685.19 685.80 
2240 685.77 685.12 685.80 
2241 685.76 685.12 685.80 
2242 685.75 685.18 685.80 
2243 685.65 685.17 685.80 
2244 685.70 685.20 685.80 
2245 685.74 685.22 685.80 
2246 685.75 685.19 685.80 
2247 685.76 685.16 685.80 
2248 685.65 685.20 685.80 
2249 685.75 685.24 685.80 
2250 685.76 685.29 685.80 
2251 685.72 685.37 685.80 
2252 685.77 685.39 685.80 
2253 685.78 685.39 685.80 
2254 685.81 685.32 685.80 
2255 685.78 685.34 685.81 
2256 685.83 685.35 685.81 
2257 685.80 685.30 685.83 
2258 685.74 685.25 685.83 
2259 685.77 685.31 685.83 
2260 685.79 685.22 685.83 
2261 685.72 685.23 685.83 
2262 685.77 685.25 685.83 
2263 685.75 685.26 685.83 
2264 685.77 685.29 685.83 
2265 685.78 685.38 685.83 
2266 685.81 685.30 685.83 
2267 685.82 685.33 685.83 
2268 685.78 685.41 685.83 
2269 685.84 685.35 685.83 
2270 685.75 685.33 685.84 
2271 685.75 685.31 685.84 
2272 685.69 685.28 685.84 
2273 685.68 685.27 685.84 
2274 685.75 685.24 685.84 
2275 685.70 685.28 685.84 
2276 685.77 685.31 685.84 
2277 685.74 685.30 685.84 
2278 685.69 685.27 685.84 
2279 685.65 685.32 685.84 
2280 685.62 685.38 685.84 
2281 685.77 685.33 685.84 
2282 685.76 685.26 685.84 
2283 685.66 685.28 685.84 
2284 685.74 685.27 685.84 
2285 685.80 685.23 685.84 
2286 685.73 685.22 685.84 
2287 685.72 685.23 685.84 
2288 685.80 685.24 685.84 
2289 685.72 685.25 685.84 
2290 685.71 685.20 685.84 
2291 685.71 685.12 685.84 
2292 685.77 685.25 685.84 
2293 685.70 685.15 685.84 
2294 685.81 685.13 685.84 
2295 685.82 685.15 685.84 
2296 685.82 685.14 685.84 
2297 685.76 685.23 685.84 
2298 685.80 685.17 685.84 
2299 685.73 685.04 685.84 
2300 685.79 685.07 685.84 
2301 685.78 685.12 685.84 
2302 685.80 685.07 685.84 
2303 685.69 685.03 685.84 
2304 685.82 685.10 685.84 
2305 685.77 685.14 685.84 
2306 685.76 685.11 685.84 
2307 685.77 685.10 685.84 
2308 685.81 685.06 685.84 
2309 685.82 685.11 685.84 
2310 685.81 685.09 685.84 
2311 685.79 685.18 685.84 
2312 685.82 685.20 685.84 
2313 685.77 685.21 685.84 
2314 685.67 685.23 685.84 
2315 685.80 685.16 685.84 
2316 685.81 685.15 685.84 
2317 685.85 685.21 685.84 
2318 685.89 685.23 685.85 
2319 685.84 685.23 685.89 
2320 685.76 685.27 685.89 
2321 685.85 685.26 685.89 
2322 685.86 685.27 685.89 
2323 685.80 685.28 685.89 
2324 685.82 685.28 685.89 
2325 685.75 685.30 685.89 
2326 685.84 685.32 685.89 
2327 685.86 685.38 685.89 
2328 685.86 685.37 685.89 
2329 685.88 685.39 685.89 
2330 685.87 685.37 685.89 
2331 685.87 685.27 685.89 
2332 685.77 685.30 685.89 
2333 685.82 685.28 685.89 
2334 685.86 685.25 685.89 
2335 685.88 685.24 685.89 
2336 685.82 685.23 685.89 
2337 685.78 685.20 685.89 
2338 685.84 685.16 685.89 
2339 685.80 685.08 685.89 
2340 685.75 685.09 685.89 
2341 685.83 685.11 685.89 
2342 685.79 685.15 685.89 
2343 685.81 685.09 685.89 
2344 685.82 685.16 685.89 
2345 685.58 685.09 685.89 
2346 685.80 685.11 685.89 
2347 685.83 685.13 685.89 
2348 685.45 685.12 685.89 
2349 685.75 685.04 685.89 
2350 685.79 685.07 685.89 
2351 685.72 685.08 685.89 
2352 685.72 685.03 685.89 
2353 685.78 685.13 685.89 
2354 685.83 685.24 685.89 
2355 685.92 685.24 685.89 
2356 685.81 685.18 685.92 
2357 685.83 685.15 685.92 
2358 685.81 685.22 685.92 
2359 685.88 685.24 685.92 
2360 685.79 685.25 685.92 
2361 685.72 685.22 685.92 
2362 685.89 685.19 685.92 
2363 685.77 685.12 685.92 
2364 685.80 685.19 685.92 
2365 685.86 685.25 685.92 
2366 685.88 685.24 685.92 
2367 682.99 685.29 685.92 
2368 685.96 685.27 685.92 
2369 685.87 685.29 685.96 
2370 685.83 685.34 685.96 
2371 685.75 685.28 685.96 
2372 685.86 685.31 685.96 
2373 685.80 685.33 685.96 
2374 685.85 685.27 685.96 
2375 685.49 685.24 685.96 
2376 685.83 685.26 685.96 
2377 685.26 685.27 685.96 
2378 685.74 685.27 685.96 
2379 685.75 685.29 685.96 
2380 685.51 685.25 685.96 
2381 685.03 685.28 685.96 
2382 685.35 685.31 685.96 
2383 685.70 685.34 685.96 
2384 685.76 685.36 685.96 
2385 685.66 685.33 685.96 
2386 685.71 685.27 685.96 
2387 685.85 685.29 685.96 
2388 685.72 685.25 685.96 
2389 685.78 685.28 685.96 
2390 685.84 685.27 685.96 
2391 685.66 685.22 685.96 
2392 685.67 685.26 685.96 
2393 685.50 685.29 685.96 
2394 685.69 685.31 685.96 
2395 685.71 685.33 685.96 
2396 685.74 685.33 685.96 
2397 685.82 685.27 685.96 
2398 685.73 685.31 685.96 
2399 685.87 685.28 685.96 
2400 685.82 685.32 685.96 
2401 685.82 685.31 685.96 
2402 685.89 685.26 685.96 
2403 685.93 685.22 685.96 
2404 685.87 685.18 685.96 
2405 685.89 685.18 685.96 
2406 685.91 685.20 685.96 
2407 685.88 685.24 685.96 
2408 685.94 685.19 685.96 
2409 685.76 685.22 685.96 
2410 685.89 685.21 685.96 
2411 685.89 685.17 685.96 
2412 685.83 685.12 685.96 
2413 685.81 685.13 685.96 
2414 685.91 685.22 685.96 
2415 685.87 685.20 685.96 
2416 685.87 685.14 685.96 
2417 685.79 685.13 685.96 
2418 685.89 685.16 685.96 
2419 685.89 685.12 685.96 
2420 685.84 685.16 685.96 
2421 685.75 685.15 685.96 
2422 685.69 685.13 685.96 
2423 685.70 685.14 685.96 
2424 685.78 685.16 685.96 
2425 685.86 685.19 685.96 
2426 685.83 685.21 685.96 
2427 685.69 685.26 685.96 
2428 685.85 685.27 685.96 
2429 685.92 685.31 685.96 
2430 685.89 685.25 685.96 
2431 685.92 685.20 685.96 
2432 685.88 685.22 685.96 
2433 685.85 685.23 685.96 
2434 685.77 685.28 685.96 
2435 685.90 685.24 685.96 
2436 685.78 685.23 685.96 
2437 685.78 685.24 685.96 
2438 685.81 685.28 685.96 
2439 685.80 685.26 685.96 
2440 685.84 685.26 685.96 
2441 685.90 685.25 685.96 
2442 685.79 685.26 685.96 
2443 685.84 685.27 685.96 
2444 685.89 685.31 685.96 
2445 685.85 685.35 685.96 
2446 685.89 685.30 685.96 
2447 685.94 685.31 685.96 
2448 685.91 685.27 685.96 
2449 685.94 685.30 685.96 
2450 685.92 685.28 685.96 
2451 685.91 685.26 685.96 
2452 685.86 685.22 685.96 
2453 685.91 685.25 685.96 
2454 684.44 685.24 685.96 
2455 685.85 685.26 685.96 
2456 685.80 685.28 685.96 
2457 685.85 685.26 685.96 
2458 685.76 685.26 685.96 
2459 685.85 685.30 685.96 
2460 685.88 685.41 685.96 
2461 685.64 685.44 685.96 
2462 685.88 685.42 685.96 
2463 685.82 685.42 685.96 
2464 685.85 685.38 685.96 
2465 685.88 685.40 685.96 
2466 685.63 685.36 685.96 
2467 685.83 685.26 685.96 
2468 685.64 685.28 685.96 
2469 684.38 685.46 685.96 
2470 685.49 685.46 685.96 
2471 685.68 685.43 685.96 
2472 685.71 685.49 685.96 
2473 685.74 685.44 685.96 
2474 685.81 685.48 685.96 
2475 685.66 685.47 685.96 
2476 685.78 685.42 685.96 
2477 685.85 685.45 685.96 
2478 685.75 685.50 685.96 
2479 685.65 685.48 685.96 
2480 685.82 685.48 685.96 
2481 685.90 685.45 685.96 
2482 685.95 685.44 685.96 
2483 685.87 685.39 685.96 
2484 685.86 685.34 685.96 
2485 685.83 685.30 685.96 
2486 685.90 685.28 685.96 
2487 685.90 685.33 685.96 
2488 685.78 685.33 685.96 
2489 685.93 685.35 685.96 
2490 685.94 685.40 685.96 
2491 685.90 685.41 685.96 
2492 685.84 685.38 685.96 
2493 685.79 685.35 685.96 
2494 685.66 685.33 685.96 
2495 685.81 685.33 685.96 
2496 685.92 685.34 685.96 
2497 685.94 685.30 685.96 
2498 685.92 685.30 685.96 
2499 685.92 685.28 685.96 
2500 685.93 685.29 685.96 
2501 685.80 685.31 685.96 
2502 685.97 685.29 685.96 
2503 685.96 685.30 685.97 
2504 685.95 685.28 685.97 
2505 685.76 685.28 685.97 
2506 686.02 685.29 685.97 
2507 685.97 685.31 686.02 
2508 685.89 685.29 686.02 
2509 685.81 685.27 686.02 
2510 685.96 685.27 686.02 
2511 685.86 685.23 686.02 
2512 685.97 685.22 686.02 
2513 685.88 685.20 686.02 
2514 685.92 685.19 686.02 
2515 685.93 685.18 686.02 
2516 685.94 685.17 686.02 
2517 685.95 685.14 686.02 
2518 685.87 685.18 686.02 
2519 685.88 685.13 686.02 
2520 685.82 685.20 686.02 
2521 685.90 685.20 686.02 
2522 685.88 685.22 686.02 
2523 685.97 685.24 686.02 
2524 685.90 685.22 686.02 
2525 685.96 685.28 686.02 
2526 685.97 685.30 686.02 
2527 685.98 685.28 686.02 
2528 685.85 685.18 686.02 
2529 685.95 685.17 686.02 
2530 685.95 685.19 686.02 
2531 686.01 685.18 686.02 
2532 685.97 685.17 686.02 
2533 685.95 685.23 686.02 
2534 685.92 685.18 686.02 
2535 686.00 685.18 686.02 
2536 685.97 685.19 686.02 
2537 686.03 685.25 686.02 
2538 686.01 685.23 686.03 
2539 686.03 685.22 686.03 
2540 685.95 685.29 686.03 
2541 686.01 685.32 686.03 
2542 686.02 685.33 686.03 
2543 686.02 685.28 686.03 
2544 686.00 685.30 686.03 
2545 686.00 685.28 686.03 
2546 686.05 685.30 686.03 
2547 685.89 685.30 686.05 
2548 685.96 685.34 686.05 
2549 686.07 685.28 686.05 
2550 686.05 685.27 686.07 
2551 686.05 685.24 686.07 
2552 685.99 685.22 686.07 
2553 686.05 685.27 686.07 
2554 686.02 685.24 686.07 
2555 686.01 685.22 686.07 
2556 686.06 685.27 686.07 
2557 685.86 685.28 686.07 
2558 686.03 685.32 686.07 
2559 685.90 685.31 686.07 
2560 686.03 685.31 686.07 
2561 685.97 685.32 686.07 
2562 686.04 685.31 686.07 
2563 685.95 685.29 686.07 
2564 685.99 685.30 686.07 
2565 686.05 685.28 686.07 
2566 685.95 685.33 686.07 
2567 686.02 685.33 686.07 
2568 686.06 685.33 686.07 
2569 686.06 685.36 686.07 
2570 686.06 685.38 686.07 
2571 686.05 685.35 686.07 
2572 685.97 685.29 686.07 
2573 686.03 685.29 686.07 
2574 686.00 685.30 686.07 
2575 686.07 685.28 686.07 
2576 685.97 685.24 686.07 
2577 686.06 685.28 686.07 
2578 686.08 685.23 686.07 
2579 686.00 685.22 686.08 
2580 686.02 685.22 686.08 
2581 686.03 685.18 686.08 
2582 685.98 685.19 686.08 
2583 686.00 685.19 686.08 
2584 685.89 685.19 686.08 
2585 686.05 685.15 686.08 
2586 686.02 685.17 686.08 
2587 686.01 685.16 686.08 
2588 686.07 685.20 686.08 
2589 686.01 685.23 686.08 
2590 686.06 685.17 686.08 
2591 686.03 685.19 686.08 
2592 686.00 685.15 686.08 
2593 685.94 685.18 686.08 
2594 686.00 685.18 686.08 
2595 686.04 685.18 686.08 
2596 686.05 685.19 686.08 
2597 685.75 685.22 686.08 
2598 686.05 685.21 686.08 
2599 686.08 685.19 686.08 
2600 686.08 685.20 686.08 
2601 686.10 685.18 686.08 
2602 685.95 685.14 686.10 
2603 686.11 685.18 686.10 
2604 686.10 685.13 686.11 
2605 686.02 685.08 686.11 
2606 686.08 685.13 686.11 
2607 685.95 685.13 686.11 
2608 686.03 685.08 686.11 
2609 686.01 685.11 686.11 
2610 686.06 685.13 686.11 
2611 685.88 685.08 686.11 
2612 686.04 685.10 686.11 
2613 686.08 685.15 686.11 
2614 686.12 685.12 686.11 
2615 686.04 685.13 686.12 
2616 686.10 685.05 686.12 
2617 686.07 685.11 686.12 
2618 686.06 685.10 686.12 
2619 686.03 685.12 686.12 
2620 686.10 685.18 686.12 
2621 686.12 685.24 686.12 
2622 686.06 685.26 686.12 
2623 686.11 685.32 686.12 
2624 686.03 685.33 686.12 
2625 686.11 685.32 686.12 
2626 686.11 685.27 686.12 
2627 686.10 685.31 686.12 
2628 686.04 685.32 686.12 
2629 686.11 685.30 686.12 
2630 686.05 685.29 686.12 
2631 685.77 685.25 686.12 
2632 685.82 685.28 686.12 
2633 685.83 685.29 686.12 
2634 686.02 685.31 686.12 
2635 686.02 685.32 686.12 
2636 686.09 685.30 686.12 
2637 685.88 685.31 686.12 
2638 686.00 685.34 686.12 
2639 686.03 685.36 686.12 
2640 686.12 685.37 686.12 
2641 685.92 685.39 686.12 
2642 686.07 685.37 686.12 
2643 686.14 685.37 686.12 
2644 686.06 685.43 686.14 
2645 686.00 685.40 686.14 
2646 686.05 685.39 686.14 
2647 686.14 685.43 686.14 
2648 686.12 685.43 686.14 
2649 686.07 685.43 686.14 
2650 686.10 685.42 686.14 
2651 686.14 685.43 686.14 
2652 686.16 685.40 686.14 
2653 686.08 685.34 686.16 
2654 685.97 685.36 686.16 
2655 686.14 685.29 686.16 
2656 686.13 685.23 686.16 
2657 686.14 685.23 686.16 
2658 686.13 685.25 686.16 
2659 686.10 685.22 686.16 
2660 686.11 685.24 686.16 
2661 686.06 685.27 686.16 
2662 686.06 685.28 686.16 
2663 686.11 685.27 686.16 
2664 686.14 685.33 686.16 
2665 685.83 685.31 686.16 
2666 686.06 685.32 686.16 
2667 685.99 685.27 686.16 
2668 685.97 685.30 686.16 
2669 686.13 685.36 686.16 
2670 686.08 685.30 686.16 
2671 686.04 685.35 686.16 
2672 686.07 685.38 686.16 
2673 686.08 685.44 686.16 
2674 686.07 685.43 686.16 
2675 686.10 685.38 686.16 
2676 686.07 685.30 686.16 
2677 686.01 685.25 686.16 
2678 686.06 685.23 686.16 
2679 686.08 685.14 686.16 
2680 686.04 685.15 686.16 
2681 685.98 685.12 686.16 
2682 686.03 685.05 686.16 
2683 685.95 685.09 686.16 
2684 685.95 685.15 686.16 
2685 686.06 685.20 686.16 
2686 686.01 685.25 686.16 
2687 686.00 685.29 686.16 
2688 685.94 685.27 686.16 
2689 686.07 685.24 686.16 
2690 686.05 685.31 686.16 
2691 686.08 685.37 686.16 
2692 686.02 685.35 686.16 
2693 686.07 685.36 686.16 
2694 686.08 685.42 686.16 
2695 686.07 685.41 686.16 
2696 686.13 685.33 686.16 
2697 686.05 685.22 686.16 
2698 686.06 685.26 686.16 
2699 686.03 685.23 686.16 
2700 686.04 685.19 686.16 
2701 686.03 685.20 686.16 
2702 686.04 685.24 686.16 
2703 686.07 685.17 686.16 
2704 686.10 685.15 686.16 
2705 686.07 685.18 686.16 
2706 686.09 685.13 686.16 
2707 686.09 685.11 686.16 
2708 686.06 685.15 686.16 
2709 686.14 685.13 686.16 
2710 686.14 685.17 686.16 
2711 686.01 685.20 686.16 
2712 686.00 685.22 686.16 
2713 686.07 685.25 686.16 
2714 686.11 685.31 686.16 
2715 686.09 685.33 686.16 
2716 686.07 685.32 686.16 
2717 686.10 685.35 686.16 
2718 686.08 685.34 686.16 
2719 686.14 685.36 686.16 
2720 686.15 685.42 686.16 
2721 686.01 685.33 686.16 
2722 686.13 685.24 686.16 
2723 686.13 685.23 686.16 
2724 686.14 685.15 686.16 
2725 686.14 685.17 686.16 
2726 686.13 685.16 686.16 
2727 686.12 685.21 686.16 
2728 686.11 685.25 686.16 
2729 686.11 685.30 686.16 
2730 686.09 685.32 686.16 
2731 686.09 685.27 686.16 
2732 686.12 685.29 686.16 
2733 686.01 685.26 686.16 
2734 686.08 685.25 686.16 
2735 686.16 685.24 686.16 
2736 686.13 685.28 686.16 
2737 686.11 685.34 686.16 
2738 686.09 685.32 686.16 
2739 686.09 685.33 686.16 
2740 686.08 685.35 686.16 
2741 686.12 685.35 686.16 
2742 686.12 685.36 686.16 
2743 686.10 685.39 686.16 
2744 686.14 685.38 686.16 
2745 686.09 685.40 686.16 
2746 685.99 685.40 686.16 
2747 685.93 685.36 686.16 
2748 685.93 685.35 686.16 
2749 686.10 685.30 686.16 
2750 686.10 685.34 686.16 
2751 686.09 685.35 686.16 
2752 686.12 685.31 686.16 
2753 686.07 685.32 686.16 
2754 685.98 685.26 686.16 
2755 686.15 685.32 686.16 
2756 686.04 685.29 686.16 
2757 686.07 685.28 686.16 
2758 686.15 685.33 686.16 
2759 686.07 685.36 686.16 
2760 686.15 685.29 686.16 
2761 686.15 685.33 686.16 
2762 686.08 685.31 686.16 
2763 686.15 685.35 686.16 
2764 686.10 685.34 686.16 
2765 686.15 685.36 686.16 
2766 686.12 685.35 686.16 
2767 686.18 685.37 686.16 
2768 686.15 685.36 686.18 
2769 686.12 685.39 686.18 
2770 686.19 685.40 686.18 
2771 686.08 685.40 686.19 
2772 686.18 685.37 686.19 
2773 686.12 685.29 686.19 
2774 686.12 685.25 686.19 
2775 686.15 685.25 686.19 
2776 686.17 685.26 686.19 
2777 686.07 685.29 686.19 
2778 686.14 685.28 686.19 
2779 686.17 685.29 686.19 
2780 686.16 685.27 686.19 
2781 686.16 685.28 686.19 
2782 685.98 685.30 686.19 
2783 686.20 685.30 686.19 
2784 686.13 685.35 686.20 
2785 686.16 685.37 686.20 
2786 686.19 685.34 686.20 
2787 686.15 685.32 686.20 
2788 686.23 685.35 686.20 
2789 686.17 685.35 686.23 
2790 686.19 685.39 686.23 
2791 686.15 685.40 686.23 
2792 686.11 685.41 686.23 
2793 686.22 685.43 686.23 
2794 686.06 685.39 686.23 
2795 686.15 685.37 686.23 
2796 686.19 685.41 686.23 
2797 686.18 685.40 686.23 
2798 686.08 685.36 686.23 
2799 686.17 685.39 686.23 
2800 686.13 685.39 686.23 
2801 686.20 685.35 686.23 
2802 686.17 685.32 686.23 
2803 686.19 685.32 686.23 
2804 686.21 685.33 686.23 
2805 686.17 685.29 686.23 
2806 686.08 685.31 686.23 
2807 686.20 685.29 686.23 
2808 686.22 685.33 686.23 
2809 686.15 685.30 686.23 
2810 686.14 685.28 686.23 
2811 686.22 685.33 686.23 
2812 686.15 685.29 686.23 
2813 686.13 685.30 686.23 
2814 686.08 685.37 686.23 
2815 686.04 685.36 686.23 
2816 686.11 685.36 686.23 
2817 686.16 685.35 686.23 
2818 685.97 685.36 686.23 
2819 686.16 685.38 686.23 
2820 686.15 685.32 686.23 
2821 686.20 685.34 686.23 
2822 686.20 685.33 686.23 
2823 686.17 685.34 686.23 
2824 686.20 685.38 686.23 
2825 686.14 685.37 686.23 
2826 686.17 685.37 686.23 
2827 686.02 685.39 686.23 
2828 686.21 685.46 686.23 
2829 686.21 685.48 686.23 
2830 686.24 685.48 686.23 
2831 686.20 685.49 686.24 
2832 686.22 685.50 686.24 
2833 686.19 685.51 686.24 
2834 686.20 685.49 686.24 
2835 686.28 685.49 686.24 
2836 686.09 685.42 686.28 
2837 686.14 685.31 686.28 
2838 686.18 685.32 686.28 
2839 686.20 685.31 686.28 
2840 686.24 685.27 686.28 
2841 686.19 685.36 686.28 
2842 686.17 685.36 686.28 
2843 686.23 685.39 686.28 
2844 686.17 685.47 686.28 
2845 686.25 685.49 686.28 
2846 686.17 685.46 686.28 
2847 686.19 685.41 686.28 
2848 686.22 685.47 686.28 
2849 686.22 685.51 686.28 
2850 686.16 685.52 686.28 
2851 686.22 685.49 686.28 
2852 686.14 685.46 686.28 
2853 686.26 685.48 686.28 
2854 686.20 685.49 686.28 
2855 686.15 685.52 686.28 
2856 686.22 685.50 686.28 
2857 686.25 685.44 686.28 
2858 686.22 685.42 686.28 
2859 686.19 685.41 686.28 
2860 686.26 685.34 686.28 
2861 686.11 685.32 686.28 
2862 686.25 685.30 686.28 
2863 686.20 685.30 686.28 
2864 686.21 685.33 686.28 
2865 686.23 685.23 686.28 
2866 686.11 685.26 686.28 
2867 686.22 685.30 686.28 
2868 686.18 685.34 686.28 
2869 686.12 685.35 686.28 
2870 686.20 685.37 686.28 
2871 686.24 685.40 686.28 
2872 686.17 685.41 686.28 
2873 686.23 685.34 686.28 
2874 686.17 685.34 686.28 
2875 686.24 685.35 686.28 
2876 686.24 685.37 686.28 
2877 686.21 685.34 686.28 
2878 685.90 685.31 686.28 
2879 686.16 685.28 686.28 
2880 686.09 685.26 686.28 
2881 686.22 685.30 686.28 
2882 686.26 685.32 686.28 
2883 686.24 685.29 686.28 
2884 686.17 685.29 686.28 
2885 686.23 685.33 686.28 
2886 686.21 685.33 686.28 
2887 685.96 685.34 686.28 
2888 686.15 685.34 686.28 
2889 686.16 685.32 686.28 
2890 686.24 685.33 686.28 
2891 686.20 685.30 686.28 
2892 686.24 685.27 686.28 
2893 686.21 685.23 686.28 
2894 686.25 685.24 686.28 
2895 686.22 685.24 686.28 
2896 686.24 685.27 686.28 
2897 686.18 685.28 686.28 
2898 686.25 685.19 686.28 
2899 686.26 685.20 686.28 
2900 686.25 685.22 686.28 
2901 685.96 685.24 686.28 
2902 686.25 685.27 686.28 
2903 686.20 685.22 686.28 
2904 686.21 685.28 686.28 
2905 686.20 685.32 686.28 
2906 686.15 685.33 686.28 
2907 686.24 685.31 686.28 
2908 686.22 685.33 686.28 
2909 686.23 685.34 686.28 
2910 686.26 685.38 686.28 
2911 686.24 685.41 686.28 
2912 686.24 685.38 686.28 
2913 686.21 685.40 686.28 
2914 685.98 685.38 686.28 
2915 686.21 685.40 686.28 
2916 686.26 685.39 686.28 
2917 686.24 685.33 686.28 
2918 686.22 685.35 686.28 
2919 686.22 685.36 686.28 
2920 686.22 685.42 686.28 
2921 686.23 685.47 686.28 
2922 686.20 685.51 686.28 
2923 686.21 685.46 686.28 
2924 686.23 685.46 686.28 
2925 686.17 685.47 686.28 
2926 686.23 685.46 686.28 
2927 686.21 685.43 686.28 
2928 686.21 685.40 686.28 
2929 686.19 685.41 686.28 
2930 686.22 685.44 686.28 
2931 686.17 685.43 686.28 
2932 686.24 685.40 686.28 
2933 686.20 685.33 686.28 
2934 686.22 685.38 686.28 
2935 686.14 685.36 686.28 
2936 686.21 685.42 686.28 
2937 686.21 685.42 686.28 
2938 686.21 685.39 686.28 
2939 686.19 685.39 686.28 
2940 686.17 685.39 686.28 
2941 686.22 685.36 686.28 
2942 686.26 685.37 686.28 
2943 686.17 685.40 686.28 
2944 686.23 685.41 686.28 
2945 686.18 685.40 686.28 
2946 686.22 685.36 686.28 
2947 686.15 685.36 686.28 
2948 686.17 685.36 686.28 
2949 686.18 685.36 686.28 
2950 686.10 685.36 686.28 
2951 686.22 685.36 686.28 
2952 686.22 685.36 686.28 
2953 686.27 685.33 686.28 
2954 686.26 685.35 686.28 
2955 686.06 685.34 686.28 
2956 686.27 685.37 686.28 
2957 686.25 685.38 686.28 
2958 686.27 685.35 686.28 
2959 686.30 685.34 686.28 
2960 686.32 685.29 686.30 
2961 685.88 685.30 686.32 
2962 686.21 685.29 686.32 
2963 686.12 685.29 686.32 
2964 686.33 685.29 686.32 
2965 686.28 685.30 686.33 
2966 686.12 685.26 686.33 
2967 686.34 685.30 686.33 
2968 686.34 685.29 686.34 
2969 686.23 685.30 686.34 
2970 686.29 685.29 686.34 
2971 686.29 685.24 686.34 
2972 686.35 685.25 686.34 
2973 686.36 685.23 686.35 
2974 686.43 685.29 686.36 
2975 685.68 685.25 686.43 
2976 686.21 685.17 686.43 
2977 686.39 685.18 686.43 
2978 686.29 685.20 686.43 
2979 686.39 685.15 686.43 
2980 686.39 685.14 686.43 
2981 686.45 685.18 686.43 
2982 686.45 685.14 686.45 
2983 686.33 685.14 686.45 
2984 686.16 685.17 686.45 
2985 686.45 685.14 686.45 
2986 686.45 685.17 686.45 
2987 686.40 685.11 686.45 
2988 686.51 685.23 686.45 
2989 686.58 685.31 686.51 
2990 686.58 685.47 686.58 
2991 686.67 685.67 686.58 
2992 686.58 685.72 686.67 
2993 686.54 685.72 686.67 
2994 686.69 685.89 686.67 
2995 686.61 685.99 686.69 
2996 686.71 685.98 686.69 
2997 686.65 685.89 686.71 
2998 686.68 686.09 686.71 
2999 686.83 686.19 686.71 
3000 686.81 686.41 686.83 
3001 686.80 686.42 686.83 
3002 686.87 686.46 686.83 
3003 686.88 686.45 686.87 
3004 686.87 686.67 686.88 
3005 686.79 686.62 686.88 
3006 686.93 686.69 686.88 
3007 686.96 686.82 686.93 
3008 686.94 686.78 686.96 
3009 686.96 686.86 686.96 
3010 686.85 686.87 686.96 
3011 687.00 687.05 686.96 
3012 687.09 687.13 687.00 
3013 686.89 687.17 687.09 
3014 687.05 687.16 687.09 
3015 687.06 687.15 687.09 
3016 687.09 687.37 687.09 
3017 687.10 687.32 687.09 
3018 687.12 687.40 687.10 
3019 687.14 687.43 687.12 
3020 687.22 687.44 687.14 
3021 687.22 687.53 687.22 
3022 687.25 687.48 687.22 
3023 687.28 687.48 687.25 
3024 687.25 687.47 687.28 
3025 687.21 687.45 687.28 
3026 687.27 687.42 687.28 
3027 687.26 687.45 687.28 
3028 687.09 687.39 687.28 
3029 687.30 687.43 687.28 
3030 687.30 687.49 687.30 
3031 687.34 687.57 687.30 
3032 687.19 687.52 687.34 
3033 686.90 687.54 687.34 
3034 686.95 687.51 687.34 
3035 687.27 687.48 687.34 
3036 687.29 687.42 687.34 
3037 687.29 687.45 687.34 
3038 687.30 687.44 687.34 
3039 687.36 687.40 687.34 
3040 686.97 687.37 687.36 
3041 687.42 687.45 687.36 
3042 687.38 687.45 687.42 
3043 686.77 687.42 687.42 
3044 687.39 687.41 687.42 
3045 687.29 687.41 687.42 
3046 687.29 687.32 687.42 
3047 687.41 687.36 687.42 
3048 687.40 687.41 687.42 
3049 687.43 687.44 687.42 
3050 687.43 687.49 687.43 
3051 687.47 687.48 687.43 
3052 687.47 687.53 687.47 
3053 687.54 687.55 687.47 
3054 687.40 687.55 687.54 
3055 687.28 687.50 687.54 
3056 687.51 687.50 687.54 
3057 687.53 687.52 687.54 
3058 687.57 687.53 687.54 
3059 687.56 687.47 687.57 
3060 687.56 687.44 687.57 
3061 687.54 687.40 687.57 
3062 687.49 687.40 687.57 
3063 687.59 687.42 687.57 
3064 687.56 687.39 687.59 
3065 687.24 687.41 687.59 
3066 687.46 687.41 687.59 
3067 687.55 687.37 687.59 
3068 687.53 687.38 687.59 
3069 687.48 687.37 687.59 
3070 687.53 687.34 687.59 
3071 687.43 687.29 687.59 
3072 687.51 687.28 687.59 
3073 687.58 687.27 687.59 
3074 687.47 687.25 687.59 
3075 687.61 687.30 687.59 
3076 687.48 687.24 687.61 
3077 687.51 687.30 687.61 
3078 687.65 687.42 687.61 
3079 687.28 687.40 687.65 
3080 687.66 687.37 687.65 
3081 687.68 687.36 687.66 
3082 687.56 687.35 687.68 
3083 687.65 687.33 687.68 
3084 687.44 687.33 687.68 
3085 687.58 687.34 687.68 
3086 687.57 687.31 687.68 
3087 687.43 687.33 687.68 
3088 687.62 687.25 687.68 
3089 687.67 687.27 687.68 
3090 687.62 687.23 687.68 
3091 687.29 687.26 687.68 
3092 687.65 687.23 687.68 
3093 687.70 687.16 687.68 
3094 687.70 687.19 687.70 
3095 687.71 687.17 687.70 
3096 687.67 687.21 687.71 
3097 687.68 687.30 687.71 
3098 687.61 687.29 687.71 
3099 687.66 687.27 687.71 
3100 687.70 687.28 687.71 
3101 687.55 687.28 687.71 
3102 687.65 687.26 687.71 
3103 687.76 687.29 687.71 
3104 687.68 687.27 687.76 
3105 687.50 687.28 687.76 
3106 687.69 687.29 687.76 
3107 687.67 687.19 687.76 
3108 687.67 687.22 687.76 
3109 687.65 687.26 687.76 
3110 687.71 687.19 687.76 
3111 687.72 687.16 687.76 
3112 687.68 687.23 687.76 
3113 687.73 687.22 687.76 
3114 687.75 687.34 687.76 
3115 687.74 687.31 687.76 
3116 687.76 687.31 687.76 
3117 687.64 687.25 687.76 
3118 687.67 687.29 687.76 
3119 686.95 687.23 687.76 
3120 687.75 687.28 687.76 
3121 687.67 687.38 687.76 
3122 687.65 687.41 687.76 
3123 687.73 687.30 687.76 
3124 687.71 687.24 687.76 
3125 687.74 687.34 687.76 
3126 687.76 687.40 687.76 
3127 687.75 687.28 687.76 
3128 687.71 687.26 687.76 
3129 687.77 687.29 687.76 
3130 687.65 687.30 687.77 
3131 687.73 687.24 687.77 
3132 687.69 687.23 687.77 
3133 687.45 687.21 687.77 
3134 687.74 687.25 687.77 
3135 687.76 687.25 687.77 
3136 687.66 687.21 687.77 
3137 687.62 687.14 687.77 
3138 687.60 687.07 687.77 
3139 687.68 687.00 687.77 
3140 687.70 687.02 687.77 
3141 687.75 687.04 687.77 
3142 687.71 687.02 687.77 
3143 687.75 687.00 687.77 
3144 687.79 687.05 687.77 
3145 687.75 686.96 687.79 
3146 687.66 686.95 687.79 
3147 687.73 686.89 687.79 
3148 687.73 686.98 687.79 
3149 687.72 686.86 687.79 
3150 687.79 686.97 687.79 
3151 687.58 686.94 687.79 
3152 687.81 686.87 687.79 
3153 687.77 686.94 687.81 
3154 687.72 686.94 687.81 
3155 687.72 686.94 687.81 
3156 687.78 687.00 687.81 
3157 687.79 686.99 687.81 
3158 687.75 686.98 687.81 
3159 687.82 687.01 687.81 
3160 687.84 687.07 687.82 
3161 687.79 687.02 687.84 
3162 687.83 687.13 687.84 
3163 687.62 687.08 687.84 
3164 687.74 687.11 687.84 
3165 687.72 687.11 687.84 
3166 687.85 687.13 687.84 
3167 687.82 687.14 687.85 
3168 687.77 687.09 687.85 
3169 687.87 687.05 687.85 
3170 687.80 687.06 687.87 
3171 687.85 686.99 687.87 
3172 687.72 686.99 687.87 
3173 687.57 687.05 687.87 
3174 687.83 687.00 687.87 
3175 687.80 687.02 687.87 
3176 687.82 687.06 687.87 
3177 687.66 686.95 687.87 
3178 687.86 686.99 687.87 
3179 687.81 687.06 687.87 
3180 687.87 687.22 687.87 
3181 687.87 687.25 687.87 
3182 687.75 687.28 687.87 
3183 687.80 687.16 687.87 
3184 687.87 687.15 687.87 
3185 687.73 687.20 687.87 
3186 687.87 687.20 687.87 
3187 687.85 687.28 687.87 
3188 687.67 687.21 687.87 
3189 687.80 687.21 687.87 
3190 687.85 687.25 687.87 
3191 687.85 687.25 687.87 
3192 687.78 687.23 687.87 
3193 687.80 687.21 687.87 
3194 687.86 687.30 687.87 
3195 687.87 687.27 687.87 
3196 687.71 687.26 687.87 
3197 687.84 687.30 687.87 
3198 687.58 687.26 687.87 
3199 687.89 687.28 687.87 
3200 687.88 687.37 687.89 
3201 687.91 687.35 687.89 
3202 687.88 687.39 687.91 
3203 687.89 687.35 687.91 
3204 687.90 687.41 687.91 
3205 687.94 687.42 687.91 
3206 687.79 687.49 687.94 
3207 687.88 687.49 687.94 
3208 687.86 687.49 687.94 
3209 687.87 687.39 687.94 
3210 687.59 687.44 687.94 
3211 687.87 687.48 687.94 
3212 687.86 687.40 687.94 
3213 687.86 687.41 687.94 
3214 687.88 687.31 687.94 
3215 687.83 687.25 687.94 
3216 687.86 687.26 687.94 
3217 687.80 687.22 687.94 
3218 687.78 687.20 687.94 
3219 687.90 687.29 687.94 
3220 687.87 687.25 687.94 
3221 687.78 687.26 687.94 
3222 687.63 687.26 687.94 
3223 687.86 687.25 687.94 
3224 687.87 687.17 687.94 
3225 687.88 687.20 687.94 
3226 687.54 687.20 687.94 
3227 687.53 687.12 687.94 
3228 687.79 687.04 687.94 
3229 687.81 687.06 687.94 
3230 687.74 687.16 687.94 
3231 687.89 687.22 687.94 
3232 687.90 687.23 687.94 
3233 687.78 687.22 687.94 
3234 687.93 687.10 687.94 
3235 687.75 687.15 687.94 
3236 687.89 687.02 687.94 
3237 687.81 686.92 687.94 
3238 687.76 686.89 687.94 
3239 687.79 686.86 687.94 
3240 687.85 686.84 687.94 
3241 687.82 686.99 687.94 
3242 687.89 687.02 687.94 
3243 687.90 686.99 687.94 
3244 687.87 687.06 687.94 
3245 687.84 687.13 687.94 
3246 687.88 687.16 687.94 
3247 687.89 687.20 687.94 
3248 687.88 687.14 687.94 
3249 687.94 687.12 687.94 
3250 687.95 687.25 687.94 
3251 687.92 687.20 687.95 
3252 687.92 687.25 687.95 
3253 687.94 687.29 687.95 
3254 687.61 687.23 687.95 
3255 687.90 687.20 687.95 
3256 687.91 687.17 687.95 
3257 687.92 687.22 687.95 
3258 687.93 687.23 687.95 
3259 687.91 687.20 687.95 
3260 687.92 687.16 687.95 
3261 687.93 687.24 687.95 
3262 687.94 687.27 687.95 
3263 687.91 687.27 687.95 
3264 687.87 687.27 687.95 
3265 687.88 687.27 687.95 
3266 687.95 687.29 687.95 
3267 687.95 687.28 687.95 
3268 687.90 687.36 687.95 
3269 687.94 687.45 687.95 
3270 687.94 687.50 687.95 
3271 687.94 687.49 687.95 
3272 687.94 687.40 687.95 
3273 687.97 687.26 687.95 
3274 687.93 687.25 687.97 
3275 687.93 687.32 687.97 
3276 687.92 687.27 687.97 
3277 687.87 687.20 687.97 
3278 687.88 687.31 687.97 
3279 687.82 687.31 687.97 
3280 687.86 687.25 687.97 
3281 687.90 687.18 687.97 
3282 687.84 687.20 687.97 
3283 687.92 687.12 687.97 
3284 687.87 687.13 687.97 
3285 687.90 687.21 687.97 
3286 687.87 687.13 687.97 
3287 687.92 687.19 687.97 
3288 687.98 687.22 687.97 
3289 687.94 687.20 687.98 
3290 687.98 687.14 687.98 
3291 687.96 687.17 687.98 
3292 687.92 687.15 687.98 
3293 687.97 687.18 687.98 
3294 687.96 687.14 687.98 
3295 687.90 687.04 687.98 
3296 688.00 687.13 687.98 
3297 687.92 687.00 688.00 
3298 687.94 687.16 688.00 
3299 687.98 686.94 688.00 
3300 687.89 686.89 688.00 
3301 687.93 686.76 688.00 
3302 687.88 686.82 688.00 
3303 687.96 687.02 688.00 
3304 687.93 687.12 688.00 
3305 687.08 687.30 688.00 
3306 687.95 687.00 688.00 
3307 687.96 686.94 688.00 
3308 687.81 686.87 688.00 
3309 687.94 686.95 688.00 
3310 687.77 687.04 688.00 
3311 687.91 687.12 688.00 
3312 687.92 687.20 688.00 
3313 687.95 687.18 688.00 
3314 687.68 687.10 688.00 
3315 687.95 687.21 688.00 
3316 687.74 687.22 688.00 
3317 687.84 687.31 688.00 
3318 687.84 687.36 688.00 
3319 687.79 687.33 688.00 
3320 687.95 687.28 688.00 
3321 687.93 687.36 688.00 
3322 687.99 687.49 688.00 
3323 687.98 687.45 688.00 
3324 687.97 687.39 688.00 
3325 687.89 687.40 688.00 
3326 687.92 687.48 688.00 
3327 687.95 687.41 688.00 
3328 687.96 687.28 688.00 
3329 687.95 687.16 688.00 
3330 687.93 687.08 688.00 
3331 687.89 687.14 688.00 
3332 687.89 687.32 688.00 
3333 687.77 687.46 688.00 
3334 687.93 687.39 688.00 
3335 687.94 687.27 688.00 
3336 687.84 687.43 688.00 
3337 687.93 687.47 688.00 
3338 687.91 687.47 688.00 
3339 687.93 687.44 688.00 
3340 687.86 687.47 688.00 
3341 687.93 687.45 688.00 
3342 687.60 687.53 688.00 
3343 687.92 687.41 688.00 
3344 687.78 687.40 688.00 
3345 686.74 687.42 688.00 
3346 687.68 687.53 688.00 
3347 687.91 687.50 688.00 
3348 687.94 687.61 688.00 
3349 687.91 687.59 688.00 
3350 687.90 687.55 688.00 
3351 687.85 687.49 688.00 
3352 687.90 687.54 688.00 
3353 687.43 687.56 688.00 
3354 687.90 687.54 688.00 
3355 687.91 687.62 688.00 
3356 687.93 687.57 688.00 
3357 687.92 687.58 688.00 
3358 687.94 687.56 688.00 
3359 687.92 687.51 688.00 
3360 687.86 687.43 688.00 
3361 687.92 687.35 688.00 
3362 687.92 687.41 688.00 
3363 688.00 687.46 688.00 
3364 687.87 687.45 688.00 
3365 688.00 687.48 688.00 
3366 687.97 687.38 688.00 
3367 687.99 687.43 688.00 
3368 687.89 687.27 688.00 
3369 687.97 687.43 688.00 
3370 687.94 687.46 688.00 
3371 687.94 687.33 688.00 
3372 687.93 687.34 688.00 
3373 687.89 687.26 688.00 
3374 687.92 687.26 688.00 
3375 687.96 687.28 688.00 
3376 687.97 687.39 688.00 
3377 687.98 687.38 688.00 
3378 688.02 687.50 688.00 
3379 687.95 687.42 688.02 
3380 687.92 687.40 688.02 
3381 687.91 687.47 688.02 
3382 688.01 687.44 688.02 
3383 687.93 687.38 688.02 
3384 687.97 687.34 688.02 
3385 687.77 687.33 688.02 
3386 687.95 687.19 688.02 
3387 688.00 687.30 688.02 
3388 687.33 687.26 688.02 
3389 688.03 686.95 688.02 
3390 687.98 686.66 688.03 
3391 687.87 686.63 688.03 
3392 687.89 686.72 688.03 
3393 687.96 686.84 688.03 
3394 687.95 686.76 688.03 
3395 687.96 687.02 688.03 
3396 687.96 687.01 688.03 
3397 687.95 687.27 688.03 
3398 687.83 687.39 688.03 
3399 688.04 687.23 688.03 
3400 688.02 687.42 688.04 
3401 688.01 687.36 688.04 
3402 687.99 687.29 688.04 
3403 688.04 687.23 688.04 
3404 688.03 687.38 688.04 
3405 688.06 687.53 688.04 
3406 688.03 687.59 688.06 
3407 688.09 687.35 688.06 
3408 688.07 687.36 688.09 
3409 688.02 687.39 688.09 
3410 688.05 687.47 688.09 
3411 688.05 687.38 688.09 
3412 688.06 687.46 688.09 
3413 688.08 687.39 688.09 
3414 688.09 687.45 688.09 
3415 688.05 687.33 688.09 
3416 687.98 687.48 688.09 
3417 687.72 687.48 688.09 
3418 688.09 687.55 688.09 
3419 688.04 687.61 688.09 
3420 688.08 687.56 688.09 
3421 688.08 687.62 688.09 
3422 688.11 687.61 688.09 
3423 688.04 687.66 688.11 
3424 688.08 687.63 688.11 
3425 688.09 687.44 688.11 
3426 688.12 687.52 688.11 
3427 688.08 687.39 688.12 
3428 688.03 687.50 688.12 
3429 688.05 687.56 688.12 
3430 688.07 687.51 688.12 
3431 687.97 687.52 688.12 
3432 688.08 687.63 688.12 
3433 688.08 687.72 688.12 
3434 687.94 687.77 688.12 
3435 688.05 687.77 688.12 
3436 688.08 687.74 688.12 
3437 688.08 687.56 688.12 
3438 688.10 687.45 688.12 
3439 688.09 687.44 688.12 
3440 688.09 687.43 688.12 
3441 688.02 687.56 688.12 
3442 688.05 687.69 688.12 
3443 688.04 687.76 688.12 
3444 688.09 687.70 688.12 
3445 688.14 687.60 688.12 
3446 688.06 687.63 688.14 
3447 688.12 687.57 688.14 
3448 688.11 687.49 688.14 
3449 688.13 687.49 688.14 
3450 687.40 687.35 688.14 
3451 688.07 687.21 688.14 
3452 688.05 687.26 688.14 
3453 688.07 687.23 688.14 
3454 688.05 687.16 688.14 
3455 688.03 687.18 688.14 
3456 688.09 687.39 688.14 
3457 688.08 687.46 688.14 
3458 687.97 687.52 688.14 
3459 688.07 687.59 688.14 
3460 688.12 687.70 688.14 
3461 688.04 687.66 688.14 
3462 688.07 687.61 688.14 
3463 688.08 687.50 688.14 
3464 688.09 687.46 688.14 
3465 688.14 687.51 688.14 
3466 688.11 687.56 688.14 
3467 688.08 687.59 688.14 
3468 688.09 687.57 688.14 
3469 688.11 687.57 688.14 
3470 688.05 687.54 688.14 
3471 688.13 687.52 688.14 
3472 687.85 687.52 688.14 
3473 688.09 687.50 688.14 
3474 688.11 687.38 688.14 
3475 688.09 687.45 688.14 
3476 688.11 687.48 688.14 
3477 688.07 687.52 688.14 
3478 688.14 687.53 688.14 
3479 688.14 687.59 688.14 
3480 688.06 687.63 688.14 
3481 688.12 687.60 688.14 
3482 688.04 687.60 688.14 
3483 688.07 687.60 688.14 
3484 688.01 687.57 688.14 
3485 688.06 687.56 688.14 
3486 688.06 687.56 688.14 
3487 687.97 687.56 688.14 
3488 688.08 687.53 688.14 
3489 688.06 687.50 688.14 
3490 687.99 687.51 688.14 
3491 688.10 687.48 688.14 
3492 688.05 687.55 688.14 
3493 688.07 687.49 688.14 
3494 688.04 687.58 688.14 
3495 688.05 687.57 688.14 
3496 688.05 687.61 688.14 
3497 688.04 687.60 688.14 
3498 688.01 687.57 688.14 
3499 687.96 687.70 688.14 
3500 688.02 687.67 688.14 
3501 688.01 687.65 688.14 
3502 687.89 687.63 688.14 
3503 688.09 687.68 688.14 
3504 687.98 687.60 688.14 
3505 687.97 687.54 688.14 
3506 688.02 687.55 688.14 
3507 688.06 687.62 688.14 
3508 688.10 687.71 688.14 
3509 688.12 687.70 688.14 
3510 688.07 687.70 688.14 
3511 688.09 687.62 688.14 
3512 688.12 687.66 688.14 
3513 688.12 687.57 688.14 
3514 688.07 687.63 688.14 
3515 688.07 687.65 688.14 
3516 688.11 687.64 688.14 
3517 688.08 687.68 688.14 
3518 688.06 687.74 688.14 
3519 688.09 687.71 688.14 
3520 688.05 687.56 688.14 
3521 688.06 687.62 688.14 
3522 688.05 687.56 688.14 
3523 688.02 687.63 688.14 
3524 688.09 687.60 688.14 
3525 688.00 687.64 688.14 
3526 688.11 687.64 688.14 
3527 688.09 687.63 688.14 
3528 688.05 687.67 688.14 
3529 688.07 687.67 688.14 
3530 688.10 687.62 688.14 
3531 688.11 687.65 688.14 
3532 688.09 687.72 688.14 
3533 688.04 687.61 688.14 
3534 688.12 687.41 688.14 
3535 688.09 687.37 688.14 
3536 687.99 687.35 688.14 
3537 688.06 687.37 688.14 
3538 688.02 687.43 688.14 
3539 688.04 687.52 688.14 
3540 688.06 687.61 688.14 
3541 688.12 687.67 688.14 
3542 688.07 687.67 688.14 
3543 688.02 687.59 688.14 
3544 688.06 687.52 688.14 
3545 687.97 687.50 688.14 
3546 688.08 687.52 688.14 
3547 688.02 687.62 688.14 
3548 688.04 687.62 688.14 
3549 688.08 687.59 688.14 
3550 688.08 687.54 688.14 
3551 688.07 687.52 688.14 
3552 688.08 687.51 688.14 
3553 688.10 687.54 688.14 
3554 688.07 687.54 688.14 
3555 688.07 687.53 688.14 
3556 688.06 687.48 688.14 
3557 688.02 687.52 688.14 
3558 688.03 687.56 688.14 
3559 688.07 687.56 688.14 
3560 688.08 687.53 688.14 
3561 688.10 687.55 688.14 
3562 688.07 687.54 688.14 
3563 688.06 687.58 688.14 
3564 688.06 687.54 688.14 
3565 688.13 687.58 688.14 
3566 688.08 687.66 688.14 
3567 688.14 687.65 688.14 
3568 685.00 687.61 688.14 
3569 688.14 687.54 688.14 
3570 688.03 687.52 688.14 
3571 688.06 687.47 688.14 
3572 688.03 687.49 688.14 
3573 687.98 687.44 688.14 
3574 688.00 687.45 688.14 
3575 688.04 687.47 688.14 
3576 688.01 687.46 688.14 
3577 687.98 687.52 688.14 
3578 687.92 687.50 688.14 
3579 688.02 687.51 688.14 
3580 687.99 687.55 688.14 
3581 687.89 687.56 688.14 
3582 688.00 687.53 688.14 
3583 687.97 687.51 688.14 
3584 687.94 687.50 688.14 
3585 688.00 687.49 688.14 
3586 688.00 687.51 688.14 
3587 687.96 687.46 688.14 
3588 688.08 687.51 688.14 
3589 687.99 687.54 688.14 
3590 688.07 687.47 688.14 
3591 688.06 687.41 688.14 
3592 688.09 687.38 688.14 
3593 688.05 687.39 688.14 
3594 688.06 687.46 688.14 
3595 688.04 687.52 688.14 
3596 688.06 687.48 688.14 
3597 688.10 687.40 688.14 
3598 687.86 687.40 688.14 
3599 688.05 687.48 688.14 
3600 688.04 687.44 688.14 
3601 688.07 687.37 688.14 
3602 688.04 687.29 688.14 
3603 688.03 687.32 688.14 
3604 687.92 687.34 688.14 
3605 688.06 687.38 688.14 
3606 688.07 687.37 688.14 
3607 688.07 687.41 688.14 
3608 687.96 687.45 688.14 
3609 688.06 687.45 688.14 
3610 687.95 687.46 688.14 
3611 688.09 687.46 688.14 
3612 688.10 687.40 688.14 
3613 688.10 687.45 688.14 
3614 688.07 687.43 688.14 
3615 688.05 687.38 688.14 
3616 688.04 687.43 688.14 
3617 687.78 687.45 688.14 
3618 688.11 687.33 688.14 
3619 688.11 687.34 688.14 
3620 687.92 687.32 688.14 
3621 687.97 687.31 688.14 
3622 688.03 687.32 688.14 
3623 688.00 687.31 688.14 
3624 688.05 687.24 688.14 
3625 688.04 687.20 688.14 
3626 688.00 687.19 688.14 
3627 687.99 687.23 688.14 
3628 688.05 687.22 688.14 
3629 688.06 687.29 688.14 
3630 688.06 687.24 688.14 
3631 688.08 687.29 688.14 
3632 688.05 687.33 688.14 
3633 688.03 687.34 688.14 
3634 688.09 687.39 688.14 
3635 688.07 687.54 688.14 
3636 688.04 687.56 688.14 
3637 688.05 687.56 688.14 
3638 688.11 687.49 688.14 
3639 688.06 687.57 688.14 
3640 687.88 687.49 688.14 
3641 688.11 687.52 688.14 
3642 687.97 687.55 688.14 
3643 688.09 687.54 688.14 
3644 688.09 687.56 688.14 
3645 688.11 687.56 688.14 
3646 688.05 687.55 688.14 
3647 688.12 687.50 688.14 
3648 688.08 687.46 688.14 
3649 688.10 687.36 688.14 
3650 687.98 687.33 688.14 
3651 688.09 687.40 688.14 
3652 688.10 687.34 688.14 
3653 688.10 687.36 688.14 
3654 687.85 687.35 688.14 
3655 688.07 687.34 688.14 
3656 688.08 687.48 688.14 
3657 688.10 687.50 688.14 
3658 688.12 687.50 688.14 
3659 687.99 687.47 688.14 
3660 688.06 687.46 688.14 
3661 688.08 687.53 688.14 
3662 688.07 687.57 688.14 
3663 688.03 687.53 688.14 
3664 688.08 687.43 688.14 
3665 688.10 687.51 688.14 
3666 688.12 687.47 688.14 
3667 688.14 687.55 688.14 
3668 688.07 687.57 688.14 
3669 688.10 687.51 688.14 
3670 688.14 687.45 688.14 
3671 688.11 687.44 688.14 
3672 688.07 687.44 688.14 
3673 688.12 687.45 688.14 
3674 688.15 687.37 688.14 
3675 688.09 687.44 688.15 
3676 688.11 687.45 688.15 
3677 688.13 687.49 688.15 
3678 688.15 687.46 688.15 
3679 688.18 687.38 688.15 
3680 688.14 687.35 688.18 
3681 688.10 687.35 688.18 
3682 688.15 687.37 688.18 
3683 688.14 687.40 688.18 
3684 688.14 687.45 688.18 
3685 688.15 687.46 688.18 
3686 688.08 687.39 688.18 
3687 688.13 687.40 688.18 
3688 688.13 687.40 688.18 
3689 688.09 687.34 688.18 
3690 688.08 687.34 688.18 
3691 687.98 687.30 688.18 
3692 688.11 687.35 688.18 
3693 688.10 687.39 688.18 
3694 688.15 687.41 688.18 
3695 688.11 687.41 688.18 
3696 688.12 687.48 688.18 
3697 688.15 687.50 688.18 
3698 688.11 687.54 688.18 
3699 688.10 687.58 688.18 
3700 688.01 687.58 688.18 
3701 688.13 687.55 688.18 
3702 688.06 687.57 688.18 
3703 687.78 687.57 688.18 
3704 688.10 687.58 688.18 
3705 688.08 687.57 688.18 
3706 687.86 687.56 688.18 
3707 688.10 687.60 688.18 
3708 688.00 687.63 688.18 
3709 688.12 687.67 688.18 
3710 688.15 687.70 688.18 
3711 688.14 687.68 688.18 
3712 688.13 687.69 688.18 
3713 688.13 687.73 688.18 
3714 688.10 687.75 688.18 
3715 688.18 687.80 688.18 
3716 688.04 687.70 688.18 
3717 688.14 687.75 688.18 
3718 688.06 687.68 688.18 
3719 688.15 687.67 688.18 
3720 688.11 687.71 688.18 
3721 688.08 687.69 688.18 
3722 688.13 687.64 688.18 
3723 688.13 687.71 688.18 
3724 688.14 687.62 688.18 
3725 688.09 687.69 688.18 
3726 688.11 687.64 688.18 
3727 688.12 687.68 688.18 
3728 688.13 687.68 688.18 
3729 688.17 687.65 688.18 
3730 688.16 687.64 688.18 
3731 688.17 687.56 688.18 
3732 688.15 687.55 688.18 
3733 688.06 687.56 688.18 
3734 688.15 687.52 688.18 
3735 688.12 687.59 688.18 
3736 688.18 687.57 688.18 
3737 688.05 687.61 688.18 
3738 688.18 687.64 688.18 
3739 688.16 687.66 688.18 
3740 688.14 687.68 688.18 
3741 688.15 687.75 688.18 
3742 688.02 687.78 688.18 
3743 688.03 687.75 688.18 
3744 688.13 687.81 688.18 
3745 688.15 687.75 688.18 
3746 688.16 687.68 688.18 
3747 688.17 687.74 688.18 
3748 688.19 687.76 688.18 
3749 688.15 687.61 688.19 
3750 688.16 687.60 688.19 
3751 688.18 687.58 688.19 
3752 688.14 687.58 688.19 
3753 688.17 687.57 688.19 
3754 688.07 687.74 688.19 
3755 688.10 687.68 688.19 
3756 688.13 687.68 688.19 
3757 688.08 687.65 688.19 
3758 688.15 687.71 688.19 
3759 688.16 687.61 688.19 
3760 688.10 687.64 688.19 
3761 688.14 687.59 688.19 
3762 688.06 687.63 688.19 
3763 688.18 687.61 688.19 
3764 688.12 687.63 688.19 
3765 688.14 687.71 688.19 
3766 688.17 687.70 688.19 
3767 688.11 687.72 688.19 
3768 688.15 687.72 688.19 
3769 688.17 687.61 688.19 
3770 687.91 687.59 688.19 
3771 688.18 687.51 688.19 
3772 688.01 687.61 688.19 
3773 688.03 687.64 688.19 
3774 688.04 687.66 688.19 
3775 688.06 687.62 688.19 
3776 688.15 687.64 688.19 
3777 688.17 687.67 688.19 
3778 688.04 687.66 688.19 
3779 688.10 687.65 688.19 
3780 688.10 687.67 688.19 
3781 688.19 687.67 688.19 
3782 688.08 687.69 688.19 
3783 688.14 687.66 688.19 
3784 688.11 687.67 688.19 
3785 688.16 687.64 688.19 
3786 688.18 687.67 688.19 
3787 688.13 687.71 688.19 
3788 688.21 687.70 688.19 
3789 688.19 687.67 688.21 
3790 688.04 687.63 688.21 
3791 688.17 687.69 688.21 
3792 688.18 687.61 688.21 
3793 688.11 687.61 688.21 
3794 688.15 687.60 688.21 
3795 688.16 687.56 688.21 
3796 688.15 687.66 688.21 
3797 688.17 687.73 688.21 
3798 688.19 687.73 688.21 
3799 688.20 687.70 688.21 
3800 688.18 687.70 688.21 
3801 688.16 687.67 688.21 
3802 688.15 687.65 688.21 
3803 688.17 687.63 688.21 
3804 688.20 687.59 688.21 
3805 688.17 687.66 688.21 
3806 688.01 687.58 688.21 
3807 688.17 687.57 688.21 
3808 688.10 687.61 688.21 
3809 688.17 687.62 688.21 
3810 687.98 687.60 688.21 
3811 688.19 687.63 688.21 
3812 688.19 687.67 688.21 
3813 688.18 687.67 688.21 
3814 688.15 687.63 688.21 
3815 688.14 687.64 688.21 
3816 688.13 687.69 688.21 
3817 688.07 687.69 688.21 
3818 688.16 687.75 688.21 
3819 687.85 687.69 688.21 
3820 688.16 687.70 688.21 
3821 688.17 687.67 688.21 
3822 688.20 687.80 688.21 
3823 688.16 687.76 688.21 
3824 688.18 687.76 688.21 
3825 688.13 687.76 688.21 
3826 688.10 687.74 688.21 
3827 688.17 687.78 688.21 
3828 688.06 687.76 688.21 
3829 688.19 687.76 688.21 
3830 688.17 687.72 688.21 
3831 688.18 687.68 688.21 
3832 688.07 687.65 688.21 
3833 688.12 687.69 688.21 
3834 688.13 687.68 688.21 
3835 688.19 687.74 688.21 
3836 688.22 687.79 688.21 
3837 688.22 687.76 688.22 
3838 688.18 687.75 688.22 
3839 688.19 687.78 688.22 
3840 688.17 687.85 688.22 
3841 688.16 687.84 688.22 
3842 688.07 687.86 688.22 
3843 688.15 687.84 688.22 
3844 688.20 687.83 688.22 
3845 688.20 687.80 688.22 
3846 688.19 687.83 688.22 
3847 688.07 687.82 688.22 
3848 688.12 687.81 688.22 
3849 688.17 687.80 688.22 
3850 688.15 687.82 688.22 
3851 688.18 687.82 688.22 
3852 688.20 687.79 688.22 
3853 688.08 687.77 688.22 
3854 688.18 687.75 688.22 
3855 688.16 687.68 688.22 
3856 688.20 687.73 688.22 
3857 688.16 687.70 688.22 
3858 688.17 687.66 688.22 
3859 688.16 687.70 688.22 
3860 688.15 687.73 688.22 
3861 688.20 687.72 688.22 
3862 688.16 687.70 688.22 
3863 687.83 687.74 688.22 
3864 688.20 687.75 688.22 
3865 688.15 687.74 688.22 
3866 688.16 687.71 688.22 
3867 687.67 687.72 688.22 
3868 688.15 687.75 688.22 
3869 688.17 687.75 688.22 
3870 688.05 687.72 688.22 
3871 688.18 687.74 688.22 
3872 688.11 687.70 688.22 
3873 688.22 687.69 688.22 
3874 688.20 687.71 688.22 
3875 688.18 687.68 688.22 
3876 688.16 687.69 688.22 
3877 688.24 687.74 688.22 
3878 688.07 687.72 688.24 
3879 688.08 687.71 688.24 
3880 687.93 687.72 688.24 
3881 688.22 687.74 688.24 
3882 688.07 687.77 688.24 
3883 688.20 687.76 688.24 
3884 688.15 687.73 688.24 
3885 688.11 687.72 688.24 
3886 688.07 687.70 688.24 
3887 688.19 687.70 688.24 
3888 688.17 687.70 688.24 
3889 688.20 687.67 688.24 
3890 688.17 687.67 688.24 
3891 688.12 687.63 688.24 
3892 688.18 687.63 688.24 
3893 688.18 687.59 688.24 
3894 688.20 687.58 688.24 
3895 688.18 687.61 688.24 
3896 688.16 687.63 688.24 
3897 688.22 687.63 688.24 
3898 688.17 687.59 688.24 
3899 688.16 687.59 688.24 
3900 688.21 687.62 688.24 
3901 688.16 687.62 688.24 
3902 688.05 687.59 688.24 
3903 688.19 687.61 688.24 
3904 688.17 687.69 688.24 
3905 688.16 687.68 688.24 
3906 688.14 687.67 688.24 
3907 688.10 687.67 688.24 
3908 688.09 687.68 688.24 
3909 688.17 687.70 688.24 
3910 688.18 687.69 688.24 
3911 688.17 687.63 688.24 
3912 688.17 687.64 688.24 
3913 688.15 687.64 688.24 
3914 688.16 687.52 688.24 
3915 688.15 687.54 688.24 
3916 688.21 687.57 688.24 
3917 688.18 687.59 688.24 
3918 688.12 687.55 688.24 
3919 688.19 687.61 688.24 
3920 688.18 687.58 688.24 
3921 688.13 687.56 688.24 
3922 688.22 687.50 688.24 
3923 688.10 687.46 688.24 
3924 688.16 687.40 688.24 
3925 688.13 687.38 688.24 
3926 688.19 687.35 688.24 
3927 688.15 687.40 688.24 
3928 688.18 687.49 688.24 
3929 688.18 687.51 688.24 
3930 688.19 687.60 688.24 
3931 688.22 687.56 688.24 
3932 688.19 687.59 688.24 
3933 688.14 687.61 688.24 
3934 688.19 687.61 688.24 
3935 688.19 687.58 688.24 
3936 688.20 687.57 688.24 
3937 688.18 687.54 688.24 
3938 688.18 687.58 688.24 
3939 688.19 687.56 688.24 
3940 688.18 687.58 688.24 
3941 688.10 687.59 688.24 
3942 688.19 687.60 688.24 
3943 688.17 687.56 688.24 
3944 688.19 687.66 688.24 
3945 688.17 687.63 688.24 
3946 688.17 687.65 688.24 
3947 688.00 687.62 688.24 
3948 688.13 687.60 688.24 
3949 688.16 687.59 688.24 
3950 688.17 687.61 688.24 
3951 688.15 687.65 688.24 
3952 688.15 687.62 688.24 
3953 688.14 687.56 688.24 
3954 688.14 687.59 688.24 
3955 688.18 687.62 688.24 
3956 687.83 687.64 688.24 
3957 688.13 687.64 688.24 
3958 688.08 687.63 688.24 
3959 688.09 687.63 688.24 
3960 688.16 687.63 688.24 
3961 688.15 687.64 688.24 
3962 688.15 687.69 688.24 
3963 688.20 687.73 688.24 
3964 688.12 687.68 688.24 
3965 688.18 687.63 688.24 
3966 688.14 687.66 688.24 
3967 688.17 687.62 688.24 
3968 688.17 687.67 688.24 
3969 688.23 687.62 688.24 
3970 688.14 687.61 688.24 
3971 688.18 687.64 688.24 
3972 688.19 687.64 688.24 
3973 688.21 687.71 688.24 
3974 688.21 687.69 688.24 
3975 688.14 687.67 688.24 
3976 688.18 687.64 688.24 
3977 688.11 687.59 688.24 
3978 687.58 687.61 688.24 
3979 688.18 687.54 688.24 
3980 688.17 687.56 688.24 
3981 688.11 687.63 688.24 
3982 688.15 687.67 688.24 
3983 688.17 687.64 688.24 
3984 688.19 687.62 688.24 
3985 688.15 687.62 688.24 
3986 688.21 687.63 688.24 
3987 688.21 687.60 688.24 
3988 688.01 687.62 688.24 
3989 688.12 687.62 688.24 
3990 688.16 687.57 688.24 
3991 688.17 687.57 688.24 
3992 688.19 687.58 688.24 
3993 688.19 687.54 688.24 
3994 688.18 687.56 688.24 
3995 688.10 687.56 688.24 
3996 688.20 687.54 688.24 
3997 688.13 687.53 688.24 
3998 688.14 687.56 688.24 
3999 688.07 687.57 688.24 
4000 688.09 687.56 688.24 
4001 688.13 687.58 688.24 
4002 688.18 687.58 688.24 
4003 688.21 687.59 688.24 
4004 688.19 687.58 688.24 
4005 688.15 687.53 688.24 
4006 688.15 687.46 688.24 
4007 688.15 687.50 688.24 
4008 688.17 687.46 688.24 
4009 688.18 687.47 688.24 
4010 688.18 687.52 688.24 
4011 688.17 687.51 688.24 
4012 688.15 687.56 688.24 
4013 688.17 687.58 688.24 
4014 688.18 687.60 688.24 
4015 688.11 687.59 688.24 
4016 688.19 687.61 688.24 
4017 688.19 687.59 688.24 
4018 688.18 687.60 688.24 
4019 688.16 687.60 688.24 
4020 688.20 687.60 688.24 
4021 688.14 687.62 688.24 
4022 688.18 687.62 688.24 
4023 688.18 687.59 688.24 
4024 688.18 687.62 688.24 
4025 688.25 687.56 688.24 
4026 688.15 687.61 688.25 
4027 688.22 687.64 688.25 
4028 688.20 687.61 688.25 
4029 688.20 687.62 688.25 
4030 688.18 687.59 688.25 
4031 688.23 687.62 688.25 
4032 688.24 687.59 688.25 
4033 688.20 687.57 688.25 
4034 688.19 687.58 688.25 
4035 688.21 687.58 688.25 
4036 688.22 687.52 688.25 
4037 688.18 687.52 688.25 
4038 688.19 687.52 688.25 
4039 688.22 687.52 688.25 
4040 688.22 687.49 688.25 
4041 688.15 687.50 688.25 
4042 688.19 687.49 688.25 
4043 688.18 687.49 688.25 
4044 688.15 687.49 688.25 
4045 688.18 687.50 688.25 
4046 688.18 687.44 688.25 
4047 688.09 687.44 688.25 
4048 688.17 687.49 688.25 
4049 688.16 687.51 688.25 
4050 688.17 687.49 688.25 
4051 688.20 687.52 688.25 
4052 688.05 687.51 688.25 
4053 688.22 687.54 688.25 
4054 688.16 687.52 688.25 
4055 688.14 687.55 688.25 
4056 688.11 687.54 688.25 
4057 688.11 687.53 688.25 
4058 688.17 687.50 688.25 
4059 688.16 687.51 688.25 
4060 688.12 687.52 688.25 
4061 688.12 687.52 688.25 
4062 688.14 687.54 688.25 
4063 688.17 687.55 688.25 
4064 688.21 687.56 688.25 
4065 688.16 687.57 688.25 
4066 688.19 687.56 688.25 
4067 688.20 687.58 688.25 
4068 688.18 687.58 688.25 
4069 688.21 687.52 688.25 
4070 688.18 687.58 688.25 
4071 688.18 687.65 688.25 
4072 688.23 687.66 688.25 
4073 688.26 687.63 688.25 
4074 688.23 687.67 688.26 
4075 688.26 687.63 688.26 
4076 688.25 687.60 688.26 
4077 688.22 687.64 688.26 
4078 688.22 687.62 688.26 
4079 688.24 687.65 688.26 
4080 688.25 687.66 688.26 
4081 688.24 687.60 688.26 
4082 688.17 687.61 688.26 
4083 688.21 687.60 688.26 
4084 688.23 687.62 688.26 
4085 688.22 687.63 688.26 
4086 688.20 687.64 688.26 
4087 688.24 687.67 688.26 
4088 688.25 687.66 688.26 
4089 688.25 687.67 688.26 
4090 688.28 687.63 688.26 
4091 688.23 687.66 688.28 
4092 688.26 687.67 688.28 
4093 688.21 687.65 688.28 
4094 688.20 687.67 688.28 
4095 688.19 687.63 688.28 
4096 688.20 687.63 688.28 
4097 688.20 687.64 688.28 
4098 688.22 687.66 688.28 
4099 688.22 687.66 688.28 
4100 688.20 687.68 688.28 
4101 688.22 687.69 688.28 
4102 688.22 687.70 688.28 
4103 688.20 687.71 688.28 
4104 688.22 687.73 688.28 
4105 688.24 687.75 688.28 
4106 688.22 687.73 688.28 
4107 688.25 687.72 688.28 
4108 688.24 687.74 688.28 
4109 688.20 687.73 688.28 
4110 688.21 687.67 688.28 
4111 688.20 687.68 688.28 
4112 688.23 687.65 688.28 
4113 688.21 687.66 688.28 
4114 688.19 687.65 688.28 
4115 688.20 687.67 688.28 
4116 688.24 687.65 688.28 
4117 688.21 687.66 688.28 
4118 688.22 687.64 688.28 
4119 688.22 687.58 688.28 
4120 688.24 687.59 688.28 
4121 688.24 687.59 688.28 
4122 688.18 687.63 688.28 
4123 688.24 687.69 688.28 
4124 688.19 687.71 688.28 
4125 688.24 687.72 688.28 
4126 688.25 687.73 688.28 
4127 688.24 687.71 688.28 
4128 688.20 687.69 688.28 
4129 688.21 687.73 688.28 
4130 688.18 687.73 688.28 
4131 688.21 687.76 688.28 
4132 688.24 687.74 688.28 
4133 688.17 687.75 688.28 
4134 688.21 687.74 688.28 
4135 688.18 687.72 688.28 
4136 688.20 687.60 688.28 
4137 688.20 687.59 688.28 
4138 688.20 687.63 688.28 
4139 688.08 687.63 688.28 
4140 688.22 687.55 688.28 
4141 688.18 687.60 688.28 
4142 688.21 687.60 688.28 
4143 688.16 687.67 688.28 
4144 688.23 687.66 688.28 
4145 688.11 687.66 688.28 
4146 688.18 687.58 688.28 
4147 688.16 687.53 688.28 
4148 688.08 687.51 688.28 
4149 688.15 687.55 688.28 
4150 688.13 687.58 688.28 
4151 688.14 687.57 688.28 
4152 688.14 687.56 688.28 
4153 688.15 687.55 688.28 
4154 688.15 687.62 688.28 
4155 688.10 687.63 688.28 
4156 688.11 687.70 688.28 
4157 688.16 687.60 688.28 
4158 688.15 687.59 688.28 
4159 688.18 687.61 688.28 
4160 688.22 687.60 688.28 
4161 688.19 687.57 688.28 
4162 688.18 687.54 688.28 
4163 688.18 687.49 688.28 
4164 688.18 687.51 688.28 
4165 688.08 687.54 688.28 
4166 688.16 687.59 688.28 
4167 688.11 687.57 688.28 
4168 688.19 687.55 688.28 
4169 688.12 687.53 688.28 
4170 688.17 687.56 688.28 
4171 688.17 687.63 688.28 
4172 688.17 687.63 688.28 
4173 688.17 687.59 688.28 
4174 688.19 687.61 688.28 
4175 688.10 687.62 688.28 
4176 688.20 687.63 688.28 
4177 688.14 687.58 688.28 
4178 688.16 687.65 688.28 
4179 688.17 687.62 688.28 
4180 688.18 687.63 688.28 
4181 688.17 687.60 688.28 
4182 688.15 687.60 688.28 
4183 688.17 687.51 688.28 
4184 688.05 687.53 688.28 
4185 688.14 687.54 688.28 
4186 688.11 687.50 688.28 
4187 688.02 687.51 688.28 
4188 688.17 687.47 688.28 
4189 688.17 687.47 688.28 
4190 688.16 687.46 688.28 
4191 688.17 687.52 688.28 
4192 688.19 687.42 688.28 
4193 688.17 687.44 688.28 
4194 688.16 687.47 688.28 
4195 688.17 687.42 688.28 
4196 688.15 687.45 688.28 
4197 688.14 687.42 688.28 
4198 688.15 687.41 688.28 
4199 688.12 687.45 688.28 
4200 688.19 687.48 688.28 
4201 688.15 687.52 688.28 
4202 688.16 687.44 688.28 
4203 688.16 687.46 688.28 
4204 688.11 687.51 688.28 
4205 688.18 687.58 688.28 
4206 688.16 687.54 688.28 
4207 688.20 687.58 688.28 
4208 688.17 687.54 688.28 
4209 688.16 687.54 688.28 
4210 688.23 687.55 688.28 
4211 688.19 687.60 688.28 
4212 688.20 687.59 688.28 
4213 688.12 687.64 688.28 
4214 688.21 687.66 688.28 
4215 688.18 687.67 688.28 
4216 688.19 687.68 688.28 
4217 688.22 687.65 688.28 
4218 688.22 687.64 688.28 
4219 688.20 687.61 688.28 
4220 688.06 687.62 688.28 
4221 688.18 687.61 688.28 
4222 688.18 687.60 688.28 
4223 688.11 687.61 688.28 
4224 688.19 687.63 688.28 
4225 688.21 687.59 688.28 
4226 688.23 687.53 688.28 
4227 688.18 687.61 688.28 
4228 688.20 687.64 688.28 
4229 688.18 687.65 688.28 
4230 688.21 687.64 688.28 
4231 688.21 687.66 688.28 
4232 688.19 687.63 688.28 
4233 688.16 687.63 688.28 
4234 688.20 687.65 688.28 
4235 688.20 687.67 688.28 
4236 688.17 687.66 688.28 
4237 688.21 687.63 688.28 
4238 688.14 687.59 688.28 
4239 688.23 687.58 688.28 
4240 688.18 687.49 688.28 
4241 688.15 687.55 688.28 
4242 688.19 687.55 688.28 
4243 688.13 687.51 688.28 
4244 688.21 687.50 688.28 
4245 688.15 687.55 688.28 
4246 688.20 687.55 688.28 
4247 688.19 687.58 688.28 
4248 688.17 687.60 688.28 
4249 688.20 687.61 688.28 
4250 688.18 687.60 688.28 
4251 688.19 687.65 688.28 
4252 688.03 687.63 688.28 
4253 688.17 687.66 688.28 
4254 688.16 687.63 688.28 
4255 688.18 687.63 688.28 
4256 688.17 687.64 688.28 
4257 688.14 687.67 688.28 
4258 688.18 687.64 688.28 
4259 688.18 687.62 688.28 
4260 688.18 687.63 688.28 
4261 688.18 687.57 688.28 
4262 688.16 687.58 688.28 
4263 688.20 687.59 688.28 
4264 688.18 687.53 688.28 
4265 688.15 687.50 688.28 
4266 688.09 687.49 688.28 
4267 688.17 687.49 688.28 
4268 688.21 687.55 688.28 
4269 688.17 687.49 688.28 
4270 688.12 687.52 688.28 
4271 688.18 687.52 688.28 
4272 688.14 687.52 688.28 
4273 688.14 687.56 688.28 
4274 688.19 687.56 688.28 
4275 688.10 687.63 688.28 
4276 688.21 687.60 688.28 
4277 688.10 687.56 688.28 
4278 688.14 687.53 688.28 
4279 688.16 687.59 688.28 
4280 688.18 687.55 688.28 
4281 688.10 687.59 688.28 
4282 688.17 687.58 688.28 
4283 688.16 687.63 688.28 
4284 688.10 687.61 688.28 
4285 688.17 687.61 688.28 
4286 688.12 687.62 688.28 
4287 688.14 687.51 688.28 
4288 688.16 687.56 688.28 
4289 688.13 687.56 688.28 
4290 688.17 687.56 688.28 
4291 688.16 687.55 688.28 
4292 688.14 687.63 688.28 
4293 688.17 687.61 688.28 
4294 688.14 687.59 688.28 
4295 688.15 687.53 688.28 
4296 688.17 687.54 688.28 
4297 688.18 687.41 688.28 
4298 687.95 687.41 688.28 
4299 688.12 687.38 688.28 
4300 688.13 687.32 688.28 
4301 688.12 687.34 688.28 
4302 688.14 687.40 688.28 
4303 688.17 687.34 688.28 
4304 688.17 687.32 688.28 
4305 688.16 687.33 688.28 
4306 688.13 687.39 688.28 
4307 688.17 687.38 688.28 
4308 688.15 687.38 688.28 
4309 688.08 687.38 688.28 
4310 688.19 687.36 688.28 
4311 688.17 687.39 688.28 
4312 688.19 687.40 688.28 
4313 688.11 687.46 688.28 
4314 688.14 687.37 688.28 
4315 688.15 687.39 688.28 
4316 688.13 687.37 688.28 
4317 688.17 687.36 688.28 
4318 688.09 687.38 688.28 
4319 688.18 687.39 688.28 
4320 688.15 687.38 688.28 
4321 688.10 687.35 688.28 
4322 688.18 687.40 688.28 
4323 688.19 687.42 688.28 
4324 688.15 687.43 688.28 
4325 688.10 687.41 688.28 
4326 688.21 687.32 688.28 
4327 688.16 687.32 688.28 
4328 688.13 687.31 688.28 
4329 688.18 687.35 688.28 
4330 688.14 687.32 688.28 
4331 688.17 687.34 688.28 
4332 688.14 687.40 688.28 
4333 688.16 687.34 688.28 
4334 688.18 687.33 688.28 
4335 688.13 687.30 688.28 
4336 688.16 687.30 688.28 
4337 688.16 687.27 688.28 
4338 688.15 687.29 688.28 
4339 688.18 687.31 688.28 
4340 688.18 687.26 688.28 
4341 688.14 687.36 688.28 
4342 688.18 687.40 688.28 
4343 688.17 687.43 688.28 
4344 688.17 687.45 688.28 
4345 688.15 687.42 688.28 
4346 688.16 687.37 688.28 
4347 687.99 687.35 688.28 
4348 688.17 687.35 688.28 
4349 688.16 687.41 688.28 
4350 688.17 687.46 688.28 
4351 688.16 687.42 688.28 
4352 688.15 687.47 688.28 
4353 688.17 687.49 688.28 
4354 688.18 687.49 688.28 
4355 688.21 687.52 688.28 
4356 688.16 687.55 688.28 
4357 688.21 687.51 688.28 
4358 688.18 687.49 688.28 
4359 688.16 687.47 688.28 
4360 688.17 687.52 688.28 
4361 688.20 687.51 688.28 
4362 688.18 687.54 688.28 
4363 688.18 687.51 688.28 
4364 688.19 687.50 688.28 
4365 688.17 687.47 688.28 
4366 688.17 687.48 688.28 
4367 688.06 687.47 688.28 
4368 688.21 687.44 688.28 
4369 688.15 687.42 688.28 
4370 688.10 687.37 688.28 
4371 688.19 687.36 688.28 
4372 688.05 687.32 688.28 
4373 688.10 687.34 688.28 
4374 688.12 687.38 688.28 
4375 688.18 687.40 688.28 
4376 688.11 687.42 688.28 
4377 688.20 687.42 688.28 
4378 688.16 687.42 688.28 
4379 688.19 687.41 688.28 
4380 688.06 687.37 688.28 
4381 688.17 687.37 688.28 
4382 688.18 687.42 688.28 
4383 688.19 687.42 688.28 
4384 688.19 687.37 688.28 
4385 688.16 687.38 688.28 
4386 688.12 687.43 688.28 
4387 688.18 687.41 688.28 
4388 688.17 687.42 688.28 
4389 688.22 687.46 688.28 
4390 688.16 687.45 688.28 
4391 688.17 687.41 688.28 
4392 688.19 687.42 688.28 
4393 688.20 687.41 688.28 
4394 688.21 687.45 688.28 
4395 688.20 687.43 688.28 
4396 688.21 687.46 688.28 
4397 688.23 687.50 688.28 
4398 688.23 687.52 688.28 
4399 688.21 687.54 688.28 
4400 688.23 687.54 688.28 
4401 688.22 687.58 688.28 
4402 688.14 687.57 688.28 
4403 688.23 687.61 688.28 
4404 688.23 687.57 688.28 
4405 688.24 687.61 688.28 
4406 688.20 687.62 688.28 
4407 688.24 687.62 688.28 
4408 688.23 687.58 688.28 
4409 688.19 687.54 688.28 
4410 688.19 687.54 688.28 
4411 688.20 687.51 688.28 
4412 688.19 687.50 688.28 
4413 688.23 687.46 688.28 
4414 688.19 687.42 688.28 
4415 688.20 687.48 688.28 
4416 688.21 687.50 688.28 
4417 688.21 687.50 688.28 
4418 688.23 687.54 688.28 
4419 688.24 687.55 688.28 
4420 688.22 687.54 688.28 
4421 688.24 687.58 688.28 
4422 688.25 687.57 688.28 
4423 688.20 687.56 688.28 
4424 688.26 687.58 688.28 
4425 688.23 687.57 688.28 
4426 688.15 687.50 688.28 
4427 688.24 687.47 688.28 
4428 688.24 687.47 688.28 
4429 688.23 687.46 688.28 
4430 688.24 687.49 688.28 
4431 688.26 687.53 688.28 
4432 688.20 687.54 688.28 
4433 688.19 687.59 688.28 
4434 688.20 687.58 688.28 
4435 688.17 687.58 688.28 
