iteration,time_sampling,stoc_pol_mean,stoc_pol_std,stoc_pol_max,stoc_pol_min,rollout_success,alpha,delta,time_vpg,time_npg,kl_dist,surr_improvement,running_score,rwd_sparse,rwd_dense,success_percentage,num_samples,time_VF,VF_error_before,VF_error_after,env_samples,eval_score,eval_success
0,9.942715406417847,-3094.6055940810256,2988.854030558423,814.9647821260369,-8799.137229913862,0.0,1.345583039942784,0.1,0.04071545600891113,0.33467841148376465,0.05149512,0.073591985,-3094.6055940810256,0.4621176515564079,-15.469422649598117,0.0,15926,1.5103082656860352,0.9999549769679051,0.5606217540035324,15926,-458.3824688171177,0.0
1,11.979488372802734,-2687.3310477363816,2812.9152077826407,334.0252954693454,-9157.18027134795,0.0,1.8070941003612806,0.1,0.013547182083129883,0.4365396499633789,0.051722556,0.056743726,-3053.8781394465614,0.4795403164725105,-13.435597189153526,0.0,16846,1.5601742267608643,0.6463398984612698,0.4211931672231267,32772,-1.5489985683706138,0.0
2,12.678598642349243,-2356.499840997922,2635.2117656061255,445.46639797551774,-8988.36992815038,3.125,1.7404619355240127,0.1,0.012569427490234375,0.2870917320251465,0.053841468,0.059477687,-2984.1403096016975,0.5560065029644395,-11.793299617444701,3.125,17558,1.7910254001617432,0.4090199150082581,0.24815100425752118,50330,-44.53724223683311,0.0
3,13.564370155334473,-2304.989538962523,2612.135681741419,622.5111265848643,-8634.14646628681,2.0833333333333335,1.5699510085564772,0.1,0.02540445327758789,0.43499040603637695,0.053625062,0.06718631,-2916.22523253778,0.5379667608841682,-11.536205397015452,2.0833333333333335,18693,2.730534553527832,0.2525335108378026,0.1687650702129488,69023,-10.565003228317302,0.0
4,12.87704873085022,-1584.4629835834621,2011.4214671237235,735.6909553051872,-8441.798230229238,2.0833333333333335,1.5558973959408924,0.1,0.017396211624145508,0.43018364906311035,0.05779359,0.06586318,-2783.049007642348,0.49702864732828295,-7.933244412912987,2.0833333333333335,18436,3.0294010639190674,0.23439897267436421,0.1845734678003628,87459,-116.47391984766891,0.0
5,11.930326461791992,-918.4331235589748,1593.3871825910269,894.9573887105736,-4968.41644141375,1.0416666666666667,1.5453993484987558,0.1,0.023061037063598633,0.5310912132263184,0.054843504,0.058305327,-2596.5874192340107,0.4808608221724356,-4.61120833706001,1.0416666666666667,18627,2.986013889312744,0.2589946519907646,0.18773146484375294,106086,-119.59544498642032,0.0
6,14.179375410079956,-603.6775175909505,1349.793373787748,284.6065064320684,-4974.96325202919,0.0,1.7121121557829366,0.1,0.03405451774597168,0.5331783294677734,0.050018985,0.05161259,-2397.2964290697046,0.46030245499727723,-3.037438846070787,0.0,18923,3.013683319091797,0.3869937963211699,0.2955633910040332,125009,-110.81528090069338,0.0
7,14.206521272659302,-847.4090260890607,1670.2402950433366,586.0310594083976,-8567.9988770308,0.0,1.6138998339499078,0.1,0.016517162322998047,0.40578150749206543,0.051235978,0.046500813,-2242.3076887716406,0.4887630972492092,-4.252319304147041,0.0,18948,2.8675475120544434,0.2176938016240383,0.16964462134015101,143957,-156.26589074390466,0.0
8,14.8121018409729,-272.69492458036535,754.1779762865829,28.019347073030033,-4897.170760345174,0.0,1.6441805777766612,0.1,0.02334141731262207,0.7498981952667236,0.047691476,0.046938736,-2045.346412352513,0.3996154178678037,-1.3850670230131599,0.0,19200,2.90380859375,0.8899219726209979,0.39459232314256887,163157,-130.68131914363573,0.0
9,14.930125951766968,-533.2980696327646,1261.9906744322175,334.5003922083472,-4518.017329153821,0.0,1.8281497450357391,0.1,0.02356433868408203,0.5591044425964355,0.052298903,0.045149546,-1894.1415780805382,0.46144180033827564,-2.683008061081438,0.0,19200,2.8540875911712646,0.26935057979490895,0.10761999703015986,182357,-176.9729697359796,0.0
10,15.211979150772095,-103.26579647830586,412.8613351275496,333.3549523352222,-4012.664683220658,0.0,1.9515946120290013,0.1,0.021691083908081055,0.6872358322143555,0.050665937,0.05669515,-1715.0539999203152,0.4635414247213608,-0.537960109796316,0.0,19200,2.4519219398498535,0.91584996277773,0.31298531435825266,201557,-171.0966199630203,0.0
11,14.301089525222778,-122.27704828337737,415.24081398740697,22.26120462709439,-3464.3301491148877,1.0416666666666667,1.5767555425536282,0.1,0.02339482307434082,0.5358352661132812,0.051702023,0.044933405,-1555.7763047566214,0.4947134435056147,-0.6330826135232472,1.0416666666666667,19200,2.7776830196380615,0.33875944834118044,0.313294957393636,220757,-192.40929933609831,0.0
12,13.346149682998657,-27.75152955514818,36.901644346000666,37.86782836807527,-192.68409531394278,0.0,1.6326284114631553,0.1,0.025075912475585938,0.5310928821563721,0.052740745,0.05651399,-1402.973827236474,0.48321826524844386,-0.1604971571187663,0.0,19200,2.6487395763397217,2.730191754856655,0.6580070040600272,239957,-186.97063808298057,0.0
13,12.859615564346313,-121.95322439753257,575.8841399706974,189.9597965302146,-3931.0073995454904,0.0,1.94747022638708,0.1,0.018355846405029297,0.5969781875610352,0.050147954,0.037268743,-1274.87176695258,0.522365008677458,-0.630088751584787,0.0,19200,2.531123399734497,0.33083886780518657,0.13651810638957818,259157,-166.03985046853336,0.0
14,15.143751859664917,-0.9729567369839961,48.43758286813285,312.2981630453815,-252.5086174049244,0.0,1.7409434270037873,0.1,0.01935124397277832,0.6003646850585938,0.050937362,0.08694092,-1147.4818859310205,0.540272864353263,-0.02658348465250678,0.0,19200,2.578685760498047,3.2052110565436576,0.6016158110213897,278357,-169.1858926803667,0.0
15,15.268871784210205,-70.98437965952876,402.1153711836706,37.9606698930107,-3032.206322965303,0.0,1.9630144533347795,0.1,0.034377336502075195,0.5400376319885254,0.051239666,0.044124626,-1039.8321353038714,0.5331168956241534,-0.3766152570709265,0.0,19200,2.6009678840637207,0.38539495152723924,0.14188729443910122,297557,-182.9785036150376,0.0
16,15.143590688705444,-0.9204354121851869,20.361303987084714,42.309692899812056,-65.63284225518488,0.0,1.9800263985849778,0.1,0.01870870590209961,0.6226058006286621,0.050786395,0.0791919,-935.9409653147028,0.5313838987284973,-0.026263150927953716,0.0,19200,2.6894092559814453,1.194238959179999,0.24499925238526452,316757,-177.85285805619498,0.0
17,15.65998387336731,-47.660399023394554,456.9144735687521,59.25735831188218,-3349.454791077092,0.0,1.7786625266070153,0.1,0.017552852630615234,0.5255568027496338,0.051298913,0.03346237,-847.1129086855719,0.604336199177884,-0.2601281995649673,0.0,19200,2.8678503036499023,0.13284254741190024,0.04118714450539146,335957,-177.9514127141813,0.0
18,14.610044240951538,-10.78485122012377,257.05439116647125,279.5496995164138,-2412.095110752817,0.0,1.9703787910231039,0.1,0.01807689666748047,0.5333571434020996,0.05032218,0.054333292,-763.4801029390271,0.6215407622488444,-0.07568334319248375,0.0,19200,2.8879306316375732,0.1367443145996961,0.09682719651232699,355157,-131.6141861951927,0.0
19,14.111380815505981,23.954005447504116,20.58078596496659,77.71924722810074,-22.21153909577329,0.0,1.9000061589965183,0.1,0.018300294876098633,0.6067197322845459,0.051859744,0.17318527,-684.7366921003741,0.6338487516686673,0.09796139678035297,0.0,19200,2.898733139038086,0.2550976063288238,0.09835855465821786,374357,-1954.5043859326852,0.0
20,14.419434309005737,39.39254137037843,82.23423673591884,413.39377830979254,-592.3275309645179,0.0,1.8574937608435034,0.1,0.024733304977416992,0.6916563510894775,0.050615933,0.052147303,-612.3237687532987,0.7101447063366413,0.17515443333185052,0.0,19200,2.791308879852295,0.5278151421888074,0.4154501559416137,393557,-1694.3208883352122,0.0
21,15.0717031955719,62.948279154157625,100.78630848948087,745.4035433562411,-131.1595483537616,0.0,1.785393943445447,0.1,0.02312636375427246,0.7166652679443359,0.05042524,0.14783414,-544.7965639625531,0.7593605493115616,0.29284505173086933,0.0,19200,4.16234827041626,0.8666544470945493,0.4356862880621706,412757,-1016.7120079430667,0.0
22,14.990938901901245,52.99883830334119,36.42294464539077,296.8662063007506,-9.686542411346116,0.0,2.0678172525729135,0.1,0.019397497177124023,0.5380182266235352,0.049117837,0.04847441,-485.01702373596373,0.7361022643525464,0.24307676367366696,0.0,19200,2.856698513031006,0.2264529344263867,0.15009987204260475,431957,-145.5512674295888,0.0
23,14.299854278564453,85.24899240059625,100.66468181971238,593.6948079383693,-122.09798693595157,0.0,1.9114555152146238,0.1,0.018863201141357422,0.6542656421661377,0.04972619,0.054328028,-427.9904221223078,0.8502713387642565,0.40410953930498933,0.0,19200,2.765200614929199,0.37417821901570514,0.29600731403199315,451157,-111.61907302245899,0.0
24,15.29012131690979,113.19664167651213,158.13404919517353,525.9193739014967,-581.1106878489741,1.0416666666666667,1.7020633215519108,0.1,0.022782325744628906,0.7578668594360352,0.051116794,0.052025884,-373.8717157424258,0.933240453774029,0.5445096209033048,1.0416666666666667,19200,2.91593599319458,0.567036287214618,0.4283124636212245,470357,-97.79454708301841,0.0
25,15.267100095748901,169.66627286810396,186.80202089582335,681.2330724219585,-615.063114663915,1.0416666666666667,1.8941993630263645,0.1,0.028463125228881836,0.7309138774871826,0.050290216,0.04732536,-319.5179168813728,1.0253137055872188,0.8266042633322295,1.0416666666666667,19200,3.151193380355835,0.4249106835638599,0.3440731063267916,489557,-101.91349832154938,0.0
26,14.122736930847168,173.03993031111554,308.8205824427664,718.5926203807303,-2226.6655854771325,1.0416666666666667,1.8215385957413668,0.1,0.023593425750732422,0.6989970207214355,0.050021406,0.04632387,-270.262132162124,1.07823192464147,0.8422906420830758,1.0416666666666667,19200,2.8091742992401123,0.6710385366696746,0.6076153415964946,508757,-81.44343813949172,0.0
27,15.260200262069702,318.3402961543862,399.7907915124386,1003.2361658098771,-2454.4877820374536,1.0416666666666667,1.777485191055158,0.1,0.020836830139160156,0.5562760829925537,0.04877676,0.05060127,-211.40188933047295,1.2038048862317756,1.5694445922372555,1.0416666666666667,19200,2.708621025085449,0.4788292584925017,0.373542093574859,527957,-87.37225762724488,0.0
28,14.946110963821411,449.3909109364924,296.4730885229881,984.7600021150242,-135.4253711904455,1.0416666666666667,1.9986811968078755,0.1,0.01822805404663086,0.5922732353210449,0.050661754,0.05111634,-145.32260930377643,1.273359058131869,2.2218363451309755,1.0416666666666667,19200,2.666022777557373,0.1429875006722226,0.10794242647499014,547157,-182.77583409862092,0.0
29,14.80201768875122,505.6836291685918,318.13439731572265,986.604939804354,-117.36314185402625,0.0,2.0609408298142977,0.1,0.02287435531616211,0.5891456604003906,0.051623598,0.05140975,-80.22198545653961,1.2889753708289857,2.504248357035712,0.0,19200,2.6424877643585205,0.0737968888038801,0.05452374582090612,566357,-160.95379044840735,0.0
30,14.89434552192688,567.0943002100634,321.81000030722225,949.9781186736914,-111.60297452827017,0.0,1.9288684712391082,0.1,0.022665977478027344,0.6030476093292236,0.051416337,0.05287606,-15.490356889879308,1.3100146691642374,2.81084543050846,0.0,19200,2.731550455093384,0.05196845157260999,0.04118054563409887,585557,-129.62206451252274,0.0
31,15.194937229156494,647.818158870975,329.80204340293847,951.5485802160366,-87.46881488114263,0.0,1.7421864807812808,0.1,0.01847529411315918,0.5909938812255859,0.04925213,0.056507982,50.84049468620613,1.349338527564907,3.2138918957958906,0.0,19200,2.05530047416687,0.03702388260582987,0.028543408872465457,604757,-118.02673887042133,0.0
32,14.029092073440552,716.1324940021271,225.28046036235258,1010.8965049580564,-77.69556551195392,0.0,1.8663609146988742,0.1,0.02691030502319336,0.5616140365600586,0.04959289,0.051682845,117.36969461779825,1.5065834813999457,3.5556698783178766,0.0,19200,2.606037139892578,0.02238886432982717,0.01821948749513033,623957,-87.60313679739056,0.0
33,15.188635349273682,770.1919574668233,208.9611515203783,1032.9647103743669,-82.94924971386043,0.0,1.894499774635622,0.1,0.01753520965576172,0.525665283203125,0.049930952,0.051920213,182.65192090270074,1.5384415265515858,3.824815501053804,0.0,19200,2.707141637802124,0.01487852714789699,0.007656541286332538,643157,-56.72053904975687,0.0
34,14.674607753753662,754.5360636060537,284.50453421884896,1087.2283242380638,-115.97124912438143,0.0,1.6631630733199754,0.1,0.017745256423950195,0.4745461940765381,0.05034597,0.05230933,239.84033517303607,1.5385366617466267,3.7468090185390923,0.0,19200,2.743898868560791,0.013389450012059077,0.011513292005687657,662357,-164.1410882750342,0.0
35,14.745626449584961,805.4370079763481,237.049747012275,1081.137537483874,-434.79903883127224,0.0,1.8480402633387916,0.1,0.022540569305419922,0.6781818866729736,0.050117683,0.046835665,296.4000024533673,1.667396992061575,4.000865914620001,0.0,19200,3.0000360012054443,0.014218729109718569,0.011391429793470421,681557,3.3323886868669277,0.0
36,14.926848411560059,747.2974875285457,261.6103112230441,1061.9747435468155,-1.0974672237633474,0.0,1.9416709913012367,0.1,0.02322101593017578,0.5456027984619141,0.04914687,0.048966978,341.48975096088515,1.6985657907429905,3.709985438741954,0.0,19200,2.814838409423828,0.04599590536867405,0.02775717652248382,700757,129.39928735140765,0.0
37,13.920995235443115,846.4113400921575,177.86204988755046,1089.939189223594,-60.15026160862294,2.0833333333333335,1.782500127698124,0.1,0.02067708969116211,0.4976656436920166,0.050029773,0.057943426,391.9819098740124,1.7925879595805576,4.2055962874409305,2.0833333333333335,19200,3.0235869884490967,0.013122183618307142,0.008484241373037117,719957,-69.88351770701472,0.0
38,15.26291275024414,893.8610396064461,87.30134487916851,1062.3741408831854,491.2184544583636,0.0,1.8606559351919003,0.1,0.02639913558959961,0.5063388347625732,0.04887464,0.058887202,442.1698228472558,1.8499228556464906,4.442766701962393,0.0,19200,3.272723913192749,0.00733904900426125,0.003922637197021373,739157,-66.34294158725561,0.0
39,13.89385461807251,855.5360749967376,271.5184547145803,1072.9139378164616,-334.68042065246397,0.0,1.7963439404018162,0.1,0.023732900619506836,0.6540844440460205,0.049676623,0.0408782,483.50644806220396,1.8606968924176688,4.25132949913675,0.0,19200,2.7321417331695557,0.02543080916366973,0.01391610302896747,758357,-70.38730011673803,0.0
40,13.893914461135864,917.176549894171,119.48601259884876,1080.4862780822828,113.40771435480698,0.0,1.9877209274182168,0.1,0.01776742935180664,0.5152947902679443,0.050724447,0.051061627,526.8734582454007,1.947009403317718,4.559294733974191,0.0,19200,2.8201565742492676,0.009254085592750193,0.006727898395122398,777557,-3847.5074373890793,0.0
41,14.902365922927856,913.6640589796274,210.80687835175593,1091.3322783823214,-118.43345911443659,1.0416666666666667,1.8678090475499056,0.1,0.019924640655517578,0.5290753841400146,0.04950899,0.044319335,565.5525183188233,1.9599918099200078,4.54168861624409,1.0416666666666667,19200,3.111415147781372,0.011914121976493922,0.005190736906743386,796757,-2417.956289378505,0.0
42,14.964812755584717,886.9992947457428,270.8014646231096,1104.7977604237426,-107.21033957836235,0.0,1.711361523984828,0.1,0.020503759384155273,0.5569977760314941,0.04926605,0.04435644,597.6971959615153,1.9407767031669723,4.408946340623075,0.0,19200,3.066908836364746,0.009005633163528074,0.007723108149284541,815957,-1423.83533613216,100.0
43,15.001252889633179,942.622166137749,132.64135949897152,1104.7071256016955,70.63438475878696,0.0,2.1994886950528056,0.1,0.02613544464111328,0.6036558151245117,0.0487601,0.049597956,632.1896929791387,2.0338752834221343,4.686454173149595,0.0,19200,2.87910795211792,0.007022767683764334,0.006014003723237974,835157,-1175.008350947567,0.0
44,15.144988536834717,960.4509969617501,144.32727805273214,1093.9391804073887,54.89829061094801,1.0416666666666667,2.1189499508648892,0.1,0.017853260040283203,0.5787615776062012,0.049209844,0.045474283,665.0158233773999,2.0773684900147527,4.775870893712075,1.0416666666666667,19200,2.8822929859161377,0.011044045967234755,0.007904024292843394,854357,-3994.1574369923846,0.0
45,15.369712114334106,956.3346341794568,174.3200784882798,1097.141809116064,3.5956803435917495,0.0,2.118602878571403,0.1,0.01790618896484375,0.7712130546569824,0.049505897,0.040539797,694.1477044576056,2.0883527918214875,4.755294526671509,0.0,19200,2.8888211250305176,0.010634523272849325,0.007999162094355918,873557,-2426.534550458656,0.0
46,15.195223093032837,963.7341676864612,161.39062600448324,1112.1671765793199,-103.64749577561102,3.125,1.9914799408483337,0.1,0.017552852630615234,0.5326125621795654,0.048910033,0.04090159,721.1063507804913,2.1049198043438273,4.7923026615590105,3.125,19200,3.075833797454834,0.006489858891681879,0.004765133752562318,892757,-1325.1061484733898,100.0
47,14.134954452514648,1000.6986324876134,92.37666104767138,1207.3845993352152,319.7118637213668,3.125,2.081285010742251,0.1,0.022083044052124023,0.5143427848815918,0.04854459,0.047010936,749.0655789512036,2.163771860015517,4.9767858842375645,3.125,19200,2.9968369007110596,0.008782709173932531,0.006189030939289223,911957,-1033.4265635355664,100.0
48,15.331465721130371,1025.8689261817487,104.08228599717694,1283.7321723735706,202.45641460644487,6.25,2.1916538461516057,0.1,0.026137113571166992,0.6217806339263916,0.05007315,0.04304774,776.7459136742582,2.2082997886217375,5.102849788626002,6.25,19200,3.027920722961426,0.005788001041359796,0.004371515416523661,931157,-1353.1832278012585,100.0
49,15.433151721954346,1017.9395342704729,154.86202104997136,1501.4134166585948,-23.230054070639923,6.25,1.8956290674558405,0.1,0.017010927200317383,0.4659252166748047,0.0493136,0.043889467,800.8652757338797,2.2017006138457185,5.062991675654299,6.25,19200,2.8083863258361816,0.006708823727382288,0.005628022668475922,950357,-1823.364802157139,100.0
50,15.503044366836548,1049.6265419330014,159.66372179633632,1429.9246163293828,81.87517616239111,12.5,2.2843787338737873,0.1,0.017530202865600586,0.446793794631958,0.04953367,0.041969724,825.741402353792,2.2511611549802804,5.22118142106612,12.5,19200,2.857395648956299,0.012418243053997876,0.009934853011801656,969557,-1833.6070279942612,100.0
51,15.49134612083435,1100.37421310012,123.01419692333813,1677.1761713941528,664.2379588406626,29.166666666666668,2.2371712943581223,0.1,0.022925376892089844,0.5208389759063721,0.048522484,0.044969123,853.2046834284247,2.331761858823077,5.473916976144516,29.166666666666668,19200,3.043625593185425,0.013812516455984018,0.010083806662862628,988757,951.4657180214164,0.0
52,15.09635066986084,1162.4533995183547,219.09169118328757,1567.0589803386083,-112.41561804977216,44.791666666666664,2.165099438585127,0.1,0.021610021591186523,0.605233907699585,0.04925567,0.040507752,884.1295550374177,2.3921465617892244,5.783677582633561,44.791666666666664,19200,3.2389731407165527,0.02322960175284444,0.016640753701321273,1007957,969.6373572656163,0.0
53,15.841062784194946,1247.494981456032,359.73328480077373,1656.210859117466,-703.4397399990405,66.66666666666667,2.1326932497067608,0.1,0.03429293632507324,0.5742175579071045,0.04986291,0.04056434,920.4660976792792,2.484051107446325,6.208227566928957,66.66666666666667,19200,4.4551842212677,0.04562175658635217,0.031450883438750216,1027157,963.6896038220845,0.0
54,15.510762214660645,1349.8788296171206,193.72704870411903,1610.5793061977242,576.099258580487,80.20833333333333,2.1583153698436406,0.1,0.016657352447509766,0.4681437015533447,0.04942,0.04340061,963.4073708730634,2.567887078659936,6.7198221308423305,80.20833333333333,19200,2.922147035598755,0.013570483356167012,0.011482656962972314,1046357,992.64366950076,0.0
55,15.473402738571167,1458.2529906115262,145.63023776056255,1657.3287086222554,1077.3548603442914,96.875,2.345814798843804,0.1,0.025461912155151367,0.7446873188018799,0.051303305,0.04275839,1012.8919328469096,2.6749974467928865,7.260598293389038,96.875,19200,2.9951655864715576,0.012379834877255426,0.006210129620052685,1065557,997.1842013840561,0.0
56,15.405160903930664,1522.7272392403186,120.38493777285036,1686.744177034126,1098.6725788310553,97.91666666666667,2.2321009044235116,0.1,0.017525911331176758,0.4980356693267822,0.050551098,0.044420954,1063.8754634862505,2.7404101760025,7.582753290262243,97.91666666666667,19200,2.8780322074890137,0.005362071341186221,0.0038753528129283244,1084757,1015.0735269863113,0.0
57,15.741894006729126,1567.4356530346058,327.19164597440346,1808.3431765223686,-407.94126082977766,96.875,1.7444705321587943,0.1,0.024444580078125,0.4473109245300293,0.048936293,0.04186238,1114.231482441086,2.7705947055206797,7.806165095905293,96.875,19200,3.12947940826416,0.006767880915008975,0.0037798615387675573,1103957,1023.3049199897588,0.0
58,15.33528208732605,1509.2265237400109,433.4192310158849,1797.846298849635,77.22043254504827,91.66666666666667,2.3688532270968485,0.1,0.019951343536376953,0.42041754722595215,0.05087699,0.04033391,1153.7309865709785,2.6926636300419973,7.515163997674111,91.66666666666667,19200,2.8716955184936523,0.03090022155728285,0.010589129331124474,1123157,1033.3409281048775,0.0
59,15.679654359817505,1567.0447499530085,361.3740562103652,1793.9859441380358,10.28463724591247,94.79166666666667,1.88057783277188,0.1,0.021099090576171875,0.5808496475219727,0.049808104,0.04928323,1195.0623629091815,2.775283944929497,7.804177410736347,94.79166666666667,19200,3.032724142074585,0.008208189263878141,0.006926892015142884,1142357,1020.8020734902464,0.0
60,15.588813781738281,1646.6113623263373,134.25470320310353,1786.5863543777314,763.3790401251114,98.95833333333333,2.04078977618356,0.1,0.018864154815673828,0.5285758972167969,0.048445713,0.05188586,1240.217262850897,2.8702207735782195,8.202041951865631,98.95833333333333,19200,3.1383938789367676,0.003319723240292984,0.002435265846183756,1161557,1040.4016422401294,0.0
61,15.536003351211548,1625.7471859861082,303.3813701730193,1829.6221208574075,110.12936092742858,95.83333333333333,1.79456703727393,0.1,0.023983478546142578,0.776634693145752,0.05048946,0.04168787,1278.7702551644181,2.852593268301911,8.09796144602622,95.83333333333333,19200,3.0946531295776367,0.005840268700091885,0.004512749978248921,1180757,1031.2510201393334,0.0
62,14.721988677978516,1695.8183481119547,165.01565183987495,1856.5739750423743,241.43406929651718,98.95833333333333,1.80140055648393,0.1,0.024295330047607422,0.564680814743042,0.050859526,0.051662844,1320.4750644591718,2.9476611315234362,8.447908401603712,98.95833333333333,19200,3.2289395332336426,0.002711994244543815,0.0019065444346065888,1199957,1073.6396408675382,0.0
63,15.671122550964355,1634.021565604921,369.1392873318934,1869.1387262606352,29.932901479896564,92.70833333333333,1.9489677467214341,0.1,0.022882461547851562,0.49341869354248047,0.04975424,0.043955013,1351.8297145737467,2.8792641254485685,8.138894138686247,92.70833333333333,19200,2.959365129470825,0.015255967409182756,0.010465183567494464,1219157,1066.0540429383495,0.0
64,15.790239334106445,1653.5897542833034,320.5756135939279,1839.8569190699359,-139.37243239326233,94.79166666666667,1.7792811348596327,0.1,0.021170616149902344,0.5190880298614502,0.049688864,0.043019984,1382.0057185447024,2.8989646122375317,8.236778412752665,94.79166666666667,19200,3.124236822128296,0.008948034561650912,0.006034411473881419,1238357,987.0261252331942,0.0
65,15.693341970443726,1708.929117910165,214.4644538885521,1869.2115515425548,112.58864394851415,97.91666666666667,2.0201510759601664,0.1,0.023830890655517578,0.7158591747283936,0.048824947,0.042448346,1414.6980584812488,2.9560389444536113,8.513551152371646,97.91666666666667,19200,3.152320623397827,0.005384225023115577,0.004113515918702775,1257557,993.002528110789,0.0
66,15.680213212966919,1677.6073895901834,324.7604739345086,1893.6949498094712,46.00850453694437,94.79166666666667,1.9697149885085088,0.1,0.028764009475708008,0.6905596256256104,0.049930844,0.03970045,1440.9889915921422,2.925421218577437,8.357440493450964,94.79166666666667,19200,3.4294490814208984,0.008710241975280556,0.007350569397812648,1276757,1034.4715039484702,0.0
67,15.626951932907104,1698.381616021609,302.5156630077216,1853.2284599360628,-397.9703731059804,96.875,1.732567539796683,0.1,0.02419757843017578,0.6221449375152588,0.050256062,0.043855418,1466.7282540350889,2.946050109154976,8.460761879384274,96.875,19200,3.5613181591033936,0.006647401303047565,0.004768523286029335,1295957,1004.0134172913273,0.0
68,15.67512822151184,1684.8074626273853,318.8659463775671,1884.4297816325886,-37.022992779721875,95.83333333333333,1.8063246101383872,0.1,0.019386768341064453,0.6193041801452637,0.051006775,0.04425597,1488.5361748943187,2.9282395951007474,8.393451620865813,95.83333333333333,19200,3.219694137573242,0.00904353173925463,0.006659389771291539,1315157,1086.9535419459544,0.0
69,15.418347358703613,1718.2547007479272,278.8622877201798,1878.5175680679986,163.20902481857377,96.875,2.15280553032321,0.1,0.028497934341430664,0.5875668525695801,0.05000289,0.039858576,1511.5080274796796,2.969819466049243,8.560545296914235,96.875,19200,3.458374261856079,0.005338707558241274,0.003273463691361655,1334357,1028.3938430249991,0.0
70,15.503756761550903,1712.8790837711042,274.55273164468946,1951.9576063108186,137.22663199386565,96.875,1.8472907959126421,0.1,0.019031524658203125,0.5688381195068359,0.05038796,0.044738002,1531.6451331088222,2.979064912371971,8.533122452169872,96.875,19200,3.385842800140381,0.006210164088184915,0.00466075671032789,1353557,1040.3972876403723,0.0
71,15.857784032821655,1739.1336539431647,221.5677211461957,1863.6099126517174,201.16434057555983,97.91666666666667,1.8920804146034538,0.1,0.01795649528503418,0.5408670902252197,0.050547294,0.04269046,1552.3939851922564,3.005770286726996,8.665041391527216,97.91666666666667,19200,5.0351409912109375,0.0036608568030067398,0.002561962948294874,1372757,1109.1434383761803,0.0
72,15.865877628326416,1759.3910200848961,204.97237722795052,1901.9595575924463,96.64655648244495,98.95833333333333,1.8950671159960644,0.1,0.023104429244995117,0.5701196193695068,0.050982468,0.04353398,1573.0936886815202,3.030011277532766,8.765727113997311,98.95833333333333,19200,3.4552366733551025,0.00465096692013578,0.0036099975663427936,1391957,1285.4487753076912,100.0
73,15.881202459335327,1767.938009827466,190.78623885893333,1905.5216860472872,7.886580359501545,98.95833333333333,1.7725774901901896,0.1,0.020238399505615234,0.48644042015075684,0.04935788,0.043757394,1592.578120796115,3.038297427140424,8.80905595603747,98.95833333333333,19200,3.254011631011963,0.0025626622001874194,0.0014209639066507338,1411157,1111.4889540418799,100.0
74,15.758838415145874,1786.2136561071359,181.79374699848051,1897.6930077102159,100.24215219294807,98.95833333333333,1.775143038806092,0.1,0.02395033836364746,0.5550878047943115,0.050880793,0.038753554,1611.941674327217,3.070361080906745,8.899812226658327,98.95833333333333,19200,3.5914173126220703,0.0019966005060848115,0.001602465277399221,1430357,1364.4952077317243,100.0
75,15.713134765625,1771.209557082133,282.43341030449807,1910.8542494870762,23.699935440408485,96.875,1.8007223249667628,0.1,0.025884628295898438,0.699120044708252,0.049587034,0.038551733,1627.8684626027086,3.0588084060224605,8.824789902842362,96.875,19200,3.421553134918213,0.005481359325273821,0.0029688425643875135,1449557,1383.598103667558,100.0
76,16.025776386260986,1829.0712781399936,66.88225716086696,1923.652396035038,1442.0368822721189,100.0,2.0199682860896293,0.1,0.024530887603759766,0.6056559085845947,0.0490327,0.054776784,1647.9887441564372,3.125542592167026,9.114145005583145,100.0,19200,3.665081262588501,0.0011726875464046114,0.0008631959627862488,1468757,1355.2276153709586,100.0
77,15.760538339614868,1723.8972825000128,404.655855760468,1944.6605484632819,65.82737662013882,92.70833333333333,1.8892158561781243,0.1,0.022926807403564453,0.5389811992645264,0.05004724,0.04194224,1655.5795979907948,3.0040362599863912,8.58936869884411,92.70833333333333,19200,3.104025363922119,0.011941272826588826,0.0063964403483970115,1487957,1424.043317472452,100.0
78,15.57517671585083,1786.3420482173613,296.88865303700163,1946.165042921643,176.6384548706846,95.83333333333333,1.5957027988239434,0.1,0.0241701602935791,0.5598325729370117,0.05041778,0.047502015,1668.6558430134514,3.079994454743522,8.900488708127613,95.83333333333333,19200,3.021289587020874,0.0038591564382441184,0.002748419866897292,1507157,1409.3397113007982,100.0
79,14.843982696533203,1804.5754680917853,248.55034628095117,1942.2983513126023,148.83596984688407,97.91666666666667,1.7871157496093508,0.1,0.018174409866333008,0.592853307723999,0.05021285,0.041438144,1682.247805521285,3.099064670027129,8.991593789426917,97.91666666666667,19200,2.899970054626465,0.0033945969995218916,0.002612329093137146,1526357,1605.6118305530167,100.0
80,15.631596088409424,1824.89985693955,183.643635385427,1917.8240717517103,87.36245900090917,98.95833333333333,1.964555632598955,0.1,0.017117977142333984,0.5452892780303955,0.049077854,0.0390084,1696.5130106631116,3.1271242815544746,9.093162066139305,98.95833333333333,19200,3.0022168159484863,0.001687842393129361,0.0010313296627469494,1545557,1637.1781860466099,100.0
81,15.730026245117188,1831.8061124447179,184.19972451572482,1950.3247228148641,98.76869782121943,98.95833333333333,1.9310510111880343,0.1,0.02316761016845703,0.5791769027709961,0.050348178,0.040902443,1710.0423208412722,3.1344233827858434,9.127739971064743,98.95833333333333,19200,3.139765501022339,0.0020824586773849907,0.0015159527429518824,1564757,1590.5975548763508,100.0
82,15.520341396331787,1789.9429221889532,307.93267164233527,1945.4839366371564,77.91491535002271,96.875,1.8027078692655514,0.1,0.017213821411132812,0.5557992458343506,0.050424587,0.042062696,1718.0323809760403,3.0881913150248526,8.918398018506304,96.875,19200,2.9486823081970215,0.007022284778309394,0.004306871872827026,1583957,1606.0448897932956,100.0
83,15.642266988754272,1804.819096028302,314.3895080282439,1925.6054563945663,92.04390532690789,96.875,1.8713308337112888,0.1,0.016673803329467773,0.5537092685699463,0.049669918,0.043905742,1726.7110524812665,3.1015112864688468,8.992772282950568,96.875,19200,2.798241138458252,0.005176461449636771,0.004094138995410296,1603157,1284.1080571468715,100.0
84,15.676109552383423,1795.2688949847459,309.9904407585704,1947.8241632670029,91.66193491277507,96.875,1.8397710529319695,0.1,0.017238378524780273,0.5227060317993164,0.04921086,0.042616032,1733.5668367316143,3.0936515308461665,8.945011978718666,96.875,19200,2.8194496631622314,0.0057065316221506955,0.004985523786460257,1622357,1041.61753741469,100.0
85,15.90518307685852,1814.186557886292,195.09039948771616,1919.2426167612102,-14.307121833755687,98.95833333333333,1.524744687815869,0.1,0.017401456832885742,0.5624046325683594,0.050814837,0.046839084,1741.6288088470822,3.117404992513658,9.039620303721856,98.95833333333333,19200,3.13608980178833,0.003200427982633611,0.0008284675501760619,1641557,1303.215693972479,100.0
86,16.03101396560669,1817.6808520793386,196.29137879226408,1942.5549745475412,24.550976292684027,98.95833333333333,1.6247933551595857,0.1,0.02712273597717285,0.595832109451294,0.050746802,0.037533034,1749.234013170308,3.116137428004933,9.057701635048412,98.95833333333333,19200,3.0113260746002197,0.0012988798480271712,0.0009976029959622816,1660757,1081.677246537073,100.0
87,16.139121770858765,1836.930340891474,47.1468599524072,1999.884671827762,1708.4104889532464,100.0,2.0189944484757985,0.1,0.01856541633605957,0.5099859237670898,0.050208755,0.04845449,1758.0036459424246,3.144384567272892,9.15331304285634,100.0,19200,3.087602376937866,0.0004652156422404178,0.00034799427322676756,1679957,1253.9461000633537,100.0
88,15.5516357421875,1831.4281129011952,246.2283442550862,1943.4056250506426,144.236967507346,97.91666666666667,1.9630011387383475,0.1,0.02502274513244629,0.5996878147125244,0.05143455,0.03780418,1765.3460926383018,3.136331321202693,9.125793965430956,97.91666666666667,19200,2.9445736408233643,0.0033465705009856767,0.0019648417289603523,1699157,1223.0283710134133,100.0
89,15.993593215942383,1799.705574759894,300.6820288151629,1968.9870537738486,132.765465194738,96.875,1.9486675527980037,0.1,0.024609804153442383,0.4986863136291504,0.050918773,0.03863964,1768.782040850461,3.114068084753455,8.967195044910072,96.875,19200,3.0165178775787354,0.0033839097710237106,0.00304237444426834,1718357,1085.6722613604177,100.0
90,13.796172618865967,1853.4584675171254,52.39313142289994,1980.8935648578824,1635.8754977473852,100.0,1.8528733514249152,0.1,0.028768062591552734,0.5473060607910156,0.050273184,0.054606024,1777.2496835171276,3.175027633979365,9.23594336799366,100.0,19200,2.9701766967773438,0.0005923896386881348,0.00041414575841406564,1737557,1189.427317086303,100.0
91,15.604509592056274,1826.139586471524,189.7052798235035,1932.5651019800762,175.25074512360166,98.95833333333333,1.8898257302405737,0.1,0.026312828063964844,0.5320937633514404,0.04930339,0.032283194,1782.1386738125673,3.146890157118371,9.099346350704996,98.95833333333333,19200,3.2485599517822266,0.002368593391466782,0.001865748114988913,1756757,1155.9887547861454,100.0
92,15.898347616195679,1857.0638074049955,58.06067120458623,2023.1844331525422,1679.0355692220278,100.0,2.0124449283203463,0.1,0.02018141746520996,0.48375892639160156,0.0503582,0.049684666,1789.63118717181,3.1929332914890853,9.253964339260632,100.0,19200,4.3843605518341064,0.0007816410926593545,0.00040111622814029656,1775957,1100.557081786749,100.0
93,14.889171361923218,1865.8096406447337,74.60378325891614,2037.2078603693672,1388.0306049161163,100.0,1.7796518328646107,0.1,0.019167423248291016,0.5624232292175293,0.04943671,0.050741564,1797.2490325191025,3.2128047613326025,9.297692230346797,100.0,19200,2.9540412425994873,0.0007852635192807883,0.0007126569147552589,1795157,1165.1521741192662,100.0
94,15.661367416381836,1888.5943145501442,51.25676411622139,2029.315161274013,1690.1434454145021,100.0,1.909749543321356,0.1,0.022552967071533203,0.580941915512085,0.049895514,0.058003128,1806.3835607222065,3.2377659128688934,9.411620892121904,100.0,19200,2.9643948078155518,0.00036269918529972263,0.00028366342313175915,1814357,1923.1086071307154,100.0
95,15.62829327583313,1901.8054994069146,104.24605935277853,2042.645278999256,1129.9115042783383,98.95833333333333,1.8304397216656239,0.1,0.028120994567871094,0.5889120101928711,0.05031825,0.06706834,1815.9257545906773,3.2626110849951746,9.477657730100736,98.95833333333333,19200,3.0168631076812744,0.0017168938363110833,0.0015903473413650885,1833557,1953.7944094976135,100.0
96,15.629618644714355,1873.6749593434743,249.86898887236805,2059.746829922719,172.98376559886125,97.91666666666667,2.1615919447330896,0.1,0.02267289161682129,0.8044788837432861,0.050580036,0.033967096,1821.700675065957,3.2311542978316274,9.337019669103883,97.91666666666667,19200,3.029838800430298,0.003362165976528451,0.0023121085863126584,1852757,1825.7372115475023,100.0
97,15.56929612159729,1876.59820365182,280.1132758987801,2053.826033102582,92.61252627834169,97.91666666666667,1.9578451574693407,0.1,0.026687145233154297,0.6621787548065186,0.050168093,0.039641228,1827.1904279245434,3.2363109466336297,9.352583577599502,97.91666666666667,19200,3.017518997192383,0.004739635089032977,0.0027747738349152965,1871957,1679.981696388213,100.0
98,15.657529592514038,1909.117764674905,97.65276484110677,2067.5949577019583,1623.1491852434335,100.0,1.961933120430631,0.1,0.029619216918945312,0.575939416885376,0.050464407,0.04906289,1835.3831615995796,3.288512680355081,9.514229927733183,100.0,19200,3.1073832511901855,0.0008385468297499995,0.0005528934349530651,1891157,1745.7228866551186,100.0
99,16.03113603591919,1909.554416859759,202.04959510336826,2070.771624009569,97.32791804528472,98.95833333333333,1.9093086596605924,0.1,0.0316011905670166,0.7020549774169922,0.0499607,0.03614306,1842.8002871255976,3.292574608929872,9.516973499768719,98.95833333333333,19200,3.3399245738983154,0.0021090923662789953,0.00165335556914057,1910357,1835.9442377226555,100.0
100,15.909641742706299,1914.3113845516734,234.3034513742585,2067.294024586736,187.53061404827952,98.95833333333333,1.8389414142674554,0.1,0.033718109130859375,0.5901839733123779,0.049377277,0.05089536,1849.9513968682054,3.298818520713771,9.540175198366642,98.95833333333333,19200,3.3134970664978027,0.0041732626549794045,0.0028211646259624986,1929557,1775.8034965633542,100.0
101,15.83745527267456,1896.7144159925028,331.49842843623327,2078.3946961593933,47.699159851510785,96.875,1.7025857028646687,0.1,0.018587589263916016,0.5392444133758545,0.049518917,0.039472204,1854.6276987806352,3.2851269056107313,9.452792818905905,96.875,19200,3.328130006790161,0.004651967729769501,0.0035842168553337447,1948757,1741.4675852025978,100.0
102,15.595231294631958,1918.597313561216,174.09733389497234,2075.802512150515,446.6034088336911,98.95833333333333,1.872068893105122,0.1,0.022594213485717773,0.5571074485778809,0.049299836,0.046079222,1861.0246602586933,3.3110656711783815,9.561602536335029,98.95833333333333,19200,4.959724426269531,0.0016415838694966208,0.0012481675625224413,1967957,1840.0601918896664,100.0
103,15.55105185508728,1948.2075708399514,213.8969382561065,2081.701512164182,165.3805550192754,98.95833333333333,1.6532940776338738,0.1,0.019372940063476562,0.5886321067810059,0.0511274,0.0458653,1869.7429513168192,3.36359871095085,9.709661113150055,98.95833333333333,19200,2.954408645629883,0.0022144266921325303,0.00202603201525476,1987157,1748.7914691058086,100.0
104,15.16213583946228,1939.2208661348775,203.0645572932839,2077.856511256499,159.16082467719377,98.95833333333333,1.564512177966833,0.1,0.01795220375061035,0.5634801387786865,0.050021745,0.056057293,1876.6907427986253,3.3381508373060895,9.664741210384024,98.95833333333333,19200,3.5136091709136963,0.0019249428473417458,0.0012332976806054181,2006357,1734.720453507048,100.0
105,15.184531927108765,1929.518705792573,104.67881745864929,2088.6920419280177,1498.0113260774938,100.0,1.6380580091877956,0.1,0.018294811248779297,0.444164514541626,0.049787056,0.057500765,1881.97353909802,3.325010099756671,9.616193512073556,100.0,19200,3.5128564834594727,0.0009844934753319348,0.0008275250584975865,2025557,1850.3780263076733,100.0
106,15.642163515090942,1892.2515982237867,369.90866367921984,2088.8407740686016,162.76362514686116,95.83333333333333,1.774227908103018,0.1,0.02838730812072754,0.6436927318572998,0.049778428,0.04354697,1883.0013450105967,3.288670586622177,9.430424526017402,95.83333333333333,19200,3.691715717315674,0.004846283527037773,0.003824945092721197,2044757,1766.7078990393522,100.0
107,15.677968978881836,1946.87017778644,107.10248366519832,2080.162781717649,1662.3686102048853,100.0,1.7770238580775863,0.1,0.03149890899658203,0.7490904331207275,0.049987305,0.067957334,1889.3882282881812,3.3499630043806525,9.702947918647242,100.0,19200,4.590789318084717,0.0008387237266944207,0.0005983304669543814,2063957,1846.141134681722,100.0
108,14.742507696151733,1958.9644227074077,103.25772180052603,2079.7408473448563,1626.1708651889355,100.0,1.6395805951616265,0.1,0.01743173599243164,0.5375816822052002,0.050170794,0.059205692,1896.345847730104,3.376166137675232,9.763428142021487,100.0,19200,3.198767900466919,0.0005833715191081447,0.0005194946893574432,2083157,1874.3091466931023,100.0
109,15.007018566131592,1961.04595469992,207.7188847955406,2093.988222147201,173.7776928571968,98.95833333333333,1.7799108921925355,0.1,0.017897605895996094,0.5873301029205322,0.050932374,0.043398052,1902.8158584270857,3.3921127307006036,9.773800520768129,98.95833333333333,19200,3.290175676345825,0.0018762273943051008,0.0015977307803209636,2102357,1860.2916249065906,100.0
110,16.003096103668213,1966.267124990476,200.0629455321613,2092.113881598375,176.39670835800987,98.95833333333333,1.7645332968144913,0.1,0.017979145050048828,0.5129706859588623,0.050285093,0.046737365,1909.1609850834247,3.404263828816782,9.799913689565686,98.95833333333333,19200,3.2311720848083496,0.0013061863948274403,0.0012159030983439616,2121557,1860.724377022264,100.0
111,16.020387649536133,1990.9760100965702,112.76938166299843,2101.307939651322,1372.3687288292192,100.0,1.5727832984072636,0.1,0.023360252380371094,0.5477325916290283,0.049985092,0.055433273,1917.3424875847393,3.45298239813393,9.923450183041316,100.0,19200,3.3465113639831543,0.0007558841757492425,0.0005697070011413624,2140757,1951.137787433936,100.0
112,15.941832065582275,2003.6568625841228,84.87134606504212,2088.4467549388023,1678.4081129476267,100.0,1.809373893731053,0.1,0.017740964889526367,0.5209615230560303,0.050428707,0.061130237,1925.9739250846776,3.4568443455054356,9.986868074438572,100.0,19200,3.370374917984009,0.0004429268149078155,0.0003192063295775069,2159957,1963.7137009353694,100.0
113,16.0594220161438,2016.9146835727763,198.94456072842792,2092.163276108734,186.84812741263758,98.95833333333333,1.825256111329448,0.1,0.023868560791015625,0.7322173118591309,0.049636707,0.033516854,1935.0680009334876,3.4948575673341824,10.053145681606729,98.95833333333333,19200,3.423896074295044,0.0014332870602111881,0.001075509875639692,2179157,1955.7390967083054,100.0
114,15.609354734420776,1976.5557183641004,277.3297215932423,2096.3481258888255,178.7041615921313,97.91666666666667,1.6290261047779926,0.1,0.01866626739501953,0.4971427917480469,0.050273944,0.03933209,1939.2167726765488,3.4375625992057315,9.851360141921928,97.91666666666667,19200,3.3268675804138184,0.002370771673122122,0.0019816537501366293,2198357,1930.5779559995735,100.0
115,15.819745540618896,2031.5580524046243,77.34841138431769,2096.6900634055255,1717.9319218615533,100.0,1.6983598397851982,0.1,0.017354965209960938,0.6036336421966553,0.048537847,0.05545224,1948.4509006493563,3.5119838506925896,10.126346183935887,100.0,19200,4.976492643356323,0.0003426506862645282,0.00030687802783119363,2217557,2021.393650853729,100.0
116,15.880726337432861,1991.4169645543377,280.47937921959823,2109.7523519885535,139.90010914015957,97.91666666666667,1.5317404294362702,0.1,0.0204620361328125,0.5587081909179688,0.050571278,0.036261402,1952.7475070398543,3.4586116221452783,9.925638207663992,97.91666666666667,19200,3.1317291259765625,0.0021771266983072112,0.001877345115913135,2236757,1913.9415323755486,100.0
117,15.730736494064331,1988.1113401205957,275.9304500372546,2096.9087306398687,173.59321557087722,97.91666666666667,1.6855986703411752,0.1,0.020231008529663086,0.6060011386871338,0.050728735,0.045149226,1956.2838903479287,3.4608380504478577,9.909683526107793,97.91666666666667,19200,3.292175769805908,0.0018640018628100405,0.001553556054565243,2255957,1978.1130588816327,100.0
118,15.752756834030151,2018.0245580162075,88.30978094888253,2092.9088039961503,1768.3571867453782,100.0,1.689448018713773,0.1,0.017673730850219727,0.4585096836090088,0.050637584,0.057481315,1962.4579571147565,3.4909844265701406,10.058712258849054,100.0,19200,3.2542200088500977,0.0004927264429083191,0.000364930271602392,2275157,2006.8402159886596,100.0
119,15.11321210861206,2016.9557552540125,181.46159426265527,2100.1828512258207,393.6552219998468,98.95833333333333,1.5878471669674592,0.1,0.01998162269592285,0.5357346534729004,0.050419405,0.041444823,1967.907736928682,3.5072828370273132,10.053367766226089,98.95833333333333,19200,3.2505879402160645,0.0015186352337097267,0.0012104544301088495,2294357,1882.6606168504118,100.0
120,15.284675598144531,2025.1386166391192,206.71934600838702,2090.6042585461737,100.61711848883084,98.95833333333333,1.8167039785093253,0.1,0.017896652221679688,0.5151998996734619,0.04962903,0.041023217,1973.6308248997257,3.517848611062302,10.094271802020751,98.95833333333333,19200,3.3002052307128906,0.003244735355707938,0.001407915645763702,2313557,2020.4591551882875,100.0
121,16.241002082824707,2037.4514969897057,78.34536264990258,2100.074402722461,1738.7680366640761,100.0,1.738158261338218,0.1,0.018396377563476562,0.5292129516601562,0.049800377,0.07588494,1980.0128921087237,3.530359484555889,10.155819672880403,100.0,19200,3.5977249145507812,0.0014916876493391892,0.0002486346356703194,2332757,1992.781726383499,100.0
122,15.720527648925781,2047.5091740296946,61.24147648350059,2096.7295977513204,1748.710472149443,100.0,1.917191054176455,0.1,0.019112825393676758,0.5443902015686035,0.048596185,0.054416478,1986.7625203008208,3.553295947247289,10.206113746525387,100.0,19200,3.488239288330078,0.00025333526329876423,0.0002429213583867353,2351957,1983.6818912951996,100.0
123,15.257359504699707,2050.8188061698074,72.02307533403446,2101.154877189917,1680.1891112210094,100.0,1.6581183600363765,0.1,0.018457412719726562,0.5477557182312012,0.048777785,0.04325756,1993.1681488877196,3.5576458267308833,10.22262996277135,100.0,19200,3.5221540927886963,0.0002248636025723039,0.00017450123878228038,2371157,1983.289440815405,100.0
124,15.796334266662598,2056.9220799018476,56.49419789361784,2105.0425143403277,1701.8742237265596,100.0,1.7298835424979457,0.1,0.01825571060180664,0.5726087093353271,0.049114835,0.055803705,1999.5435419891323,3.5683725735249108,10.253181172648533,100.0,19200,4.119824409484863,0.0004811525454385415,0.00017719440559522327,2390357,1990.4455513689484,100.0
125,15.731421709060669,2052.765622673697,116.30777494201214,2107.329075475713,1036.0077131634866,100.0,1.7440739493843995,0.1,0.020546436309814453,0.5366489887237549,0.050484374,0.037446566,2004.8657500575887,3.5601186007677144,10.232381164616621,100.0,19200,3.444733142852783,0.0005510645657456823,0.0004215672525625595,2409557,2027.2148088332758,100.0
126,16.26039433479309,2060.6990702104445,53.65378930863531,2109.7579428370855,1826.2637996977169,100.0,1.7494947372326581,0.1,0.02861166000366211,0.7109804153442383,0.05002246,0.049408514,2010.4490820728743,3.5719069180555234,10.272063939867529,100.0,19200,3.5618531703948975,0.00022284114125203542,0.0001849515572051373,2428757,2041.0063171588322,100.0
127,15.040260553359985,2074.361224629247,44.3893538300263,2111.1671299246864,1848.1392182402578,100.0,1.966287053063043,0.1,0.01965022087097168,0.625654935836792,0.050320774,0.04437517,2016.8402963285116,3.6001334166934527,10.340370039217406,100.0,19200,3.808920383453369,0.00015735885779534812,0.00012919638169455017,2447957,2057.689224940934,100.0
128,14.97461462020874,2050.125270892095,186.30031967858775,2118.9731020962286,727.5749565663888,100.0,1.7306410569047652,0.1,0.02509164810180664,0.5164227485656738,0.050444137,0.04133754,2020.1687937848699,3.5759673712288245,10.21917160544056,100.0,19200,3.5774645805358887,0.0013552425581636592,0.0009669388087964596,2467157,2055.9926229834596,100.0
129,15.77350640296936,2076.080687816471,106.09147701480981,2129.855978793391,1124.4301798400309,98.95833333333333,1.6785561062676744,0.1,0.02308034896850586,0.5692863464355469,0.04994375,0.046295904,2025.75998318803,3.6144320915894936,10.348922202084525,98.95833333333333,19200,3.635486602783203,0.0007355907196086112,0.0002886556226688566,2486357,2052.0770587002285,100.0
130,15.687118291854858,2075.341701960869,66.35215056196061,2119.37259241518,1734.287478684078,100.0,1.7166677839418192,0.1,0.027330875396728516,0.6780867576599121,0.050032586,0.05405524,2030.718155065314,3.6105496595504634,10.345249484399877,100.0,19200,3.4305319786071777,0.0002641793045697969,0.0002060999462264408,2505557,2043.9587343429916,100.0
131,15.909870386123657,2085.7301466196236,49.327171146758566,2122.80001709068,1879.4369232569545,100.0,1.7792873252512764,0.1,0.022641897201538086,0.5782632827758789,0.049613357,0.047669705,2036.2193542207451,3.6259739124775017,10.397191929386187,100.0,19200,3.651038885116577,0.0001749932090404983,0.00014943213573661055,2524757,2050.3597664196786,100.0
132,15.534582138061523,2038.9563988147056,291.9686140352686,2122.570362647516,70.71856355535282,97.91666666666667,1.8944466461428078,0.1,0.017340421676635742,0.5098402500152588,0.05083743,0.044568118,2036.493058680141,3.5627297276517838,10.163351304574183,97.91666666666667,19200,3.4971230030059814,0.00856811226062853,0.0029957485054412764,2543957,2055.286575194434,100.0
133,16.124324083328247,2072.273824788017,209.631705415731,2127.734919474006,52.240176870534356,98.95833333333333,1.4334466618851176,0.1,0.01761317253112793,0.44201159477233887,0.050131302,0.03629588,2040.0711352909286,3.6162687470941464,10.32995635944185,98.95833333333333,19200,3.621973991394043,0.0010791660889224869,0.0006602305536865772,2563157,2047.3185934163175,100.0
134,16.062093257904053,2083.8235726466523,64.59426685840877,2135.785762530389,1796.2178913924963,100.0,1.6426931211419737,0.1,0.01983475685119629,0.5615763664245605,0.050377727,0.06929941,2044.446379026501,3.628988530211153,10.387657460198861,100.0,19200,3.75970721244812,0.0005543708833549287,0.00018781106302107942,2582357,2054.2597399991787,100.0
135,15.59307599067688,2084.8272231091564,63.93114643382129,2131.0451697876542,1816.120660106675,100.0,1.5654663641019668,0.1,0.016730546951293945,0.5663063526153564,0.050433356,0.052231282,2048.4844634347664,3.626408389889131,10.392684121013803,100.0,19200,3.822537422180176,0.00021349678088419206,0.00019226635265403926,2601557,2064.4423161650943,100.0
136,15.869866132736206,2089.727780698857,40.91450081992547,2121.643463239182,1846.1365662713408,100.0,1.9752151384615453,0.1,0.02053689956665039,0.5345983505249023,0.049751367,0.049226068,2052.6087951611757,3.6385786508566738,10.417201292461646,100.0,19200,3.7006545066833496,0.00015968013149474734,0.00014230928990746836,2620757,2057.0981882791875,100.0
137,15.53374457359314,2101.448830894031,16.676649087183453,2126.7373652191886,2031.9304114563488,100.0,1.873070570707397,0.1,0.027169466018676758,0.5934131145477295,0.05052278,0.05677604,2057.4927987344613,3.665595608474135,10.475826364186807,100.0,19200,3.656740665435791,7.68923710639279e-05,5.31015728083841e-05,2639957,2061.864519783411,100.0
138,15.897022724151611,2103.068939331351,82.20258427171308,2134.717018392954,1314.5014873563468,100.0,1.6309789665520982,0.1,0.017179250717163086,0.41530442237854004,0.050395384,0.03508461,2062.0504127941504,3.6708730306360624,10.483898541680981,100.0,19200,3.663334846496582,0.0003424059368224662,0.00024683583099704097,2659157,2062.789346961369,100.0
139,15.852727890014648,2113.472295139653,13.713883407650583,2137.5592435993176,2061.896003718225,100.0,2.017230161611362,0.1,0.016842365264892578,0.5327599048614502,0.050238006,0.056692082,2067.1926010287007,3.6884179905593553,10.53590911089022,100.0,19200,3.58858323097229,0.0001280849882519941,4.0353688453286605e-05,2678357,2057.3347105039434,100.0
140,16.040441036224365,2111.0159665497836,50.5165530291158,2149.1682294999714,1780.342149134434,100.0,1.45790012078614,0.1,0.01648259162902832,0.5127053260803223,0.050749425,0.04450631,2071.574937580809,3.6853205792409702,10.5236194610911,100.0,19200,3.597412586212158,0.00011812438626585303,9.449019461797119e-05,2697557,2075.6222624135357,100.0
141,15.386927127838135,2109.4030086198004,64.48282732493716,2143.4729551529404,1606.9692965267793,100.0,1.8655469797247912,0.1,0.023525238037109375,0.621107816696167,0.050638694,0.04993212,2075.3577446847085,3.6757439217992953,10.515578659580896,100.0,19200,4.4343626499176025,0.00020360399487295613,0.00017163640985390463,2716757,2080.3286002319996,100.0
142,16.000321865081787,2099.1725035944523,105.60303959260803,2149.7415781581785,1458.6664627128362,100.0,1.3768071602028957,0.1,0.023276567459106445,0.5082542896270752,0.049852062,0.049104746,2077.739220575683,3.6675923771400494,10.464403093107514,100.0,19200,3.5795767307281494,0.0003926038889687388,0.00034394353379808064,2735957,2083.2541854839546,100.0
143,15.892762422561646,2115.804083020004,46.4415824562962,2150.6518885329438,1749.5265185835262,100.0,1.594097611018228,0.1,0.025055885314941406,0.7539877891540527,0.049852513,0.06548749,2081.545706820115,3.6973409037746294,10.547569263304474,100.0,19200,3.9060120582580566,0.00017327298860670223,0.00010459645460896381,2755157,2082.6250075496528,100.0
144,16.528507232666016,2125.77549407135,17.71984311086119,2148.606012411742,2013.4260307358136,100.0,1.8021694919484479,0.1,0.031027793884277344,0.6740293502807617,0.05052097,0.047531784,2085.9686855452387,3.7172719226961703,10.597447448999283,100.0,19200,3.5328927040100098,5.1783669134705986e-05,3.777950990288276e-05,2774357,2076.0325001272413,100.0
145,16.030960083007812,2112.3043505698697,109.55690628657248,2153.9734628672327,1333.5398013694357,100.0,1.4822402396785557,0.1,0.026821374893188477,0.5073380470275879,0.04962501,0.034239393,2088.6022520477018,3.6971226479066677,10.530070186818927,100.0,19200,3.559634208679199,0.0005333668425277632,0.00033502797570863607,2793557,2074.758470994473,100.0
146,16.584492921829224,2117.702162995859,60.99981452619248,2155.335059687846,1682.91568893675,100.0,1.6675348902313978,0.1,0.027939796447753906,0.6165571212768555,0.050258107,0.051031534,2091.5122431425175,3.7035550862456343,10.557034611072766,100.0,19200,3.7676913738250732,0.00024758863794699593,0.0001445789428749266,2812757,2071.9198995946917,100.0
147,16.267865419387817,2122.5620079938817,32.254416615787044,2149.613894690863,1848.2627644568406,100.0,1.5577452589040728,0.1,0.017152070999145508,0.5224437713623047,0.049427822,0.07684693,2094.617219627654,3.714298749564985,10.58134281507724,100.0,19200,3.424855947494507,8.672979821137633e-05,5.94859061106935e-05,2831957,2072.638843585253,100.0
148,15.870934247970581,2126.4378075347195,14.128837987059779,2153.4499138735137,2070.8424599390482,100.0,1.9205572859941658,0.1,0.018267393112182617,0.5306026935577393,0.049975064,0.062122174,2097.7992784183607,3.727567152555475,10.600723503281541,100.0,19200,3.6749110221862793,3.4630777627784484e-05,3.552362322948165e-05,2851157,2077.6956401271273,100.0
149,15.746384143829346,2103.554383882964,212.3949817993621,2151.3499202507837,102.99088150620585,98.95833333333333,1.573844410049578,0.1,0.015985488891601562,0.44898366928100586,0.050408904,0.042392194,2098.374788964821,3.6931529295012315,10.486341615324129,98.95833333333333,19200,3.7288408279418945,0.004323050941798487,0.0009501154032619532,2870357,2059.160871853422,100.0
150,15.989189147949219,2130.0576147612437,12.329169642317927,2151.128522739919,2072.808344309222,100.0,1.73945260236605,0.1,0.017295360565185547,0.4667227268218994,0.050304957,0.05697368,2101.5430715444636,3.732781042147827,10.61882327059714,100.0,19200,3.688688278198242,8.543966488562641e-05,3.9427733609999795e-05,2889557,2077.0914580297303,100.0
151,15.962839841842651,2123.356061905219,62.88952753277674,2155.8972286357725,1560.9467509049196,100.0,1.4441983774269345,0.1,0.03177499771118164,0.7163052558898926,0.050512478,0.041673843,2103.724370580539,3.723865055493389,10.585355880953188,100.0,19200,3.6910958290100098,0.00023393722459398196,0.0001487460524079661,2908757,2066.889003397536,100.0
152,16.063802242279053,2136.0047330554407,9.523326927613526,2154.3484270118697,2111.2561313278616,100.0,1.7233267364757008,0.1,0.01764965057373047,0.5005488395690918,0.049371473,0.06780081,2106.9524068280293,3.745697447064005,10.648550670514284,100.0,19200,3.604463577270508,5.2878579467980704e-05,2.4276243324553305e-05,2927957,2087.9676333011826,100.0
153,16.58984661102295,2136.147206083379,20.645531851766723,2157.411519152213,1989.7912772787652,100.0,1.8648936743719926,0.1,0.022890090942382812,0.5907270908355713,0.05004493,0.044860713,2109.8718867535645,3.7451391887857377,10.649263915278448,100.0,19200,3.5235679149627686,3.763441322876612e-05,3.889762471476717e-05,2947157,2103.3433790673625,100.0
154,16.15001392364502,2135.029139274328,72.36949846768391,2159.2907623077326,1451.557551495455,100.0,1.5247197962494274,0.1,0.024037837982177734,0.537024974822998,0.050797515,0.0525487,2112.3876120056407,3.7484723329392167,10.643683630692546,100.0,19200,3.9278624057769775,0.00020612334798103773,0.00012320644383575667,2966357,2105.3291034567733,100.0
155,15.981832027435303,2143.1421334604815,17.742344889781766,2159.049054876895,1986.4993688731472,100.0,1.821763563972222,0.1,0.023080110549926758,0.4616844654083252,0.049812593,0.052432157,2115.463064151125,3.7624508379717247,10.68424676749033,100.0,19200,3.7022671699523926,3.1682131826012027e-05,2.7037908622420012e-05,2985557,2106.332863448838,100.0
156,16.162795066833496,2138.215096391717,39.53192336135065,2162.647861388618,1919.3484731753017,100.0,1.6991300330094934,0.1,0.020169973373413086,0.6636214256286621,0.050555795,0.056090996,2117.738267375184,3.7545790476197944,10.659633162915465,100.0,19200,3.740586996078491,0.00011666216776937314,9.131465804279076e-05,3004757,2108.691214099366,100.0
157,16.326528549194336,2146.271523741139,32.18442925854296,2169.3945156770087,1847.6971607763357,100.0,1.6443079238199951,0.1,0.022055864334106445,0.5316448211669922,0.049945343,0.0486867,2120.5915930117794,3.767407917637982,10.699945595340173,100.0,19200,3.664161443710327,6.494657271154927e-05,3.630066710731419e-05,3023957,2112.127382591225,100.0
158,16.14617419242859,2119.69771859738,216.69809159253745,2165.5080100197174,89.00719153909291,98.95833333333333,1.4010670119339463,0.1,0.023289203643798828,0.6172637939453125,0.050132923,0.03905063,2120.5022055703394,3.731829561480231,10.567080164784626,98.95833333333333,19200,3.5411763191223145,0.0022948205376832976,0.0008878569152571906,3043157,2113.9585230938987,100.0
159,16.04360556602478,2141.23704406147,61.35430464490761,2170.3205082072554,1666.938921434575,100.0,1.3132606858848632,0.1,0.02675461769104004,0.6224820613861084,0.049912445,0.14297226,2122.5756894194524,3.76525480827828,10.67480140865346,100.0,19200,3.3880615234375,0.00032122406614139135,8.978154592599748e-05,3062357,2117.50569625952,100.0
160,16.249775409698486,2147.936919602535,27.537521324210974,2168.665655001135,1951.1983260251022,100.0,1.7458250234179018,0.1,0.016834735870361328,0.6449010372161865,0.04987233,0.045291808,2125.111812437761,3.7743302272786914,10.708207314899608,100.0,19200,3.8787360191345215,5.9275584835657615e-05,5.0046855334451935e-05,3081557,2117.538291948402,100.0
161,15.997463464736938,2152.2629356309767,8.08142413045552,2168.4591518875136,2108.2129754547004,100.0,1.798655365167397,0.1,0.01793503761291504,0.5354316234588623,0.049902964,0.06224135,2127.8269247570825,3.7847900202123483,10.72983561736361,100.0,19200,3.8784306049346924,2.346897809684322e-05,1.6915245121159166e-05,3100757,2117.8730468644276,100.0
162,16.21309185028076,2145.683464798634,68.20819342072875,2172.0653498392358,1656.6377593718755,100.0,1.2675261450119055,0.1,0.03116130828857422,0.5775284767150879,0.04950446,0.02742413,2129.6125787612377,3.7719477681011693,10.696940028235353,100.0,19200,3.680206775665283,8.680325831073142e-05,8.153224200170457e-05,3119957,2123.3494371712236,100.0
163,16.25959324836731,2150.0194765716556,31.526115832749838,2166.9726595590264,1925.9960400758891,100.0,1.69565545175487,0.1,0.024471521377563477,0.5399973392486572,0.050480437,0.045224328,2131.6532685422794,3.780603789668552,10.718623825809425,100.0,19200,3.983760356903076,6.392283631481204e-05,5.970919222721577e-05,3139157,2125.9951485803085,100.0
164,16.29346466064453,2155.622833202004,7.636163744498615,2169.7439524959773,2113.2318508016388,100.0,1.6034957678166906,0.1,0.018188953399658203,0.556227445602417,0.049633484,0.118484825,2134.050225008252,3.7948383761734106,10.746641134509536,100.0,19200,3.719832420349121,4.93411407695513e-05,1.6353644001010008e-05,3158357,2123.995114784658,100.0
165,16.087461709976196,2152.0694835600684,37.14282068038741,2169.9375688546315,1797.6095079818037,100.0,1.5108563854408052,0.1,0.023023128509521484,0.5748884677886963,0.049769692,0.038563184,2135.8521508634335,3.789467074408004,10.728869390258396,100.0,19200,3.7794764041900635,4.431713799120197e-05,2.9754004072405905e-05,3177557,2126.426787179882,100.0
166,16.42339539527893,2140.4557065322538,80.44415526462792,2169.0987246359605,1568.4899176341664,100.0,1.4197130175359443,0.1,0.02309894561767578,0.6681625843048096,0.050697457,0.036511485,2136.3125064303154,3.7655874232795896,10.67086428776522,100.0,19200,3.6706595420837402,0.00018731253326501686,0.00013764054561627695,3196757,2121.986543315784,100.0
167,16.249733209609985,2154.2975193334205,11.824813881009417,2169.193239355911,2101.6654417296654,100.0,1.9835420863541737,0.1,0.019217491149902344,0.49665307998657227,0.049372163,0.05260525,2138.111007720626,3.7965567919197096,10.740019771325896,100.0,19200,4.0791075229644775,3.198089064069444e-05,1.750525699540828e-05,3215957,2124.165843135035,100.0
168,15.73161792755127,2143.250862019801,70.51534997833284,2171.39953774906,1549.7392927722283,100.0,1.5002667232130218,0.1,0.0211184024810791,0.4573347568511963,0.049558982,0.03182839,2138.6249931505436,3.773700791013263,10.684769435376479,100.0,19200,3.8065643310546875,0.00013328306301609995,0.00010820234487484123,3235157,2116.2324044545876,100.0
169,16.458271503448486,2150.222046187893,34.67948658439754,2169.5262350788576,1830.4186445737207,100.0,1.4400046005469491,0.1,0.01860356330871582,0.5165624618530273,0.050364755,0.071431585,2139.7846984542784,3.7878550220411698,10.719661904021626,100.0,19200,3.9938976764678955,5.906182740854331e-05,3.985057259956029e-05,3254357,2117.8192478808064,100.0
170,15.941546440124512,2152.0347021802636,32.99888309826191,2171.1889816878597,1925.2885987200978,100.0,1.6589256273809578,0.1,0.018002033233642578,0.48115110397338867,0.049538955,0.0418576,2141.009698826877,3.791523598787613,10.728686678843843,100.0,19200,4.306779623031616,5.0627194634351965e-05,5.5159389467508054e-05,3273557,2120.6581548294816,100.0
171,16.36439347267151,2134.693341060874,212.2875077306108,2174.8448761796267,67.98129660031012,98.95833333333333,1.6249695542908809,0.1,0.018802404403686523,0.5973091125488281,0.051695958,0.04007489,2140.3780630502765,3.778765020695348,10.641974757389493,98.95833333333333,19200,4.087006568908691,0.0035666005292737655,0.0006826067392391174,3292757,2124.402625952739,100.0
172,16.036132335662842,2110.306789671515,297.6058843675032,2171.923570871235,80.9934703020596,97.91666666666667,1.3562903683508654,0.1,0.01771378517150879,0.5133781433105469,0.050303206,0.041111127,2137.3709357124008,3.74028588670537,10.520641643450851,97.91666666666667,19200,3.8352065086364746,0.002271316511950173,0.001287041042399273,3311957,2122.7428878564633,100.0
173,15.61414098739624,2131.1467849441683,208.5750586865468,2173.507700953356,114.85171918666046,98.95833333333333,1.5206410317842478,0.1,0.021294355392456055,0.6288712024688721,0.049952783,0.03647785,2136.7485206355777,3.7691651510044815,10.624255918651356,98.95833333333333,19200,4.019560098648071,0.0008091267634111408,0.0006238184594767123,3331157,2123.6377376062087,100.0
174,16.728568077087402,2155.9817531479353,8.544677873316186,2170.5913432365883,2116.781088999897,100.0,1.7277103164542689,0.1,0.02153325080871582,0.5585916042327881,0.04941435,0.07600063,2138.671843886814,3.8091945747787967,10.748419198716874,100.0,19200,3.9128024578094482,5.019200282764845e-05,2.423506871622099e-05,3350357,2128.9542154753926,100.0
175,16.33179545402527,2154.5795398841947,26.503609766052193,2173.497948170113,1903.5474530589195,100.0,1.8269802589611972,0.1,0.01781940460205078,0.49225878715515137,0.050110966,0.04718272,2140.262613486552,3.8044517317247935,10.741406468623552,100.0,19200,3.8764097690582275,6.248653876682268e-05,5.202639074906608e-05,3369557,2164.0265389709602,100.0
176,16.19287133216858,2150.0247687662195,47.728036729887236,2174.8805574807247,1903.7732419666427,100.0,1.7718341429795732,0.1,0.023262739181518555,0.691981315612793,0.04963332,0.041082896,2141.2388290145186,3.78775951410573,10.718624354565817,100.0,19200,3.8476688861846924,0.00012225920666528815,0.00010471682487383336,3388757,2136.355758024566,100.0
177,14.947004556655884,2157.9049124162175,23.907059361695705,2173.0890746379227,1939.8674751656972,100.0,1.8062318544017606,0.1,0.017975807189941406,0.6054708957672119,0.05002908,0.04680186,2142.9054373546883,3.8144844287942554,10.758044151460401,100.0,19200,3.777660608291626,5.1545064426532857e-05,4.967511448197099e-05,3407957,2131.781882520684,100.0
178,16.217494249343872,2153.7211741573046,33.67856942855068,2174.741264208227,1921.2499777730238,100.0,1.9392611251033438,0.1,0.02861762046813965,0.5054125785827637,0.04962139,0.03905185,2143.98701103495,3.807603717788472,10.737131405027325,100.0,19200,3.857203960418701,6.860026286416346e-05,5.7412771269058865e-05,3427157,2165.6070246020527,100.0
179,16.240647315979004,2155.1071693776553,31.989710573744034,2174.2329273599184,1941.7862109055454,100.0,1.9103953705598495,0.1,0.017363786697387695,0.48390960693359375,0.04999448,0.040363077,2145.0990268692203,3.809415512360078,10.744098434803126,100.0,19200,3.5693206787109375,5.3113950638125705e-05,5.09973562857251e-05,3446357,2169.4450906664392,100.0
180,16.415536165237427,2159.6433908031295,13.174535864193397,2176.482176194642,2106.802534166973,100.0,1.8213986237994788,0.1,0.038434743881225586,0.5384037494659424,0.04933041,0.057665437,2146.5534632626113,3.8275455753607077,10.766730871745045,100.0,19200,3.7426416873931885,2.42868094773924e-05,1.8133206187759433e-05,3465557,2172.1254953554985,100.0
181,16.098360300064087,2163.3878346707756,9.008106295917763,2175.755176753762,2123.5515012316337,100.0,2.0074088299209736,0.1,0.0183565616607666,0.5067148208618164,0.05023167,0.056531053,2148.236900403428,3.833467030493382,10.785448273060192,100.0,19200,3.406942129135132,1.6412969981323386e-05,1.2629785135432787e-05,3484757,2181.23764493586,100.0
182,15.631049394607544,2155.8521271221175,109.66153693445365,2178.118100667788,1088.6666511449287,98.95833333333333,1.5250622447718136,0.1,0.01850605010986328,0.5237200260162354,0.0497739,0.02770271,2148.998423075297,3.8243679175806338,10.748027505259204,98.95833333333333,19200,3.7419731616973877,0.0006269467625175034,0.00012015194660265842,3503957,2179.3659840502696,100.0
183,16.119899034500122,2144.2989531953485,208.9925344706296,2178.7625061556814,108.6725884121307,98.95833333333333,1.5083910249539407,0.1,0.01720714569091797,0.5228710174560547,0.04927351,0.032371305,2148.5284760873024,3.8100395053167886,10.690566352254825,98.95833333333333,19200,3.527930498123169,0.0012171510359140823,0.0005248696124848135,3523157,2180.0554562895263,100.0
184,16.266807794570923,2161.058471838946,40.8345271414973,2180.1923103539343,1860.777422222116,100.0,1.5996671571118355,0.1,0.012607812881469727,0.459244966506958,0.049749907,0.0449382,2149.7814756624666,3.822608313554196,10.773779369428828,100.0,19200,3.978957414627075,0.00013010700821030005,8.403608963887104e-05,3542357,2174.1921357229976,100.0
185,16.07415533065796,2138.5962936323945,199.84428062910283,2181.23577159795,373.64521511216685,98.95833333333333,1.197987338420619,0.1,0.017484664916992188,0.5263264179229736,0.050146874,0.033886693,2148.6629574594594,3.7961714638980184,10.662052753922312,98.95833333333333,19200,5.391393661499023,0.0009073349944736723,0.0005963209481054221,3561557,2179.851003895958,100.0
186,16.485313892364502,2165.455251304975,8.675994922724044,2181.4657841239996,2115.664072656218,100.0,1.6002073309419393,0.1,0.0255281925201416,0.4857611656188965,0.04948963,0.15206186,2150.342186844011,3.833938221999331,10.795761641553518,100.0,19200,3.9467148780822754,0.0004884882613429933,2.137952642579681e-05,3580757,2176.887949680222,100.0
187,16.637603044509888,2164.2037867080767,18.78036333886931,2180.494651111736,1993.9124867481364,100.0,1.8186059436467936,0.1,0.01923680305480957,0.4810314178466797,0.050382,0.04558879,2151.7283468304176,3.8308913020632587,10.789505271773598,100.0,19200,3.804992914199829,3.0953879307062526e-05,2.6031365959648953e-05,3599957,2175.31178712894,100.0
188,16.144474744796753,2167.632732065647,6.3993295460302875,2178.394361220703,2148.3900777613812,100.0,2.038496323930877,0.1,0.022991418838500977,0.787729024887085,0.04967854,0.050647218,2153.3187853539407,3.8437110124986624,10.80665176545024,100.0,19200,3.9926536083221436,1.3902223788669211e-05,1.0784267195415643e-05,3619157,2182.4154783379345,100.0
189,15.852300643920898,2171.4980051920693,5.543832074352759,2182.474845272349,2158.2033777707334,100.0,1.8825841918630515,0.1,0.020149946212768555,0.5710575580596924,0.049600538,0.058316827,2155.1367073377537,3.850861928871486,10.82596678857144,100.0,19200,4.049285650253296,1.2065409916622614e-05,1.05721502590073e-05,3638357,2186.5439723948725,100.0
190,17.14344549179077,2161.7316103560283,58.821666601637126,2182.9788095757067,1757.2130338883937,100.0,1.4259784776687596,0.1,0.02257227897644043,0.5975837707519531,0.049836848,0.03895442,2155.7961976395814,3.837481855585702,10.777141440917246,100.0,19200,3.7322158813476562,8.310661806370174e-05,5.995969587672967e-05,3657557,2182.276080139756,100.0
191,15.943595886230469,2171.430242174616,5.928678473332979,2183.8244896831807,2153.10236649355,100.0,1.8646979977194724,0.1,0.02467799186706543,0.6380660533905029,0.049490042,0.055825602,2157.359602093085,3.855462892605702,10.825639786189948,100.0,19200,3.838137149810791,1.5380431004938366e-05,9.97460582893984e-06,3676757,2189.5007896392885,100.0
192,15.847772359848022,2168.164603696643,46.330068183174944,2189.8445212219876,1804.8679058408943,100.0,1.5655449042512666,0.1,0.0180666446685791,0.6392722129821777,0.050207872,0.0324393,2158.4401022534407,3.848902018702679,10.809342802390177,100.0,19200,3.7617220878601074,5.9077125393651656e-05,6.331152856146847e-05,3695957,2188.602760089968,100.0
193,16.19947052001953,2170.8159921108213,33.45467141078625,2183.5752355660256,1850.0475424890544,100.0,1.7362375591312749,0.1,0.01900506019592285,0.509882926940918,0.049187604,0.037029896,2159.677691239179,3.858727155730547,10.822555214504527,100.0,19200,3.686918020248413,4.9531890607390256e-05,2.2864305894966655e-05,3715157,2189.843993677118,100.0
194,16.45093560218811,2167.84896422953,85.97800090746509,2186.7822968989067,1331.4092251339023,100.0,1.7166132274096686,0.1,0.01753830909729004,0.6021924018859863,0.05010069,0.031214958,2160.494818538214,3.859951451162368,10.807715717019747,100.0,19200,4.454793930053711,0.0005039959942633144,8.398709215886433e-05,3734357,2189.3434948631702,100.0
195,16.197628021240234,2164.9829569872977,54.25330179681509,2186.782601457557,1788.3401633653418,100.0,1.5276624550784579,0.1,0.019319534301757812,0.4593472480773926,0.050350677,0.043872718,2160.9436323831223,3.845522648494736,10.793425042164563,100.0,19200,3.934647798538208,0.00026005662108387584,8.315015448882801e-05,3753557,2188.3654979677513,100.0
196,16.574208974838257,2170.932816710936,27.528575421494352,2188.7056404797345,1913.3095204948186,100.0,1.6764600078765408,0.1,0.027215003967285156,0.6772263050079346,0.04995197,0.04455036,2161.942550815904,3.8624982468204347,10.823147682646061,100.0,19200,4.7632670402526855,4.577090603949689e-05,4.2980495320234994e-05,3772757,2190.9979020363726,100.0
197,15.946739912033081,2174.0408291597846,24.589566330777483,2187.3926766770624,1943.7397720092576,100.0,1.8457170551655957,0.1,0.02885913848876953,0.6091780662536621,0.05004485,0.042473763,2163.1523786502917,3.866583743857923,10.838672032533713,100.0,19200,3.791569232940674,4.016403842293342e-05,2.7571841262680033e-05,3791957,2191.578464665873,100.0
198,15.50380802154541,2172.535196908482,34.98416003084663,2189.102527519778,1905.326703525251,100.0,1.661102871344427,0.1,0.016936063766479492,0.43366265296936035,0.050119787,0.036181506,2164.0906604761108,3.8663238184247355,10.831182396624072,100.0,19200,3.8582603931427,5.154321890334611e-05,4.655381117690638e-05,3811157,2191.604655268952,100.0
199,16.29303526878357,2173.2810254193814,45.61437720461369,2189.8506059258457,1786.1430450328812,100.0,1.2731208562670768,0.1,0.020943164825439453,0.47754359245300293,0.050397173,0.028723612,2165.0096969704377,3.8725125953619965,10.834863123542547,100.0,19200,3.970527172088623,5.236496878120805e-05,4.887159977550024e-05,3830357,2191.6433002225563,100.0
200,16.047083616256714,2174.647505784606,49.21800210522528,2188.676924632337,1698.1125353489747,100.0,1.5093704167727429,0.1,0.0226287841796875,0.6678404808044434,0.049606726,0.024269363,2165.9734778518546,3.8795189090398803,10.841696261835688,100.0,19200,5.6122727394104,4.925523764585408e-05,4.487022000783585e-05,3849557,2193.8400452207143,100.0
201,16.69286036491394,2176.7225304405997,40.156373064193694,2189.34290335956,1788.9273165360592,100.0,1.2743358665057092,0.1,0.02226090431213379,0.6284770965576172,0.050485916,0.029583031,2167.0483831107294,3.8833516189992197,10.852073583923309,100.0,19200,3.785700798034668,3.646847965136849e-05,3.6710266930704414e-05,3868757,2191.3747738785078,100.0
202,16.49346685409546,2171.3273610028737,47.533124300377025,2193.736144325233,1924.8766597705355,100.0,1.6175811216190792,0.1,0.021076202392578125,0.5440471172332764,0.050426774,0.036564324,2167.476280899944,3.8652286175583046,10.825090392221746,100.0,19200,4.069803953170776,0.00010579211808503072,9.025782667832067e-05,3887957,2190.7699738558376,100.0
203,16.34858775138855,2180.170357270025,6.6207798391136095,2191.16989170559,2139.73028584944,100.0,1.9923062131549165,0.1,0.01714611053466797,0.5658688545227051,0.04915485,0.049123757,2168.745688536952,3.89397951129623,10.869300967996333,100.0,19200,4.068135499954224,3.3809662826315055e-05,1.8097984188961332e-05,3907157,2188.8325102016443,100.0
204,16.694112539291382,2180.0805713196605,6.316345632204817,2190.589616569825,2148.9437255690086,100.0,2.0011542589363427,0.1,0.022788524627685547,0.7280449867248535,0.04962757,0.048093963,2169.8791768152228,3.8942548429929214,10.868860305813817,100.0,19200,3.92582631111145,1.9190970719538403e-05,7.278245689020263e-06,3926357,2193.241769513268,100.0
205,16.77457857131958,2184.2433415113005,5.55990242665516,2194.2536888146324,2167.7675813702626,100.0,1.8822929524363825,0.1,0.017493486404418945,0.4799838066101074,0.04946733,0.050196543,2171.3155932848304,3.9087646385757395,10.889662452000488,100.0,19200,3.8474299907684326,8.277201509318113e-06,7.863578389245938e-06,3945557,2187.8869394566054,100.0
206,16.29522728919983,2161.3282588490383,214.73127201778314,2199.8162854280654,83.73767300410294,98.95833333333333,1.5677603947179006,0.1,0.01723957061767578,0.40589284896850586,0.050258834,0.03453209,2170.3168598412512,3.881499511815656,10.775091834895818,98.95833333333333,19200,3.933790445327759,0.0030400731797240814,0.00045662449018009046,3964757,2189.9967850606936,100.0
207,16.734010934829712,2187.23388691798,7.033101840906725,2200.0061587520922,2139.537097182847,100.0,1.33575981904459,0.1,0.027214765548706055,0.5549972057342529,0.050024338,0.09077512,2172.008562548924,3.923582697735108,10.904607875213395,100.0,19200,3.9875965118408203,0.00010196822319913938,1.1651776147730712e-05,3983957,2176.752104659383,100.0
208,16.107837915420532,2184.108181086141,28.77589904834418,2198.1123824404003,1909.243312629364,100.0,1.7599014419951433,0.1,0.021180152893066406,0.6116728782653809,0.050194487,0.036073778,2173.218524402646,3.914960711359479,10.888984179853013,100.0,19200,3.8680684566497803,4.0968000908369366e-05,3.390814013083996e-05,4003157,2171.533521632974,100.0
209,16.502487421035767,2176.779648278598,61.43708882748874,2198.6338127480085,1687.6473162082384,100.0,1.356311978187857,0.1,0.018545866012573242,0.5444068908691406,0.050087973,0.08870419,2173.574636790241,3.9040443242807137,10.85234096732781,100.0,19200,3.7955939769744873,0.00021433651346469486,7.040965057005023e-05,4022357,2170.4471438552305,100.0
210,12.906703472137451,2185.1030013948525,10.058219979299988,2198.0104925079854,2135.874783559128,100.0,1.815105020848724,0.1,0.018953323364257812,0.45241212844848633,0.04932708,0.052761026,2174.727473250702,3.928771647048849,10.893952759439905,100.0,19200,4.515336513519287,1.3578044761038894e-05,1.1514592898140553e-05,4041557,2149.7517068744396,100.0
211,16.914087533950806,2190.569379762636,7.864238811144544,2202.1336707614146,2149.2291641235306,100.0,1.986031749298693,0.1,0.02052164077758789,0.5548429489135742,0.049656976,0.04984241,2176.3116639018954,3.94227473996037,10.921272997703506,100.0,19200,4.032691955566406,1.292165484745955e-05,8.873326185039883e-06,4060757,2178.997192461775,100.0
212,16.641765117645264,2192.0466802301125,6.122133681220993,2200.541006521334,2154.278026456997,100.0,1.9382209934503982,0.1,0.018561601638793945,0.5158309936523438,0.05026988,0.046549715,2177.885165534717,3.9546497018880644,10.928641635163233,100.0,19200,3.9395358562469482,8.81175784301471e-06,7.855438185009722e-06,4079957,2180.2733223569694,100.0
213,16.07283306121826,2185.731379044001,44.54268593504125,2203.2286272973683,1908.6862550563094,100.0,1.4557926141381985,0.1,0.018416643142700195,0.5104725360870361,0.050329894,0.040837817,2178.6697868856454,3.9400767883270835,10.897059734329313,100.0,19200,3.7932021617889404,8.739703421041653e-05,8.872402214437918e-05,4099157,2172.502884929814,100.0
214,16.666450262069702,2185.9798320872087,49.79824875323224,2208.7895883571196,1893.9633488454915,100.0,1.7010273339557167,0.1,0.018980741500854492,0.5566399097442627,0.049405452,0.04214981,2179.4007914058016,3.9399454906734603,10.898304157738515,100.0,19200,3.9246952533721924,0.0001059691020342904,7.262169978953912e-05,4118357,2176.060789340183,100.0
215,16.436882972717285,2193.15241635182,7.177637752415164,2206.3058032292065,2150.293698700909,100.0,1.6535501116986504,0.1,0.024733781814575195,0.46285343170166016,0.04972106,0.08719204,2180.7759539004037,3.9669989251187587,10.934148454840814,100.0,19200,4.0444371700286865,1.6677158754053377e-05,1.1461462421928454e-05,4137557,2167.459519575931,100.0
216,14.855332612991333,2191.2118430580995,33.79345975587248,2207.1792612050167,1951.6493115880814,100.0,1.8655017520245396,0.1,0.036414384841918945,0.7019803524017334,0.050081912,0.03216623,2181.8195428161735,3.9652258908059643,10.924455886816297,100.0,19200,4.216813802719116,5.745813347962061e-05,4.4089612207283374e-05,4156757,2168.723471907022,100.0
217,16.153690099716187,2195.3681390942015,6.738762776902075,2211.16103286782,2177.390159933358,100.0,1.857385079737338,0.1,0.018709897994995117,0.5107860565185547,0.050013006,0.056903522,2183.1744024439763,3.986658883624088,10.945223148853875,100.0,19200,3.832655668258667,1.2693757527824394e-05,9.129760859637908e-06,4175957,2155.191549276124,100.0
218,16.358757734298706,2199.1186088417758,6.022465422362452,2211.3090495415413,2177.4384615663644,100.0,1.8200515467111813,0.1,0.017664670944213867,0.5146784782409668,0.04976392,0.05387747,2184.768823083756,4.004656284993307,10.96395509458497,100.0,19200,3.841425657272339,1.1595906738867846e-05,7.948637523455736e-06,4195157,2176.175290520474,100.0
219,16.34286904335022,2205.396985564358,5.730101175548389,2218.2520091167366,2188.005789363975,100.0,1.8320982558240306,0.1,0.022374629974365234,0.6702373027801514,0.05033594,0.054441452,2186.8316393318164,4.0328185917328705,10.99533439165304,100.0,19200,3.811823844909668,1.2062560459213404e-05,1.1832780592434772e-05,4214357,310.7656622560721,100.0
220,16.268508195877075,2210.548978031034,10.409049518651463,2229.5247619694055,2155.595418309793,100.0,2.0641881731928065,0.1,0.01758408546447754,0.552281379699707,0.050660968,0.048977174,2189.2033732017385,4.068159659381238,11.02106208426387,100.0,19200,3.8545358180999756,2.0849506126170586e-05,1.430649815832128e-05,4233557,-2365.6314965198694,100.0
221,16.76939558982849,2215.009598741584,38.378113446364345,2245.728867787272,1848.3945681309258,100.0,2.0692111950609933,0.1,0.02195119857788086,0.7108237743377686,0.050515816,0.036323637,2191.783995755723,4.103731781117301,11.043334649696869,100.0,19200,3.8837456703186035,0.0001258551180870292,6.198926641865586e-05,4252757,-3246.36961975952,100.0
222,16.619439125061035,2216.313482835749,86.08179202049234,2267.5882136295154,1382.2508174801628,100.0,1.940220212325047,0.1,0.01763176918029785,0.562673807144165,0.0534543,0.037714098,2194.2369444637256,4.162179618842338,11.049761829829455,100.0,19200,3.844973564147949,0.003549411960794006,0.0028918707757726978,4271957,-2876.5670843856533,100.0
223,16.3653507232666,2218.7674888713586,102.21410150811367,2277.068534162987,1403.6595138670764,100.0,2.1998093475155502,0.1,0.019726276397705078,0.5068225860595703,0.050631046,0.037429597,2196.689998904489,4.184630683766707,11.062219714475114,100.0,19200,3.8857064247131348,0.0014409218810556748,0.0003272771880408493,4291157,-1881.6114266581712,100.0
224,16.394001722335815,2220.1560784261787,59.033978704594006,2264.2311471993585,1653.340565506703,100.0,1.5801605105576446,0.1,0.016571521759033203,0.394817590713501,0.04997827,0.03810787,2199.036606856658,4.152753510176334,11.06899046561369,100.0,19200,3.268275499343872,0.0005679366417069732,8.737189740037019e-05,4310357,-2000.8521428889435,100.0
225,16.362398624420166,2221.7536019868603,39.99625911058576,2247.973190589317,1902.1497803671102,100.0,2.0929667682966917,0.1,0.02292799949645996,0.6709306240081787,0.050628167,0.033520944,2201.3083063696786,4.173660822738589,11.079518180289426,100.0,19200,3.8214011192321777,0.0002753325503547801,0.00022641363320670497,4329557,-2226.1767577220935,100.0
226,16.165014028549194,2218.67431057996,90.9587592406811,2246.2025959756074,1335.8172978497296,100.0,1.9363078542591614,0.1,0.02214670181274414,0.5824813842773438,0.048643243,0.038845263,2203.0449067907066,4.179359220165444,11.061561756736511,100.0,19200,3.7373430728912354,0.0011110811438921708,0.0004807714378475488,4348757,-1432.1039572861512,100.0
227,16.361353874206543,2222.5751429890947,79.05231609916041,2267.8097308263395,1461.5519963490276,100.0,2.00656822198021,0.1,0.024245738983154297,0.46588897705078125,0.050000664,0.036342014,2204.9979304105455,4.189926444754206,11.081051503740673,100.0,19200,3.8265271186828613,0.0004350039537507619,0.0003655842671701836,4367957,-1531.6559686656187,100.0
228,16.611842155456543,2212.7526469940776,180.02601451867335,2304.0151870817594,717.99668268233,98.95833333333333,1.618531309510989,0.1,0.01804804801940918,0.5465731620788574,0.05075432,0.03339281,2205.7734020688986,4.2152756140823024,11.032447868817824,98.95833333333333,19200,3.5226151943206787,0.0008545618628813148,0.0006536710363781201,4387157,-2205.900316184934,100.0
229,16.482855319976807,2236.8841740526154,13.796996805080456,2300.2507263084226,2207.5335271931517,100.0,1.7301265797147918,0.1,0.017688751220703125,0.5125324726104736,0.049867656,0.072439365,2208.8844792672703,4.246742270975629,11.152489806250586,100.0,19200,3.916483163833618,0.00015788372753657885,5.907578216734947e-05,4406357,-2550.456476726657,100.0
230,16.179813623428345,2248.5985478612674,48.584563902705014,2299.1580499462843,1809.4086262285848,100.0,2.0774301971022497,0.1,0.018167734146118164,0.6724090576171875,0.049376253,0.038633138,2212.85588612667,4.364543441577341,11.210991262905864,100.0,19200,3.8272080421447754,0.0008608443661137332,0.0007531544016889576,4425557,-3108.2502478211063,100.0
231,15.862913846969604,2162.1784435898294,369.8267955377501,2333.68659133531,-161.99815597228638,100.0,2.6537821521426426,0.1,0.030904769897460938,0.6579563617706299,0.053566292,0.034091722,2207.788141872986,4.564411747755231,10.778366424355402,100.0,19200,3.7994799613952637,0.0483044079252638,0.03624725730146873,4444757,-2782.7940986507638,100.0
232,15.493354082107544,2240.9229480374947,136.1319782256676,2321.7348185850287,1349.6857066953037,100.0,2.546585862031431,0.1,0.030614852905273438,0.7200040817260742,0.04964795,0.03734876,2211.101622489437,4.429858208027615,11.172778571441476,100.0,19200,4.006896257400513,0.004467480571922406,0.0019417427267502997,4463957,-1870.0756695498758,100.0
233,15.930262327194214,2250.38002245257,112.6962838284769,2326.7744212138496,1362.482193348646,100.0,2.3926989899027773,0.1,0.019043684005737305,0.7452895641326904,0.05048051,0.038817216,2215.02946248575,4.433639652066119,11.219492944521996,100.0,19200,5.175853252410889,0.0020148928141287526,0.0017551970745558621,4483157,-1298.5315069021162,100.0
234,16.299389123916626,2235.8509397749576,179.49053740058153,2319.8518787270204,871.0459065046266,100.0,2.337994613098961,0.1,0.019932031631469727,0.5165343284606934,0.05041529,0.03047468,2217.111610214671,4.39587091082479,11.14712135038535,100.0,19200,4.070483684539795,0.005375254476571575,0.004206767813447416,4502357,-764.9022277634815,100.0
235,17.231607675552368,2243.491654555194,111.58182436322039,2302.052643537798,1327.462404366545,100.0,2.250436291247751,0.1,0.022664785385131836,0.5191192626953125,0.050650768,0.04020542,2219.7496146487238,4.381500110520988,11.185357215584922,100.0,19200,3.7813432216644287,0.002083117594866221,0.0012293244345932962,4521557,648.8560841782719,100.0
236,16.368022203445435,2264.5537521746223,19.10237100391178,2322.7474411622366,2204.2284253188277,100.0,2.297320225685737,0.1,0.017096757888793945,0.6162986755371094,0.04881517,0.04183155,2224.2300284013136,4.428462465630225,11.290601889373908,100.0,19200,3.4895923137664795,0.00039523669167795903,0.00014358038661871909,4540757,971.6349373761027,100.0
237,16.06939959526062,2254.3286560502825,104.24772241525523,2438.4597906028876,1285.8141651091264,100.0,2.2275536385882355,0.1,0.01793384552001953,0.4519164562225342,0.050390087,0.037388306,2227.2398911662103,4.401444202358129,11.239491797885213,100.0,19200,3.6888253688812256,0.0019488757958101108,0.001078641601250251,4559957,1751.5795430637286,100.0
238,16.31123661994934,2265.7260165497937,27.814355054502926,2306.756133607358,2048.575812768033,100.0,2.238225258991228,0.1,0.023165225982666016,0.7639245986938477,0.050647162,0.040676158,2231.0885037045687,4.4291824044251635,11.296471306761324,100.0,19200,4.025494337081909,0.00039693032453867966,0.00016052948343000368,4579157,1684.6770914081824,100.0
239,16.468169927597046,2260.6931676197273,179.82359933821039,2375.8490013590526,552.4032253525014,98.95833333333333,1.3756620605510317,0.1,0.0232698917388916,0.6605618000030518,0.049984053,0.03109949,2234.0489700960848,4.47956050057654,11.271220491830094,98.95833333333333,19200,3.8008735179901123,0.0008611133047412696,0.00051001861887927,4598357,1855.6469824470964,100.0
240,16.500773429870605,2272.910861179355,59.93372790608444,2381.165368315144,1906.6609748149258,100.0,1.9785617219497582,0.1,0.025591135025024414,0.5004158020019531,0.050068095,0.047517817,2237.935159204412,4.507839026281663,11.332251342913048,100.0,19200,3.5765814781188965,0.0006172861123040906,0.0004100565243706153,4617557,1701.75247700087,100.0
241,16.533622980117798,2317.162646573879,39.54132984785218,2463.807310766258,2255.3974534435442,100.0,2.5021416755720374,0.1,0.018332242965698242,0.6127772331237793,0.050947458,0.041846596,2245.8579079413585,4.759310292204599,11.55306570660305,100.0,19200,3.742173910140991,0.0005969939594424949,0.0002944784385265884,4636757,475.305687400823,100.0
242,16.66765284538269,2344.7071049632445,274.58602746433786,2501.907557735946,-200.91713243327462,100.0,1.9072459065057483,0.1,0.023703336715698242,0.6150410175323486,0.050480854,0.035706926,2255.742827643547,5.062698584791378,11.689873226771319,100.0,19200,3.682034730911255,0.007390727914938008,0.002377769451143149,4655957,552.925560386745,100.0
243,16.38594961166382,2406.520856155717,172.35720103365696,2504.044321561421,791.3781821652847,100.0,2.2282797212376653,0.1,0.016224384307861328,0.7126433849334717,0.049481656,0.039073292,2270.8206304947644,5.3573457144682095,11.99892991517404,100.0,19200,3.4432034492492676,0.0045405555994758335,0.0032681348625704276,4675157,551.5690238605787,100.0
244,15.577500581741333,2402.873327527492,271.5909865010728,2527.6465807301042,73.28754683825849,98.95833333333333,1.647886670623842,0.1,0.01823115348815918,0.5385692119598389,0.050424885,0.05793452,2284.025900198037,5.3842893092145845,11.980937529436469,98.95833333333333,19200,4.197614431381226,0.004380256643047622,0.001983196239877922,4694357,606.6844219669888,100.0
245,16.213472366333008,2469.9152745935967,26.547430854914293,2534.1697105476815,2411.5224005712844,100.0,2.2720644564336268,0.1,0.01666855812072754,0.6009552478790283,0.050445907,0.04708463,2302.614837637593,5.6241006538008405,12.315719084837452,100.0,19200,4.005451679229736,0.00035415503362548227,0.0001630405076619829,4713557,164.20370502807918,100.0
246,16.502906560897827,2470.5002090000858,157.7287472738169,2546.6328295525564,1237.538825493914,100.0,2.429524939552216,0.1,0.0167543888092041,0.3908960819244385,0.049353328,0.03475318,2319.403374773842,5.729639700654498,12.318632549587354,100.0,19200,3.782442808151245,0.003158127968825909,0.0026363371379263577,4732757,244.87496070339546,100.0
247,16.460764169692993,2481.7716270413016,116.40167802617661,2559.096425897534,1674.5669427768717,100.0,2.077429278617716,0.1,0.022229433059692383,0.6122136116027832,0.049884062,0.040880546,2335.6402000005883,5.721480788597524,12.374930981384894,100.0,19200,3.7762908935546875,0.0013296442041489194,0.0010724551266386606,4751957,99.22659455244184,100.0
248,16.03680729866028,2501.889740935791,91.67874144525105,2558.2603223123306,1638.7965706475647,100.0,1.6830255479409744,0.1,0.02405834197998047,0.5156707763671875,0.050976172,0.050840277,2352.2651540941083,5.8145809723565,12.475469945298485,100.0,19200,4.358805418014526,0.00052597336702024,0.00018926149812436695,4771157,127.25724051464863,100.0
249,16.791145086288452,2517.0262981056308,72.00751468573976,2574.261057901573,1844.4775150328528,100.0,2.1133997684177683,0.1,0.01836538314819336,0.4627537727355957,0.050297115,0.040330704,2368.7412684952606,5.89503876153713,12.551212102593274,100.0,19200,3.927353620529175,0.0003471784509355747,0.0002591496439569868,4790357,705.9497436424028,100.0
250,16.14084005355835,2529.0383360404594,74.16909775654581,2576.772073092857,1830.0162632548427,100.0,1.946253544970244,0.1,0.01743292808532715,0.6488003730773926,0.049673285,0.043608397,2384.7709752497803,5.946760978428013,12.611157492939865,100.0,19200,4.119309186935425,0.0002568951018134853,0.00023946445289307295,4809557,2094.889565044616,100.0
251,16.29923105239868,2543.7761721651,24.847751945269557,2577.900207205199,2391.3335814504326,100.0,2.2529709620991722,0.1,0.0188143253326416,0.5910899639129639,0.049221613,0.041237082,2400.671494941312,6.023136458959082,12.684894116860088,100.0,19200,3.8332951068878174,0.00020179849732151334,0.00014105827610883293,4828757,2103.355700045025,100.0
252,16.116715908050537,2550.6441166265186,80.84802652702776,2620.495226639221,1810.3500854966915,100.0,2.0801298683477283,0.1,0.01827096939086914,0.6135916709899902,0.049940087,0.038816154,2415.6687571098328,6.054246129472205,12.719098359415788,100.0,19200,4.0544726848602295,0.0005222276614958693,0.00040594888236780404,4847957,2167.1308724404566,100.0
253,15.676337957382202,2569.632314131168,21.3682045981795,2627.640692570203,2504.008838353703,100.0,2.123724437669993,0.1,0.017548799514770508,0.6164536476135254,0.04978246,0.046029955,2431.065112811966,6.112017196579586,12.81383190550771,100.0,19200,5.399833679199219,0.0001472044822918152,0.00010123625088279962,4867157,2151.0594630653904,100.0
254,16.454094171524048,2591.9788703278114,23.328579118562576,2644.3881884972106,2530.8503012148612,100.0,2.200830223224077,0.1,0.018893003463745117,0.5369143486022949,0.049964786,0.04629262,2447.1564885635507,6.219202283922964,12.925448278958342,100.0,19200,4.129108667373657,0.00016695467102783294,0.00010444073442887378,4886357,2194.285663441048,100.0
255,16.52950644493103,2559.306444172762,217.65034728237129,2668.2309056270988,1424.9370348302582,100.0,1.9756267248617654,0.1,0.01717233657836914,0.680511474609375,0.04996147,0.042753037,2458.371484124472,6.111076924905281,12.762211892659352,100.0,19200,3.9859976768493652,0.0036194400207197968,0.0023505249599008408,4905557,2184.235704469329,100.0
256,16.498828172683716,2613.796080980385,25.78244745657876,2660.7396282421737,2474.4851928677913,100.0,2.3510009804140957,0.1,0.016989469528198242,0.4969501495361328,0.050630037,0.04387976,2473.913943810063,6.3011526731098755,13.034389112801742,100.0,19200,4.063620090484619,0.0003182780387006975,0.00012159579895127947,4924757,2183.6893919686154,100.0
257,16.22265076637268,2604.0356734390493,117.53050230872105,2667.9853397955762,1752.252652815442,100.0,2.017929260168006,0.1,0.022165298461914062,0.6743383407592773,0.049654663,0.038769737,2486.9261167729614,6.286379020854292,12.985544497299093,100.0,19200,4.004296541213989,0.0009154577064443945,0.0007598888206231096,4943957,2137.5914447316864,100.0
258,16.56501078605652,2603.1945773254974,154.41727159892642,2673.9744726618824,1738.2365483759272,100.0,2.1821604329386473,0.1,0.0172884464263916,0.45384716987609863,0.050731227,0.0372608,2498.552962828215,6.325456405077517,12.981583512862409,100.0,19200,3.710282802581787,0.002068918412471701,0.001775740289121186,4963157,2221.3229478062344,100.0
259,16.445793867111206,2615.3621555625286,123.84970186728891,2678.8521543351976,1425.4464483482332,100.0,2.102879892619878,0.1,0.017901182174682617,0.5184934139251709,0.05019152,0.03599434,2510.2338821016465,6.319893945219941,13.042149002224713,100.0,19200,4.019703388214111,0.0007323607898326907,0.0005752115128546045,4982357,2201.2006307020374,100.0
260,14.853383541107178,2632.450416262274,40.59018228240804,2674.453462728101,2307.4041976949684,100.0,2.1556528836633935,0.1,0.016807079315185547,0.5374190807342529,0.050409444,0.045635417,2522.455535517709,6.396960441337382,13.127548952008587,100.0,19200,3.9432947635650635,0.000282709999365262,0.00026622492819817546,5001557,2291.013422890981,100.0
261,16.48087978363037,2604.867615368144,198.52713375335856,2694.1423364171133,1302.029396628425,100.0,1.9614274885026168,0.1,0.014993429183959961,0.5427837371826172,0.050203882,0.04247632,2530.6967435027527,6.314405878775003,12.989880483206449,100.0,19200,4.001382112503052,0.0022136412303154084,0.0019064010328253358,5020757,2304.257385049635,100.0
262,16.23587965965271,2626.1651665416525,154.26234536531564,2695.6815864467476,1417.9380852632157,100.0,1.8233227264845142,0.1,0.019008398056030273,0.5829787254333496,0.049772836,0.043709174,2540.243585806643,6.395935400290388,13.096096477662988,100.0,19200,3.8551018238067627,0.001270064591083202,0.0009151496735003515,5039957,2330.446104557078,100.0
263,16.072235345840454,2624.2837814631225,153.6693268925054,2689.626474307146,1397.4989260275606,100.0,1.7278658587121292,0.1,0.027367115020751953,0.5890824794769287,0.050059244,0.040838525,2548.647605372291,6.377224052730502,13.086946316068987,100.0,19200,4.1984686851501465,0.0008899972247418637,0.000750294293982111,5059157,2337.8988898932257,100.0
264,15.454481601715088,2616.0634911280104,170.72595682693958,2688.336039662791,1655.9533598356497,100.0,1.8155946543833186,0.1,0.021355628967285156,0.5422639846801758,0.05054013,0.045119498,2555.389193947863,6.344911584497903,13.046123739764274,100.0,19200,4.085583448410034,0.0014809862551966326,0.0013579336665243886,5078357,2417.754649350869,100.0
265,16.10542321205139,2625.6168125154286,148.5292514063765,2686.1306040032364,1404.3269905669717,100.0,1.8843031918737312,0.1,0.020293474197387695,0.6653609275817871,0.050555717,0.04129202,2562.4119558046195,6.403684939909875,13.093326386653459,100.0,19200,3.716259241104126,0.0013301643384074024,0.0010596114972255385,5097557,2486.1741547618303,100.0
266,16.412298679351807,2629.4495136218734,136.1895890061631,2694.4916792443482,1753.838516764415,100.0,2.040964342020155,0.1,0.01840996742248535,0.5529720783233643,0.049502872,0.041718546,2569.1157115863452,6.412458862952029,13.112745641132783,100.0,19200,3.5838801860809326,0.001127456822870406,0.0008811920089002695,5116757,2475.0652109446655,100.0
267,15.990051984786987,2627.622912855899,165.86655974576274,2691.4074738804097,1454.7116217500861,100.0,1.9803524608741372,0.1,0.01735377311706543,0.4030723571777344,0.0515913,0.04019011,2574.9664317133006,6.377918277825004,13.103322382639883,100.0,19200,3.849496364593506,0.001573976261588844,0.00135712004843438,5135957,2452.4544537303927,100.0
268,16.585209131240845,2640.4758295736324,118.67746990115077,2699.559034856902,1700.73441380827,100.0,1.9231075550591439,0.1,0.017337322235107422,0.5534374713897705,0.05061585,0.040680703,2581.517371499334,6.4278365241145,13.1678485488181,100.0,19200,3.789821147918701,0.0008898653261109466,0.0007489758748446813,5155157,2460.1040172653275,100.0
269,16.530414581298828,2651.1641287532734,82.59825110062235,2708.0418815099533,1882.2983249048107,100.0,2.0904976801174717,0.1,0.01954793930053711,0.5794541835784912,0.049299017,0.03822622,2588.4820472247275,6.4686794326910615,13.22101572906373,100.0,19200,3.7325663566589355,0.0004896128966297113,0.00040730049381373424,5174357,2452.5148191305107,100.0
270,15.49865436553955,2651.1411262076103,129.60820066018994,2701.450076558652,1625.8321267665006,100.0,1.8010868369813047,0.1,0.022016048431396484,0.3838827610015869,0.049675543,0.03666732,2594.7479551230163,6.486678153993583,13.221137860197762,100.0,19200,4.008103609085083,0.000658184772539308,0.0005579905021871298,5193557,2477.8851657423793,100.0
271,16.35180902481079,2620.827147900123,295.34803611172373,2704.8173592506446,57.663962851792,98.95833333333333,1.4296760865195148,0.1,0.022441387176513672,0.7331864833831787,0.049735,0.065152265,2597.355874400727,6.388095159799363,13.069293186026643,98.95833333333333,19200,3.9823148250579834,0.002481848688225944,0.001494275877567631,5212757,2462.879552527844,100.0
272,15.790478467941284,2634.838656372652,185.60742984564723,2713.1826806208583,1582.4580064513746,100.0,1.9202455622386967,0.1,0.01569223403930664,0.5490996837615967,0.050745476,0.041819822,2601.1041525979194,6.416072628548119,13.139927656578985,100.0,19200,3.790064573287964,0.0019228495942619844,0.0016931115420735655,5231957,2427.446651580471,100.0
273,16.196369409561157,2655.6401098992683,108.22264163817398,2718.4897761289176,1926.0134687633167,100.0,1.992822990074836,0.1,0.020998716354370117,0.47112274169921875,0.04916144,0.045488022,2606.5577483280545,6.488180176293788,13.24363039446627,100.0,19200,3.8797101974487305,0.0007763906662354347,0.0005252009957915508,5251157,2411.8180423709505,100.0
274,16.522658586502075,2672.294687780209,39.37574666453074,2706.7722677367724,2354.273674207059,100.0,2.1404618224711025,0.1,0.02455425262451172,0.5264508724212646,0.049781173,0.048159566,2613.13144227327,6.580949151041998,13.32660673813251,100.0,19200,3.8166556358337402,0.00032586555479238597,0.00025120823153548143,5270357,2393.4248726301576,100.0
275,16.54871964454651,2675.8241287403566,76.36308805597072,2716.7202819958598,1963.1366396540477,100.0,1.9923526874652042,0.1,0.016620397567749023,0.5625920295715332,0.050356787,0.04364013,2619.4007109199783,6.566467309849642,13.344240367091567,100.0,19200,3.700160503387451,0.0003389248763566683,0.00029204172474312195,5289557,2420.7929087734155,100.0
276,16.270729064941406,2684.1447636644893,94.98773621708229,2727.9152877588713,1768.1225783777409,100.0,1.7840957216961655,0.1,0.02418828010559082,0.5331330299377441,0.050434086,0.03412682,2625.8751161944297,6.612701428467569,13.385847106859053,100.0,19200,3.924097776412964,0.00022439455516357494,0.0001775550052751376,5308757,2331.865305595204,100.0
277,16.152425527572632,2666.7963633546983,134.20868780833544,2738.3177831658563,1877.9900079758345,100.0,2.0688164904015203,0.1,0.016484498977661133,0.4221038818359375,0.04974698,0.03922331,2629.9672409104564,6.5578572290025,13.299104737992566,100.0,19200,3.709773540496826,0.0009564206359462101,0.0008598031213048581,5327957,2406.281345756207,100.0
278,16.790533781051636,2678.337976949958,82.05946343004722,2722.3265247809686,1921.0719029944207,100.0,2.0081906051362357,0.1,0.018382787704467773,0.5416615009307861,0.049851142,0.04276762,2634.8043145144065,6.610618485637062,13.356796332851772,100.0,19200,3.8727471828460693,0.0004683672399588547,0.00040954067564721375,5347157,2457.0980899406036,100.0
279,16.494487047195435,2674.237752481819,116.58083489209754,2725.7957246951273,1827.215582145393,100.0,1.9130657066591215,0.1,0.018791913986206055,0.5836503505706787,0.049531873,0.038667563,2638.747658311148,6.577619764164389,13.336585934969138,100.0,19200,3.812356948852539,0.0006919513558006618,0.0006062529867116521,5366357,2433.030683301568,100.0
280,16.2876935005188,2678.1815646454943,130.55889786014095,2726.903781786231,1433.1545710366158,100.0,1.9024576926240344,0.1,0.018477916717529297,0.5701837539672852,0.049961817,0.04499328,2642.6910489445822,6.632388479339565,13.356013245259845,100.0,19200,3.8232061862945557,0.0013250198868613589,0.0008061542805321372,5385557,2384.225122552668,100.0
281,16.350624561309814,2689.7524245891186,20.683737491732177,2728.1512751317805,2599.7315991858713,100.0,1.9436296275971892,0.1,0.017849206924438477,0.51902174949646,0.051378023,0.05598105,2647.397186509036,6.637111917312844,13.413870038366966,100.0,19200,3.8373701572418213,0.00023097339658053443,5.7341909042323735e-05,5404757,2294.136267603114,100.0
282,16.81670069694519,2689.439667093135,87.09046558869713,2730.1069744510537,1864.0034534786994,100.0,2.015647639681423,0.1,0.017583131790161133,0.5895500183105469,0.050185442,0.038324,2651.601434567446,6.656344327972416,13.412298759395597,100.0,19200,3.8940415382385254,0.0005312323801641199,0.00038263215690954503,5423957,2452.0716245894628,100.0
283,16.1350257396698,2689.2378164627016,82.2006548471214,2731.912736837091,1919.647193748724,100.0,2.1914127985072454,0.1,0.0231781005859375,0.5279080867767334,0.048788667,0.034382258,2655.3650727569716,6.650475978010969,13.41130615004757,100.0,19200,3.8105382919311523,0.00043923945513549354,0.00036465854236310675,5443157,2398.9725748744895,100.0
284,16.319380521774292,2692.571436325296,80.14241528002111,2732.3931366781676,1934.6923286631798,100.0,1.9752068849556708,0.1,0.01893758773803711,0.5385217666625977,0.049667303,0.042363044,2659.085709113804,6.66383678986853,13.427945069447683,100.0,19200,3.8161818981170654,0.0003360935836343037,0.0002776188681900649,5462357,2386.1480167448335,100.0
285,16.536373615264893,2695.023060163773,64.7690230586223,2731.6664475012312,2117.597269601183,100.0,2.2501620622224316,0.1,0.04544806480407715,0.5979995727539062,0.05009952,0.040449094,2662.679444218801,6.704346704883875,13.440217832136085,100.0,19200,5.479177713394165,0.0005324361124246902,0.0004149455060431015,5481557,2374.3553535981737,100.0
286,16.229875802993774,2666.2215308004356,200.96859310289832,2745.5932374623403,1544.8741949029393,100.0,1.9778328351983079,0.1,0.018576622009277344,0.420790433883667,0.04913892,0.039886788,2663.0336528769644,6.586400008338162,13.297040387763326,100.0,19200,3.9005441665649414,0.002061869539045874,0.0017226238500864524,5500757,2355.2978063584,100.0
287,16.53256368637085,2695.402456387295,136.24410007423324,2741.3102793091457,1404.0867419752074,100.0,2.0978548595124944,0.1,0.017656803131103516,0.6363992691040039,0.050242998,0.038238734,2666.2705332279975,6.7078652159390915,13.442096432653406,100.0,19200,3.9407782554626465,0.001322364263667676,0.0011527349360019475,5519957,2387.608693875959,100.0
288,16.535211324691772,2660.502473370626,327.9173828018382,2746.355316602192,-116.86969744191606,100.0,2.7957435459583992,0.1,0.022706270217895508,0.5067965984344482,0.049904674,0.028262084,2665.69372724226,6.689896126582351,13.26759481767173,100.0,19200,4.117217540740967,0.017180738143430584,0.009846822343267956,5539157,2419.344552711751,100.0
289,16.855790615081787,2706.833697978241,82.14601171763844,2753.2911455361536,1921.1339709295526,100.0,2.0675067999646592,0.1,0.027378559112548828,0.49811363220214844,0.050169006,0.049019784,2669.807724315858,6.705727823452459,13.499252326760796,100.0,19200,3.972623348236084,0.0005512836983962235,0.00037100373316291933,5558357,2566.0208375113007,100.0
290,16.935691118240356,2668.7123970505595,278.6560921542487,2749.7306345975967,671.7070151006857,100.0,1.995133872200311,0.1,0.01795172691345215,0.5256216526031494,0.049310815,0.037308928,2669.6981915893284,6.658498675920811,13.308933717050005,100.0,19200,4.149045467376709,0.0040029564252142096,0.0026619564007397184,5577557,2533.4009908315466,100.0
291,16.202563762664795,2710.9464066003243,39.50917186231629,2746.0658636709254,2543.7666710258886,100.0,1.8881268160341687,0.1,0.019959688186645508,0.45781564712524414,0.04890521,0.06137992,2673.823013090428,6.7842456191259,13.51980987660807,100.0,19200,6.357288837432861,0.0004939012692272451,0.0002626287785128379,5596757,2614.4759264814547,100.0
292,16.324387311935425,2683.706639738713,288.3292859212015,2749.2025130513994,49.89321734905512,98.95833333333333,1.6184804515624647,0.1,0.017420053482055664,0.5680093765258789,0.04949976,0.04365182,2674.8113757552564,6.6856000035309995,13.383611014015559,98.95833333333333,19200,3.991612434387207,0.0020795938742747917,0.0009803403199252591,5615957,2623.486408956235,100.0
293,16.341456651687622,2720.7415310435863,14.59485644559223,2749.732219480304,2665.687497530204,100.0,2.103057109081492,0.1,0.021844148635864258,0.5260004997253418,0.049587145,0.051331934,2679.4043912840893,6.774532997208372,13.568772358954186,100.0,19200,3.9107134342193604,0.00010346555053901733,6.929376270674947e-05,5635157,2636.6213309369414,100.0
294,16.203110218048096,2612.3034878707754,612.0904983653929,2750.1831866024295,-2099.291505645032,100.0,2.288209128196293,0.1,0.01922917366027832,0.5422022342681885,0.04928835,0.035594262,2672.694300942758,6.664204965172575,13.03003411131907,100.0,19200,3.897202253341675,0.03947219098865838,0.020050190056752442,5654357,2554.3256987029035,100.0
295,16.222830057144165,2724.1363276907628,30.755620975464538,2753.8982127752342,2542.9662853258915,100.0,2.1163725988184874,0.1,0.018466949462890625,0.5664453506469727,0.049424216,0.05111044,2677.8385036175587,6.820634629236262,13.585724009836886,100.0,19200,3.9129726886749268,0.0008247150397778206,0.0003128043017916615,5673557,2581.1583429193306,100.0
296,16.657479286193848,2671.009398334565,351.1823852568024,2761.8799765828203,33.87457847634318,98.95833333333333,1.5832288519736684,0.1,0.025211811065673828,0.7287383079528809,0.049773302,0.047753874,2677.155593089259,6.690113828577995,13.320099140984913,98.95833333333333,19200,4.193021774291992,0.007256641325628074,0.0036425448616441516,5692757,2607.6517884146683,100.0
297,16.203471422195435,2716.9151163654583,120.15178235860509,2755.6310596539934,1569.2875253442899,100.0,2.0421966804112075,0.1,0.01807403564453125,0.5596151351928711,0.04885371,0.04251895,2681.131545416879,6.790821006077777,13.549618629883383,100.0,19200,3.733158826828003,0.0011620318796110906,0.0007925693593827304,5711957,2574.0072161620074,100.0
298,16.104011058807373,2658.6067270446642,352.8750680385519,2757.711751007485,16.121085637430873,98.95833333333333,1.579865600548311,0.1,0.01809239387512207,0.4970104694366455,0.05010563,0.053720422,2678.8790635796577,6.678840915913973,13.258087191205718,98.95833333333333,19200,3.6917335987091064,0.006116256430584295,0.003675957062758699,5731157,2591.64379653142,100.0
299,16.800607919692993,2727.735990295821,14.686467950389149,2755.454699916278,2672.434097369817,100.0,2.0723076103885454,0.1,0.017078638076782227,0.5706315040588379,0.04954171,0.05269092,2683.764756251274,6.803044648754477,13.603705368884173,100.0,19200,3.5884571075439453,0.00035236387387837555,7.595864574977068e-05,5750357,2625.120607724708,100.0
300,16.67355179786682,2715.3601115302445,112.45153980641483,2752.209740556716,1640.485470703976,100.0,1.9481828481755723,0.1,0.018331050872802734,0.6394243240356445,0.05012673,0.04025116,2686.924291779171,6.769614913424007,13.541841298991782,100.0,19200,3.639565944671631,0.0009002806764334869,0.0006733438607363606,5769557,2576.143934398009,100.0
301,16.25488305091858,2666.7722918853174,468.9544825009241,2749.7976199765253,-1593.6171942237477,98.95833333333333,1.5008800382986813,0.1,0.02456188201904297,0.776484489440918,0.050267525,0.05057,2684.909091789786,6.705999244698769,13.298908389060822,98.95833333333333,19200,4.105565071105957,0.008477979570338783,0.003976745561452911,5788757,2535.9017298772496,100.0
302,16.474288940429688,2719.0912699871064,22.999143338391434,2751.3563495175717,2601.5779296076867,100.0,1.8785744172548848,0.1,0.017401695251464844,0.4993932247161865,0.049742598,0.050908606,2688.327309609518,6.769654300428274,13.56049894878962,100.0,19200,3.745830535888672,0.0005825599728811619,0.00011962315650176378,5807957,2582.268056805545,100.0
303,16.435361862182617,2715.942532947993,110.63545099070681,2761.4461674085674,1664.9712921847854,100.0,2.316216938301041,0.1,0.023489713668823242,0.5612325668334961,0.049528547,0.03234578,2691.0888319433657,6.76355342187088,13.544764022615743,100.0,19200,3.814180850982666,0.0007458897943337775,0.0006579476500465389,5827157,2639.0923421550297,100.0
304,16.145999908447266,2667.2949501386715,329.1578057587594,2757.2765055377276,571.2141572767032,100.0,1.8734798372897918,0.1,0.025406360626220703,0.43220949172973633,0.050321784,0.0420411,2688.709443762896,6.663576119188608,13.301816890227295,100.0,19200,3.6793265342712402,0.004802896550643577,0.0035090737362188248,5846357,2731.869357046748,100.0
305,16.355138778686523,2726.96329841909,14.030261256344636,2759.1196545612347,2689.766464136533,100.0,1.95120955280146,0.1,0.016045331954956055,0.4345986843109131,0.04945296,0.0604436,2692.5348292285157,6.787760548578188,13.599856489147589,100.0,19200,3.5711214542388916,0.0014461100315063553,6.621162326591802e-05,5865557,2729.5004155180104,100.0
306,16.275288820266724,2689.450358326323,285.8167817135376,2756.259573201921,134.85226404984476,100.0,2.113382010542865,0.1,0.017113447189331055,0.43535757064819336,0.051018942,0.035374932,2692.2263821382962,6.7194883547835955,13.412277922536468,100.0,19200,3.6866965293884277,0.00510883507785544,0.00401634022094098,5884757,2683.4717066901376,100.0
307,16.151106119155884,2715.6088832557693,119.4124172234717,2756.8417595031465,1565.4785705616284,100.0,1.8997256600033177,0.1,0.02193307876586914,0.6584484577178955,0.050362177,0.04640227,2694.5646322500434,6.75354914053563,13.543370611441054,100.0,19200,3.9389045238494873,0.001029143796702966,0.0006594608872907867,5903957,2679.468882425197,100.0
308,16.18601703643799,2716.347530871142,120.89534051900694,2760.1862963785948,1558.9746847426677,100.0,2.0178894670068863,0.1,0.021220922470092773,0.5905709266662598,0.05004843,0.040629756,2696.7429221121533,6.770035689319786,13.546743306486283,100.0,19200,3.5878217220306396,0.0007996929647049261,0.0007136872957603587,5923157,2596.1031909526946,100.0
309,16.65589165687561,2727.8819751193937,19.31691414387433,2762.949346070323,2639.0844869339066,100.0,1.8889388529342557,0.1,0.035950660705566406,0.6100051403045654,0.049891524,0.05539008,2699.8568274128775,6.8081650006262135,13.604433829727697,100.0,19200,3.6837317943573,0.0001678388484313277,8.142890516113826e-05,5942357,2592.936496397947,100.0
310,16.25752592086792,2734.3138073954456,21.856480758149793,2767.9369001681516,2659.2161682860474,100.0,2.040451380662276,0.1,0.017729759216308594,0.4636647701263428,0.04960189,0.049150527,2703.3025254111344,6.83966304337089,13.636588314015624,100.0,19200,4.03281831741333,8.383189461575087e-05,7.037093990368803e-05,5961557,2581.9876072340467,100.0
311,16.589314460754395,2728.2358261202385,75.23454129102682,2769.437031227055,2182.8499216659766,100.0,2.009261892383079,0.1,0.018787860870361328,0.5855278968811035,0.05062507,0.03586881,2705.795855482045,6.854976965472709,13.60620053369884,100.0,19200,3.7881147861480713,0.0008007959692935012,0.0004993434954860588,5980757,2678.372413439507,100.0
312,16.383182525634766,2670.079552450166,414.02322676967316,2774.4579643913967,-517.8585752855272,100.0,1.9359627200289353,0.1,0.018270015716552734,0.5143792629241943,0.04997383,0.04261052,2702.2242251788575,6.7609395430569945,13.315419336626691,100.0,19200,3.687731981277466,0.018731505318484835,0.009136516643015279,5999957,2735.3365862518594,100.0
313,16.217198371887207,2669.168974333072,458.2131392704475,2762.0029910889366,-1082.0905952882708,100.0,2.0208708181564794,0.1,0.017605304718017578,0.6584346294403076,0.04970717,0.04097795,2698.9187000942793,6.747049665267501,13.31085241563973,100.0,19200,3.7291603088378906,0.010761606760984638,0.008389374611623006,6019157,2736.31591593145,100.0
314,16.59928870201111,2698.557455045921,310.77919905050834,2760.950281139812,-320.1705335381051,100.0,1.895064517291673,0.1,0.017797231674194336,0.48453545570373535,0.049417395,0.039981477,2698.8825755894436,6.7772967337574785,13.457792923770947,100.0,19200,3.625225305557251,0.005541735584646645,0.005020455392412156,6038357,2711.0448477595173,100.0
315,16.585081100463867,2702.566104309448,237.16959117946976,2756.0909453823606,399.21731118229445,100.0,1.8223900406797886,0.1,0.0352780818939209,0.5443625450134277,0.05081841,0.034370728,2699.2509284614443,6.751028364003155,13.477839158994632,100.0,19200,3.7716598510742188,0.0021986985298434506,0.0013344118761081027,6057557,2714.356121036057,100.0
316,16.81859278678894,2722.585680058328,18.710623398710258,2762.529958734862,2626.001387257142,100.0,2.1868346082299523,0.1,0.025305986404418945,0.7275552749633789,0.049849525,0.04617181,2701.584403621133,6.785627688388563,13.577953266617845,100.0,19200,4.1417083740234375,0.00015499902052812733,0.00010588660970691558,6076757,2732.3246510676972,100.0
317,15.808506965637207,2731.693395321607,18.249219744102838,2770.3050722349835,2632.61296232445,100.0,1.9025670396505336,0.1,0.017275333404541016,0.5001473426818848,0.0499461,0.06505563,2704.5953027911805,6.827469536022801,13.623467608426926,100.0,19200,3.3336293697357178,0.0001347835718161006,8.810642719348214e-05,6095957,2668.380688340396,100.0
318,16.61921525001526,2699.5261229312177,383.97023215863214,2764.990094275452,-1035.595684833616,100.0,1.9454854980587506,0.1,0.022380828857421875,0.6090428829193115,0.05102702,0.036804404,2704.0883848051844,6.837387168740939,13.462645676209013,100.0,19200,3.7192482948303223,0.011515972455670941,0.008047938278006506,6115157,2737.376552807721,100.0
319,16.38712191581726,2717.895379736725,184.11753305047307,2772.3058313235174,1025.637821508501,100.0,2.251167457025548,0.1,0.017375469207763672,0.3915121555328369,0.04942881,0.04052978,2705.4690842983387,6.829317331626307,13.554486379531255,100.0,19200,3.7698042392730713,0.006004634620206436,0.0017958599436565695,6134357,2729.4481614675624,100.0
320,16.49719524383545,2738.2966624258675,18.527650779976934,2763.1413015704893,2632.0774043223983,100.0,2.0246311125086986,0.1,0.024208784103393555,0.6137316226959229,0.04887097,0.05057002,2708.7518421110917,6.860480231489473,13.656482588869757,100.0,19200,4.043421030044556,0.00034457561176656635,0.00011127221574617306,6153557,2731.833633500984,100.0
321,16.85403084754944,2694.814890659287,192.37835738849122,2771.157640148691,1589.3140766364588,100.0,2.1186261708359826,0.1,0.01837301254272461,0.47112202644348145,0.04991697,0.03702669,2707.358146965911,6.797079817238166,13.439665491194631,100.0,19200,3.8097715377807617,0.0028747726326892307,0.0021119216488571504,6172757,2583.5501154132244,100.0
322,16.41673469543457,2742.4526712538186,18.023909846422242,2771.1390931363067,2639.2653682573628,100.0,1.8230154713886437,0.1,0.0182492733001709,0.5600917339324951,0.049582396,0.06650095,2710.8675993947018,6.883183430454586,13.677274601644056,100.0,19200,2.718674421310425,0.00025748563484209784,7.177279329980926e-05,6191957,2565.827757042027,100.0
323,16.172940969467163,2686.242432314543,375.54086724281126,2781.246513452864,28.83913108878049,100.0,2.09058140805417,0.1,0.015708208084106445,0.4431321620941162,0.050106496,0.041384876,2708.405082686686,6.808390655356718,13.396213506889564,100.0,19200,4.064900159835815,0.012122199198579977,0.007400249596176643,6211157,2622.526476563705,100.0
324,16.636980056762695,2718.0862827450655,149.37066331931274,2773.078955058309,1661.7514400154128,100.0,1.913641999721274,0.1,0.022909879684448242,0.5248334407806396,0.049688723,0.04223978,2709.373202692524,6.816740972678893,13.55569959018454,100.0,19200,3.7420971393585205,0.0035522460174087123,0.001258260493747164,6230357,2704.5882555063527,100.0
325,16.338536977767944,2728.155019276049,81.81726217379722,2766.334459042764,2226.9195233447235,100.0,1.8663942160102331,0.1,0.019933700561523438,0.4520740509033203,0.04958044,0.04702093,2711.251384350877,6.872215241083126,13.605777878603012,100.0,19200,3.6517913341522217,0.0005445759533891948,0.00045290000832337655,6249557,2730.166259926631,100.0
326,16.365525484085083,2732.569087644941,107.2110244962922,2769.085191851759,1700.3979364272247,100.0,1.9636514751708436,0.1,0.02386927604675293,0.5267260074615479,0.05016446,0.042138755,2713.3831546802835,6.830691614218092,13.62783291308839,100.0,19200,3.9280025959014893,0.0006761426696377427,0.00054510866169278,6268757,2686.68204826126,100.0
327,16.278292417526245,2732.9266167014634,104.86688168488949,2774.6302070732486,1737.0979819301879,100.0,1.9236121601942413,0.1,0.017722606658935547,0.5287060737609863,0.051019937,0.036866438,2715.3375008824014,6.85776716005654,13.629636908291936,100.0,19200,3.8390414714813232,0.0006026472159766287,0.0005464343432569444,6287957,2730.8017077605364,100.0
328,16.460608959197998,2743.9578401091126,12.90385101060027,2768.6180558410174,2695.7120231963,100.0,2.0484423832958725,0.1,0.023654460906982422,0.5304505825042725,0.049842183,0.05025276,2718.1995348050723,6.871960977340083,13.684778971073092,100.0,19200,3.7815239429473877,5.812673777175244e-05,4.553425330923333e-05,6307157,2673.4116641906776,100.0
329,16.526588201522827,2734.984450117388,143.8521089805885,2776.1024460318913,1337.6125487348963,100.0,2.0596423687726535,0.1,0.017879247665405273,0.6834912300109863,0.050132364,0.03428316,2719.878026336304,6.855322398891249,13.639910477536167,100.0,19200,3.735462188720703,0.0011650043259228149,0.0007242360474212135,6326357,2596.561843776572,100.0
330,16.98037600517273,2750.1199667581714,17.970070407477372,2778.643811865546,2622.0145949804355,100.0,1.9545365004681912,0.1,0.0191342830657959,0.6621971130371094,0.049081143,0.050604686,2722.9022203784907,6.90911025896468,13.715584217170026,100.0,19200,3.917720317840576,0.00015414628294932174,5.996938112790381e-05,6345557,2574.71732222308,100.0
331,16.177937746047974,2728.5242071798425,190.7335472143965,2776.5501035904235,910.9865834078792,100.0,1.9502088013499599,0.1,0.028677940368652344,0.629732608795166,0.04967709,0.033914458,2723.464419058626,6.878602684499988,13.607612175243796,100.0,19200,3.8961868286132812,0.0019091553007587732,0.0010598093369929955,6364757,2594.8920742449145,100.0
332,16.013469219207764,2655.3008243391196,581.3814225846426,2779.5946388608722,-2180.6632996859576,97.91666666666667,1.6594398334719258,0.1,0.01689457893371582,0.5457956790924072,0.04988132,0.045803376,2716.6480595866756,6.745139617461237,13.243322080647909,97.91666666666667,19200,3.825270175933838,0.016236166537828903,0.008117656551800436,6383957,2572.4491109383353,100.0
333,16.508754014968872,2656.41029673746,537.5221156014032,2779.276639562758,-2252.006757555761,98.95833333333333,1.6159551260970964,0.1,0.01776266098022461,0.5298416614532471,0.049282346,0.042958222,2710.624283301754,6.745981648183554,13.247043689843457,98.95833333333333,19200,3.785742998123169,0.010272683349802003,0.005860696047596327,6403157,2603.7448765121903,100.0
334,16.4278826713562,2741.1935904827465,70.07319986341244,2775.711276517023,2083.6653442661864,100.0,1.9406813658187905,0.1,0.018119335174560547,0.6336915493011475,0.05052648,0.05315414,2713.6812140198535,6.891470981316364,13.670964245476135,100.0,19200,4.013046741485596,0.000590134850596703,0.00041372266459693407,6422357,2604.0718680875725,100.0
335,16.967517614364624,2737.427300329596,108.19896303476476,2776.2895702575925,1693.0386289527194,100.0,1.8309649683763891,0.1,0.01929306983947754,0.4928276538848877,0.05064209,0.03894417,2716.055822650828,6.850254384316876,13.652141256231504,100.0,19200,3.769589424133301,0.0006737084579026809,0.0006099703104727138,6441557,2626.222393963565,100.0
