Iter | Sampling Pol | Evaluation Pol | Best (Sampled) 
   0 -115.96 -95.04 -100000000.00 
   1 -101.62 -95.88 -115.96 
   2 -113.13 -85.37 -101.62 
   3 -83.97 -91.21 -101.62 
   4 -84.77 -86.37 -83.97 
   5 -71.01 -69.28 -83.97 
   6 -72.25 -49.96 -71.01 
   7 -29.79 -78.65 -71.01 
   8 -25.40 -56.06 -29.79 
   9 -41.43 -64.44 -25.40 
  10 -31.25 -76.16 -25.40 
  11 -22.27 -59.68 -25.40 
  12 -23.78 -44.93 -22.27 
  13 -31.75 -44.11 -22.27 
  14 -22.72 -63.91 -22.27 
  15 -23.44 -45.69 -22.27 
  16 -5.15 -39.75 -22.27 
  17 25.02 -11.86 -5.15 
  18 38.25 -0.98 25.02 
  19 -15.41 13.45 38.25 
  20  8.03 34.52 38.25 
  21 -12.15 16.32 38.25 
  22 -11.59 56.35 38.25 
  23 26.02  5.63 38.25 
  24 14.86 26.17 38.25 
  25  4.53  7.48 38.25 
  26 41.53 31.15 38.25 
  27 12.51 91.80 41.53 
  28  5.39 146.98 41.53 
  29 56.81 170.87 41.53 
  30 89.43 64.55 56.81 
  31 31.71 39.45 89.43 
  32 96.29 31.02 89.43 
  33 94.80 50.29 96.29 
  34 112.34 55.91 96.29 
  35 118.54 100.56 112.34 
  36 133.14 177.02 118.54 
  37 140.08 144.31 133.14 
  38 150.16 171.46 140.08 
  39 120.99 125.25 150.16 
  40 151.58 206.55 150.16 
  41 124.62 185.24 151.58 
  42 153.88 151.90 151.58 
  43 139.24 191.50 153.88 
  44 148.93 245.27 153.88 
  45 190.03 179.95 153.88 
  46 162.93 234.67 190.03 
  47 191.94 278.57 190.03 
  48 193.96 255.81 191.94 
  49 240.82 261.25 193.96 
  50 195.94 285.70 240.82 
  51 224.94 347.27 240.82 
  52 185.74 393.11 240.82 
  53 261.54 353.90 240.82 
  54 216.23 343.10 261.54 
  55 245.66 321.99 261.54 
  56 256.00 249.77 261.54 
  57 255.04 259.39 261.54 
  58 277.24 355.49 261.54 
  59 257.18 363.82 277.24 
  60 298.59 357.85 277.24 
  61 242.16 398.60 298.59 
  62 291.70 419.61 298.59 
  63 270.66 396.89 298.59 
  64 279.93 429.95 298.59 
  65 305.83 393.08 298.59 
  66 359.52 340.97 305.83 
  67 324.79 345.47 359.52 
  68 327.78 412.48 359.52 
  69 277.98 395.30 359.52 
  70 330.44 412.07 359.52 
  71 321.42 369.10 359.52 
  72 383.03 398.41 359.52 
  73 350.53 397.30 383.03 
  74 277.86 413.96 383.03 
  75 306.32 449.88 383.03 
  76 373.20 448.33 383.03 
  77 330.72 454.05 383.03 
  78 358.66 458.53 383.03 
  79 376.12 454.05 383.03 
  80 393.69 452.11 383.03 
  81 413.06 424.53 393.69 
  82 424.34 439.29 413.06 
  83 390.04 416.72 424.34 
  84 404.76 437.21 424.34 
  85 376.18 445.43 424.34 
  86 392.21 450.50 424.34 
  87 385.24 460.92 424.34 
  88 403.34 454.24 424.34 
  89 422.76 460.30 424.34 
  90 390.20 454.28 424.34 
  91 421.58 449.99 424.34 
  92 417.87 422.69 424.34 
  93 436.69 437.85 424.34 
  94 436.18 470.11 436.69 
  95 418.56 456.96 436.69 
  96 462.67 439.18 436.69 
  97 396.62 446.12 462.67 
  98 430.90 407.42 462.67 
  99 454.98 417.93 462.67 
 100 402.59 402.96 462.67 
 101 412.07 411.73 462.67 
 102 399.70 429.69 462.67 
 103 382.93 425.02 462.67 
 104 385.04 418.75 462.67 
 105 404.51 405.52 462.67 
 106 401.86 418.99 462.67 
 107 373.34 409.66 462.67 
 108 437.52 429.93 462.67 
 109 411.14 447.30 462.67 
 110 455.11 461.47 462.67 
 111 429.66 449.24 462.67 
 112 431.06 470.01 462.67 
 113 424.51 473.04 462.67 
 114 432.40 461.59 462.67 
 115 357.43 482.89 462.67 
 116 450.74 483.50 462.67 
 117 459.26 469.98 462.67 
 118 385.10 455.42 462.67 
 119 430.05 483.67 462.67 
 120 420.39 478.41 462.67 
 121 440.22 463.57 462.67 
 122 410.62 503.72 462.67 
 123 481.98 529.66 462.67 
 124 402.90 538.43 481.98 
 125 419.42 511.11 481.98 
 126 429.55 500.11 481.98 
 127 410.93 494.13 481.98 
 128 423.44 497.99 481.98 
 129 437.60 471.56 481.98 
 130 477.67 486.59 481.98 
 131 426.44 490.20 481.98 
 132 437.48 488.86 481.98 
 133 397.29 479.52 481.98 
 134 459.46 492.87 481.98 
 135 437.80 496.74 481.98 
 136 433.45 511.60 481.98 
 137 453.72 505.75 481.98 
 138 425.36 499.56 481.98 
 139 411.06 510.61 481.98 
 140 473.85 482.56 481.98 
 141 461.87 504.50 481.98 
 142 439.56 517.27 481.98 
 143 445.45 503.59 481.98 
 144 457.55 533.96 481.98 
 145 498.62 522.05 481.98 
 146 479.49 550.70 498.62 
 147 446.73 519.70 498.62 
 148 454.59 528.51 498.62 
 149 491.28 529.02 498.62 
 150 436.57 520.99 498.62 
 151 428.86 526.81 498.62 
 152 459.48 533.89 498.62 
 153 459.12 529.50 498.62 
 154 476.04 534.64 498.62 
 155 519.28 543.65 498.62 
 156 491.13 545.67 519.28 
 157 438.82 553.76 519.28 
 158 501.81 547.27 519.28 
 159 481.86 549.20 519.28 
 160 466.38 583.95 519.28 
 161 519.66 565.72 519.28 
 162 454.38 575.17 519.66 
 163 445.49 575.39 519.66 
 164 440.45 558.78 519.66 
 165 434.49 587.60 519.66 
 166 524.79 585.67 519.66 
 167 487.68 589.55 524.79 
 168 493.09 647.15 524.79 
 169 518.01 546.82 524.79 
 170 494.25 597.97 524.79 
 171 425.89 593.58 524.79 
 172 519.03 618.92 524.79 
 173 465.17 651.33 524.79 
 174 453.22 629.34 524.79 
 175 511.21 602.45 524.79 
 176 485.93 650.78 524.79 
 177 486.61 646.58 524.79 
 178 476.27 623.75 524.79 
 179 510.98 599.84 524.79 
 180 536.85 633.53 524.79 
 181 473.59 636.45 536.85 
 182 496.17 632.64 536.85 
 183 494.65 657.80 536.85 
 184 466.31 626.26 536.85 
 185 480.91 601.40 536.85 
 186 539.43 623.77 536.85 
 187 486.87 624.33 539.43 
 188 495.38 597.32 539.43 
 189 484.60 584.01 539.43 
 190 510.44 595.65 539.43 
 191 481.39 592.09 539.43 
 192 463.72 587.26 539.43 
 193 485.22 600.23 539.43 
 194 488.40 565.03 539.43 
 195 475.80 610.06 539.43 
 196 546.30 611.92 539.43 
 197 472.04 556.06 546.30 
 198 515.08 571.65 546.30 
 199 528.47 590.07 546.30 
 200 483.93 566.00 546.30 
 201 470.17 536.73 546.30 
 202 527.33 578.30 546.30 
 203 507.31 560.05 546.30 
 204 482.84 548.34 546.30 
 205 524.17 559.77 546.30 
 206 494.75 573.18 546.30 
 207 520.88 553.12 546.30 
 208 502.61 572.88 546.30 
 209 523.59 576.71 546.30 
 210 488.28 552.10 546.30 
 211 513.85 558.17 546.30 
 212 502.49 572.38 546.30 
 213 495.11 534.02 546.30 
 214 532.71 571.32 546.30 
 215 452.18 604.30 546.30 
 216 561.19 598.07 546.30 
 217 503.43 575.07 561.19 
 218 529.28 618.28 561.19 
 219 466.95 618.74 561.19 
 220 549.45 661.82 561.19 
 221 503.76 653.17 561.19 
 222 465.48 630.07 561.19 
 223 550.50 616.69 561.19 
 224 523.20 591.60 561.19 
 225 529.69 600.91 561.19 
 226 502.59 607.13 561.19 
 227 475.66 522.46 561.19 
 228 528.47 619.97 561.19 
 229 509.26 621.57 561.19 
 230 516.27 554.77 561.19 
 231 577.31 629.99 561.19 
 232 525.05 597.27 577.31 
 233 512.33 570.56 577.31 
 234 555.89 582.94 577.31 
 235 510.22 573.68 577.31 
 236 524.81 557.02 577.31 
 237 523.81 578.96 577.31 
 238 516.98 620.30 577.31 
 239 518.76 593.44 577.31 
 240 558.63 600.08 577.31 
 241 502.86 594.62 577.31 
 242 512.85 564.42 577.31 
 243 567.10 590.18 577.31 
 244 536.15 607.84 577.31 
 245 559.02 646.40 577.31 
 246 549.40 646.81 577.31 
 247 521.53 639.93 577.31 
 248 550.47 632.33 577.31 
 249 560.35 633.73 577.31 
 250 545.01 645.28 577.31 
 251 533.93 629.92 577.31 
 252 588.63 687.80 577.31 
 253 523.95 691.29 588.63 
 254 517.68 678.95 588.63 
 255 509.64 630.35 588.63 
 256 558.34 636.90 588.63 
 257 549.66 627.50 588.63 
 258 518.10 645.33 588.63 
 259 550.23 651.50 588.63 
 260 493.59 635.14 588.63 
 261 549.99 680.49 588.63 
 262 569.65 665.49 588.63 
 263 563.05 666.98 588.63 
 264 543.32 674.58 588.63 
 265 537.08 694.94 588.63 
 266 529.51 669.92 588.63 
 267 565.09 666.37 588.63 
 268 541.42 697.11 588.63 
 269 532.51 661.54 588.63 
 270 560.16 682.13 588.63 
 271 575.15 691.08 588.63 
 272 572.69 699.68 588.63 
 273 537.82 689.37 588.63 
 274 559.01 686.57 588.63 
 275 570.10 697.57 588.63 
 276 555.75 691.26 588.63 
 277 533.87 691.35 588.63 
 278 542.64 677.13 588.63 
 279 553.69 677.10 588.63 
 280 528.08 669.65 588.63 
 281 542.10 653.41 588.63 
 282 513.95 684.08 588.63 
 283 551.33 691.83 588.63 
 284 553.28 677.26 588.63 
 285 573.07 694.52 588.63 
 286 529.23 670.93 588.63 
 287 523.81 684.90 588.63 
 288 542.74 647.38 588.63 
 289 606.53 671.49 588.63 
 290 554.03 642.44 606.53 
 291 556.50 648.30 606.53 
 292 546.81 660.26 606.53 
 293 552.03 659.72 606.53 
 294 548.95 676.12 606.53 
 295 565.15 632.20 606.53 
 296 531.23 680.28 606.53 
 297 560.35 675.15 606.53 
 298 564.43 675.17 606.53 
 299 565.27 677.81 606.53 
 300 563.94 643.34 606.53 
 301 571.58 651.84 606.53 
 302 548.67 661.12 606.53 
 303 549.21 653.99 606.53 
 304 577.67 668.33 606.53 
 305 553.65 653.91 606.53 
 306 587.42 681.98 606.53 
 307 591.43 677.00 606.53 
 308 560.47 645.18 606.53 
 309 548.50 608.81 606.53 
 310 595.66 617.47 606.53 
 311 582.78 612.18 606.53 
 312 620.55 643.76 606.53 
 313 581.83 623.13 620.55 
 314 574.39 614.78 620.55 
 315 553.18 689.71 620.55 
 316 567.36 607.79 620.55 
 317 572.59 625.80 620.55 
 318 561.79 630.14 620.55 
 319 584.33 685.21 620.55 
 320 563.32 604.54 620.55 
 321 609.17 621.54 620.55 
 322 575.40 632.96 620.55 
 323 544.78 641.55 620.55 
 324 562.15 626.66 620.55 
 325 571.58 633.46 620.55 
 326 577.40 674.27 620.55 
 327 586.21 682.23 620.55 
 328 565.58 651.86 620.55 
 329 571.29 688.31 620.55 
 330 608.70 675.23 620.55 
 331 601.85 696.94 620.55 
 332 576.44 686.72 620.55 
 333 560.62 682.19 620.55 
 334 584.73 654.61 620.55 
 335 587.60 678.66 620.55 
 336 594.72 674.63 620.55 
 337 595.09 686.76 620.55 
 338 586.75 691.09 620.55 
 339 617.97 707.24 620.55 
 340 595.68 696.95 620.55 
 341 614.25 704.65 620.55 
 342 594.13 703.20 620.55 
 343 623.18 701.65 620.55 
 344 610.83 686.57 623.18 
 345 616.58 711.91 623.18 
 346 609.24 708.74 623.18 
 347 601.36 690.10 623.18 
 348 607.40 699.97 623.18 
 349 615.37 704.41 623.18 
 350 600.47 693.45 623.18 
 351 603.52 705.51 623.18 
 352 601.75 696.90 623.18 
 353 607.27 698.40 623.18 
 354 624.39 686.42 623.18 
 355 605.65 688.72 624.39 
 356 615.03 676.76 624.39 
 357 625.55 676.05 624.39 
 358 613.52 677.43 625.55 
 359 611.13 687.49 625.55 
 360 592.40 685.18 625.55 
 361 606.43 670.59 625.55 
 362 606.94 654.15 625.55 
 363 611.78 657.06 625.55 
 364 586.40 667.97 625.55 
 365 593.10 661.70 625.55 
 366 599.63 675.04 625.55 
 367 613.55 683.63 625.55 
 368 601.72 685.68 625.55 
 369 627.58 686.24 625.55 
 370 611.63 694.34 627.58 
 371 590.88 690.41 627.58 
 372 607.16 688.68 627.58 
 373 610.69 684.23 627.58 
 374 611.87 682.07 627.58 
 375 617.84 685.86 627.58 
 376 613.92 688.18 627.58 
 377 623.31 682.95 627.58 
 378 599.41 677.33 627.58 
 379 624.00 687.81 627.58 
 380 632.54 699.40 627.58 
 381 646.75 695.57 632.54 
 382 620.75 703.21 646.75 
 383 615.01 710.50 646.75 
 384 610.88 713.60 646.75 
 385 600.81 714.77 646.75 
 386 630.68 718.21 646.75 
 387 611.40 712.33 646.75 
 388 609.75 705.41 646.75 
 389 611.34 706.38 646.75 
 390 631.66 704.43 646.75 
 391 614.16 719.43 646.75 
 392 599.77 710.51 646.75 
 393 605.09 721.67 646.75 
 394 625.28 703.42 646.75 
 395 642.45 704.07 646.75 
 396 611.69 702.20 646.75 
 397 636.60 697.20 646.75 
 398 622.22 695.44 646.75 
 399 645.60 697.54 646.75 
 400 625.72 704.00 646.75 
 401 637.29 706.95 646.75 
 402 651.51 708.00 646.75 
 403 624.00 717.27 651.51 
 404 622.91 704.83 651.51 
 405 591.55 703.18 651.51 
 406 647.19 689.64 651.51 
 407 626.03 693.98 651.51 
 408 641.39 682.45 651.51 
 409 612.27 674.64 651.51 
 410 625.18 651.29 651.51 
 411 652.63 642.16 651.51 
 412 647.60 651.32 652.63 
 413 643.24 636.52 652.63 
 414 640.16 629.52 652.63 
 415 620.91 625.10 652.63 
 416 639.49 637.02 652.63 
 417 651.76 625.42 652.63 
 418 625.96 636.67 652.63 
 419 636.30 638.64 652.63 
 420 630.34 633.14 652.63 
 421 629.06 633.40 652.63 
 422 640.68 637.74 652.63 
 423 648.58 635.65 652.63 
 424 655.63 643.17 652.63 
 425 639.31 624.47 655.63 
 426 655.02 656.69 655.63 
 427 639.84 660.80 655.63 
 428 638.29 642.29 655.63 
 429 654.07 647.43 655.63 
 430 624.07 657.63 655.63 
 431 660.31 653.48 655.63 
 432 641.28 639.40 660.31 
 433 655.53 654.64 660.31 
 434 637.68 651.56 660.31 
 435 643.10 634.91 660.31 
 436 660.41 635.53 660.31 
 437 658.86 638.05 660.41 
 438 618.55 610.15 660.41 
 439 649.19 615.03 660.41 
 440 638.57 596.78 660.41 
 441 652.94 615.79 660.41 
 442 637.22 600.31 660.41 
 443 648.99 612.44 660.41 
 444 673.67 616.88 660.41 
 445 614.54 618.03 673.67 
 446 640.30 615.90 673.67 
 447 647.77 611.39 673.67 
 448 655.90 615.87 673.67 
 449 643.56 611.38 673.67 
 450 651.99 621.17 673.67 
 451 639.77 606.96 673.67 
 452 668.97 611.92 673.67 
 453 658.87 615.66 673.67 
 454 665.46 607.35 673.67 
 455 647.41 601.76 673.67 
 456 652.60 600.66 673.67 
 457 662.52 588.99 673.67 
 458 641.18 594.10 673.67 
 459 657.48 604.60 673.67 
 460 643.20 587.89 673.67 
 461 652.90 594.45 673.67 
 462 655.03 593.21 673.67 
 463 629.87 590.21 673.67 
 464 651.73 600.86 673.67 
 465 657.07 606.17 673.67 
 466 664.82 621.36 673.67 
 467 650.77 642.91 673.67 
 468 659.24 626.14 673.67 
 469 662.93 606.09 673.67 
 470 657.98 595.79 673.67 
 471 662.12 589.97 673.67 
 472 661.67 604.07 673.67 
 473 662.11 613.99 673.67 
 474 647.45 614.60 673.67 
 475 674.36 610.07 673.67 
 476 675.09 625.46 674.36 
 477 655.17 621.17 675.09 
 478 656.63 630.33 675.09 
 479 671.86 616.08 675.09 
 480 677.10 621.81 675.09 
 481 643.59 622.69 677.10 
 482 658.42 605.73 677.10 
 483 662.74 592.15 677.10 
 484 686.02 582.80 677.10 
 485 653.36 601.18 686.02 
 486 653.20 587.22 686.02 
 487 637.52 619.69 686.02 
 488 637.62 576.39 686.02 
 489 673.80 587.83 686.02 
 490 656.56 588.59 686.02 
 491 657.74 602.71 686.02 
 492 659.62 620.80 686.02 
 493 671.48 621.17 686.02 
 494 671.87 632.55 686.02 
 495 678.04 619.45 686.02 
 496 655.58 606.83 686.02 
 497 680.16 643.63 686.02 
 498 674.57 639.56 686.02 
 499 636.38 629.76 686.02 
 500 673.52 624.11 686.02 
 501 682.31 609.43 686.02 
 502 680.06 619.36 686.02 
 503 668.19 636.71 686.02 
 504 654.34 626.68 686.02 
 505 667.13 589.63 686.02 
 506 653.93 589.80 686.02 
 507 665.74 609.01 686.02 
 508 682.16 595.17 686.02 
 509 662.76 590.53 686.02 
 510 674.43 619.31 686.02 
 511 679.74 626.79 686.02 
 512 675.35 632.45 686.02 
 513 662.88 632.70 686.02 
 514 644.68 629.20 686.02 
 515 663.12 620.67 686.02 
 516 671.97 611.89 686.02 
 517 658.93 607.25 686.02 
 518 665.70 601.25 686.02 
 519 671.94 596.56 686.02 
 520 665.91 594.67 686.02 
 521 672.28 578.93 686.02 
 522 672.19 579.25 686.02 
 523 652.28 564.19 686.02 
 524 670.67 567.59 686.02 
 525 659.37 548.36 686.02 
 526 670.74 563.94 686.02 
 527 662.05 548.15 686.02 
 528 677.55 540.95 686.02 
 529 667.22 543.80 686.02 
 530 679.07 564.08 686.02 
 531 667.10 581.73 686.02 
 532 674.90 559.97 686.02 
 533 666.92 562.45 686.02 
 534 685.33 573.73 686.02 
 535 681.24 581.03 686.02 
 536 683.37 591.24 686.02 
 537 663.33 576.35 686.02 
 538 671.84 570.07 686.02 
 539 678.05 563.10 686.02 
 540 673.20 567.22 686.02 
 541 667.75 569.55 686.02 
 542 680.88 565.57 686.02 
 543 672.78 585.23 686.02 
 544 662.04 559.52 686.02 
 545 677.42 544.87 686.02 
 546 677.25 558.21 686.02 
 547 680.90 557.18 686.02 
 548 672.96 558.46 686.02 
 549 693.86 573.98 686.02 
 550 673.65 598.63 693.86 
 551 677.06 606.32 693.86 
 552 681.26 581.46 693.86 
 553 689.59 608.51 693.86 
 554 665.87 606.83 693.86 
 555 680.35 601.36 693.86 
 556 669.05 595.65 693.86 
 557 672.72 568.28 693.86 
 558 674.22 589.00 693.86 
 559 676.75 577.92 693.86 
 560 680.69 584.56 693.86 
 561 659.70 603.28 693.86 
 562 661.34 593.35 693.86 
 563 695.18 596.06 693.86 
 564 691.45 585.05 695.18 
 565 691.25 587.03 695.18 
 566 678.21 610.27 695.18 
 567 666.81 602.62 695.18 
 568 681.90 584.75 695.18 
 569 678.43 595.70 695.18 
 570 682.10 554.06 695.18 
 571 664.83 579.69 695.18 
 572 670.49 583.04 695.18 
 573 659.00 569.40 695.18 
 574 690.68 587.41 695.18 
 575 688.63 598.64 695.18 
 576 683.57 588.20 695.18 
 577 674.98 608.25 695.18 
 578 691.68 609.84 695.18 
 579 676.57 581.58 695.18 
 580 665.60 598.34 695.18 
 581 679.52 616.79 695.18 
 582 683.89 609.58 695.18 
 583 664.46 609.28 695.18 
 584 655.21 618.20 695.18 
 585 662.54 613.27 695.18 
 586 663.41 597.92 695.18 
 587 670.91 608.35 695.18 
 588 682.03 593.12 695.18 
 589 673.15 554.66 695.18 
 590 669.86 573.66 695.18 
 591 662.20 547.59 695.18 
 592 695.65 553.12 695.18 
 593 663.00 566.71 695.65 
 594 681.25 575.17 695.65 
 595 678.53 585.12 695.65 
 596 685.31 623.84 695.65 
 597 675.52 633.64 695.65 
 598 665.81 631.04 695.65 
 599 679.99 635.60 695.65 
 600 665.43 621.74 695.65 
 601 664.86 599.56 695.65 
 602 690.24 611.58 695.65 
 603 683.00 604.74 695.65 
 604 660.06 565.18 695.65 
 605 696.10 554.64 695.65 
 606 674.80 546.47 696.10 
 607 690.48 600.62 696.10 
 608 690.86 597.04 696.10 
 609 672.73 596.48 696.10 
 610 676.96 623.00 696.10 
 611 661.99 587.49 696.10 
 612 676.40 600.45 696.10 
 613 684.71 597.99 696.10 
 614 685.22 614.56 696.10 
 615 680.90 600.39 696.10 
 616 677.95 581.80 696.10 
 617 683.84 594.27 696.10 
 618 692.37 587.96 696.10 
 619 690.75 589.53 696.10 
 620 700.35 567.87 696.10 
 621 696.08 559.71 700.35 
 622 682.67 571.15 700.35 
 623 694.88 591.10 700.35 
 624 690.85 588.72 700.35 
 625 678.21 587.88 700.35 
 626 686.83 585.97 700.35 
 627 691.59 603.00 700.35 
 628 682.00 594.22 700.35 
 629 674.53 584.99 700.35 
 630 678.47 571.01 700.35 
 631 679.43 599.15 700.35 
 632 686.68 582.59 700.35 
 633 680.85 557.22 700.35 
 634 668.36 542.00 700.35 
 635 689.31 562.58 700.35 
 636 680.76 577.16 700.35 
 637 689.83 547.38 700.35 
 638 672.52 576.18 700.35 
 639 683.14 586.84 700.35 
 640 691.48 565.27 700.35 
 641 674.25 602.93 700.35 
 642 688.64 556.74 700.35 
 643 684.20 597.44 700.35 
 644 687.74 610.11 700.35 
 645 687.04 594.70 700.35 
 646 676.89 605.10 700.35 
 647 690.18 608.37 700.35 
 648 681.12 631.09 700.35 
 649 688.26 626.92 700.35 
 650 692.11 635.87 700.35 
 651 679.63 633.25 700.35 
 652 679.90 628.01 700.35 
 653 672.92 610.26 700.35 
 654 688.54 584.07 700.35 
 655 694.71 575.66 700.35 
 656 696.71 572.71 700.35 
 657 665.11 570.00 700.35 
 658 681.44 560.69 700.35 
 659 690.47 561.80 700.35 
 660 675.39 585.49 700.35 
 661 683.43 584.94 700.35 
 662 689.06 604.05 700.35 
 663 658.26 601.34 700.35 
 664 693.91 621.06 700.35 
 665 673.80 592.87 700.35 
 666 682.68 611.16 700.35 
 667 681.02 599.13 700.35 
 668 680.17 596.70 700.35 
 669 678.60 587.72 700.35 
 670 679.54 575.35 700.35 
 671 682.56 570.49 700.35 
 672 673.10 566.85 700.35 
 673 683.95 579.63 700.35 
 674 679.14 591.94 700.35 
 675 674.29 589.18 700.35 
 676 680.96 597.83 700.35 
 677 658.75 597.73 700.35 
 678 681.32 609.70 700.35 
 679 678.34 580.59 700.35 
 680 680.63 577.32 700.35 
 681 674.24 594.28 700.35 
 682 677.70 610.67 700.35 
 683 682.05 613.98 700.35 
 684 693.79 608.87 700.35 
 685 687.53 589.79 700.35 
 686 681.42 579.99 700.35 
 687 695.76 573.31 700.35 
 688 697.71 568.62 700.35 
 689 700.22 588.60 700.35 
 690 704.32 587.52 700.35 
 691 688.67 598.72 704.32 
 692 682.51 588.53 704.32 
 693 682.56 606.86 704.32 
 694 697.82 598.42 704.32 
 695 686.69 613.31 704.32 
 696 684.54 599.93 704.32 
 697 694.17 605.87 704.32 
 698 701.58 580.54 704.32 
 699 683.26 590.88 704.32 
 700 684.98 570.85 704.32 
 701 667.86 579.43 704.32 
 702 705.50 601.02 704.32 
 703 681.35 603.81 705.50 
 704 696.06 605.03 705.50 
 705 678.38 605.93 705.50 
 706 681.82 599.10 705.50 
 707 663.82 580.09 705.50 
 708 677.20 588.54 705.50 
 709 702.86 594.22 705.50 
 710 684.93 596.11 705.50 
 711 678.23 591.67 705.50 
 712 677.23 593.19 705.50 
 713 689.16 595.04 705.50 
 714 693.10 569.31 705.50 
 715 673.49 541.77 705.50 
 716 701.13 555.55 705.50 
 717 698.25 603.44 705.50 
 718 677.65 591.94 705.50 
 719 690.26 604.21 705.50 
 720 684.67 607.72 705.50 
 721 687.60 589.67 705.50 
 722 687.46 580.79 705.50 
 723 681.15 597.27 705.50 
 724 674.53 586.73 705.50 
 725 665.80 573.28 705.50 
 726 661.59 567.67 705.50 
 727 680.29 589.56 705.50 
 728 685.99 588.24 705.50 
 729 702.95 617.82 705.50 
 730 691.76 605.19 705.50 
 731 670.34 584.99 705.50 
 732 676.57 562.67 705.50 
 733 662.43 555.80 705.50 
 734 675.42 572.27 705.50 
 735 690.29 577.17 705.50 
 736 695.44 593.03 705.50 
 737 691.96 594.62 705.50 
 738 675.56 586.65 705.50 
 739 683.88 605.09 705.50 
 740 690.39 589.76 705.50 
 741 693.58 582.00 705.50 
 742 669.20 588.27 705.50 
 743 679.26 585.34 705.50 
 744 679.24 600.10 705.50 
 745 670.96 592.05 705.50 
 746 680.15 592.63 705.50 
 747 685.16 633.47 705.50 
 748 670.39 620.77 705.50 
 749 663.89 606.06 705.50 
 750 691.85 596.42 705.50 
 751 683.62 604.76 705.50 
 752 686.69 596.20 705.50 
 753 674.54 590.31 705.50 
 754 681.95 575.26 705.50 
 755 690.39 566.89 705.50 
 756 691.58 571.02 705.50 
 757 685.19 579.97 705.50 
 758 696.03 583.61 705.50 
 759 689.15 570.17 705.50 
 760 690.31 551.98 705.50 
 761 695.19 534.85 705.50 
 762 683.68 531.44 705.50 
 763 680.30 566.14 705.50 
 764 692.76 554.76 705.50 
 765 674.60 550.94 705.50 
 766 690.41 544.89 705.50 
 767 693.55 573.00 705.50 
 768 653.42 560.21 705.50 
 769 681.91 562.09 705.50 
 770 677.17 547.28 705.50 
 771 670.44 532.33 705.50 
 772 685.86 546.93 705.50 
 773 700.11 559.15 705.50 
 774 675.18 534.02 705.50 
 775 691.36 541.39 705.50 
 776 685.00 548.40 705.50 
 777 686.45 541.19 705.50 
 778 684.73 541.14 705.50 
 779 682.22 560.73 705.50 
 780 658.30 572.13 705.50 
 781 704.39 556.53 705.50 
 782 694.55 551.50 705.50 
 783 698.75 556.95 705.50 
 784 693.29 523.65 705.50 
 785 679.61 518.62 705.50 
 786 696.39 519.28 705.50 
 787 675.24 465.17 705.50 
 788 675.07 466.20 705.50 
 789 678.34 473.59 705.50 
 790 689.02 536.54 705.50 
 791 675.37 524.24 705.50 
 792 693.12 524.44 705.50 
 793 689.26 536.74 705.50 
 794 713.16 528.20 705.50 
 795 687.50 521.11 713.16 
 796 683.85 562.65 713.16 
 797 686.23 528.80 713.16 
 798 676.33 548.27 713.16 
 799 658.21 540.71 713.16 
 800 689.98 544.53 713.16 
 801 665.01 563.59 713.16 
 802 679.23 561.77 713.16 
 803 691.91 561.75 713.16 
 804 692.47 517.56 713.16 
 805 690.37 507.95 713.16 
 806 689.41 514.80 713.16 
 807 673.96 558.54 713.16 
 808 691.33 559.13 713.16 
 809 672.47 561.63 713.16 
 810 677.89 539.58 713.16 
 811 705.79 529.35 713.16 
 812 700.43 537.91 713.16 
 813 702.64 540.17 713.16 
 814 680.46 530.41 713.16 
 815 707.73 564.22 713.16 
 816 672.66 556.16 713.16 
 817 670.56 535.46 713.16 
 818 677.27 520.89 713.16 
 819 684.27 535.64 713.16 
 820 681.22 559.19 713.16 
 821 693.08 580.80 713.16 
 822 682.61 529.70 713.16 
 823 699.96 563.69 713.16 
 824 680.68 580.33 713.16 
 825 685.79 550.38 713.16 
 826 689.25 555.92 713.16 
 827 663.45 560.06 713.16 
 828 683.52 545.74 713.16 
 829 695.00 540.31 713.16 
 830 670.71 522.93 713.16 
 831 690.75 541.94 713.16 
 832 680.94 576.48 713.16 
 833 684.78 560.70 713.16 
 834 689.30 552.38 713.16 
 835 690.17 563.75 713.16 
 836 691.13 584.38 713.16 
 837 692.71 592.92 713.16 
 838 676.17 599.38 713.16 
 839 684.38 591.59 713.16 
 840 697.92 585.00 713.16 
 841 691.89 598.62 713.16 
 842 684.59 602.25 713.16 
 843 692.88 581.18 713.16 
 844 695.99 560.75 713.16 
 845 691.85 575.60 713.16 
 846 694.08 552.69 713.16 
 847 703.63 546.79 713.16 
 848 695.14 553.86 713.16 
 849 694.94 561.22 713.16 
 850 680.35 572.53 713.16 
 851 688.68 603.11 713.16 
 852 670.10 588.19 713.16 
 853 680.38 578.00 713.16 
 854 680.11 567.61 713.16 
 855 689.99 571.85 713.16 
 856 686.97 578.38 713.16 
 857 685.32 580.59 713.16 
 858 695.77 587.32 713.16 
 859 694.69 588.51 713.16 
 860 694.67 575.13 713.16 
 861 670.56 568.92 713.16 
 862 694.71 584.18 713.16 
 863 691.43 588.28 713.16 
 864 700.82 579.49 713.16 
 865 687.66 567.36 713.16 
 866 688.19 577.90 713.16 
 867 681.81 568.16 713.16 
 868 694.45 573.94 713.16 
 869 685.19 553.10 713.16 
 870 678.20 567.46 713.16 
 871 685.89 566.47 713.16 
 872 679.85 508.74 713.16 
 873 689.28 529.27 713.16 
 874 683.57 538.90 713.16 
 875 689.21 558.93 713.16 
 876 701.47 565.64 713.16 
 877 687.08 574.35 713.16 
 878 699.75 600.87 713.16 
 879 674.09 605.55 713.16 
 880 682.75 593.97 713.16 
 881 676.49 605.42 713.16 
 882 685.62 631.01 713.16 
 883 693.89 617.01 713.16 
 884 689.08 650.28 713.16 
 885 680.97 640.46 713.16 
 886 663.69 632.63 713.16 
 887 679.02 616.12 713.16 
 888 678.99 620.84 713.16 
 889 687.80 591.23 713.16 
 890 695.98 578.12 713.16 
 891 694.83 600.58 713.16 
 892 686.09 592.82 713.16 
 893 682.71 578.71 713.16 
 894 696.17 564.29 713.16 
 895 690.37 581.33 713.16 
 896 708.71 606.67 713.16 
 897 665.25 620.44 713.16 
 898 691.97 593.77 713.16 
 899 689.98 583.94 713.16 
 900 685.84 584.66 713.16 
 901 680.76 578.24 713.16 
 902 691.53 588.59 713.16 
 903 681.07 610.96 713.16 
 904 703.08 582.00 713.16 
 905 700.45 579.74 713.16 
 906 694.19 578.40 713.16 
 907 689.13 591.47 713.16 
 908 693.88 573.58 713.16 
 909 691.30 568.92 713.16 
 910 689.45 567.18 713.16 
 911 687.22 566.01 713.16 
 912 679.14 576.72 713.16 
 913 690.10 568.55 713.16 
 914 684.01 579.56 713.16 
 915 704.98 571.51 713.16 
 916 707.89 551.17 713.16 
 917 696.79 541.91 713.16 
 918 690.40 571.76 713.16 
 919 688.90 559.82 713.16 
 920 691.50 554.95 713.16 
 921 668.42 551.71 713.16 
 922 701.77 581.48 713.16 
 923 679.12 573.67 713.16 
 924 684.30 548.35 713.16 
 925 680.15 573.83 713.16 
 926 685.26 575.66 713.16 
 927 690.96 585.25 713.16 
 928 695.40 576.93 713.16 
 929 698.62 576.61 713.16 
 930 691.80 586.06 713.16 
 931 675.52 592.57 713.16 
 932 681.38 600.35 713.16 
 933 701.04 594.36 713.16 
 934 688.87 604.27 713.16 
 935 684.63 614.67 713.16 
 936 707.25 622.22 713.16 
 937 694.06 615.26 713.16 
 938 702.35 610.54 713.16 
 939 694.70 589.73 713.16 
 940 703.64 596.88 713.16 
 941 687.62 603.01 713.16 
 942 697.64 598.56 713.16 
 943 699.46 598.62 713.16 
 944 695.61 587.44 713.16 
 945 683.57 545.80 713.16 
 946 691.92 558.79 713.16 
 947 690.70 569.31 713.16 
 948 686.33 587.19 713.16 
 949 686.44 581.93 713.16 
 950 689.58 643.29 713.16 
 951 687.25 638.97 713.16 
 952 700.48 662.08 713.16 
 953 682.70 649.56 713.16 
 954 689.61 625.43 713.16 
 955 695.91 621.94 713.16 
 956 692.54 640.18 713.16 
 957 671.88 648.94 713.16 
 958 674.22 629.32 713.16 
 959 688.76 615.21 713.16 
 960 697.49 618.76 713.16 
 961 677.74 605.05 713.16 
 962 686.17 619.79 713.16 
 963 693.66 610.63 713.16 
 964 702.61 605.69 713.16 
 965 694.21 591.42 713.16 
 966 684.30 582.55 713.16 
 967 693.87 611.88 713.16 
 968 695.91 591.86 713.16 
 969 687.99 610.41 713.16 
 970 697.65 621.68 713.16 
 971 696.33 633.02 713.16 
 972 671.33 613.63 713.16 
 973 686.49 606.78 713.16 
 974 693.12 597.03 713.16 
 975 677.95 571.50 713.16 
 976 688.00 588.10 713.16 
 977 703.88 581.87 713.16 
 978 704.86 599.86 713.16 
 979 699.25 592.74 713.16 
 980 687.81 593.63 713.16 
 981 697.80 595.46 713.16 
 982 695.23 575.50 713.16 
 983 686.83 580.84 713.16 
 984 692.86 551.78 713.16 
 985 691.91 584.03 713.16 
 986 699.94 579.80 713.16 
 987 694.89 595.94 713.16 
 988 688.08 583.37 713.16 
 989 679.02 578.65 713.16 
 990 690.76 604.83 713.16 
 991 698.71 580.18 713.16 
 992 689.45 583.32 713.16 
 993 688.87 601.02 713.16 
 994 690.05 600.69 713.16 
 995 680.30 594.89 713.16 
 996 704.54 612.25 713.16 
 997 702.62 611.68 713.16 
 998 702.25 607.54 713.16 
 999 688.49 597.99 713.16 
1000 698.86 590.88 713.16 
1001 702.87 572.62 713.16 
1002 698.11 586.03 713.16 
1003 692.69 595.76 713.16 
1004 703.67 607.24 713.16 
1005 699.03 602.44 713.16 
1006 683.26 597.52 713.16 
1007 696.79 578.36 713.16 
1008 681.80 578.26 713.16 
1009 685.61 582.70 713.16 
1010 672.49 600.77 713.16 
1011 686.56 610.89 713.16 
1012 693.39 622.21 713.16 
1013 692.24 630.36 713.16 
1014 689.81 630.54 713.16 
1015 688.29 654.31 713.16 
1016 693.95 638.02 713.16 
1017 689.92 631.63 713.16 
1018 697.55 628.68 713.16 
1019 688.10 617.48 713.16 
1020 699.82 625.02 713.16 
1021 683.90 642.22 713.16 
1022 703.89 620.93 713.16 
1023 700.87 624.65 713.16 
1024 700.39 626.19 713.16 
1025 702.67 639.66 713.16 
1026 697.90 611.81 713.16 
1027 688.11 610.91 713.16 
1028 688.38 635.05 713.16 
1029 690.05 640.49 713.16 
1030 708.28 629.46 713.16 
1031 688.32 638.99 713.16 
1032 693.63 647.88 713.16 
1033 690.90 635.38 713.16 
1034 692.66 660.95 713.16 
1035 699.64 663.94 713.16 
1036 692.44 654.33 713.16 
1037 699.19 662.38 713.16 
1038 699.54 655.92 713.16 
1039 703.92 659.18 713.16 
1040 684.87 667.21 713.16 
1041 678.68 662.01 713.16 
1042 701.57 664.81 713.16 
1043 706.96 656.15 713.16 
1044 675.95 641.09 713.16 
1045 682.81 677.71 713.16 
1046 696.23 664.93 713.16 
1047 692.18 637.31 713.16 
1048 701.00 633.97 713.16 
1049 701.09 649.89 713.16 
1050 695.46 652.17 713.16 
1051 684.67 625.57 713.16 
1052 711.66 667.23 713.16 
1053 705.11 654.73 713.16 
1054 688.89 637.46 713.16 
1055 687.45 628.06 713.16 
1056 679.74 617.30 713.16 
1057 686.55 598.95 713.16 
1058 692.82 598.79 713.16 
1059 685.69 593.89 713.16 
1060 693.11 612.21 713.16 
1061 691.60 621.76 713.16 
1062 713.15 626.56 713.16 
1063 682.01 619.81 713.16 
1064 688.90 596.67 713.16 
1065 679.76 620.18 713.16 
1066 689.29 620.03 713.16 
1067 678.54 588.04 713.16 
1068 684.05 598.75 713.16 
1069 690.90 619.36 713.16 
1070 704.57 615.86 713.16 
1071 685.56 625.25 713.16 
1072 696.67 624.28 713.16 
1073 684.64 637.01 713.16 
1074 688.32 606.97 713.16 
1075 699.12 611.17 713.16 
1076 677.60 609.79 713.16 
1077 696.94 619.82 713.16 
1078 695.10 623.48 713.16 
1079 686.56 618.96 713.16 
1080 687.62 600.36 713.16 
1081 694.57 576.79 713.16 
1082 690.76 614.46 713.16 
1083 689.95 633.74 713.16 
1084 704.80 602.24 713.16 
1085 708.89 590.87 713.16 
1086 706.40 592.78 713.16 
1087 694.30 609.00 713.16 
1088 689.68 592.60 713.16 
1089 693.07 565.98 713.16 
1090 695.15 583.49 713.16 
1091 689.81 570.47 713.16 
1092 681.15 558.30 713.16 
1093 695.74 607.13 713.16 
1094 700.58 621.92 713.16 
1095 688.00 641.90 713.16 
1096 692.04 638.18 713.16 
1097 685.22 638.67 713.16 
1098 682.65 612.56 713.16 
1099 694.80 623.95 713.16 
1100 675.98 623.93 713.16 
1101 688.98 642.38 713.16 
1102 675.14 606.64 713.16 
1103 677.15 598.14 713.16 
1104 697.29 589.96 713.16 
1105 686.86 598.03 713.16 
1106 688.57 615.61 713.16 
1107 694.09 622.07 713.16 
1108 699.25 612.45 713.16 
1109 697.13 615.92 713.16 
1110 682.57 618.90 713.16 
1111 680.86 610.68 713.16 
1112 699.28 631.12 713.16 
1113 705.34 603.56 713.16 
1114 705.34 629.75 713.16 
1115 705.85 628.77 713.16 
1116 666.79 633.79 713.16 
1117 701.03 642.39 713.16 
1118 708.93 613.87 713.16 
1119 695.74 648.60 713.16 
1120 703.23 618.68 713.16 
1121 688.10 590.56 713.16 
1122 688.85 605.90 713.16 
1123 694.88 595.21 713.16 
1124 680.72 604.36 713.16 
1125 694.73 596.52 713.16 
1126 687.54 603.60 713.16 
1127 688.18 638.63 713.16 
1128 678.11 644.95 713.16 
1129 702.21 625.95 713.16 
1130 703.39 640.97 713.16 
1131 707.12 656.71 713.16 
1132 681.03 666.75 713.16 
1133 687.81 630.28 713.16 
1134 685.29 647.68 713.16 
1135 691.89 601.67 713.16 
1136 702.49 619.13 713.16 
1137 693.49 614.78 713.16 
1138 670.38 646.72 713.16 
1139 691.15 636.82 713.16 
1140 688.65 625.83 713.16 
1141 678.93 632.37 713.16 
1142 708.04 640.37 713.16 
1143 697.67 632.07 713.16 
1144 688.70 623.80 713.16 
1145 687.69 614.08 713.16 
1146 691.22 631.93 713.16 
1147 695.24 632.37 713.16 
1148 704.79 624.57 713.16 
1149 695.44 620.33 713.16 
1150 694.49 600.76 713.16 
1151 691.19 614.79 713.16 
1152 686.78 605.41 713.16 
1153 682.44 611.86 713.16 
1154 699.52 626.32 713.16 
1155 683.23 622.75 713.16 
1156 700.47 605.08 713.16 
1157 701.02 623.64 713.16 
1158 692.25 633.36 713.16 
1159 693.60 613.18 713.16 
1160 692.65 582.41 713.16 
1161 697.85 573.83 713.16 
1162 703.21 595.93 713.16 
1163 690.60 575.54 713.16 
1164 694.09 571.63 713.16 
1165 682.17 565.90 713.16 
1166 701.63 535.40 713.16 
1167 678.26 588.68 713.16 
1168 694.34 597.95 713.16 
1169 675.95 591.58 713.16 
1170 693.70 592.70 713.16 
1101 683.17 638.69 -100000000.00 
1102 704.29 646.17 683.17 
1103 690.92 626.60 704.29 
1104 689.23 647.22 704.29 
1105 683.82 644.47 704.29 
1106 681.19 659.69 704.29 
1107 686.53 646.12 704.29 
1108 676.60 630.42 704.29 
1109 697.10 631.93 704.29 
1110 708.45 615.37 704.29 
1111 693.80 620.93 708.45 
1112 698.47 631.44 708.45 
1113 687.77 619.66 708.45 
1114 702.95 628.78 708.45 
1115 708.79 637.11 708.45 
1116 688.74 647.43 708.79 
1117 692.12 656.63 708.79 
1118 706.46 648.25 708.79 
1119 703.53 655.46 708.79 
1120 666.96 648.24 708.79 
1121 696.47 608.07 708.79 
1122 696.33 611.30 708.79 
1123 694.56 616.29 708.79 
1124 680.50 572.59 708.79 
1125 697.82 593.24 708.79 
1126 671.60 575.70 708.79 
1127 693.17 576.13 708.79 
1128 687.53 595.61 708.79 
1129 696.83 601.05 708.79 
1130 702.15 604.90 708.79 
1131 703.25 620.43 708.79 
1132 685.17 622.67 708.79 
1133 696.74 614.87 708.79 
1134 700.47 609.33 708.79 
1135 688.78 611.13 708.79 
1136 692.91 611.56 708.79 
1137 677.60 590.63 708.79 
1138 689.04 582.13 708.79 
1139 685.02 593.13 708.79 
1140 688.70 614.79 708.79 
1141 685.23 617.15 708.79 
1142 679.11 627.45 708.79 
1143 689.69 596.11 708.79 
1144 681.36 601.10 708.79 
1145 689.17 636.09 708.79 
1146 695.43 617.35 708.79 
1147 696.01 618.30 708.79 
1148 691.00 632.56 708.79 
1149 690.94 604.23 708.79 
1150 686.10 604.12 708.79 
1151 693.09 598.69 708.79 
1152 683.16 620.01 708.79 
1153 692.77 607.60 708.79 
1154 687.32 615.22 708.79 
1155 689.13 624.46 708.79 
1156 691.59 628.70 708.79 
1157 675.58 624.91 708.79 
1158 714.51 624.03 708.79 
1159 708.03 625.50 714.51 
1160 674.70 625.14 714.51 
1161 695.10 645.02 714.51 
1162 702.63 656.66 714.51 
1163 679.04 635.07 714.51 
1164 702.34 608.41 714.51 
1165 689.22 607.07 714.51 
1166 686.71 629.03 714.51 
1167 700.95 608.22 714.51 
1168 667.39 610.92 714.51 
1169 693.11 570.40 714.51 
1170 702.72 598.67 714.51 
1171 690.88 614.13 714.51 
1172 699.29 603.84 714.51 
1173 687.46 614.63 714.51 
1174 699.38 588.01 714.51 
1175 667.73 584.22 714.51 
1176 708.16 616.46 714.51 
1177 697.67 593.70 714.51 
1178 685.77 605.98 714.51 
1179 687.80 606.79 714.51 
1180 696.94 586.14 714.51 
1181 700.07 589.68 714.51 
1182 691.14 582.15 714.51 
1183 691.05 577.64 714.51 
1184 699.80 609.63 714.51 
1185 692.02 627.64 714.51 
1186 694.91 610.70 714.51 
1187 691.87 615.71 714.51 
1188 708.27 610.01 714.51 
1189 692.46 579.88 714.51 
1190 694.97 574.13 714.51 
1191 685.97 574.82 714.51 
1192 688.26 573.29 714.51 
1193 687.34 565.79 714.51 
1194 695.33 551.74 714.51 
1195 684.29 565.24 714.51 
1196 698.01 580.68 714.51 
1197 690.39 612.40 714.51 
1198 682.34 613.49 714.51 
1199 694.26 570.40 714.51 
1200 685.92 589.36 714.51 
1201 687.27 597.04 714.51 
1202 699.89 572.05 714.51 
1203 682.31 594.76 714.51 
1204 697.33 592.93 714.51 
1205 699.76 617.91 714.51 
1206 681.32 581.20 714.51 
1207 687.86 601.90 714.51 
1208 689.99 604.65 714.51 
1209 700.61 639.19 714.51 
1210 687.79 629.91 714.51 
1211 708.63 632.42 714.51 
1212 691.46 602.48 714.51 
1213 683.30 604.83 714.51 
1214 693.50 600.85 714.51 
1215 695.77 589.34 714.51 
1216 701.59 575.50 714.51 
1217 687.98 588.51 714.51 
1218 695.66 572.95 714.51 
1219 705.14 606.33 714.51 
1220 695.14 588.73 714.51 
1221 699.34 572.90 714.51 
1222 683.85 546.74 714.51 
1223 679.11 560.12 714.51 
1224 693.57 568.28 714.51 
1225 676.15 557.30 714.51 
1226 697.32 572.87 714.51 
1227 679.70 567.10 714.51 
1228 685.07 584.17 714.51 
1229 686.44 584.43 714.51 
1230 674.45 616.32 714.51 
1231 688.49 595.58 714.51 
1232 688.99 614.39 714.51 
1233 695.90 587.70 714.51 
1234 696.42 575.02 714.51 
1235 686.17 598.92 714.51 
1236 686.28 582.94 714.51 
1237 702.61 591.26 714.51 
1238 677.87 587.56 714.51 
1239 698.82 603.18 714.51 
1240 690.07 626.06 714.51 
1241 680.45 619.43 714.51 
1242 686.90 636.95 714.51 
1243 701.26 640.50 714.51 
1244 680.10 637.69 714.51 
1245 699.62 616.34 714.51 
1246 715.40 619.36 714.51 
1247 700.10 619.38 715.40 
1248 667.56 610.48 715.40 
1249 687.26 578.73 715.40 
1250 684.72 580.66 715.40 
1251 694.19 603.63 715.40 
1252 700.24 619.54 715.40 
1253 683.96 613.84 715.40 
1254 701.79 632.26 715.40 
1255 692.94 619.81 715.40 
1256 703.29 642.75 715.40 
1257 692.52 628.25 715.40 
1258 691.97 628.53 715.40 
1259 694.08 637.09 715.40 
1260 680.02 626.09 715.40 
1261 699.78 602.05 715.40 
1262 694.71 621.06 715.40 
1263 701.04 609.64 715.40 
1264 697.76 623.45 715.40 
1265 694.09 612.37 715.40 
1266 692.44 609.05 715.40 
1267 692.33 594.42 715.40 
1268 704.56 595.60 715.40 
1269 689.89 587.27 715.40 
1270 683.63 583.26 715.40 
1271 696.27 587.13 715.40 
1272 690.56 597.85 715.40 
1273 688.70 569.62 715.40 
1274 685.83 578.01 715.40 
1275 698.01 552.18 715.40 
1276 697.68 563.25 715.40 
1277 702.60 562.37 715.40 
1278 691.25 554.60 715.40 
1279 701.72 559.62 715.40 
1280 691.90 570.64 715.40 
1281 699.54 572.93 715.40 
1282 696.58 567.27 715.40 
1283 706.85 584.97 715.40 
1284 694.83 565.42 715.40 
1285 687.27 556.92 715.40 
1286 688.97 579.93 715.40 
1287 697.18 573.03 715.40 
1288 707.79 599.63 715.40 
1289 691.99 564.44 715.40 
1290 692.33 591.06 715.40 
1291 697.39 587.89 715.40 
1292 699.33 616.40 715.40 
1293 696.87 608.42 715.40 
1294 697.28 611.77 715.40 
1295 708.80 620.31 715.40 
1296 690.49 611.34 715.40 
1297 691.56 596.66 715.40 
1298 702.36 602.47 715.40 
1299 692.91 602.44 715.40 
1300 679.60 602.75 715.40 
1301 691.88 577.65 715.40 
1302 704.31 590.51 715.40 
1303 695.38 589.22 715.40 
1304 686.04 591.81 715.40 
1305 704.95 609.34 715.40 
1306 680.95 599.61 715.40 
1307 673.99 568.51 715.40 
1308 693.19 577.24 715.40 
1309 694.07 590.43 715.40 
1310 695.33 575.92 715.40 
1311 694.51 588.07 715.40 
1312 682.05 578.70 715.40 
1313 700.18 572.59 715.40 
1314 699.22 578.25 715.40 
1315 708.36 582.96 715.40 
1316 696.12 599.96 715.40 
1317 695.36 566.52 715.40 
1318 683.24 567.32 715.40 
1319 683.35 570.69 715.40 
1320 694.84 589.02 715.40 
1321 704.76 568.19 715.40 
1322 709.50 589.14 715.40 
1323 678.89 582.80 715.40 
1324 691.94 598.02 715.40 
1325 701.67 624.96 715.40 
1326 698.03 612.93 715.40 
1327 680.89 610.97 715.40 
1328 683.63 616.15 715.40 
1329 699.83 601.13 715.40 
1330 689.33 618.34 715.40 
1331 694.33 628.65 715.40 
1332 689.69 625.76 715.40 
1333 674.23 628.53 715.40 
1334 685.02 630.02 715.40 
1335 689.37 596.55 715.40 
1336 689.03 625.68 715.40 
1337 684.15 622.34 715.40 
1338 669.50 586.99 715.40 
1339 679.16 597.07 715.40 
1340 699.98 598.20 715.40 
1341 688.85 614.06 715.40 
1342 687.46 623.37 715.40 
1343 689.42 602.21 715.40 
1344 699.44 623.52 715.40 
1345 695.72 590.58 715.40 
1346 684.82 598.84 715.40 
1347 690.32 610.31 715.40 
1348 682.35 576.17 715.40 
1349 703.41 568.33 715.40 
1350 690.25 571.94 715.40 
1351 693.73 587.70 715.40 
1352 680.17 577.57 715.40 
1353 715.43 608.16 715.40 
1354 667.75 610.54 715.43 
1355 687.38 603.54 715.43 
1356 682.06 630.48 715.43 
1357 700.61 645.41 715.43 
1358 699.03 632.60 715.43 
1359 701.43 631.90 715.43 
1360 712.98 641.21 715.43 
1361 678.19 624.36 715.43 
1362 692.46 621.76 715.43 
1363 684.30 632.24 715.43 
1364 679.86 610.90 715.43 
1365 693.72 618.11 715.43 
1366 684.49 615.54 715.43 
1367 701.43 619.54 715.43 
1368 696.16 616.19 715.43 
1369 694.54 593.94 715.43 
1370 684.88 625.51 715.43 
1371 706.94 624.27 715.43 
1372 709.17 632.84 715.43 
1373 696.21 629.03 715.43 
1374 692.66 641.97 715.43 
1375 697.27 630.81 715.43 
1376 691.42 609.94 715.43 
1377 695.03 616.07 715.43 
1378 692.68 627.23 715.43 
1379 691.07 646.13 715.43 
1380 680.28 640.78 715.43 
1381 702.33 633.79 715.43 
1382 680.67 633.01 715.43 
1383 655.85 614.16 715.43 
1384 700.65 584.70 715.43 
1385 698.48 576.53 715.43 
1386 684.97 574.07 715.43 
1387 677.33 554.15 715.43 
1388 681.53 600.36 715.43 
1389 683.48 599.80 715.43 
1390 691.01 597.67 715.43 
1391 682.10 580.57 715.43 
1392 695.74 577.42 715.43 
1393 696.37 561.63 715.43 
1394 689.27 552.58 715.43 
1395 701.07 565.64 715.43 
1396 688.34 553.94 715.43 
1397 695.46 561.32 715.43 
1398 697.84 569.33 715.43 
1399 694.70 555.37 715.43 
1400 696.90 561.58 715.43 
1401 694.95 571.98 715.43 
1402 699.38 585.76 715.43 
1403 698.11 589.84 715.43 
1404 682.91 559.63 715.43 
1405 692.35 544.87 715.43 
1406 702.27 559.56 715.43 
1407 694.33 559.36 715.43 
1408 690.18 553.28 715.43 
1409 705.44 550.31 715.43 
1410 678.63 525.43 715.43 
1411 702.90 554.36 715.43 
1412 678.06 543.68 715.43 
1413 691.65 544.82 715.43 
1414 684.81 537.58 715.43 
1415 681.09 546.30 715.43 
1416 697.60 552.06 715.43 
1417 695.10 528.16 715.43 
1418 692.96 566.43 715.43 
1419 689.02 523.69 715.43 
1420 693.51 544.18 715.43 
1421 679.42 561.19 715.43 
1422 688.68 567.90 715.43 
1423 692.93 583.76 715.43 
1424 690.88 586.51 715.43 
1425 700.71 587.06 715.43 
1426 699.09 606.78 715.43 
1427 682.60 595.64 715.43 
1428 698.19 598.68 715.43 
1429 693.03 603.86 715.43 
1430 684.45 601.62 715.43 
1431 681.00 596.61 715.43 
1432 693.60 599.21 715.43 
1433 685.93 617.93 715.43 
1434 678.53 610.31 715.43 
1435 672.13 592.17 715.43 
1436 700.13 614.72 715.43 
1437 693.82 597.06 715.43 
1438 697.70 592.74 715.43 
1439 691.76 594.18 715.43 
1440 700.02 602.06 715.43 
1441 703.42 576.15 715.43 
1442 699.71 606.31 715.43 
1443 677.95 606.48 715.43 
1444 692.77 574.03 715.43 
1445 677.12 559.27 715.43 
1446 698.37 550.14 715.43 
1447 687.86 564.75 715.43 
1448 691.91 569.11 715.43 
1449 685.25 567.07 715.43 
1450 694.25 597.96 715.43 
1451 688.07 611.87 715.43 
1452 691.64 588.17 715.43 
1453 691.60 570.30 715.43 
1454 681.65 565.45 715.43 
1455 700.47 537.15 715.43 
1456 691.70 560.93 715.43 
1457 681.62 561.03 715.43 
1458 679.03 562.99 715.43 
1459 685.49 512.65 715.43 
1460 663.85 506.60 715.43 
1461 674.85 523.86 715.43 
1462 684.88 500.40 715.43 
1463 680.49 543.09 715.43 
1464 707.43 549.57 715.43 
1465 690.06 546.69 715.43 
1466 691.17 572.26 715.43 
1467 671.08 538.53 715.43 
1468 689.66 574.55 715.43 
1469 699.57 552.51 715.43 
1470 692.52 588.97 715.43 
1471 684.71 560.65 715.43 
1472 669.97 569.28 715.43 
1473 700.87 555.01 715.43 
1474 692.64 563.16 715.43 
1475 698.07 518.85 715.43 
1476 677.36 520.70 715.43 
1477 698.83 528.29 715.43 
1478 692.19 539.75 715.43 
1479 691.71 541.04 715.43 
1480 698.67 553.96 715.43 
1481 707.57 545.22 715.43 
1482 690.68 530.18 715.43 
1483 685.22 579.99 715.43 
1484 696.51 610.69 715.43 
1485 708.61 627.85 715.43 
1486 673.09 624.55 715.43 
1487 699.38 604.59 715.43 
1488 706.01 640.60 715.43 
1489 682.24 610.36 715.43 
1490 693.16 617.25 715.43 
1491 686.76 631.01 715.43 
1492 669.45 604.28 715.43 
1493 682.05 579.53 715.43 
1494 699.82 600.56 715.43 
1495 703.65 629.04 715.43 
1496 698.72 618.05 715.43 
1497 702.46 608.04 715.43 
1498 699.34 578.89 715.43 
1499 682.73 552.15 715.43 
1500 700.86 589.59 715.43 
1501 696.71 590.26 715.43 
1502 691.64 578.89 715.43 
1503 693.59 587.67 715.43 
1504 695.16 593.57 715.43 
1505 696.61 562.88 715.43 
1506 688.69 524.64 715.43 
1507 702.84 525.94 715.43 
1508 692.90 518.79 715.43 
1509 694.42 554.79 715.43 
1510 695.51 526.90 715.43 
1511 696.32 552.11 715.43 
1512 694.18 557.02 715.43 
1513 699.52 576.51 715.43 
1514 691.33 585.98 715.43 
1515 690.30 592.95 715.43 
1516 688.63 604.06 715.43 
1517 701.07 625.86 715.43 
1518 704.59 641.16 715.43 
1519 693.47 655.82 715.43 
1520 694.66 645.74 715.43 
1521 676.49 631.29 715.43 
1522 692.60 638.31 715.43 
1523 694.42 627.16 715.43 
1524 708.07 639.19 715.43 
1525 706.60 611.25 715.43 
1526 692.04 624.52 715.43 
1527 698.13 607.61 715.43 
1528 686.18 599.82 715.43 
1529 696.48 573.84 715.43 
1530 699.62 587.96 715.43 
1531 672.12 552.86 715.43 
1532 700.34 562.70 715.43 
1533 697.43 557.57 715.43 
1534 701.82 571.68 715.43 
1535 692.17 568.72 715.43 
1536 707.32 560.25 715.43 
1537 700.00 555.69 715.43 
1538 689.58 582.44 715.43 
1539 691.42 584.60 715.43 
1540 693.34 621.83 715.43 
1541 693.43 585.86 715.43 
1542 684.13 584.44 715.43 
1543 680.82 552.42 715.43 
1544 685.87 528.16 715.43 
1545 705.05 549.70 715.43 
1546 689.89 543.96 715.43 
1547 691.98 578.17 715.43 
1548 699.65 579.04 715.43 
1549 697.35 580.11 715.43 
1550 701.61 574.64 715.43 
1551 680.15 588.27 715.43 
1552 700.14 570.66 715.43 
1553 702.52 581.23 715.43 
1554 715.93 581.12 715.43 
1555 704.15 584.29 715.93 
1556 692.96 571.35 715.93 
1557 703.60 593.72 715.93 
1558 670.87 611.91 715.93 
1559 683.38 616.61 715.93 
1560 686.09 582.58 715.93 
1561 702.23 607.97 715.93 
1562 696.76 588.63 715.93 
1563 686.21 565.08 715.93 
1564 682.61 555.15 715.93 
1565 690.50 590.96 715.93 
1566 695.34 606.99 715.93 
1567 701.11 584.18 715.93 
1568 695.99 571.48 715.93 
1569 697.46 574.56 715.93 
1570 695.81 579.16 715.93 
1571 688.81 565.53 715.93 
1572 702.54 537.07 715.93 
1573 691.17 546.24 715.93 
1574 692.37 555.00 715.93 
1575 684.88 541.82 715.93 
1576 696.39 539.57 715.93 
1577 693.52 539.69 715.93 
1578 694.17 541.17 715.93 
1579 689.90 548.93 715.93 
1580 699.43 555.87 715.93 
1581 698.53 552.11 715.93 
1582 672.55 565.92 715.93 
1583 697.51 581.21 715.93 
1584 691.88 573.63 715.93 
1585 703.22 573.51 715.93 
1586 704.40 566.82 715.93 
1587 703.54 574.67 715.93 
1588 686.25 581.32 715.93 
1589 694.30 562.53 715.93 
1590 704.68 586.42 715.93 
1591 704.80 555.91 715.93 
1592 679.18 576.65 715.93 
1593 704.27 615.72 715.93 
1594 702.39 615.86 715.93 
1595 704.12 596.47 715.93 
1596 688.21 577.53 715.93 
1597 688.87 574.50 715.93 
1598 697.21 586.11 715.93 
1599 700.39 585.83 715.93 
1600 684.69 611.48 715.93 
1601 695.88 591.51 715.93 
1602 701.70 605.41 715.93 
1603 708.69 607.16 715.93 
1604 696.15 606.32 715.93 
1605 687.05 611.67 715.93 
1606 697.53 596.81 715.93 
1607 704.45 599.61 715.93 
1608 680.29 599.56 715.93 
1609 704.22 606.45 715.93 
1610 674.63 596.70 715.93 
1611 693.92 591.67 715.93 
1612 699.48 597.77 715.93 
1613 698.81 611.48 715.93 
1614 694.47 605.43 715.93 
1615 691.90 599.46 715.93 
1616 695.25 591.84 715.93 
1617 696.28 593.21 715.93 
1618 695.05 583.94 715.93 
1619 708.64 589.70 715.93 
1620 701.54 606.10 715.93 
1621 702.89 614.40 715.93 
1622 686.80 596.40 715.93 
1623 713.95 590.29 715.93 
1624 707.54 611.16 715.93 
1625 700.39 614.41 715.93 
1626 701.62 595.24 715.93 
1627 683.95 590.07 715.93 
1628 685.73 601.95 715.93 
1629 694.75 606.95 715.93 
1630 687.60 601.15 715.93 
1631 697.19 604.76 715.93 
1632 695.74 616.52 715.93 
1633 695.37 603.92 715.93 
1634 704.66 616.72 715.93 
1635 696.09 603.93 715.93 
1636 688.63 611.08 715.93 
1637 705.17 630.32 715.93 
1638 685.40 592.52 715.93 
1639 685.23 618.35 715.93 
1640 665.06 601.96 715.93 
1641 710.13 596.53 715.93 
1642 692.85 612.12 715.93 
1643 706.69 632.34 715.93 
1644 704.96 616.24 715.93 
1645 673.14 591.05 715.93 
1646 698.26 573.36 715.93 
1647 693.51 611.13 715.93 
1648 707.18 618.27 715.93 
1649 686.23 626.59 715.93 
1650 701.68 626.75 715.93 
1651 685.35 610.96 715.93 
1652 693.04 614.00 715.93 
1653 691.48 629.17 715.93 
1654 690.35 620.10 715.93 
1655 688.83 589.61 715.93 
1656 699.50 577.83 715.93 
1657 686.11 593.56 715.93 
1658 691.97 601.21 715.93 
1659 694.46 590.04 715.93 
1660 696.52 580.07 715.93 
1661 686.57 572.12 715.93 
1662 688.52 575.24 715.93 
1663 678.07 575.21 715.93 
1664 714.92 580.65 715.93 
1665 692.45 569.16 715.93 
1666 698.01 578.85 715.93 
1667 680.48 572.77 715.93 
1668 675.95 572.25 715.93 
1669 686.08 586.13 715.93 
1670 682.39 589.07 715.93 
1671 684.20 584.55 715.93 
1672 691.81 577.78 715.93 
1673 669.05 577.65 715.93 
1674 683.58 557.39 715.93 
1675 699.87 564.30 715.93 
1676 693.39 576.41 715.93 
1677 693.69 559.97 715.93 
1678 679.56 546.91 715.93 
1679 705.10 561.54 715.93 
1680 706.97 559.44 715.93 
1681 676.16 562.30 715.93 
1682 684.74 573.34 715.93 
1683 693.51 618.09 715.93 
1684 689.94 602.39 715.93 
1685 685.23 612.29 715.93 
1686 701.58 613.82 715.93 
1687 689.46 598.02 715.93 
1688 704.06 589.46 715.93 
1689 698.20 592.36 715.93 
1690 674.27 609.56 715.93 
1691 684.35 607.82 715.93 
1692 670.77 610.20 715.93 
1693 699.54 599.59 715.93 
1694 692.50 610.79 715.93 
1695 687.82 616.19 715.93 
1696 687.03 643.14 715.93 
1697 687.70 619.72 715.93 
1698 686.54 609.96 715.93 
1699 694.66 614.63 715.93 
1700 669.42 609.01 715.93 
1701 656.31 601.89 715.93 
1702 693.44 614.51 715.93 
1703 708.10 624.26 715.93 
1704 685.00 648.42 715.93 
1705 695.36 629.94 715.93 
1706 689.17 628.98 715.93 
1707 699.55 597.77 715.93 
1708 691.44 619.18 715.93 
1709 711.63 635.70 715.93 
1710 678.60 617.63 715.93 
1711 699.99 587.12 715.93 
1712 690.16 603.40 715.93 
1713 688.17 561.98 715.93 
1714 690.72 601.22 715.93 
1715 690.11 644.97 715.93 
1716 692.29 577.63 715.93 
1717 684.87 554.38 715.93 
1718 682.06 554.79 715.93 
1719 691.74 557.97 715.93 
1720 693.23 537.32 715.93 
1721 686.28 508.24 715.93 
1722 693.62 546.97 715.93 
1723 668.90 502.39 715.93 
1724 688.75 511.11 715.93 
1725 691.41 577.22 715.93 
1726 672.81 545.66 715.93 
1727 699.59 538.65 715.93 
1728 699.12 568.74 715.93 
1729 688.89 558.00 715.93 
1730 669.22 582.97 715.93 
1731 684.41 566.73 715.93 
1732 683.20 580.57 715.93 
1733 701.31 593.44 715.93 
1734 686.69 589.83 715.93 
1735 691.57 578.37 715.93 
1736 694.39 599.20 715.93 
1737 695.48 620.58 715.93 
1738 700.38 605.94 715.93 
1739 698.16 615.00 715.93 
1740 697.66 613.66 715.93 
1741 699.97 609.06 715.93 
1742 692.38 611.84 715.93 
1743 691.88 592.26 715.93 
1744 690.46 604.09 715.93 
1745 699.95 583.79 715.93 
1746 691.56 562.47 715.93 
1747 685.85 576.01 715.93 
1748 689.83 590.31 715.93 
1749 697.09 618.28 715.93 
1750 693.20 594.00 715.93 
1751 697.61 576.03 715.93 
1752 709.35 596.51 715.93 
1753 695.72 610.10 715.93 
1754 707.54 601.90 715.93 
1755 699.55 560.71 715.93 
1756 707.24 598.56 715.93 
1757 711.26 601.49 715.93 
1758 690.30 556.81 715.93 
1759 701.32 560.67 715.93 
1760 704.74 585.78 715.93 
1761 700.81 600.36 715.93 
1762 708.42 572.04 715.93 
1763 709.01 566.27 715.93 
1764 691.80 566.16 715.93 
1765 706.25 645.22 715.93 
1766 698.88 573.85 715.93 
1767 691.28 543.55 715.93 
1768 688.07 545.54 715.93 
1769 692.87 579.75 715.93 
1770 685.50 572.21 715.93 
1771 687.01 594.52 715.93 
1772 698.86 611.07 715.93 
1773 687.05 635.73 715.93 
1774 680.59 639.95 715.93 
1775 696.74 655.09 715.93 
1776 678.19 645.33 715.93 
1777 690.66 640.56 715.93 
1778 680.42 611.25 715.93 
1779 688.01 617.27 715.93 
1780 691.14 636.71 715.93 
1781 680.52 626.82 715.93 
1782 687.78 620.80 715.93 
1783 686.62 658.49 715.93 
1784 695.21 657.13 715.93 
1785 706.33 660.80 715.93 
1786 698.34 650.35 715.93 
1787 689.63 649.26 715.93 
1788 706.60 658.87 715.93 
1789 706.95 634.47 715.93 
1790 704.35 629.39 715.93 
1791 708.53 630.46 715.93 
1792 707.23 624.03 715.93 
1793 697.12 605.75 715.93 
1794 696.67 615.67 715.93 
1795 704.07 652.10 715.93 
1796 699.10 653.65 715.93 
1797 694.81 650.75 715.93 
1798 701.12 630.74 715.93 
1799 714.49 639.43 715.93 
1800 710.56 635.58 715.93 
1801 704.67 631.18 715.93 
1802 699.20 613.26 715.93 
1803 702.23 616.13 715.93 
1804 694.39 627.90 715.93 
1805 706.70 612.71 715.93 
1806 695.10 624.48 715.93 
1807 694.03 605.95 715.93 
1808 692.35 605.90 715.93 
1809 694.53 610.68 715.93 
1810 705.12 611.13 715.93 
1811 690.18 601.62 715.93 
1812 690.23 630.88 715.93 
1813 682.54 600.38 715.93 
1814 698.29 588.76 715.93 
1815 694.95 592.92 715.93 
1816 706.50 606.63 715.93 
1817 710.34 596.94 715.93 
1818 704.57 600.96 715.93 
1819 699.24 602.23 715.93 
1820 687.29 594.88 715.93 
1821 698.03 594.43 715.93 
1822 706.10 597.59 715.93 
1823 698.97 590.73 715.93 
1824 690.50 579.70 715.93 
1825 694.17 592.34 715.93 
1826 686.91 593.40 715.93 
1827 677.98 590.45 715.93 
1828 701.20 588.33 715.93 
1829 693.97 619.37 715.93 
1830 700.26 619.33 715.93 
1831 703.36 603.45 715.93 
1832 699.64 571.34 715.93 
1833 698.34 599.34 715.93 
1834 696.37 623.04 715.93 
1835 692.66 604.38 715.93 
1836 695.09 589.68 715.93 
1837 694.15 605.06 715.93 
1838 704.85 642.39 715.93 
1839 685.65 637.29 715.93 
1840 688.26 636.92 715.93 
1841 704.89 646.17 715.93 
1842 689.78 645.10 715.93 
1843 678.73 655.35 715.93 
1844 696.73 649.48 715.93 
1845 698.97 657.44 715.93 
1846 686.77 612.27 715.93 
1847 689.34 606.25 715.93 
1848 689.84 601.32 715.93 
1849 688.04 610.18 715.93 
1850 684.20 595.57 715.93 
1851 703.77 599.64 715.93 
1852 689.84 604.51 715.93 
1853 693.48 589.14 715.93 
1854 691.80 597.22 715.93 
1855 685.28 603.17 715.93 
1856 705.95 593.40 715.93 
1857 701.47 569.79 715.93 
1858 692.94 569.02 715.93 
1859 688.18 560.10 715.93 
1860 705.07 579.11 715.93 
1861 680.61 587.84 715.93 
1862 700.02 605.67 715.93 
1863 677.64 591.04 715.93 
1864 693.20 592.21 715.93 
1865 693.44 573.83 715.93 
1866 690.57 585.07 715.93 
1867 671.60 584.34 715.93 
1868 704.51 590.18 715.93 
1869 666.15 592.47 715.93 
1870 677.08 598.61 715.93 
1871 696.94 581.27 715.93 
1872 686.56 577.66 715.93 
1873 683.16 556.18 715.93 
1874 698.67 560.75 715.93 
1875 702.08 562.66 715.93 
1876 687.82 581.13 715.93 
1877 703.78 582.99 715.93 
1878 704.31 577.22 715.93 
1879 696.33 599.91 715.93 
1880 680.01 596.37 715.93 
1881 676.35 613.44 715.93 
1882 698.92 571.87 715.93 
1883 695.20 616.69 715.93 
1884 699.33 635.54 715.93 
1885 674.11 608.61 715.93 
1886 687.35 622.14 715.93 
1887 704.98 612.52 715.93 
1888 698.42 582.58 715.93 
1889 670.21 586.90 715.93 
1890 702.83 596.03 715.93 
1891 712.81 582.77 715.93 
1892 691.59 627.66 715.93 
1893 699.65 610.41 715.93 
1894 682.04 577.32 715.93 
1895 714.98 574.90 715.93 
1896 690.53 570.69 715.93 
1897 692.28 600.46 715.93 
1898 684.22 602.57 715.93 
1899 677.81 591.38 715.93 
1900 688.49 626.87 715.93 
1901 693.34 603.51 715.93 
1902 688.65 631.07 715.93 
1903 682.86 593.52 715.93 
1904 685.37 587.59 715.93 
1905 689.82 587.04 715.93 
1906 688.60 576.37 715.93 
1907 690.34 598.23 715.93 
1908 686.84 586.00 715.93 
1909 701.86 626.90 715.93 
1910 686.07 614.48 715.93 
1911 687.19 619.88 715.93 
1912 687.73 601.70 715.93 
1913 694.82 620.89 715.93 
1914 701.33 631.51 715.93 
1915 696.25 636.06 715.93 
1916 700.77 633.14 715.93 
1917 687.99 632.16 715.93 
1918 684.03 603.61 715.93 
1919 704.34 630.41 715.93 
1920 690.60 616.04 715.93 
1921 698.45 596.92 715.93 
1922 694.76 604.32 715.93 
1923 687.17 608.71 715.93 
1924 708.11 621.89 715.93 
1925 695.49 595.47 715.93 
1926 694.58 608.95 715.93 
1927 694.57 603.35 715.93 
1928 668.32 609.61 715.93 
1929 683.29 614.46 715.93 
1930 691.46 606.81 715.93 
1931 689.90 610.55 715.93 
1932 691.90 614.29 715.93 
1933 693.16 633.65 715.93 
1934 707.73 614.56 715.93 
1935 693.66 628.95 715.93 
1936 690.75 633.88 715.93 
1937 680.12 669.14 715.93 
1938 698.43 661.66 715.93 
1939 685.54 660.89 715.93 
1940 678.66 626.60 715.93 
1941 708.71 628.03 715.93 
1942 706.82 640.74 715.93 
1943 691.25 602.28 715.93 
1944 695.83 603.19 715.93 
1945 691.52 610.07 715.93 
1946 698.28 592.95 715.93 
1947 703.51 616.75 715.93 
1948 707.46 615.10 715.93 
1949 696.90 582.71 715.93 
1950 703.66 592.26 715.93 
1951 705.51 600.82 715.93 
1952 702.77 592.87 715.93 
1953 701.13 604.10 715.93 
1954 686.92 597.33 715.93 
1955 688.19 617.98 715.93 
1956 710.99 631.27 715.93 
1957 695.40 588.87 715.93 
1958 689.89 618.91 715.93 
1959 713.16 644.67 715.93 
1960 708.42 639.10 715.93 
1961 695.98 604.83 715.93 
1962 685.90 616.68 715.93 
1963 708.86 610.58 715.93 
1964 702.40 603.80 715.93 
1965 688.91 614.00 715.93 
1966 704.81 625.81 715.93 
1967 696.50 625.96 715.93 
1968 708.10 609.39 715.93 
1969 682.95 616.43 715.93 
1970 697.71 585.25 715.93 
1971 698.63 591.58 715.93 
1972 691.59 610.30 715.93 
1973 683.59 594.17 715.93 
1974 700.80 599.20 715.93 
1975 705.73 590.19 715.93 
1976 698.61 589.40 715.93 
1977 710.91 579.29 715.93 
1978 697.13 587.31 715.93 
1979 695.19 583.15 715.93 
1980 681.97 581.18 715.93 
1981 695.68 565.67 715.93 
1982 677.95 578.70 715.93 
1983 696.01 561.01 715.93 
1984 686.73 572.89 715.93 
1985 681.88 585.43 715.93 
1986 696.17 605.01 715.93 
1987 672.22 589.74 715.93 
1988 687.37 558.72 715.93 
1989 684.22 589.46 715.93 
1990 679.43 607.98 715.93 
1991 695.70 607.40 715.93 
1992 678.83 605.75 715.93 
1993 690.21 596.43 715.93 
1994 691.62 587.13 715.93 
1995 700.51 570.53 715.93 
1996 698.81 567.41 715.93 
1997 711.72 571.24 715.93 
1998 676.19 586.51 715.93 
1999 694.25 555.95 715.93 
2000 687.45 542.44 715.93 
2001 700.56 560.01 715.93 
2002 682.12 553.70 715.93 
2003 683.51 559.11 715.93 
2004 690.19 572.25 715.93 
2005 676.41 565.31 715.93 
2006 690.80 568.54 715.93 
2007 680.76 563.71 715.93 
2008 696.59 551.26 715.93 
2009 692.61 567.27 715.93 
2010 685.67 580.89 715.93 
2011 692.87 609.41 715.93 
2012 681.58 601.69 715.93 
2013 707.86 625.00 715.93 
2014 696.92 613.19 715.93 
2015 704.01 622.46 715.93 
2016 717.80 615.21 715.93 
2017 693.80 622.22 717.80 
2018 687.54 626.40 717.80 
2019 707.22 619.44 717.80 
2020 696.44 600.18 717.80 
2021 701.91 601.08 717.80 
2022 688.25 601.65 717.80 
2023 702.32 608.62 717.80 
2024 697.23 598.40 717.80 
2025 696.80 554.70 717.80 
2026 698.66 609.62 717.80 
2027 694.90 616.22 717.80 
2028 689.81 607.74 717.80 
2029 700.78 610.45 717.80 
2030 702.27 619.71 717.80 
2031 696.02 626.83 717.80 
2032 694.63 618.89 717.80 
2033 691.39 622.50 717.80 
2034 705.56 625.92 717.80 
2035 684.08 621.04 717.80 
2036 704.76 631.06 717.80 
2037 707.23 646.70 717.80 
2038 697.37 657.91 717.80 
2039 708.48 635.98 717.80 
2040 673.24 625.10 717.80 
2041 702.31 629.55 717.80 
2042 694.93 617.29 717.80 
2043 692.43 595.26 717.80 
2044 696.63 632.21 717.80 
2045 703.79 649.57 717.80 
2046 698.14 624.61 717.80 
2047 699.43 632.73 717.80 
2048 695.26 633.96 717.80 
2049 670.96 629.72 717.80 
2050 695.43 646.73 717.80 
2051 686.94 647.49 717.80 
2052 678.75 615.60 717.80 
2053 698.84 625.39 717.80 
2054 688.49 607.08 717.80 
2055 691.29 631.68 717.80 
2056 698.17 636.84 717.80 
2057 703.74 657.47 717.80 
2058 704.68 649.73 717.80 
2059 692.24 639.51 717.80 
2060 694.10 632.01 717.80 
2061 696.34 638.91 717.80 
2062 681.78 660.69 717.80 
2063 687.97 652.61 717.80 
2064 687.92 649.07 717.80 
2065 700.74 641.98 717.80 
2066 679.47 654.88 717.80 
2067 690.17 633.43 717.80 
2068 684.08 647.34 717.80 
2069 702.34 586.54 717.80 
2070 693.71 618.06 717.80 
2071 704.36 633.83 717.80 
2072 693.00 629.60 717.80 
2073 701.08 624.10 717.80 
2074 698.14 634.45 717.80 
2075 684.23 659.42 717.80 
2076 693.57 626.34 717.80 
2077 690.63 601.84 717.80 
2078 709.17 586.42 717.80 
2079 696.71 613.37 717.80 
2080 685.44 617.57 717.80 
2081 689.76 615.50 717.80 
2082 694.53 597.90 717.80 
2083 705.35 620.71 717.80 
2084 688.50 608.35 717.80 
2085 686.72 589.92 717.80 
2086 689.61 594.93 717.80 
2087 704.10 609.22 717.80 
2088 699.46 623.18 717.80 
2089 699.31 626.30 717.80 
2090 681.83 611.44 717.80 
2091 692.72 601.02 717.80 
2092 707.96 617.45 717.80 
2093 708.61 626.54 717.80 
2094 690.22 635.08 717.80 
2095 689.49 624.61 717.80 
2096 691.28 623.55 717.80 
2097 704.30 615.19 717.80 
2098 712.15 621.41 717.80 
2099 708.24 622.15 717.80 
2100 688.54 613.85 717.80 
2101 696.04 620.79 717.80 
2102 695.88 573.72 717.80 
2103 692.31 597.02 717.80 
2104 708.29 612.18 717.80 
2105 695.56 619.20 717.80 
2106 694.14 626.30 717.80 
2107 683.70 621.67 717.80 
2108 700.12 613.59 717.80 
2109 693.31 609.44 717.80 
2110 709.76 636.19 717.80 
2111 698.68 648.72 717.80 
2112 689.36 653.09 717.80 
2113 694.73 640.93 717.80 
2114 688.88 649.90 717.80 
2115 692.55 651.64 717.80 
2116 706.87 641.60 717.80 
2117 696.25 632.05 717.80 
2118 705.03 633.81 717.80 
2119 706.38 612.98 717.80 
2120 701.72 616.72 717.80 
2121 705.34 629.06 717.80 
2122 687.26 606.05 717.80 
2123 703.96 612.32 717.80 
2124 699.73 620.63 717.80 
2125 692.34 612.37 717.80 
2126 705.65 610.80 717.80 
2127 701.26 616.60 717.80 
2128 704.95 636.55 717.80 
2129 689.44 624.31 717.80 
2130 698.37 648.17 717.80 
2131 708.70 643.67 717.80 
2132 697.38 650.95 717.80 
2133 697.40 651.07 717.80 
2134 699.21 647.03 717.80 
2135 693.85 619.46 717.80 
2136 709.17 631.38 717.80 
2137 702.57 641.41 717.80 
2138 707.91 635.03 717.80 
2139 698.89 630.50 717.80 
2140 691.23 618.88 717.80 
2141 690.85 603.72 717.80 
2142 694.78 611.55 717.80 
2143 694.93 622.39 717.80 
2144 700.32 616.68 717.80 
2145 686.23 605.89 717.80 
2146 684.25 598.99 717.80 
2147 689.21 591.36 717.80 
2148 676.21 631.03 717.80 
2149 701.21 633.03 717.80 
2150 692.36 605.14 717.80 
2151 699.45 634.58 717.80 
2152 691.39 641.89 717.80 
2153 705.44 635.68 717.80 
2154 700.49 630.75 717.80 
2155 706.80 642.48 717.80 
2156 701.27 654.90 717.80 
2157 675.92 644.17 717.80 
2158 690.01 643.30 717.80 
2159 700.16 632.85 717.80 
2160 697.49 652.18 717.80 
2161 701.27 656.11 717.80 
2162 701.64 671.82 717.80 
2163 705.87 672.26 717.80 
2164 689.08 653.22 717.80 
2165 691.54 655.55 717.80 
2166 697.34 648.59 717.80 
2167 703.14 650.22 717.80 
2168 687.23 634.02 717.80 
2169 668.62 628.11 717.80 
2170 695.67 631.71 717.80 
2171 686.91 636.29 717.80 
2172 689.68 629.97 717.80 
2173 696.83 614.65 717.80 
2174 700.95 592.50 717.80 
2175 682.25 580.65 717.80 
2176 697.55 567.25 717.80 
2177 679.89 571.35 717.80 
2178 698.88 611.88 717.80 
2179 696.81 634.75 717.80 
2180 697.99 611.94 717.80 
2181 697.84 604.86 717.80 
2182 691.61 620.91 717.80 
2183 688.06 619.38 717.80 
2184 683.63 623.09 717.80 
2185 705.31 608.28 717.80 
2186 692.65 601.71 717.80 
2187 706.32 618.82 717.80 
2188 703.77 617.30 717.80 
2189 706.08 625.17 717.80 
2190 699.45 617.34 717.80 
2191 713.41 622.31 717.80 
2192 692.17 641.93 717.80 
2193 686.31 635.78 717.80 
2194 701.97 646.61 717.80 
2195 702.84 649.57 717.80 
2196 699.67 652.86 717.80 
2197 706.15 660.53 717.80 
2198 689.41 644.97 717.80 
2199 689.92 631.27 717.80 
2200 703.48 632.83 717.80 
2201 697.52 636.06 717.80 
2202 681.35 628.70 717.80 
2203 692.54 637.04 717.80 
2204 688.62 609.98 717.80 
2205 700.80 617.49 717.80 
2206 698.84 613.01 717.80 
2207 700.98 604.90 717.80 
2208 693.12 594.23 717.80 
2209 697.30 582.18 717.80 
2210 699.37 564.53 717.80 
2211 700.40 591.12 717.80 
2212 674.68 580.13 717.80 
2213 705.62 591.34 717.80 
2214 705.49 600.97 717.80 
2215 709.51 644.74 717.80 
2216 710.86 630.42 717.80 
2217 685.08 635.71 717.80 
2218 699.83 617.50 717.80 
2219 696.42 615.07 717.80 
2220 684.63 625.63 717.80 
2221 690.85 609.08 717.80 
2222 694.41 637.23 717.80 
2223 695.30 648.92 717.80 
2224 689.73 641.38 717.80 
2225 670.87 615.73 717.80 
2226 687.81 601.11 717.80 
2227 688.73 634.29 717.80 
2228 688.21 633.48 717.80 
2229 687.16 646.94 717.80 
2230 699.69 652.81 717.80 
2231 691.43 636.17 717.80 
2232 707.90 646.27 717.80 
2233 687.19 647.16 717.80 
2234 683.42 645.64 717.80 
2235 662.44 648.02 717.80 
2236 698.15 639.78 717.80 
2237 697.89 642.34 717.80 
2238 690.41 666.89 717.80 
2239 664.44 663.31 717.80 
2240 677.23 645.82 717.80 
2241 695.51 660.27 717.80 
2242 667.58 658.36 717.80 
2243 684.28 664.37 717.80 
2244 709.90 642.27 717.80 
2245 684.91 649.69 717.80 
2246 690.25 653.55 717.80 
2247 701.77 664.97 717.80 
2248 705.43 635.05 717.80 
2249 689.97 654.35 717.80 
2250 683.39 626.98 717.80 
2251 698.96 622.51 717.80 
2252 687.93 611.93 717.80 
2253 690.70 616.62 717.80 
2254 684.75 651.96 717.80 
2255 697.60 637.17 717.80 
2256 689.08 626.68 717.80 
2257 687.59 625.01 717.80 
2258 695.54 631.44 717.80 
2259 697.46 624.66 717.80 
2260 683.18 588.67 717.80 
2261 698.36 591.73 717.80 
2262 698.13 592.31 717.80 
2263 701.57 581.40 717.80 
2264 701.50 584.34 717.80 
2265 693.74 596.04 717.80 
2266 680.31 602.04 717.80 
2267 703.97 604.66 717.80 
2268 689.61 601.38 717.80 
2269 702.82 611.51 717.80 
2270 695.66 621.78 717.80 
2271 689.02 624.00 717.80 
2272 686.32 617.82 717.80 
2273 676.89 609.09 717.80 
2274 693.87 602.43 717.80 
2275 682.64 597.01 717.80 
2276 676.12 587.61 717.80 
2277 699.79 608.03 717.80 
2278 672.72 597.01 717.80 
2279 699.02 589.76 717.80 
2280 690.02 621.28 717.80 
2281 678.79 602.27 717.80 
2282 677.74 609.76 717.80 
2283 704.26 611.26 717.80 
2284 681.86 596.55 717.80 
2285 692.01 596.82 717.80 
2286 688.20 563.51 717.80 
2287 678.44 585.86 717.80 
2288 682.10 579.34 717.80 
2289 680.17 586.79 717.80 
2290 684.48 599.61 717.80 
2291 687.37 593.33 717.80 
2292 691.39 576.23 717.80 
2293 686.08 597.16 717.80 
2294 685.59 604.80 717.80 
2295 683.86 613.77 717.80 
2296 674.63 624.22 717.80 
2297 691.17 596.35 717.80 
2298 677.65 583.33 717.80 
2299 685.61 579.14 717.80 
2300 691.66 580.67 717.80 
2301 680.37 592.09 717.80 
2302 695.24 615.44 717.80 
2303 697.88 608.50 717.80 
2304 692.42 612.50 717.80 
2305 687.39 617.28 717.80 
2306 693.16 620.68 717.80 
2307 685.79 654.75 717.80 
2308 684.30 659.08 717.80 
2309 683.39 639.81 717.80 
2310 695.90 645.47 717.80 
2311 684.14 652.83 717.80 
2312 704.79 622.30 717.80 
2313 698.00 644.46 717.80 
2314 698.05 626.98 717.80 
2315 697.37 658.19 717.80 
2316 699.49 635.49 717.80 
2317 693.08 642.54 717.80 
2318 712.86 649.76 717.80 
2319 702.69 653.18 717.80 
2320 683.41 661.92 717.80 
2321 689.60 678.02 717.80 
2322 690.05 659.29 717.80 
2323 689.94 636.41 717.80 
2324 682.51 632.66 717.80 
2325 688.87 632.60 717.80 
2326 698.77 636.01 717.80 
2327 683.68 626.70 717.80 
2328 694.17 623.50 717.80 
2329 686.53 630.23 717.80 
2330 691.97 630.22 717.80 
2331 696.42 643.04 717.80 
2332 683.68 633.52 717.80 
2333 702.53 651.48 717.80 
2334 677.05 650.67 717.80 
2335 705.15 672.47 717.80 
2336 684.83 671.61 717.80 
2337 662.63 670.43 717.80 
2338 706.70 668.74 717.80 
2339 690.61 642.93 717.80 
2340 677.88 661.51 717.80 
2341 689.41 652.29 717.80 
2342 669.64 641.86 717.80 
2343 692.86 648.03 717.80 
2344 694.30 644.67 717.80 
2345 681.05 635.94 717.80 
2346 691.11 609.14 717.80 
2347 690.93 607.35 717.80 
2348 700.05 623.94 717.80 
2349 705.21 640.80 717.80 
2350 688.52 633.29 717.80 
2351 696.23 619.78 717.80 
2352 705.40 621.46 717.80 
2353 682.49 554.13 717.80 
2354 687.95 551.88 717.80 
2355 689.15 597.61 717.80 
2356 697.28 613.70 717.80 
2357 703.16 644.30 717.80 
2358 691.91 631.42 717.80 
2359 695.00 623.51 717.80 
2360 679.84 632.79 717.80 
2361 684.36 592.00 717.80 
2362 707.40 602.25 717.80 
2363 702.54 633.20 717.80 
2364 689.42 610.65 717.80 
2365 702.38 651.12 717.80 
2366 706.06 666.86 717.80 
2367 704.05 642.65 717.80 
2368 699.81 614.66 717.80 
2369 698.62 639.01 717.80 
2370 694.52 630.24 717.80 
2371 689.64 581.82 717.80 
2372 694.41 615.73 717.80 
2373 693.21 601.54 717.80 
2374 692.95 586.43 717.80 
2375 688.98 592.96 717.80 
2376 697.36 585.73 717.80 
2377 701.22 589.94 717.80 
2378 695.75 579.05 717.80 
2379 698.36 635.45 717.80 
2380 708.11 642.05 717.80 
2381 698.10 674.05 717.80 
2382 677.33 648.17 717.80 
2383 687.53 631.17 717.80 
2384 694.96 612.55 717.80 
2385 698.62 623.86 717.80 
2386 691.77 660.59 717.80 
2387 694.87 623.61 717.80 
2388 688.59 605.94 717.80 
2389 707.41 614.64 717.80 
2390 698.33 624.65 717.80 
2391 703.39 647.32 717.80 
2392 711.82 642.81 717.80 
2393 697.80 641.76 717.80 
2394 692.78 670.50 717.80 
2395 701.89 656.20 717.80 
2396 691.79 648.23 717.80 
2397 708.35 631.21 717.80 
2398 692.83 641.90 717.80 
2399 693.98 647.03 717.80 
2400 690.15 650.77 717.80 
2401 696.14 674.37 717.80 
2402 693.30 649.80 717.80 
2403 697.85 641.05 717.80 
2404 695.80 630.31 717.80 
2405 710.74 650.01 717.80 
2406 708.63 652.24 717.80 
2407 693.52 661.05 717.80 
2408 711.75 671.06 717.80 
2409 708.60 668.08 717.80 
2410 699.68 670.06 717.80 
2411 684.87 657.49 717.80 
2412 685.98 648.02 717.80 
2413 676.07 663.51 717.80 
2414 687.27 653.77 717.80 
2415 703.76 647.91 717.80 
2416 695.71 661.37 717.80 
2417 684.22 658.15 717.80 
2418 696.07 649.67 717.80 
2419 696.01 659.15 717.80 
2420 696.18 670.01 717.80 
2421 679.58 664.26 717.80 
2422 698.70 667.02 717.80 
2423 678.02 674.57 717.80 
2424 708.80 642.10 717.80 
2425 701.43 678.19 717.80 
2426 679.31 647.21 717.80 
2427 692.19 646.53 717.80 
2428 687.77 648.44 717.80 
2429 694.88 633.06 717.80 
2430 694.10 625.60 717.80 
2431 678.56 606.11 717.80 
2432 694.82 627.72 717.80 
2433 696.35 654.82 717.80 
2434 693.00 628.41 717.80 
2435 703.83 622.35 717.80 
2436 688.23 621.67 717.80 
2437 703.23 616.44 717.80 
2438 691.81 623.68 717.80 
2439 689.92 599.53 717.80 
2440 678.50 594.22 717.80 
2441 695.07 582.45 717.80 
2442 695.12 584.19 717.80 
2443 704.44 595.29 717.80 
2444 675.15 611.82 717.80 
2445 683.95 604.13 717.80 
2446 679.21 598.75 717.80 
2447 678.31 597.98 717.80 
2448 683.38 575.48 717.80 
2449 704.29 592.85 717.80 
2450 684.46 600.56 717.80 
2451 683.52 600.84 717.80 
2452 700.48 606.94 717.80 
2453 691.27 591.60 717.80 
2454 688.85 613.46 717.80 
2455 688.88 616.58 717.80 
2456 684.32 632.05 717.80 
2457 677.91 614.01 717.80 
2458 705.05 600.79 717.80 
2459 705.38 558.14 717.80 
2460 684.74 593.32 717.80 
2461 689.41 608.91 717.80 
2462 696.27 601.00 717.80 
2463 698.19 586.42 717.80 
2464 701.82 576.67 717.80 
2465 685.85 594.34 717.80 
2466 697.44 593.29 717.80 
2467 681.53 625.77 717.80 
2468 671.40 588.48 717.80 
2469 682.65 578.78 717.80 
2470 685.94 581.49 717.80 
2471 688.51 577.74 717.80 
2472 684.95 586.65 717.80 
2473 667.89 591.19 717.80 
2474 688.77 582.50 717.80 
2475 698.48 572.61 717.80 
2476 696.50 575.73 717.80 
2477 697.75 563.53 717.80 
2478 707.71 582.94 717.80 
2479 695.72 578.36 717.80 
2480 701.29 602.67 717.80 
2481 697.23 609.04 717.80 
2482 710.28 608.33 717.80 
2483 665.96 579.50 717.80 
2484 690.08 603.34 717.80 
2485 694.31 595.88 717.80 
2486 698.42 595.31 717.80 
2487 692.39 599.08 717.80 
2488 713.54 569.46 717.80 
2489 687.32 603.87 717.80 
2490 691.85 615.69 717.80 
2491 695.33 633.56 717.80 
2492 693.25 627.53 717.80 
2493 670.88 644.02 717.80 
2494 663.45 662.68 717.80 
2495 656.13 666.69 717.80 
2496 607.74 638.59 717.80 
2497 690.75 637.96 717.80 
2498 686.52 618.81 717.80 
2499 698.47 595.65 717.80 
2500 693.64 603.38 717.80 
2501 696.37 588.41 717.80 
2502 702.69 580.57 717.80 
2503 698.05 598.46 717.80 
2504 694.72 595.12 717.80 
2505 695.60 609.23 717.80 
2506 685.93 596.71 717.80 
2507 697.66 591.08 717.80 
2508 699.56 599.99 717.80 
2509 691.92 593.70 717.80 
2510 685.77 601.90 717.80 
2511 689.32 597.16 717.80 
2512 682.85 626.77 717.80 
2513 695.48 626.45 717.80 
2514 683.47 624.74 717.80 
2515 687.58 620.06 717.80 
2516 700.54 588.21 717.80 
2517 682.32 596.56 717.80 
2518 678.98 571.76 717.80 
2519 686.39 581.34 717.80 
2520 702.26 557.30 717.80 
2521 693.25 573.35 717.80 
2522 697.85 572.16 717.80 
2523 697.55 563.77 717.80 
2524 697.43 588.33 717.80 
2525 687.12 608.49 717.80 
2526 693.64 628.10 717.80 
2527 705.00 624.19 717.80 
2528 689.87 621.83 717.80 
2529 709.53 618.91 717.80 
2530 706.35 616.08 717.80 
2531 702.60 615.58 717.80 
2532 681.78 623.04 717.80 
2533 699.02 652.30 717.80 
2534 696.61 652.11 717.80 
2535 697.41 648.25 717.80 
2536 694.77 640.59 717.80 
2537 707.04 618.16 717.80 
2538 704.55 616.75 717.80 
2539 698.60 645.83 717.80 
2540 700.64 630.92 717.80 
2541 706.52 634.57 717.80 
2542 706.50 641.52 717.80 
2543 695.02 639.30 717.80 
2544 710.08 641.81 717.80 
2545 706.30 629.35 717.80 
2546 693.57 614.74 717.80 
2547 706.45 609.74 717.80 
2548 697.21 614.51 717.80 
2549 709.37 634.28 717.80 
2550 676.90 638.15 717.80 
2551 701.62 633.35 717.80 
2552 695.97 606.53 717.80 
2553 698.97 628.84 717.80 
2554 689.31 608.14 717.80 
2555 697.68 629.79 717.80 
2556 693.16 612.39 717.80 
2557 685.19 631.90 717.80 
2558 706.44 652.86 717.80 
2559 693.85 673.64 717.80 
2560 702.92 655.60 717.80 
2561 710.27 644.29 717.80 
2562 713.47 633.81 717.80 
2563 696.22 620.17 717.80 
2564 707.84 608.90 717.80 
2565 688.21 638.53 717.80 
2566 710.69 643.76 717.80 
2567 696.28 638.04 717.80 
2568 706.34 654.73 717.80 
2569 708.69 661.18 717.80 
2570 702.10 673.72 717.80 
2571 698.53 677.87 717.80 
2572 703.94 655.70 717.80 
2573 684.49 660.69 717.80 
2574 695.08 657.53 717.80 
2575 684.34 653.63 717.80 
2576 684.70 670.08 717.80 
2577 699.85 654.09 717.80 
2578 692.34 644.30 717.80 
2579 681.14 643.65 717.80 
2580 701.12 640.01 717.80 
2581 680.45 636.16 717.80 
2582 704.43 642.79 717.80 
2583 688.52 639.34 717.80 
2584 695.89 622.89 717.80 
2585 708.15 635.37 717.80 
2586 706.56 635.44 717.80 
2587 696.66 636.48 717.80 
2588 705.48 614.15 717.80 
2589 707.47 611.46 717.80 
2590 692.88 577.60 717.80 
2591 715.87 590.58 717.80 
2592 685.12 607.77 717.80 
2593 697.65 592.79 717.80 
2594 694.15 593.32 717.80 
2595 694.88 607.83 717.80 
2596 684.08 586.26 717.80 
2597 685.31 575.32 717.80 
2598 692.01 598.86 717.80 
2599 694.63 580.91 717.80 
2600 704.59 588.51 717.80 
2601 692.58 583.85 717.80 
2602 693.78 579.93 717.80 
2603 704.71 579.14 717.80 
2604 696.61 587.09 717.80 
2605 695.81 569.80 717.80 
2606 696.00 590.35 717.80 
2607 703.73 581.17 717.80 
2608 678.08 566.69 717.80 
2609 703.93 562.54 717.80 
2610 701.95 570.23 717.80 
2611 683.88 559.69 717.80 
2612 693.25 583.99 717.80 
2613 700.24 576.98 717.80 
2614 696.21 581.69 717.80 
2615 701.60 587.24 717.80 
2616 684.49 583.06 717.80 
2617 695.88 581.15 717.80 
2618 706.75 575.49 717.80 
2619 704.07 583.33 717.80 
2620 687.16 558.78 717.80 
2621 696.83 577.35 717.80 
2622 708.85 600.76 717.80 
2623 701.35 574.97 717.80 
2624 695.22 585.46 717.80 
2625 674.30 596.31 717.80 
2626 696.55 604.72 717.80 
2627 678.63 619.24 717.80 
2628 674.32 590.98 717.80 
2629 698.16 585.34 717.80 
2630 675.41 571.90 717.80 
2631 702.66 604.17 717.80 
2632 695.86 588.81 717.80 
2633 676.51 598.93 717.80 
2634 691.87 588.09 717.80 
2635 684.44 580.80 717.80 
2636 695.95 585.92 717.80 
2637 702.67 570.72 717.80 
2638 699.75 570.83 717.80 
2639 696.88 610.11 717.80 
2640 693.19 622.17 717.80 
2641 694.93 621.88 717.80 
2642 682.79 605.77 717.80 
2643 672.33 606.46 717.80 
2644 674.70 596.76 717.80 
2645 694.69 600.21 717.80 
2646 685.29 581.71 717.80 
2647 685.80 597.37 717.80 
2648 686.07 593.22 717.80 
2649 684.85 590.75 717.80 
2650 698.03 585.11 717.80 
2651 671.71 588.18 717.80 
2652 682.89 582.72 717.80 
2653 695.35 584.18 717.80 
2654 701.04 600.18 717.80 
2655 697.78 591.10 717.80 
2656 696.72 614.86 717.80 
2657 705.96 607.11 717.80 
2658 708.24 613.18 717.80 
2659 689.68 605.90 717.80 
2660 697.82 616.42 717.80 
2661 709.21 611.60 717.80 
2662 703.36 608.62 717.80 
2663 708.08 632.02 717.80 
2664 693.45 628.51 717.80 
2665 687.78 594.78 717.80 
2666 699.36 617.51 717.80 
2667 706.39 589.48 717.80 
2668 704.19 618.16 717.80 
2669 686.69 617.76 717.80 
2670 696.79 605.20 717.80 
2671 677.65 640.09 717.80 
2672 696.62 602.29 717.80 
2673 706.34 637.71 717.80 
2674 704.79 603.42 717.80 
2675 688.51 609.97 717.80 
2676 693.22 604.18 717.80 
2677 701.99 607.41 717.80 
2678 708.17 609.66 717.80 
2679 687.47 604.58 717.80 
2680 711.68 600.41 717.80 
2681 699.92 599.40 717.80 
2682 702.12 622.60 717.80 
2683 693.69 618.23 717.80 
2684 684.52 604.56 717.80 
2685 700.55 607.22 717.80 
2686 694.78 620.89 717.80 
2687 693.78 628.34 717.80 
2688 700.32 604.68 717.80 
2689 698.02 633.50 717.80 
2690 693.35 601.99 717.80 
2691 682.61 634.56 717.80 
2692 704.69 614.32 717.80 
2693 715.73 657.41 717.80 
2694 697.63 631.96 717.80 
2695 693.49 635.33 717.80 
2696 695.85 603.25 717.80 
2697 700.25 631.06 717.80 
2698 709.71 583.77 717.80 
2699 696.18 612.35 717.80 
2700 695.55 610.07 717.80 
2701 682.61 607.49 717.80 
2702 687.07 625.49 717.80 
2703 710.90 617.11 717.80 
2704 686.79 637.71 717.80 
2705 687.55 634.85 717.80 
2706 683.05 638.08 717.80 
2707 697.00 668.95 717.80 
2708 697.56 649.59 717.80 
2709 692.47 625.94 717.80 
2710 687.62 621.70 717.80 
2711 712.01 660.88 717.80 
2712 692.54 642.70 717.80 
2713 693.68 656.35 717.80 
2714 699.33 621.06 717.80 
2715 698.07 645.89 717.80 
2716 692.22 644.35 717.80 
2717 694.68 633.92 717.80 
2718 702.61 570.71 717.80 
2719 701.34 630.37 717.80 
2720 707.31 652.96 717.80 
2721 705.61 650.41 717.80 
2722 697.97 634.56 717.80 
2723 687.98 649.66 717.80 
2724 706.62 649.51 717.80 
2725 691.83 608.99 717.80 
2726 692.14 620.73 717.80 
2727 687.17 604.37 717.80 
2728 702.98 607.43 717.80 
2729 692.86 623.92 717.80 
2730 696.10 629.84 717.80 
2731 701.66 622.80 717.80 
2732 695.24 615.88 717.80 
2733 700.50 609.81 717.80 
2734 700.98 586.48 717.80 
2735 713.29 619.52 717.80 
2736 709.99 671.12 717.80 
2737 684.84 660.53 717.80 
2738 683.41 609.70 717.80 
2739 716.06 618.60 717.80 
2740 685.65 606.69 717.80 
2741 697.25 628.11 717.80 
2742 693.19 625.10 717.80 
2743 702.62 604.64 717.80 
2744 706.95 612.48 717.80 
2745 695.12 648.73 717.80 
2746 702.56 621.27 717.80 
2747 701.61 650.37 717.80 
2748 701.15 627.78 717.80 
2749 705.65 622.98 717.80 
2750 704.87 623.17 717.80 
2751 693.91 626.09 717.80 
2752 692.05 623.79 717.80 
2753 701.17 623.38 717.80 
2754 689.40 594.46 717.80 
2755 707.43 587.66 717.80 
2756 680.33 577.73 717.80 
2757 690.08 573.55 717.80 
2758 700.72 617.64 717.80 
2759 700.49 629.85 717.80 
2760 694.56 637.81 717.80 
2761 695.46 598.65 717.80 
2762 685.68 561.86 717.80 
2763 688.88 574.58 717.80 
2764 699.15 577.46 717.80 
2765 685.92 565.06 717.80 
2766 702.73 595.22 717.80 
2767 697.43 582.92 717.80 
2768 702.35 598.16 717.80 
2769 691.82 610.95 717.80 
2770 695.95 605.46 717.80 
2771 691.64 610.28 717.80 
2772 683.59 610.37 717.80 
2773 689.38 600.44 717.80 
2774 689.90 606.86 717.80 
2775 708.58 613.30 717.80 
2776 711.14 614.64 717.80 
2777 713.16 617.24 717.80 
2778 700.75 597.55 717.80 
2779 691.41 588.51 717.80 
2780 692.02 626.60 717.80 
2781 699.23 629.12 717.80 
2782 699.57 615.95 717.80 
2783 696.04 598.02 717.80 
2784 710.37 615.80 717.80 
2785 686.94 620.62 717.80 
2786 694.13 612.82 717.80 
2787 711.99 638.16 717.80 
2788 688.56 641.05 717.80 
2789 687.25 632.69 717.80 
2790 704.48 616.06 717.80 
2791 693.85 621.86 717.80 
2792 702.93 652.76 717.80 
2793 699.03 653.24 717.80 
2794 689.80 640.63 717.80 
2795 702.86 632.28 717.80 
2796 690.64 627.27 717.80 
2797 684.68 637.53 717.80 
2798 702.62 649.92 717.80 
2799 691.88 624.72 717.80 
2800 707.18 633.09 717.80 
2801 703.44 592.77 717.80 
2802 700.90 597.78 717.80 
2803 698.96 599.09 717.80 
2804 694.57 591.21 717.80 
2805 697.33 600.98 717.80 
2806 709.89 608.83 717.80 
2807 703.05 605.51 717.80 
2808 686.08 604.69 717.80 
2809 696.60 625.99 717.80 
2810 693.35 626.64 717.80 
2811 707.44 614.69 717.80 
2812 699.22 590.36 717.80 
2813 702.47 627.27 717.80 
2814 689.75 611.25 717.80 
2815 704.97 604.16 717.80 
2816 700.21 599.50 717.80 
2817 691.90 592.42 717.80 
2818 702.25 594.46 717.80 
2819 703.26 593.44 717.80 
2820 703.21 588.43 717.80 
2821 706.49 575.67 717.80 
2822 686.86 562.18 717.80 
2823 691.97 590.55 717.80 
2824 699.40 604.29 717.80 
2825 701.13 616.28 717.80 
2826 701.29 610.60 717.80 
2827 707.56 600.97 717.80 
2828 691.56 598.05 717.80 
2829 704.51 600.16 717.80 
2830 683.06 598.87 717.80 
2831 698.54 613.27 717.80 
2832 682.86 568.33 717.80 
2833 693.22 602.04 717.80 
2834 694.42 569.03 717.80 
2835 699.98 599.08 717.80 
2836 686.67 607.88 717.80 
2837 693.92 619.88 717.80 
2838 693.62 613.46 717.80 
2839 697.30 600.72 717.80 
2840 676.90 584.01 717.80 
2841 696.69 613.38 717.80 
2842 694.63 594.45 717.80 
2843 709.70 589.22 717.80 
2844 674.62 592.78 717.80 
2845 699.21 561.96 717.80 
2846 694.81 545.23 717.80 
2847 694.76 552.41 717.80 
2848 700.02 593.80 717.80 
2849 688.43 596.60 717.80 
2850 701.47 578.27 717.80 
2851 701.60 551.70 717.80 
2852 684.07 566.66 717.80 
2853 708.35 566.05 717.80 
2854 691.35 587.33 717.80 
2855 696.74 567.16 717.80 
2856 686.95 604.37 717.80 
2857 685.63 596.99 717.80 
2858 693.67 591.84 717.80 
2859 707.27 601.65 717.80 
2860 696.15 596.01 717.80 
2861 693.11 594.76 717.80 
2862 702.06 598.92 717.80 
2863 679.96 607.24 717.80 
2864 684.93 594.70 717.80 
2865 690.44 566.43 717.80 
2866 693.16 559.99 717.80 
2867 705.89 582.47 717.80 
2868 692.06 575.91 717.80 
2869 695.37 596.92 717.80 
2870 698.55 604.45 717.80 
2871 708.45 624.64 717.80 
2872 696.32 595.49 717.80 
2873 710.49 566.03 717.80 
2874 692.74 627.04 717.80 
2875 698.16 588.10 717.80 
2876 695.89 652.05 717.80 
2877 712.91 620.66 717.80 
2878 690.46 604.68 717.80 
2879 711.32 630.37 717.80 
2880 695.34 626.83 717.80 
2881 700.50 609.66 717.80 
2882 704.32 580.85 717.80 
2883 698.06 565.44 717.80 
2884 689.28 580.51 717.80 
2885 707.44 594.80 717.80 
2886 700.03 576.02 717.80 
2887 703.82 579.34 717.80 
2888 697.04 621.87 717.80 
2889 711.31 615.35 717.80 
2890 695.58 609.12 717.80 
2891 697.09 612.31 717.80 
2892 700.26 597.35 717.80 
2893 692.35 634.38 717.80 
2894 672.34 644.61 717.80 
2895 689.22 637.89 717.80 
2896 706.46 636.66 717.80 
2897 701.18 624.15 717.80 
2898 681.39 598.21 717.80 
2899 696.48 587.37 717.80 
2900 693.10 594.60 717.80 
2901 676.96 634.54 717.80 
2902 694.80 629.94 717.80 
2903 694.15 634.39 717.80 
2904 675.60 630.49 717.80 
2905 686.26 612.55 717.80 
2906 678.55 597.84 717.80 
2907 698.06 626.87 717.80 
2908 691.04 598.74 717.80 
2909 694.51 608.67 717.80 
2910 689.39 597.73 717.80 
2911 705.58 612.25 717.80 
2912 700.53 588.99 717.80 
2913 684.26 578.54 717.80 
2914 693.64 600.81 717.80 
2915 706.93 617.81 717.80 
2916 706.76 608.43 717.80 
2917 693.92 607.91 717.80 
2918 688.67 620.92 717.80 
2919 686.57 640.57 717.80 
2920 700.47 635.06 717.80 
2921 695.75 599.83 717.80 
2922 672.41 609.23 717.80 
2923 704.15 591.98 717.80 
2924 683.01 572.79 717.80 
2925 697.37 610.92 717.80 
2926 694.09 604.18 717.80 
2927 700.61 578.16 717.80 
2928 693.30 587.16 717.80 
2929 692.34 585.15 717.80 
2930 686.07 604.41 717.80 
2931 680.77 599.12 717.80 
2932 705.55 604.08 717.80 
2933 688.43 610.33 717.80 
2934 709.00 611.74 717.80 
2935 689.56 592.20 717.80 
2936 700.10 590.59 717.80 
2937 696.70 589.10 717.80 
2938 686.25 598.20 717.80 
2939 683.84 592.10 717.80 
2940 700.09 597.46 717.80 
2941 699.42 595.78 717.80 
2942 691.81 573.78 717.80 
2943 706.81 579.28 717.80 
2944 683.20 564.59 717.80 
2945 707.19 564.62 717.80 
2946 694.86 583.60 717.80 
2947 701.76 603.02 717.80 
2948 676.90 604.89 717.80 
2949 695.04 623.98 717.80 
2950 702.31 598.19 717.80 
2951 678.64 623.47 717.80 
2952 693.11 605.86 717.80 
2953 684.15 585.20 717.80 
2954 679.27 582.27 717.80 
2955 684.48 582.29 717.80 
2956 680.33 600.27 717.80 
2957 697.82 599.72 717.80 
2958 703.03 594.41 717.80 
2959 693.71 586.49 717.80 
2960 708.57 579.93 717.80 
2961 677.64 602.57 717.80 
2962 692.25 598.12 717.80 
2963 695.71 608.39 717.80 
2964 697.32 625.17 717.80 
2965 687.30 642.25 717.80 
2966 686.73 624.67 717.80 
2967 686.83 615.09 717.80 
2968 695.39 614.02 717.80 
2969 669.82 612.76 717.80 
2970 673.62 588.26 717.80 
2971 696.86 568.81 717.80 
2972 689.91 590.12 717.80 
2973 679.97 600.90 717.80 
2974 681.02 587.60 717.80 
2975 698.48 595.03 717.80 
2976 689.61 606.58 717.80 
2977 690.93 594.11 717.80 
2978 701.65 582.66 717.80 
2979 697.06 583.43 717.80 
2980 704.46 593.30 717.80 
2981 686.32 578.55 717.80 
2982 693.63 585.54 717.80 
2983 696.99 565.53 717.80 
2984 685.79 559.72 717.80 
2985 690.36 548.45 717.80 
2986 700.20 546.07 717.80 
2987 700.69 571.44 717.80 
2988 686.06 582.07 717.80 
2989 698.27 584.73 717.80 
2990 697.01 592.55 717.80 
2991 696.58 587.78 717.80 
2992 697.06 608.95 717.80 
2993 687.44 595.86 717.80 
2994 686.32 576.54 717.80 
2995 691.03 570.22 717.80 
2996 682.27 595.19 717.80 
2997 683.96 557.35 717.80 
2998 702.91 574.05 717.80 
2999 702.10 577.36 717.80 
3000 701.05 573.07 717.80 
3001 708.65 591.97 717.80 
3002 698.59 582.85 717.80 
3003 678.83 584.66 717.80 
3004 685.83 590.83 717.80 
3005 694.88 625.57 717.80 
3006 680.81 593.83 717.80 
3007 678.06 616.25 717.80 
3008 694.17 599.34 717.80 
3009 695.91 617.35 717.80 
3010 690.11 587.29 717.80 
3011 678.60 586.97 717.80 
3012 691.16 575.34 717.80 
3013 705.23 565.20 717.80 
3014 695.47 566.67 717.80 
3015 702.45 562.51 717.80 
3016 692.30 571.85 717.80 
3017 688.07 550.32 717.80 
3018 699.23 539.99 717.80 
3019 688.45 535.31 717.80 
3020 685.78 572.31 717.80 
3021 690.69 530.66 717.80 
3022 683.64 550.02 717.80 
3023 697.55 563.81 717.80 
3024 693.14 565.50 717.80 
3025 686.85 568.76 717.80 
3026 681.76 568.34 717.80 
3027 700.10 571.57 717.80 
3028 693.01 575.54 717.80 
3029 699.60 579.22 717.80 
3030 695.25 578.69 717.80 
3031 692.63 572.71 717.80 
3032 678.36 578.36 717.80 
3033 700.03 593.86 717.80 
3034 685.89 594.46 717.80 
3035 689.88 604.63 717.80 
3036 687.99 609.94 717.80 
3037 699.12 629.72 717.80 
3038 695.76 590.81 717.80 
3039 703.34 592.48 717.80 
3040 691.31 584.42 717.80 
3041 680.07 589.35 717.80 
3042 685.78 584.69 717.80 
3043 698.92 607.09 717.80 
3044 691.37 598.89 717.80 
3045 682.86 598.29 717.80 
3046 683.37 594.29 717.80 
3047 692.67 601.41 717.80 
3048 683.89 603.02 717.80 
3049 701.59 627.81 717.80 
3050 688.57 596.07 717.80 
3051 703.31 635.42 717.80 
3052 699.42 599.74 717.80 
3053 704.11 603.84 717.80 
3054 704.40 618.71 717.80 
3055 697.18 605.80 717.80 
3056 690.08 582.38 717.80 
3057 691.73 607.31 717.80 
3058 705.72 609.63 717.80 
3059 694.78 616.63 717.80 
3060 694.24 612.57 717.80 
3061 700.11 642.86 717.80 
3062 697.22 634.57 717.80 
3063 687.92 640.63 717.80 
3064 691.48 616.65 717.80 
3065 696.21 625.47 717.80 
3066 715.43 611.94 717.80 
3067 704.09 639.51 717.80 
3068 693.48 648.73 717.80 
3069 683.76 636.63 717.80 
3070 696.01 648.32 717.80 
3071 673.95 640.33 717.80 
3072 695.88 637.20 717.80 
3073 690.07 619.77 717.80 
3074 709.99 638.82 717.80 
3075 695.53 628.20 717.80 
3076 685.79 625.58 717.80 
3077 690.67 615.39 717.80 
3078 683.39 595.68 717.80 
3079 707.67 600.39 717.80 
3080 690.18 604.78 717.80 
3081 693.12 592.05 717.80 
3082 694.88 590.44 717.80 
3083 694.84 594.51 717.80 
3084 681.00 557.10 717.80 
3085 673.63 596.06 717.80 
3086 689.04 564.98 717.80 
3087 701.14 599.39 717.80 
3088 695.63 588.28 717.80 
3089 693.00 597.38 717.80 
3090 689.55 588.50 717.80 
3091 681.22 577.07 717.80 
3092 705.69 596.52 717.80 
3093 699.64 567.22 717.80 
3094 687.82 559.91 717.80 
3095 703.15 599.29 717.80 
3096 677.74 589.47 717.80 
3097 694.34 610.41 717.80 
3098 662.26 631.09 717.80 
3099 686.73 620.54 717.80 
3100 683.72 629.51 717.80 
3101 674.02 640.47 717.80 
3102 686.11 633.39 717.80 
3103 685.21 604.20 717.80 
3104 697.80 606.58 717.80 
3105 678.68 619.54 717.80 
3106 676.22 607.79 717.80 
3107 698.50 600.15 717.80 
3108 687.98 610.59 717.80 
3109 687.58 609.10 717.80 
3110 686.42 612.77 717.80 
3111 696.39 598.26 717.80 
3112 674.22 620.32 717.80 
3113 695.02 620.88 717.80 
3114 702.62 612.72 717.80 
3115 687.40 617.01 717.80 
3116 690.61 653.06 717.80 
3117 680.54 647.22 717.80 
3118 701.34 657.39 717.80 
3119 689.46 646.49 717.80 
3120 677.38 637.08 717.80 
3121 691.54 606.50 717.80 
3122 694.02 620.21 717.80 
3123 688.66 621.58 717.80 
3124 685.29 626.15 717.80 
3125 683.62 622.85 717.80 
3126 683.72 626.90 717.80 
3127 691.70 593.99 717.80 
3128 688.99 614.35 717.80 
3129 693.68 618.56 717.80 
3130 699.90 608.01 717.80 
3131 679.86 639.35 717.80 
3132 700.09 586.31 717.80 
3133 689.45 579.21 717.80 
3134 690.58 617.72 717.80 
3135 700.00 605.46 717.80 
3136 696.26 662.67 717.80 
3137 687.81 651.30 717.80 
3138 700.87 636.38 717.80 
3139 683.28 621.56 717.80 
3140 676.22 613.17 717.80 
3141 689.95 599.18 717.80 
3142 704.76 640.98 717.80 
3143 699.13 617.03 717.80 
3144 684.80 618.14 717.80 
3145 698.01 606.04 717.80 
3146 690.30 603.77 717.80 
3147 696.65 617.85 717.80 
3148 700.55 645.93 717.80 
3149 705.19 635.03 717.80 
3150 688.10 659.43 717.80 
3151 693.76 629.17 717.80 
3152 682.50 640.21 717.80 
3153 701.48 655.45 717.80 
3154 687.80 657.04 717.80 
3155 709.64 658.05 717.80 
3156 694.84 657.67 717.80 
3157 705.11 667.70 717.80 
3158 689.87 653.07 717.80 
3159 694.57 661.59 717.80 
3160 706.37 663.74 717.80 
3161 687.07 656.83 717.80 
3162 699.40 644.27 717.80 
3163 707.77 645.37 717.80 
3164 706.52 675.19 717.80 
3165 676.22 632.86 717.80 
3166 695.04 649.87 717.80 
3167 692.94 651.92 717.80 
3168 694.05 641.51 717.80 
3169 696.56 642.22 717.80 
3170 688.92 618.44 717.80 
3171 699.07 624.34 717.80 
3172 698.23 621.31 717.80 
3173 700.79 624.76 717.80 
3174 685.02 647.03 717.80 
3175 684.56 658.87 717.80 
3176 694.67 643.71 717.80 
3177 678.01 636.52 717.80 
3178 691.77 651.74 717.80 
3179 702.12 648.65 717.80 
3180 708.02 630.38 717.80 
3181 699.59 623.78 717.80 
3182 693.41 639.51 717.80 
3183 708.98 645.72 717.80 
3184 709.10 648.86 717.80 
3185 683.54 626.39 717.80 
3186 710.48 645.34 717.80 
3187 704.12 656.89 717.80 
3188 700.51 660.70 717.80 
3189 701.11 657.30 717.80 
3190 689.85 658.81 717.80 
3191 710.00 639.94 717.80 
3192 688.20 643.61 717.80 
3193 700.25 619.93 717.80 
3194 697.49 612.44 717.80 
3195 713.08 625.10 717.80 
3196 696.18 642.26 717.80 
3197 694.62 630.32 717.80 
3198 684.70 626.51 717.80 
3199 700.17 654.86 717.80 
3200 696.46 624.86 717.80 
3201 701.70 629.22 717.80 
3202 668.97 649.92 717.80 
3203 694.41 620.08 717.80 
3204 689.13 592.32 717.80 
3205 692.53 582.24 717.80 
3206 712.19 596.37 717.80 
3207 692.64 604.30 717.80 
3208 691.29 582.71 717.80 
3209 691.11 612.44 717.80 
3210 696.16 575.40 717.80 
3211 708.13 593.19 717.80 
3212 693.88 613.27 717.80 
3213 693.62 621.15 717.80 
3214 701.24 608.43 717.80 
3215 702.83 599.22 717.80 
3216 703.09 609.52 717.80 
3217 705.52 613.80 717.80 
3218 691.88 614.51 717.80 
3219 696.54 616.07 717.80 
3220 685.17 652.75 717.80 
3221 676.83 626.96 717.80 
3222 695.91 628.81 717.80 
3223 686.36 636.65 717.80 
3224 689.95 639.63 717.80 
3225 687.84 607.50 717.80 
3226 689.63 629.64 717.80 
3227 688.49 638.49 717.80 
3228 693.19 627.83 717.80 
3229 702.54 651.57 717.80 
3230 698.34 604.74 717.80 
3231 696.86 626.29 717.80 
3232 683.81 594.69 717.80 
3233 698.00 561.19 717.80 
3234 701.35 573.38 717.80 
3235 700.37 582.53 717.80 
3236 704.04 576.57 717.80 
3237 701.88 607.12 717.80 
3238 681.36 589.63 717.80 
3239 700.38 630.47 717.80 
3240 696.54 622.94 717.80 
3241 700.84 627.56 717.80 
3242 702.69 628.93 717.80 
3243 693.98 614.66 717.80 
3244 693.06 617.39 717.80 
3245 692.33 625.90 717.80 
3246 701.03 664.66 717.80 
3247 699.54 650.14 717.80 
3248 681.19 623.43 717.80 
3249 697.74 625.02 717.80 
3250 690.57 601.36 717.80 
3251 704.74 608.84 717.80 
3252 697.33 605.50 717.80 
3253 709.97 613.21 717.80 
3254 693.48 618.24 717.80 
3255 699.47 622.05 717.80 
3256 690.15 617.01 717.80 
3257 697.56 625.60 717.80 
3258 691.34 609.64 717.80 
3259 683.27 643.16 717.80 
3260 674.03 640.15 717.80 
3261 687.69 638.95 717.80 
3262 696.30 654.38 717.80 
3263 684.64 621.40 717.80 
3264 702.73 629.75 717.80 
3265 684.32 629.02 717.80 
3266 696.26 633.19 717.80 
3267 697.44 649.43 717.80 
3268 673.83 633.12 717.80 
3269 687.43 623.35 717.80 
3270 687.91 636.53 717.80 
3271 692.19 665.21 717.80 
3272 714.88 660.36 717.80 
3273 659.01 641.90 717.80 
3274 693.12 656.45 717.80 
3275 681.51 658.89 717.80 
3276 689.00 670.28 717.80 
3277 693.38 651.28 717.80 
3278 694.83 669.16 717.80 
3279 694.86 664.47 717.80 
3280 691.14 660.42 717.80 
3281 698.47 653.86 717.80 
3282 693.38 630.49 717.80 
3283 698.72 647.54 717.80 
3284 695.45 639.68 717.80 
3285 699.14 615.43 717.80 
3286 684.78 629.65 717.80 
3287 696.81 621.41 717.80 
3288 694.77 622.09 717.80 
3289 695.51 635.46 717.80 
3290 697.61 659.38 717.80 
3291 701.75 656.53 717.80 
3292 694.45 664.63 717.80 
3293 690.82 650.98 717.80 
3294 688.04 652.07 717.80 
3295 689.48 662.84 717.80 
3296 675.75 660.22 717.80 
3297 703.16 646.48 717.80 
3298 666.12 657.08 717.80 
3299 703.82 649.72 717.80 
3300 686.40 654.03 717.80 
3301 693.53 639.55 717.80 
3302 682.98 651.61 717.80 
3303 691.96 628.29 717.80 
3304 693.24 623.67 717.80 
3305 688.85 636.77 717.80 
3306 683.99 640.58 717.80 
3307 686.64 655.23 717.80 
3308 689.40 654.94 717.80 
3309 681.58 654.79 717.80 
3310 686.64 614.89 717.80 
3311 695.27 641.64 717.80 
3312 688.74 662.45 717.80 
3313 685.13 673.35 717.80 
3314 680.09 664.16 717.80 
3315 691.23 682.20 717.80 
3316 692.53 678.77 717.80 
3317 696.26 678.74 717.80 
3318 693.17 673.22 717.80 
3319 703.31 678.79 717.80 
3320 704.10 659.55 717.80 
3321 679.14 670.18 717.80 
3322 696.12 659.26 717.80 
3323 697.19 653.86 717.80 
3324 694.97 652.66 717.80 
3325 698.94 648.07 717.80 
3326 685.00 638.42 717.80 
3327 694.54 645.79 717.80 
3328 695.55 677.32 717.80 
3329 688.18 656.87 717.80 
3330 691.66 662.98 717.80 
3331 683.92 633.70 717.80 
3332 692.80 647.66 717.80 
3333 684.76 651.81 717.80 
3334 681.40 638.47 717.80 
3335 685.30 637.98 717.80 
3336 683.46 667.23 717.80 
3337 685.90 665.34 717.80 
3338 693.09 649.77 717.80 
3339 678.69 640.59 717.80 
3340 681.22 638.33 717.80 
3341 700.59 638.11 717.80 
3342 696.16 638.04 717.80 
3343 703.94 654.76 717.80 
3344 694.38 649.93 717.80 
3345 676.56 642.58 717.80 
3346 689.77 631.21 717.80 
3347 680.94 618.90 717.80 
3348 684.06 622.84 717.80 
3349 694.69 588.83 717.80 
3350 697.58 592.14 717.80 
3351 692.07 575.10 717.80 
3352 703.66 596.73 717.80 
3353 697.23 587.34 717.80 
3354 701.35 570.02 717.80 
3355 692.25 611.16 717.80 
3356 698.61 614.61 717.80 
3357 696.22 618.26 717.80 
3358 682.05 623.79 717.80 
3359 685.66 606.00 717.80 
3360 702.25 628.08 717.80 
3361 691.87 605.06 717.80 
3362 709.08 639.11 717.80 
3363 699.67 679.61 717.80 
3364 707.26 650.71 717.80 
3365 689.36 636.07 717.80 
3366 679.82 632.29 717.80 
3367 699.23 623.95 717.80 
3368 705.24 631.05 717.80 
3369 681.37 650.14 717.80 
3370 695.79 653.70 717.80 
3371 701.24 650.90 717.80 
3372 687.80 664.31 717.80 
3373 705.24 653.47 717.80 
3374 681.71 662.62 717.80 
3375 694.12 672.41 717.80 
3376 696.37 675.78 717.80 
3377 692.52 672.89 717.80 
3378 685.88 673.48 717.80 
3379 699.46 673.08 717.80 
3380 696.52 654.39 717.80 
3381 691.50 655.18 717.80 
3382 705.04 665.93 717.80 
3383 692.85 659.32 717.80 
3384 685.34 671.97 717.80 
3385 697.55 665.05 717.80 
3386 702.00 629.20 717.80 
3387 706.98 625.23 717.80 
3388 703.52 601.43 717.80 
3389 691.31 633.02 717.80 
3390 709.84 664.51 717.80 
3391 709.23 649.96 717.80 
3392 699.52 660.87 717.80 
3393 707.49 670.68 717.80 
3394 688.02 650.58 717.80 
3395 690.78 651.72 717.80 
3396 698.18 657.54 717.80 
3397 703.02 662.62 717.80 
3398 715.17 624.07 717.80 
3399 700.62 629.65 717.80 
3400 701.11 647.76 717.80 
3401 687.77 659.77 717.80 
3402 689.62 677.46 717.80 
3403 693.02 637.41 717.80 
3404 682.09 645.29 717.80 
3405 684.13 664.82 717.80 
3406 683.58 683.33 717.80 
3407 686.12 665.88 717.80 
3408 700.44 658.27 717.80 
3409 695.51 646.49 717.80 
3410 690.74 640.29 717.80 
3411 691.88 636.49 717.80 
3412 700.90 607.97 717.80 
3413 686.57 626.03 717.80 
3414 691.88 629.26 717.80 
3415 713.02 615.73 717.80 
3416 669.71 607.21 717.80 
3417 681.39 633.05 717.80 
3418 688.66 632.00 717.80 
3419 687.14 612.19 717.80 
3420 698.61 641.56 717.80 
3421 690.14 616.81 717.80 
3422 700.80 615.69 717.80 
3423 695.86 619.64 717.80 
3424 696.06 628.29 717.80 
3425 691.14 626.81 717.80 
3426 700.80 611.72 717.80 
3427 683.97 598.55 717.80 
3428 697.51 638.40 717.80 
3429 689.92 618.98 717.80 
3430 699.51 643.73 717.80 
3431 688.50 664.98 717.80 
3432 710.01 670.06 717.80 
3433 675.42 652.92 717.80 
3434 685.48 653.85 717.80 
3435 697.67 657.76 717.80 
3436 705.03 647.16 717.80 
3437 696.61 644.40 717.80 
3438 690.12 673.74 717.80 
3439 694.50 664.78 717.80 
3440 695.66 673.99 717.80 
3441 703.31 666.31 717.80 
3442 704.03 681.47 717.80 
3443 694.08 687.38 717.80 
3444 702.76 679.02 717.80 
3445 697.97 685.66 717.80 
3446 687.21 648.62 717.80 
3447 705.02 637.94 717.80 
3448 692.36 651.07 717.80 
3449 710.32 662.34 717.80 
3450 697.44 656.48 717.80 
3451 704.31 674.92 717.80 
3452 701.83 669.25 717.80 
3453 712.65 646.04 717.80 
3454 702.31 662.28 717.80 
3455 675.03 673.31 717.80 
3456 698.83 677.50 717.80 
3457 704.42 671.05 717.80 
3458 694.38 674.21 717.80 
3459 711.76 665.10 717.80 
3460 697.16 687.60 717.80 
3461 701.65 668.89 717.80 
3462 691.42 687.02 717.80 
3463 701.25 691.30 717.80 
3464 705.05 662.89 717.80 
3465 693.99 628.19 717.80 
3466 691.93 618.56 717.80 
3467 704.19 651.24 717.80 
3468 691.35 650.98 717.80 
3469 709.69 661.13 717.80 
3470 717.12 647.12 717.80 
3471 697.32 642.14 717.80 
3472 697.28 631.26 717.80 
3473 700.54 625.67 717.80 
3474 698.54 644.36 717.80 
3475 702.97 651.31 717.80 
3476 697.75 646.92 717.80 
3477 699.61 631.03 717.80 
3478 711.49 639.86 717.80 
3479 706.77 613.01 717.80 
3480 699.35 628.41 717.80 
3481 697.64 637.66 717.80 
3482 706.75 657.65 717.80 
3483 707.58 630.67 717.80 
3484 680.82 598.61 717.80 
3485 706.11 584.15 717.80 
3486 698.52 583.79 717.80 
3487 703.23 625.86 717.80 
3488 685.51 638.48 717.80 
3489 688.46 645.61 717.80 
3490 710.24 644.81 717.80 
3491 686.01 656.13 717.80 
3492 693.35 660.23 717.80 
3493 703.13 661.12 717.80 
3494 708.67 673.96 717.80 
3495 710.55 649.52 717.80 
3496 699.88 650.63 717.80 
3497 696.23 644.00 717.80 
3498 713.38 647.56 717.80 
3499 700.27 636.03 717.80 
3500 694.27 627.39 717.80 
3501 703.88 650.60 717.80 
3502 694.66 638.23 717.80 
3503 702.10 633.44 717.80 
3504 698.71 632.03 717.80 
3505 706.32 638.34 717.80 
3506 705.35 633.69 717.80 
3507 696.80 645.20 717.80 
3508 697.03 648.11 717.80 
3509 709.16 638.74 717.80 
3510 697.53 611.90 717.80 
3511 706.81 630.34 717.80 
3512 708.89 622.11 717.80 
3513 704.04 616.93 717.80 
3514 689.81 652.39 717.80 
3515 695.51 665.22 717.80 
3516 694.06 648.44 717.80 
3517 692.00 626.87 717.80 
3518 692.71 648.42 717.80 
3519 701.43 658.70 717.80 
3520 701.92 614.45 717.80 
3521 689.36 609.14 717.80 
3522 701.17 618.02 717.80 
3523 707.33 602.86 717.80 
3524 694.56 656.61 717.80 
3525 701.55 667.18 717.80 
3526 700.17 656.46 717.80 
3527 695.38 657.11 717.80 
3528 689.14 651.83 717.80 
3529 701.67 666.49 717.80 
3530 700.83 659.01 717.80 
3531 687.67 651.75 717.80 
3532 707.39 654.86 717.80 
3533 709.38 659.42 717.80 
3534 698.47 671.29 717.80 
3535 700.78 656.24 717.80 
3536 692.29 628.18 717.80 
3537 713.65 652.22 717.80 
3538 692.09 643.30 717.80 
3539 685.21 650.13 717.80 
3540 698.41 641.26 717.80 
3541 707.05 613.59 717.80 
3542 693.32 630.57 717.80 
3543 710.02 618.94 717.80 
3544 689.88 597.44 717.80 
3545 696.88 623.88 717.80 
3546 687.96 599.72 717.80 
3547 707.27 597.93 717.80 
3548 689.24 588.03 717.80 
3549 698.16 598.17 717.80 
3550 704.67 607.99 717.80 
3551 706.96 620.33 717.80 
3552 695.68 611.96 717.80 
3553 706.33 616.92 717.80 
3554 688.64 640.40 717.80 
3555 704.00 636.30 717.80 
3556 697.72 653.95 717.80 
3557 695.64 653.85 717.80 
3558 701.39 663.55 717.80 
3559 690.03 648.98 717.80 
3560 707.12 622.57 717.80 
3561 688.63 622.42 717.80 
3562 701.43 622.10 717.80 
3563 707.81 632.26 717.80 
3564 705.33 650.13 717.80 
3565 699.11 629.03 717.80 
3566 695.55 645.52 717.80 
3567 690.68 647.97 717.80 
3568 691.93 655.87 717.80 
3569 701.81 666.98 717.80 
3570 683.39 613.55 717.80 
3571 713.28 605.08 717.80 
3572 701.93 609.78 717.80 
3573 688.00 640.95 717.80 
3574 701.81 632.97 717.80 
3575 712.03 647.37 717.80 
3576 681.40 636.41 717.80 
3577 697.07 636.60 717.80 
3578 663.64 618.53 717.80 
3579 677.21 601.97 717.80 
3580 687.54 600.85 717.80 
3581 698.53 631.71 717.80 
3582 697.51 631.06 717.80 
3583 688.10 617.80 717.80 
3584 709.51 647.05 717.80 
3585 698.10 613.94 717.80 
3586 709.73 618.16 717.80 
3587 697.95 618.23 717.80 
3588 686.23 631.11 717.80 
3589 698.91 628.01 717.80 
3590 683.44 636.47 717.80 
3591 696.57 596.91 717.80 
3592 681.17 630.15 717.80 
3593 701.39 633.45 717.80 
3594 692.91 646.67 717.80 
3595 702.79 617.81 717.80 
3596 693.81 613.15 717.80 
3597 692.86 638.20 717.80 
3598 701.38 641.70 717.80 
3599 701.10 623.30 717.80 
3600 695.70 625.12 717.80 
3601 691.12 633.91 717.80 
3602 709.68 605.75 717.80 
3603 700.97 604.33 717.80 
3604 693.21 630.04 717.80 
3605 704.96 591.79 717.80 
3606 694.46 612.13 717.80 
3607 693.12 603.40 717.80 
3608 676.59 604.87 717.80 
3609 694.49 599.78 717.80 
3610 689.93 631.66 717.80 
3611 709.54 615.66 717.80 
3612 691.87 657.69 717.80 
3613 697.42 663.21 717.80 
3614 694.83 650.65 717.80 
3615 708.20 647.39 717.80 
3616 679.03 644.77 717.80 
3617 693.21 664.78 717.80 
3618 708.08 639.12 717.80 
3619 688.30 674.37 717.80 
3620 692.50 651.72 717.80 
3621 683.95 653.02 717.80 
3622 704.97 643.60 717.80 
3623 703.74 659.46 717.80 
3624 695.07 658.01 717.80 
3625 693.41 666.84 717.80 
3626 697.03 669.78 717.80 
3627 698.90 654.65 717.80 
3628 697.45 649.64 717.80 
3629 696.48 639.88 717.80 
3630 706.18 641.69 717.80 
3631 700.10 631.68 717.80 
3632 695.49 638.56 717.80 
3633 701.09 635.73 717.80 
3634 694.06 606.45 717.80 
3635 699.66 634.19 717.80 
3636 674.98 616.81 717.80 
3637 684.01 626.51 717.80 
3638 701.85 624.85 717.80 
3639 710.20 643.05 717.80 
3640 709.27 630.49 717.80 
3641 699.48 632.70 717.80 
3642 708.52 629.82 717.80 
3643 707.05 637.74 717.80 
3644 698.36 644.41 717.80 
3645 693.17 627.11 717.80 
3646 697.11 598.29 717.80 
3647 696.86 598.69 717.80 
3648 688.52 622.55 717.80 
3649 710.21 616.21 717.80 
3650 695.87 612.70 717.80 
3651 702.84 608.39 717.80 
3652 698.27 609.26 717.80 
3653 692.16 605.62 717.80 
3654 682.51 618.17 717.80 
3655 713.24 623.61 717.80 
3656 695.66 620.60 717.80 
3657 699.54 601.05 717.80 
3658 693.62 615.82 717.80 
3659 696.52 622.61 717.80 
3660 706.83 609.06 717.80 
3661 708.30 598.78 717.80 
3662 694.29 614.44 717.80 
3663 714.59 584.35 717.80 
3664 699.39 628.90 717.80 
3665 712.84 638.35 717.80 
3666 702.50 617.97 717.80 
3667 696.28 618.87 717.80 
3668 706.94 597.29 717.80 
3669 716.34 631.39 717.80 
3670 693.82 625.68 717.80 
3671 715.40 634.39 717.80 
3672 690.08 633.36 717.80 
3673 691.61 643.61 717.80 
3674 684.03 615.18 717.80 
3675 700.90 607.01 717.80 
3676 703.08 597.51 717.80 
3677 700.07 602.03 717.80 
3678 706.27 584.01 717.80 
3679 711.56 625.45 717.80 
3680 688.16 583.49 717.80 
3681 701.07 580.92 717.80 
3682 703.82 569.42 717.80 
3683 704.66 557.07 717.80 
3684 696.46 559.28 717.80 
3685 698.17 586.47 717.80 
3686 688.01 575.45 717.80 
3687 713.05 583.62 717.80 
3688 688.59 584.81 717.80 
3689 707.89 586.52 717.80 
3690 696.83 581.37 717.80 
3691 703.40 579.77 717.80 
3692 703.57 576.00 717.80 
3693 704.04 567.56 717.80 
3694 705.20 552.01 717.80 
3695 704.54 528.58 717.80 
3696 693.99 520.20 717.80 
3697 691.98 560.58 717.80 
3698 692.64 559.37 717.80 
3699 690.53 564.40 717.80 
3700 692.49 573.91 717.80 
3701 704.76 581.40 717.80 
3702 694.24 572.44 717.80 
3703 684.12 609.21 717.80 
3704 707.69 600.64 717.80 
3705 697.65 579.61 717.80 
3706 698.13 562.69 717.80 
3707 692.80 567.29 717.80 
3708 705.85 599.25 717.80 
3709 687.29 584.09 717.80 
3710 709.05 574.11 717.80 
3711 691.40 597.11 717.80 
3712 702.37 598.06 717.80 
3713 701.84 608.07 717.80 
3714 687.05 605.95 717.80 
3715 694.47 575.36 717.80 
3716 703.13 555.94 717.80 
3717 685.60 583.95 717.80 
3718 694.91 591.30 717.80 
3719 683.58 603.11 717.80 
3720 699.59 582.16 717.80 
3721 709.75 582.37 717.80 
3722 693.79 577.42 717.80 
3723 688.24 582.97 717.80 
3724 699.09 582.66 717.80 
3725 697.69 592.18 717.80 
3726 682.62 601.51 717.80 
3727 700.23 609.34 717.80 
3728 687.51 613.99 717.80 
3729 704.23 625.19 717.80 
3730 691.99 629.89 717.80 
3731 685.60 609.98 717.80 
3732 698.58 622.70 717.80 
3733 704.92 605.88 717.80 
3734 701.74 607.73 717.80 
3735 701.88 609.42 717.80 
3736 690.33 596.85 717.80 
3737 695.74 615.35 717.80 
3738 681.39 595.75 717.80 
3739 693.09 591.75 717.80 
3740 700.12 601.91 717.80 
3741 703.87 595.79 717.80 
3742 696.68 607.58 717.80 
3743 696.64 614.91 717.80 
3744 701.03 597.91 717.80 
3745 699.54 630.36 717.80 
3746 699.63 608.90 717.80 
3747 722.71 630.48 717.80 
3748 708.17 648.48 722.71 
3749 693.71 630.19 722.71 
3750 698.01 627.26 722.71 
3751 709.99 631.82 722.71 
3752 687.63 624.41 722.71 
3753 708.00 596.56 722.71 
3754 700.55 572.29 722.71 
3755 684.81 612.87 722.71 
3756 701.81 648.38 722.71 
3757 701.96 592.10 722.71 
3758 675.90 592.90 722.71 
3759 697.39 567.39 722.71 
3760 692.58 565.36 722.71 
3761 698.80 590.26 722.71 
3762 706.59 579.26 722.71 
3763 702.03 602.84 722.71 
3764 702.15 623.10 722.71 
3765 692.07 593.05 722.71 
3766 684.49 594.16 722.71 
3767 695.13 598.31 722.71 
3768 703.46 605.57 722.71 
3769 683.37 617.50 722.71 
3770 685.35 633.89 722.71 
3771 696.28 609.25 722.71 
3772 709.61 654.99 722.71 
3773 689.81 616.93 722.71 
3774 692.38 634.97 722.71 
3775 690.88 632.06 722.71 
3776 689.11 620.37 722.71 
3777 699.91 622.82 722.71 
3778 691.44 605.47 722.71 
3779 698.85 617.13 722.71 
3780 688.22 633.80 722.71 
3781 679.84 603.95 722.71 
3782 702.35 614.56 722.71 
3783 708.67 670.93 722.71 
3784 692.86 666.62 722.71 
3785 687.32 662.18 722.71 
3786 695.09 634.82 722.71 
3787 697.71 634.70 722.71 
3788 698.89 617.11 722.71 
3789 698.50 616.74 722.71 
3790 705.96 621.49 722.71 
3791 687.41 614.56 722.71 
3792 705.18 614.97 722.71 
3793 704.37 605.48 722.71 
3794 698.96 620.46 722.71 
3795 701.90 629.08 722.71 
3796 692.61 631.50 722.71 
3797 692.30 633.77 722.71 
3798 685.43 608.38 722.71 
3799 696.05 599.86 722.71 
3800 698.52 580.92 722.71 
3801 686.64 605.26 722.71 
3802 712.89 587.00 722.71 
3803 686.72 593.01 722.71 
3804 705.38 572.91 722.71 
3805 707.34 617.51 722.71 
3806 689.84 625.24 722.71 
3807 687.46 630.97 722.71 
3808 698.80 645.88 722.71 
3809 689.93 631.59 722.71 
3810 690.55 631.44 722.71 
3811 701.24 594.80 722.71 
3812 673.31 587.14 722.71 
3813 691.83 613.84 722.71 
3814 700.49 620.51 722.71 
3815 694.68 627.19 722.71 
3816 690.60 594.55 722.71 
3817 683.37 608.32 722.71 
3818 691.66 610.69 722.71 
3819 694.98 607.30 722.71 
3820 690.32 630.69 722.71 
3821 690.41 632.43 722.71 
3822 675.32 633.53 722.71 
3823 694.16 647.73 722.71 
3824 704.55 661.93 722.71 
3825 706.23 641.38 722.71 
3826 687.70 637.56 722.71 
3827 695.65 617.11 722.71 
3828 705.44 618.30 722.71 
3829 696.98 615.09 722.71 
3830 695.87 593.90 722.71 
3831 703.72 649.06 722.71 
3832 699.39 612.25 722.71 
3833 707.31 630.40 722.71 
3834 695.13 614.85 722.71 
3835 685.65 584.22 722.71 
3836 693.32 609.31 722.71 
3837 703.02 593.51 722.71 
3838 695.76 593.94 722.71 
3839 695.77 599.79 722.71 
3840 701.87 592.48 722.71 
3841 700.76 602.99 722.71 
3842 708.81 624.29 722.71 
3843 701.39 575.77 722.71 
3844 707.63 576.23 722.71 
3845 708.71 551.30 722.71 
3846 702.16 580.82 722.71 
3847 693.89 600.41 722.71 
3848 701.67 610.79 722.71 
3849 688.48 602.51 722.71 
3850 706.90 608.96 722.71 
3851 692.57 607.61 722.71 
3852 702.89 594.70 722.71 
3853 687.25 570.69 722.71 
3854 704.03 583.75 722.71 
3855 703.28 586.36 722.71 
3856 699.63 589.06 722.71 
3857 700.55 600.02 722.71 
3858 696.39 599.45 722.71 
3859 697.30 601.03 722.71 
3860 708.18 607.44 722.71 
3861 700.24 613.55 722.71 
3862 692.77 608.97 722.71 
3863 691.40 572.78 722.71 
3864 708.75 571.06 722.71 
3865 692.59 581.14 722.71 
3866 694.53 594.53 722.71 
3867 684.63 625.26 722.71 
3868 692.33 585.56 722.71 
3869 697.45 628.77 722.71 
3870 696.81 647.52 722.71 
3871 702.33 653.23 722.71 
3872 692.38 639.57 722.71 
3873 695.68 640.73 722.71 
3874 691.75 619.31 722.71 
3875 688.84 621.32 722.71 
3876 704.25 614.51 722.71 
3877 703.69 616.54 722.71 
3878 706.30 599.54 722.71 
3879 696.23 614.02 722.71 
3880 705.29 596.42 722.71 
3881 687.77 605.29 722.71 
3882 690.86 577.96 722.71 
3883 695.56 567.42 722.71 
3884 702.25 577.64 722.71 
3885 691.06 574.01 722.71 
3886 677.01 574.69 722.71 
3887 688.44 598.87 722.71 
3888 700.75 604.52 722.71 
3889 694.20 629.25 722.71 
3890 680.52 628.33 722.71 
3891 677.09 604.63 722.71 
3892 693.27 603.18 722.71 
3893 699.50 610.88 722.71 
3894 689.99 565.84 722.71 
3895 707.29 548.77 722.71 
3896 699.85 538.31 722.71 
3897 694.57 589.79 722.71 
3898 696.47 610.98 722.71 
3899 704.96 631.33 722.71 
3900 698.78 635.97 722.71 
3901 689.37 624.56 722.71 
3902 680.43 612.09 722.71 
3903 686.05 634.82 722.71 
3904 694.42 625.18 722.71 
3905 692.42 645.95 722.71 
3906 704.70 620.81 722.71 
3907 704.25 621.33 722.71 
3908 674.95 641.47 722.71 
3909 692.67 628.06 722.71 
3910 695.40 638.21 722.71 
3911 695.46 637.26 722.71 
3912 695.85 634.57 722.71 
3913 702.03 652.14 722.71 
3914 694.98 644.99 722.71 
3915 698.55 643.79 722.71 
3916 696.75 651.19 722.71 
3917 700.64 640.66 722.71 
3918 707.78 647.55 722.71 
3919 708.26 646.73 722.71 
3920 707.94 644.84 722.71 
3921 701.34 623.60 722.71 
3922 720.18 632.37 722.71 
3923 710.46 616.43 722.71 
3924 710.76 584.51 722.71 
3925 704.07 592.08 722.71 
3926 700.52 563.55 722.71 
3927 699.33 575.04 722.71 
3928 710.40 575.69 722.71 
3929 710.51 581.04 722.71 
3930 713.24 581.15 722.71 
3931 708.54 617.44 722.71 
3932 711.03 610.60 722.71 
3933 719.42 644.92 722.71 
3934 689.36 620.68 722.71 
3935 694.11 621.14 722.71 
3936 688.56 598.01 722.71 
3937 699.25 588.32 722.71 
3938 696.42 600.60 722.71 
3939 680.15 617.95 722.71 
3940 696.51 618.65 722.71 
3941 691.13 602.94 722.71 
3942 698.99 596.63 722.71 
3943 702.39 613.31 722.71 
3944 702.02 593.97 722.71 
3945 699.39 594.74 722.71 
3946 701.93 608.41 722.71 
3947 689.31 617.54 722.71 
3948 688.22 634.88 722.71 
3949 700.22 636.29 722.71 
3950 689.26 643.77 722.71 
3951 693.22 629.28 722.71 
3952 702.23 643.28 722.71 
3953 699.45 614.28 722.71 
3954 708.78 576.62 722.71 
3955 682.21 621.70 722.71 
3956 701.08 623.07 722.71 
3957 701.46 593.16 722.71 
3958 715.51 597.23 722.71 
3959 709.80 599.09 722.71 
3960 684.93 605.21 722.71 
3961 695.25 572.20 722.71 
3962 694.01 569.58 722.71 
3963 709.55 575.72 722.71 
3964 704.20 604.67 722.71 
3965 694.50 568.90 722.71 
3966 682.59 569.57 722.71 
3967 702.93 612.66 722.71 
3968 690.19 567.51 722.71 
3969 697.61 571.05 722.71 
3970 687.30 586.13 722.71 
3971 662.86 567.67 722.71 
3972 675.58 577.03 722.71 
3973 698.06 625.94 722.71 
3974 698.08 629.04 722.71 
3975 693.72 616.96 722.71 
3976 689.18 620.50 722.71 
3977 689.13 625.72 722.71 
3978 688.13 627.99 722.71 
3979 677.39 616.77 722.71 
3980 691.45 631.44 722.71 
3981 691.98 614.63 722.71 
3982 689.64 618.93 722.71 
3983 686.40 629.75 722.71 
3984 698.51 642.10 722.71 
3985 697.70 619.65 722.71 
3986 693.74 625.35 722.71 
3987 682.61 629.99 722.71 
3988 686.48 619.32 722.71 
3989 701.28 614.37 722.71 
3990 695.55 611.38 722.71 
3991 694.85 585.11 722.71 
3992 697.59 609.84 722.71 
3993 692.87 613.50 722.71 
3994 684.87 619.33 722.71 
3995 694.16 619.96 722.71 
3996 691.08 656.21 722.71 
3997 701.26 668.45 722.71 
3998 692.88 645.11 722.71 
3999 691.82 659.13 722.71 
4000 710.87 659.53 722.71 
4001 700.79 656.28 722.71 
4002 675.51 660.93 722.71 
4003 722.49 680.01 722.71 
4004 697.51 689.66 722.71 
4005 678.53 660.27 722.71 
4006 708.62 674.50 722.71 
4007 690.28 645.64 722.71 
4008 694.54 657.33 722.71 
4009 693.29 640.05 722.71 
4010 697.39 630.97 722.71 
4011 689.49 643.24 722.71 
4012 699.22 654.52 722.71 
4013 691.52 664.42 722.71 
4014 695.90 655.57 722.71 
4015 702.32 668.54 722.71 
4016 664.43 639.70 722.71 
4017 699.13 647.06 722.71 
4018 688.48 619.16 722.71 
4019 707.15 640.63 722.71 
4020 693.36 623.76 722.71 
4021 707.48 617.32 722.71 
4022 707.34 635.73 722.71 
4023 684.83 628.39 722.71 
4024 704.64 617.00 722.71 
4025 691.43 618.90 722.71 
4026 690.55 613.10 722.71 
4027 680.51 611.47 722.71 
4028 699.23 628.75 722.71 
4029 699.50 632.07 722.71 
4030 700.72 649.91 722.71 
4031 692.18 627.21 722.71 
4032 701.26 613.26 722.71 
4033 693.78 596.20 722.71 
4034 707.31 632.39 722.71 
4035 711.37 604.07 722.71 
4036 693.23 577.18 722.71 
4037 692.02 601.59 722.71 
4038 682.34 626.36 722.71 
4039 687.65 611.75 722.71 
4040 696.93 620.52 722.71 
4041 706.12 637.85 722.71 
4042 710.88 648.67 722.71 
4043 696.68 647.99 722.71 
4044 694.14 621.16 722.71 
4045 699.95 617.19 722.71 
4046 704.68 645.74 722.71 
4047 692.10 604.92 722.71 
4048 691.39 572.55 722.71 
4049 704.07 614.44 722.71 
4050 696.33 632.58 722.71 
4051 692.41 639.64 722.71 
4052 698.26 639.82 722.71 
4053 705.63 652.52 722.71 
4054 704.70 655.77 722.71 
4055 698.19 634.30 722.71 
4056 685.99 585.67 722.71 
4057 677.82 592.54 722.71 
4058 687.87 623.46 722.71 
4059 696.61 622.28 722.71 
4060 696.31 597.48 722.71 
4061 698.61 628.72 722.71 
4062 697.94 640.60 722.71 
4063 684.14 612.95 722.71 
4064 701.75 643.49 722.71 
4065 691.22 634.21 722.71 
4066 686.83 622.56 722.71 
4067 695.55 658.01 722.71 
4068 712.71 661.06 722.71 
4069 713.34 677.27 722.71 
4070 676.86 652.55 722.71 
4071 700.98 642.05 722.71 
4072 706.75 668.86 722.71 
4073 668.98 671.07 722.71 
4074 690.60 676.26 722.71 
4075 713.69 695.36 722.71 
4076 672.70 672.32 722.71 
4077 700.84 667.39 722.71 
4078 703.01 639.25 722.71 
4079 712.06 645.27 722.71 
4080 700.55 634.20 722.71 
4081 705.03 641.33 722.71 
4082 693.81 653.03 722.71 
4083 685.39 631.39 722.71 
4084 694.17 639.73 722.71 
4085 686.59 644.58 722.71 
4086 707.01 650.83 722.71 
4087 697.79 634.51 722.71 
4088 690.95 634.16 722.71 
4089 702.66 637.09 722.71 
4090 698.63 674.78 722.71 
4091 689.56 671.19 722.71 
4092 697.40 653.39 722.71 
4093 708.64 666.32 722.71 
4094 704.44 657.02 722.71 
4095 700.39 677.28 722.71 
4096 694.42 677.61 722.71 
4097 683.08 652.23 722.71 
4098 695.02 655.74 722.71 
4099 695.40 629.64 722.71 
4100 697.17 660.71 722.71 
4101 695.18 656.31 722.71 
4102 718.44 663.77 722.71 
4103 698.80 638.13 722.71 
4104 699.15 631.30 722.71 
4105 699.49 631.39 722.71 
4106 696.57 645.87 722.71 
4107 699.82 657.44 722.71 
4108 695.83 645.50 722.71 
4109 703.07 652.02 722.71 
4110 696.26 637.94 722.71 
4111 718.07 646.28 722.71 
4112 699.31 650.95 722.71 
4113 689.51 683.69 722.71 
4114 695.18 665.52 722.71 
4115 718.54 659.79 722.71 
4116 704.16 667.85 722.71 
4117 691.35 669.79 722.71 
4118 705.93 658.90 722.71 
4119 684.22 670.88 722.71 
4120 688.43 656.52 722.71 
4121 686.60 683.98 722.71 
4122 691.76 654.20 722.71 
4123 689.83 624.62 722.71 
4124 702.36 646.17 722.71 
4125 700.27 648.43 722.71 
4126 701.01 663.77 722.71 
4127 679.23 645.78 722.71 
4128 683.71 643.02 722.71 
4129 701.81 651.57 722.71 
4130 706.39 640.92 722.71 
4131 704.21 648.94 722.71 
4132 698.80 660.19 722.71 
4133 693.97 655.66 722.71 
4134 704.20 656.75 722.71 
4135 690.19 627.16 722.71 
4136 694.66 635.44 722.71 
4137 700.16 662.70 722.71 
4138 687.53 638.47 722.71 
4139 699.93 660.44 722.71 
4140 699.20 628.44 722.71 
4141 700.59 644.09 722.71 
4142 685.08 648.19 722.71 
4143 701.86 651.82 722.71 
4144 710.05 616.77 722.71 
4145 685.91 612.80 722.71 
4146 697.22 618.71 722.71 
4147 688.73 653.88 722.71 
4148 691.71 637.89 722.71 
4149 711.74 639.59 722.71 
4150 687.21 627.14 722.71 
4151 695.30 634.81 722.71 
4152 700.51 645.61 722.71 
4153 699.79 643.93 722.71 
4154 684.10 622.21 722.71 
4155 708.81 643.96 722.71 
4156 692.21 647.09 722.71 
4157 705.26 640.43 722.71 
4158 711.71 640.97 722.71 
4159 705.03 667.04 722.71 
4160 707.23 619.51 722.71 
4161 712.38 652.48 722.71 
4162 705.01 647.28 722.71 
4163 708.44 624.97 722.71 
4164 705.53 613.83 722.71 
4165 702.42 617.24 722.71 
4166 693.99 632.99 722.71 
4167 701.90 628.23 722.71 
4168 690.41 602.08 722.71 
4169 708.31 623.01 722.71 
4170 706.97 620.07 722.71 
4171 703.45 642.49 722.71 
4172 691.19 625.79 722.71 
4173 710.64 645.78 722.71 
4174 705.08 604.52 722.71 
4175 706.94 582.93 722.71 
4176 694.71 575.29 722.71 
4177 698.70 630.87 722.71 
4178 694.29 649.98 722.71 
4179 708.43 640.60 722.71 
4180 688.91 625.64 722.71 
4181 711.57 626.22 722.71 
4182 688.84 616.54 722.71 
4183 701.26 646.20 722.71 
4184 691.65 625.86 722.71 
4185 704.44 633.70 722.71 
4186 690.12 609.65 722.71 
4187 692.93 622.33 722.71 
4188 688.34 623.61 722.71 
4189 681.12 606.45 722.71 
4190 693.07 582.36 722.71 
4191 692.51 621.99 722.71 
4192 688.81 583.96 722.71 
4193 694.64 591.54 722.71 
4194 695.30 591.99 722.71 
4195 685.58 595.41 722.71 
4196 686.50 628.31 722.71 
4197 684.76 630.65 722.71 
4198 700.18 610.04 722.71 
4199 707.07 621.54 722.71 
4200 704.01 654.47 722.71 
4201 703.43 626.33 722.71 
4202 694.89 594.22 722.71 
4203 702.61 591.37 722.71 
4204 681.24 585.03 722.71 
4205 683.53 579.83 722.71 
4206 683.98 585.79 722.71 
4207 690.94 600.41 722.71 
4208 694.55 599.09 722.71 
4209 686.30 611.19 722.71 
4210 692.25 625.80 722.71 
4211 694.67 642.70 722.71 
4212 697.39 674.31 722.71 
4213 691.62 671.65 722.71 
4214 712.60 654.01 722.71 
4215 694.24 634.94 722.71 
4216 695.16 631.46 722.71 
4217 679.72 683.95 722.71 
4218 697.07 677.29 722.71 
4219 682.80 687.36 722.71 
4220 691.19 698.45 722.71 
4221 690.68 680.61 722.71 
4222 705.48 706.12 722.71 
4223 707.38 695.63 722.71 
4224 705.03 667.88 722.71 
4225 699.52 691.60 722.71 
4226 704.36 685.50 722.71 
4227 692.86 682.63 722.71 
4228 706.30 654.07 722.71 
4229 692.47 633.56 722.71 
4230 698.05 640.73 722.71 
4231 715.74 674.10 722.71 
4232 691.42 669.17 722.71 
4233 693.82 668.26 722.71 
4234 705.53 670.12 722.71 
4235 696.23 636.60 722.71 
4236 694.00 666.79 722.71 
4237 691.61 657.57 722.71 
4238 681.59 648.04 722.71 
4239 685.27 637.64 722.71 
4240 685.98 659.59 722.71 
4241 691.65 669.39 722.71 
4242 685.88 641.86 722.71 
4243 686.27 651.73 722.71 
4244 694.86 649.50 722.71 
4245 693.95 656.79 722.71 
4246 695.42 670.01 722.71 
4247 683.65 639.98 722.71 
4248 694.33 645.58 722.71 
4249 697.00 641.25 722.71 
4250 689.06 644.42 722.71 
4251 690.40 661.75 722.71 
4252 687.55 657.46 722.71 
4253 688.02 649.41 722.71 
4254 692.58 659.93 722.71 
4255 683.03 674.25 722.71 
4256 701.26 676.97 722.71 
4257 699.42 654.12 722.71 
4258 693.40 645.22 722.71 
4259 707.04 651.15 722.71 
4260 687.64 657.42 722.71 
4261 703.00 663.94 722.71 
4262 716.35 663.58 722.71 
4263 700.65 666.19 722.71 
4264 704.93 672.96 722.71 
4265 706.30 652.41 722.71 
4266 690.63 650.70 722.71 
4267 703.43 656.22 722.71 
4268 701.47 639.18 722.71 
4269 698.38 635.60 722.71 
4270 701.90 635.33 722.71 
4271 684.34 617.71 722.71 
4272 701.43 645.62 722.71 
4273 707.07 661.69 722.71 
4274 700.37 656.33 722.71 
4275 687.23 644.33 722.71 
4276 693.97 641.31 722.71 
4277 676.41 636.74 722.71 
4278 684.97 637.52 722.71 
4279 684.21 648.74 722.71 
4280 691.00 649.90 722.71 
4281 692.55 647.39 722.71 
4282 698.56 637.09 722.71 
4283 692.44 615.87 722.71 
4284 696.43 604.48 722.71 
4285 692.50 590.21 722.71 
4286 679.52 583.29 722.71 
4287 692.06 585.37 722.71 
4288 682.15 593.92 722.71 
4289 696.01 597.61 722.71 
4290 696.49 586.28 722.71 
4291 702.42 579.34 722.71 
4292 702.55 585.95 722.71 
4293 706.09 581.48 722.71 
4294 699.87 603.77 722.71 
4295 707.89 591.36 722.71 
4296 701.80 565.52 722.71 
4297 697.01 582.29 722.71 
4298 698.24 579.43 722.71 
4299 700.08 596.98 722.71 
4300 696.15 620.76 722.71 
4301 699.29 655.32 722.71 
4302 687.06 642.31 722.71 
4303 708.12 631.94 722.71 
4304 703.44 646.01 722.71 
4305 692.70 629.98 722.71 
4306 702.95 637.44 722.71 
4307 692.66 642.37 722.71 
4308 698.40 632.54 722.71 
4309 696.67 633.49 722.71 
4310 691.73 626.80 722.71 
4311 700.16 641.46 722.71 
4312 681.15 627.88 722.71 
4313 693.88 623.00 722.71 
4314 694.35 607.86 722.71 
4315 700.83 642.25 722.71 
4316 701.41 642.59 722.71 
4317 692.52 663.53 722.71 
4318 692.47 666.10 722.71 
4319 695.54 651.60 722.71 
4320 698.46 658.10 722.71 
4321 684.60 665.77 722.71 
4322 692.55 642.07 722.71 
4323 694.70 630.38 722.71 
4324 693.00 628.12 722.71 
4325 691.01 646.95 722.71 
4326 689.35 645.09 722.71 
4327 701.02 638.50 722.71 
4328 697.51 634.48 722.71 
4329 699.73 643.57 722.71 
4330 697.74 658.94 722.71 
4331 703.94 639.37 722.71 
4332 701.40 645.36 722.71 
4333 707.62 626.87 722.71 
4334 710.17 653.08 722.71 
4335 698.79 652.24 722.71 
4336 710.54 637.89 722.71 
4337 691.79 649.51 722.71 
4338 688.52 641.07 722.71 
4339 703.02 614.12 722.71 
4340 712.55 612.75 722.71 
4341 703.27 643.50 722.71 
4342 702.96 654.41 722.71 
4343 696.68 649.36 722.71 
4344 684.49 669.06 722.71 
4345 682.49 664.34 722.71 
4346 697.33 667.21 722.71 
4347 688.46 657.97 722.71 
4348 703.24 655.10 722.71 
4349 688.40 643.40 722.71 
4350 700.50 639.76 722.71 
4351 702.09 634.23 722.71 
4352 688.95 632.60 722.71 
4353 705.68 637.32 722.71 
4354 701.83 631.41 722.71 
4355 691.15 628.76 722.71 
4356 704.51 650.11 722.71 
4357 695.28 658.32 722.71 
4358 695.21 675.73 722.71 
4359 704.52 651.14 722.71 
4360 699.74 644.56 722.71 
4361 676.43 649.71 722.71 
4362 699.04 633.12 722.71 
4363 696.89 614.08 722.71 
4364 691.57 620.16 722.71 
4365 712.22 616.17 722.71 
4366 703.82 581.50 722.71 
4367 704.69 606.98 722.71 
4368 688.58 611.96 722.71 
4369 701.78 620.68 722.71 
4370 699.81 648.69 722.71 
4371 702.61 621.45 722.71 
4372 685.41 607.36 722.71 
