Iter | Sampling Pol | Evaluation Pol | Best (Sampled) 
   0 -226.10 -281.92 -100000000.00 
   1 -229.80 -269.70 -226.10 
   2 -226.53 -283.18 -226.10 
   3 -230.61 -272.97 -226.10 
   4 -224.55 -282.29 -226.10 
   5 -224.10 -287.85 -224.55 
   6 -225.39 -264.92 -224.10 
   7 -224.65 -283.30 -224.10 
   8 -223.95 -350.92 -224.10 
   9 -224.39 -328.67 -223.95 
  10 -223.17 -348.18 -223.95 
  11 -223.42 -335.08 -223.17 
  12 -221.05 -328.11 -223.17 
  13 -219.15 -334.72 -221.05 
  14 -221.87 -359.59 -219.15 
  15 -218.20 -345.50 -219.15 
  16 -220.47 -368.13 -218.20 
  17 -214.34 -364.03 -218.20 
  18 -219.09 -343.78 -214.34 
  19 -217.67 -337.99 -214.34 
  20 -216.27 -307.28 -214.34 
  21 -214.57 -317.24 -214.34 
  22 -215.03 -318.01 -214.34 
  23 -214.01 -308.10 -214.34 
  24 -212.03 -303.55 -214.01 
  25 -214.97 -322.16 -212.03 
  26 -211.74 -315.66 -212.03 
  27 -210.36 -300.46 -211.74 
  28 -212.56 -247.01 -210.36 
  29 -208.74 -233.03 -210.36 
  30 -205.05 -253.12 -208.74 
  31 -210.52 -230.85 -205.05 
  32 -210.09 -215.06 -205.05 
  33 -209.77 -215.61 -205.05 
  34 -207.87 -258.57 -205.05 
  35 -209.27 -254.19 -205.05 
  36 -204.72 -249.23 -205.05 
  37 -205.14 -230.96 -204.72 
  38 -205.02 -243.91 -204.72 
  39 -206.01 -201.22 -204.72 
  40 -203.55 -199.90 -204.72 
  41 -205.64 -207.50 -203.55 
  42 -203.24 -245.84 -203.55 
  43 -203.93 -203.92 -203.24 
  44 -200.89 -206.82 -203.24 
  45 -202.38 -182.72 -200.89 
  46 -201.79 -198.07 -200.89 
  47 -201.07 -258.20 -200.89 
  48 -200.74 -242.14 -200.89 
  49 -199.60 -197.50 -200.74 
  50 -199.12 -243.02 -199.60 
  51 -199.88 -230.62 -199.12 
  52 -199.57 -206.62 -199.12 
  53 -194.16 -187.82 -199.12 
  54 -199.09 -184.05 -194.16 
  55 -196.48 -189.21 -194.16 
  56 -194.18 -185.66 -194.16 
  57 -193.30 -184.23 -194.16 
  58 -193.18 -211.46 -193.30 
  59 -194.45 -208.04 -193.18 
  60 -192.69 -215.84 -193.18 
  61 -192.82 -200.38 -192.69 
  62 -186.64 -197.86 -192.69 
  63 -191.05 -205.18 -186.64 
  64 -192.27 -197.86 -186.64 
  65 -189.31 -208.72 -186.64 
  66 -190.50 -204.00 -186.64 
  67 -188.81 -203.72 -186.64 
  68 -189.43 -180.96 -186.64 
  69 -183.88 -179.06 -186.64 
  70 -187.46 -184.15 -183.88 
  71 -187.13 -188.03 -183.88 
  72 -188.14 -178.58 -183.88 
  73 -186.70 -163.40 -183.88 
  74 -182.00 -186.76 -183.88 
  75 -184.01 -171.35 -182.00 
  76 -182.53 -178.36 -182.00 
  77 -180.22 -173.63 -182.00 
  78 -180.23 -166.27 -180.22 
  79 -180.39 -154.80 -180.22 
  80 -183.56 -151.22 -180.22 
  81 -184.48 -150.80 -180.22 
  82 -178.60 -163.62 -180.22 
  83 -177.87 -155.84 -178.60 
  84 -181.74 -154.66 -177.87 
  85 -175.32 -158.61 -177.87 
  86 -179.86 -169.43 -175.32 
  87 -178.83 -149.21 -175.32 
  88 -177.19 -171.68 -175.32 
  89 -175.82 -149.77 -175.32 
  90 -174.98 -172.26 -175.32 
  91 -174.19 -148.78 -174.98 
  92 -176.50 -154.14 -174.19 
  93 -172.39 -144.23 -174.19 
  94 -172.29 -172.50 -172.39 
  95 -175.68 -147.95 -172.29 
  96 -171.83 -155.05 -172.29 
  97 -173.79 -166.66 -171.83 
  98 -169.38 -166.21 -171.83 
  99 -172.74 -152.89 -169.38 
 100 -173.81 -164.30 -169.38 
 101 -169.67 -146.10 -169.38 
 102 -169.52 -172.39 -169.38 
 103 -172.41 -177.47 -169.38 
 104 -171.26 -177.89 -169.38 
 105 -171.38 -151.15 -169.38 
 106 -167.61 -163.98 -169.38 
 107 -169.23 -156.45 -167.61 
 108 -167.93 -173.83 -167.61 
 109 -169.84 -177.58 -167.61 
 110 -167.23 -169.94 -167.61 
 111 -170.67 -179.15 -167.23 
 112 -166.83 -159.90 -167.23 
 113 -165.45 -166.00 -166.83 
 114 -167.98 -170.07 -165.45 
 115 -166.00 -168.43 -165.45 
 116 -162.81 -163.57 -165.45 
 117 -167.40 -182.07 -162.81 
 118 -168.11 -198.89 -162.81 
 119 -167.24 -138.37 -162.81 
 120 -165.61 -146.60 -162.81 
 121 -163.36 -149.57 -162.81 
 122 -164.10 -175.82 -162.81 
 123 -164.00 -206.20 -162.81 
 124 -163.98 -206.16 -162.81 
 125 -163.44 -201.51 -162.81 
 126 -162.59 -159.93 -162.81 
 127 -164.85 -154.57 -162.59 
 128 -163.39 -166.92 -162.59 
 129 -161.83 -157.09 -162.59 
 130 -162.01 -172.49 -161.83 
 131 -162.34 -151.48 -161.83 
 132 -160.92 -173.09 -161.83 
 133 -160.86 -175.70 -160.92 
 134 -160.22 -178.72 -160.86 
 135 -160.21 -172.14 -160.22 
 136 -158.38 -193.68 -160.21 
 137 -158.02 -185.89 -158.38 
 138 -158.83 -185.02 -158.02 
 139 -158.29 -196.23 -158.02 
 140 -158.10 -200.97 -158.02 
 141 -159.62 -176.29 -158.02 
 142 -155.58 -172.44 -158.02 
 143 -157.01 -188.14 -155.58 
 144 -158.52 -181.72 -155.58 
 145 -153.57 -185.80 -155.58 
 146 -156.48 -180.58 -153.57 
 147 -155.18 -192.50 -153.57 
 148 -154.79 -185.58 -153.57 
 149 -153.75 -202.53 -153.57 
 150 -154.28 -204.13 -153.57 
 151 -152.57 -185.03 -153.57 
 152 -151.94 -183.53 -152.57 
 153 -150.45 -177.49 -151.94 
 154 -153.44 -194.06 -150.45 
 155 -153.80 -172.69 -150.45 
 156 -154.47 -188.67 -150.45 
 157 -150.30 -199.29 -150.45 
 158 -151.13 -188.60 -150.30 
 159 -150.87 -180.08 -150.30 
 160 -149.52 -195.63 -150.30 
 161 -151.06 -178.10 -149.52 
 162 -151.58 -178.39 -149.52 
 163 -146.09 -203.43 -149.52 
 164 -149.50 -195.34 -146.09 
 165 -148.45 -209.00 -146.09 
 166 -147.41 -202.94 -146.09 
 167 -146.85 -167.34 -146.09 
 168 -147.02 -185.86 -146.09 
 169 -147.01 -191.93 -146.09 
 170 -144.96 -188.99 -146.09 
 171 -147.20 -178.57 -144.96 
 172 -144.36 -200.89 -144.96 
 173 -143.16 -198.41 -144.36 
 174 -145.30 -191.73 -143.16 
 175 -141.25 -204.51 -143.16 
 176 -144.72 -209.88 -141.25 
 177 -141.65 -192.94 -141.25 
 178 -141.61 -182.89 -141.25 
 179 -141.21 -197.17 -141.25 
 180 -138.23 -211.36 -141.21 
 181 -137.92 -204.24 -138.23 
 182 -141.37 -195.91 -137.92 
 183 -138.48 -212.12 -137.92 
 184 -137.35 -213.91 -137.92 
 185 -138.93 -216.46 -137.35 
 186 -136.57 -196.98 -137.35 
 187 -136.78 -234.44 -136.57 
 188 -137.41 -311.31 -136.57 
 189 -134.40 -212.38 -136.57 
 190 -133.04 -217.42 -134.40 
 191 -131.31 -282.55 -133.04 
 192 -133.44 -279.63 -131.31 
 193 -131.53 -290.99 -131.31 
 194 -128.44 -158.46 -131.31 
 195 -130.26 -154.10 -128.44 
 196 -127.68 -139.87 -128.44 
 197 -128.92 -135.46 -127.68 
 198 -124.43 -120.15 -127.68 
 199 -123.19 -114.41 -124.43 
 200 -125.05 86.26 -123.19 
 201 -120.26 -16.70 -123.19 
 202 -120.73 59.95 -120.26 
 203 -118.18 130.95 -120.26 
 204 -117.62 114.46 -118.18 
 205 -119.63 -93.66 -117.62 
 206 -117.72 -100.90 -117.62 
 207 -116.36 -90.25 -117.62 
 208 -117.25 -1.14 -116.36 
 209 -111.78 157.32 -116.36 
 210 -115.21 162.60 -111.78 
 211 -106.36 101.58 -111.78 
 212 -107.11 155.22 -106.36 
 213 -107.02 82.50 -106.36 
 214 -110.21 154.49 -106.36 
 215 -107.78 82.99 -106.36 
 216 -99.67 37.59 -106.36 
 217 -102.75 90.90 -99.67 
 218 -101.54 78.74 -99.67 
 219 -95.21 -76.24 -99.67 
 220 -91.89 -102.07 -95.21 
 221 -100.11 -105.15 -91.89 
 222 -93.50 -95.41 -91.89 
 223 -92.23 -96.84 -91.89 
 224 -95.73 -85.38 -91.89 
 225 -83.29 -62.45 -91.89 
 226 -86.93 -55.63 -83.29 
 227 -87.22 -90.35 -83.29 
 228 -83.62 -36.39 -83.29 
 229 -77.12 -76.25 -83.29 
 230 -77.91 -57.31 -77.12 
 231 -76.60 -64.59 -77.12 
 232 -81.54 79.14 -76.60 
 233 -66.63 -24.27 -76.60 
 234 -65.38 -54.38 -66.63 
 235 -69.64 -54.59 -65.38 
 236 -79.29 -89.60 -65.38 
 237 -75.75 -72.97 -65.38 
 238 -67.25 -94.24 -65.38 
 239 -62.91 -98.61 -65.38 
 240 -64.57 -96.48 -62.91 
 241 -66.80 -101.68 -62.91 
 242 -64.97 -101.39 -62.91 
 243 -70.89 -111.07 -62.91 
 244 -57.24 -104.99 -62.91 
 245 -52.01 -103.95 -57.24 
 246 -46.47 -106.89 -52.01 
 247 -34.48 -109.12 -46.47 
 248 -40.60 -109.55 -34.48 
 249 -34.40 -105.63 -34.48 
 250 -10.69 -114.43 -34.40 
 251 -28.63 -91.50 -10.69 
 252 -4.74 -83.78 -10.69 
 253  8.10 -72.19 -4.74 
 254 -2.85 -78.45  8.10 
 255 26.99 -102.90  8.10 
 256 20.07 -113.27 26.99 
 257 45.30 -107.70 26.99 
 258 32.46 -111.08 45.30 
 259 59.39 -117.22 45.30 
 260 105.37 -118.66 59.39 
 261 102.38 -128.89 105.37 
 262 188.68 -129.62 105.37 
 263 174.14 -124.97 188.68 
 264 180.36 -120.76 188.68 
 265 196.02 -139.03 188.68 
 266 208.06 -129.52 196.02 
 267 221.33 -126.93 208.06 
 268 191.15 -129.06 221.33 
 269 230.78 -123.04 221.33 
 270 244.86 -120.86 230.78 
 271 226.90 -121.27 244.86 
 272 227.23 -113.21 244.86 
 273 274.49 -111.76 244.86 
 274 267.68 -100.12 274.49 
 275 288.78 -94.20 274.49 
 276 292.50 -100.92 288.78 
 277 301.07 -97.79 292.50 
 278 306.29 -95.09 301.07 
 279 313.00 -99.41 306.29 
 280 278.59 -90.69 313.00 
 281 315.68 -84.99 313.00 
 282 311.48 -75.48 315.68 
 283 320.56 -86.28 315.68 
 284 357.06 -88.26 320.56 
 285 349.38 -84.39 357.06 
 286 308.69 -74.21 357.06 
 287 355.24 -70.59 357.06 
 288 360.94 -72.73 357.06 
 289 342.33 -69.84 360.94 
 290 366.82 -29.57 360.94 
 291 341.28 -7.53 366.82 
 292 360.67 16.73 366.82 
 293 371.78 35.35 366.82 
 294 355.20 30.35 371.78 
 295 365.25 39.38 371.78 
 296 379.98 58.88 371.78 
 297 377.91 20.56 379.98 
 298 365.05 30.21 379.98 
 299 367.31 34.25 379.98 
 300 372.67 24.76 379.98 
 301 371.51 24.70 379.98 
 302 391.61 38.81 379.98 
 303 377.82 53.35 391.61 
 304 396.81 58.27 391.61 
 305 371.06 53.90 396.81 
 306 394.80 63.30 396.81 
 307 413.51 67.97 396.81 
 308 434.12 63.38 413.51 
 309 403.14 62.91 434.12 
 310 429.23 99.29 434.12 
 311 415.58 94.89 434.12 
 312 402.40 80.84 434.12 
 313 381.55 53.91 434.12 
 314 409.98 48.76 434.12 
 315 418.89 67.00 434.12 
 316 410.32 66.94 434.12 
 317 432.90 78.50 434.12 
 318 405.60 81.79 434.12 
 319 410.15 63.71 434.12 
 320 404.31 44.32 434.12 
 321 413.41 53.50 434.12 
 322 401.18 44.46 434.12 
 323 412.59 64.15 434.12 
 324 418.67 69.66 434.12 
 325 404.12 55.66 434.12 
 326 403.37 41.04 434.12 
 327 420.47 49.81 434.12 
 328 433.27 60.15 434.12 
 329 411.09 78.39 434.12 
 330 431.56 64.59 434.12 
 331 411.99 59.40 434.12 
 332 409.39 74.33 434.12 
 333 398.92 118.79 434.12 
 334 452.39 118.58 434.12 
 335 445.10 131.23 452.39 
 336 429.86 147.78 452.39 
 337 420.45 113.96 452.39 
 338 425.60 109.88 452.39 
 339 424.92 114.75 452.39 
 340 416.28 115.10 452.39 
 341 446.82 142.60 452.39 
 342 430.10 171.46 452.39 
 343 427.67 171.08 452.39 
 344 457.93 172.20 452.39 
 345 423.98 196.17 457.93 
 346 430.46 227.31 457.93 
 347 433.05 208.84 457.93 
 348 454.74 223.71 457.93 
 349 435.59 176.27 457.93 
 350 459.40 200.63 457.93 
 351 450.96 174.36 459.40 
 352 442.93 177.26 459.40 
 353 463.38 178.09 459.40 
 354 421.07 182.50 463.38 
 355 443.51 173.55 463.38 
 356 439.15 157.20 463.38 
 357 452.54 173.96 463.38 
 358 417.73 126.54 463.38 
 359 445.91 99.23 463.38 
 360 440.87 116.89 463.38 
 361 449.50 126.71 463.38 
 362 450.69 173.91 463.38 
 363 431.88 132.55 463.38 
 364 466.50 167.09 463.38 
 365 452.95 144.10 466.50 
 366 460.13 167.13 466.50 
 367 457.16 165.70 466.50 
 368 450.39 168.39 466.50 
 369 450.65 171.42 466.50 
 370 433.11 176.46 466.50 
 371 447.90 176.43 466.50 
 372 471.83 186.79 466.50 
 373 468.35 218.86 471.83 
 374 446.56 219.23 471.83 
 375 455.20 224.39 471.83 
 376 460.78 182.58 471.83 
 377 434.13 179.88 471.83 
 378 457.61 180.38 471.83 
 379 477.88 200.42 471.83 
 380 453.32 222.42 477.88 
 381 451.62 209.55 477.88 
 382 445.26 190.20 477.88 
 383 467.77 191.26 477.88 
 384 471.63 208.49 477.88 
 385 455.00 227.63 477.88 
 386 434.71 212.95 477.88 
 387 456.44 216.76 477.88 
 388 450.43 206.56 477.88 
 389 474.86 209.05 477.88 
 390 474.58 194.71 477.88 
 391 462.43 195.14 477.88 
 392 456.71 194.15 477.88 
 393 458.22 201.85 477.88 
 394 461.25 213.21 477.88 
 395 472.95 219.66 477.88 
 396 460.30 224.10 477.88 
 397 463.06 224.90 477.88 
 398 470.09 200.41 477.88 
 399 468.86 205.13 477.88 
 400 466.68 217.89 477.88 
 401 471.20 205.98 477.88 
 402 467.34 195.97 477.88 
 403 461.01 194.88 477.88 
 404 471.73 218.75 477.88 
 405 480.90 228.93 477.88 
 406 478.65 232.20 480.90 
 407 485.08 242.56 480.90 
 408 471.19 254.77 485.08 
 409 493.11 236.11 485.08 
 410 467.18 230.86 493.11 
 411 489.59 236.06 493.11 
 412 466.24 222.97 493.11 
 413 479.27 241.02 493.11 
 414 462.88 246.63 493.11 
 415 478.80 226.19 493.11 
 416 476.12 247.93 493.11 
 417 483.89 255.38 493.11 
 418 477.23 241.89 493.11 
 419 482.31 244.91 493.11 
 420 478.46 249.86 493.11 
 421 480.34 240.85 493.11 
 422 489.36 246.86 493.11 
 423 481.43 250.43 493.11 
 424 482.45 238.03 493.11 
 425 496.45 247.64 493.11 
 426 484.10 244.55 496.45 
 427 495.51 267.52 496.45 
 428 476.80 247.76 496.45 
 429 499.00 227.69 496.45 
 430 490.29 235.47 499.00 
 431 483.82 234.98 499.00 
 432 481.50 227.20 499.00 
 433 482.94 243.50 499.00 
 434 493.77 243.47 499.00 
 435 495.05 243.37 499.00 
 436 485.01 250.96 499.00 
 437 494.55 244.95 499.00 
 438 483.36 248.65 499.00 
 439 499.63 234.31 499.00 
 440 489.76 230.49 499.63 
 441 490.51 234.35 499.63 
 442 501.21 231.48 499.63 
 443 499.40 233.35 501.21 
 444 492.78 233.54 501.21 
 445 495.21 238.23 501.21 
 446 494.42 242.16 501.21 
 447 498.61 247.74 501.21 
 448 475.92 242.53 501.21 
 449 499.61 240.56 501.21 
 450 498.20 240.62 501.21 
 451 492.87 237.08 501.21 
 452 494.93 250.73 501.21 
 453 492.94 245.48 501.21 
 454 504.90 274.80 501.21 
 455 495.43 271.13 504.90 
 456 508.34 261.90 504.90 
 457 499.33 256.42 508.34 
 458 494.58 255.91 508.34 
 459 500.66 260.64 508.34 
 460 480.65 249.99 508.34 
 461 493.43 250.03 508.34 
 462 492.29 239.88 508.34 
 463 488.26 253.23 508.34 
 464 503.90 254.51 508.34 
 465 504.52 264.05 508.34 
 466 499.29 259.62 508.34 
 467 505.13 247.03 508.34 
 468 500.68 256.63 508.34 
 469 499.39 247.13 508.34 
 470 504.00 253.28 508.34 
 471 503.26 257.13 508.34 
 472 493.21 255.46 508.34 
 473 492.23 260.43 508.34 
 474 500.45 256.18 508.34 
 475 505.98 236.36 508.34 
 476 465.56 249.97 508.34 
 477 495.89 250.27 508.34 
 478 508.55 265.43 508.34 
 479 503.16 259.88 508.55 
 480 499.47 244.62 508.55 
 481 500.73 262.78 508.55 
 482 493.45 263.35 508.55 
 483 506.90 267.71 508.55 
 484 491.82 268.19 508.55 
 485 509.31 268.12 508.55 
 486 503.10 266.78 509.31 
 487 503.95 244.09 509.31 
 488 496.17 257.23 509.31 
 489 495.63 253.14 509.31 
 490 505.91 259.42 509.31 
 491 498.31 258.48 509.31 
 492 503.72 258.96 509.31 
 493 499.87 262.51 509.31 
 494 498.42 254.36 509.31 
 495 501.99 259.30 509.31 
 496 508.81 247.79 509.31 
 497 507.48 257.24 509.31 
 498 507.35 262.10 509.31 
 499 497.88 257.76 509.31 
 500 491.27 251.17 509.31 
 501 490.78 255.75 509.31 
 502 508.29 255.90 509.31 
 503 506.66 261.31 509.31 
 504 506.48 256.31 509.31 
 505 499.23 261.58 509.31 
 506 496.24 261.19 509.31 
 507 500.59 257.76 509.31 
 508 508.52 261.59 509.31 
 509 511.94 257.28 509.31 
 510 502.51 254.60 511.94 
 511 505.26 255.04 511.94 
 512 511.05 260.49 511.94 
 513 507.89 265.67 511.94 
 514 510.56 264.79 511.94 
 515 510.13 264.76 511.94 
 516 508.65 263.49 511.94 
 517 502.69 255.46 511.94 
 518 512.13 265.52 511.94 
 519 514.07 274.81 512.13 
 520 512.52 264.29 514.07 
 521 506.80 270.21 514.07 
 522 515.30 264.71 514.07 
 523 515.09 259.08 515.30 
 524 516.62 259.67 515.30 
 525 504.00 278.68 516.62 
 526 505.97 243.96 516.62 
 527 506.30 257.56 516.62 
 528 517.66 256.79 516.62 
 529 516.22 273.31 517.66 
 530 495.80 277.94 517.66 
 531 507.02 277.43 517.66 
 532 519.45 249.33 517.66 
 533 513.35 253.92 519.45 
 534 517.79 304.31 519.45 
 535 507.62 283.24 519.45 
 536 511.02 259.39 519.45 
 537 519.22 278.22 519.45 
 538 511.45 272.72 519.45 
 539 509.43 287.50 519.45 
 540 511.23 289.49 519.45 
 541 518.16 261.90 519.45 
 542 520.96 293.04 519.45 
 543 513.30 262.74 520.96 
 544 517.41 284.52 520.96 
 545 518.40 302.17 520.96 
 546 494.12 301.75 520.96 
 547 522.26 297.07 520.96 
 548 515.32 302.65 522.26 
 549 516.61 301.64 522.26 
 550 519.64 301.19 522.26 
 551 520.03 314.55 522.26 
 552 509.64 320.99 522.26 
 553 522.16 306.49 522.26 
 554 510.95 300.03 522.26 
 555 499.43 290.95 522.26 
 556 517.48 301.10 522.26 
 557 517.36 307.09 522.26 
 558 519.31 316.61 522.26 
 559 517.64 321.66 522.26 
 560 494.18 318.00 522.26 
 561 523.27 318.89 522.26 
 562 520.49 292.20 523.27 
 563 512.80 313.26 523.27 
 564 512.95 309.42 523.27 
 565 515.64 303.94 523.27 
 566 520.43 293.83 523.27 
 567 519.16 304.48 523.27 
 568 514.99 308.69 523.27 
 569 512.22 308.91 523.27 
 570 514.71 260.70 523.27 
 571 519.16 299.22 523.27 
 572 519.28 315.24 523.27 
 573 522.47 324.86 523.27 
 574 522.32 325.79 523.27 
 575 517.54 326.22 523.27 
 576 511.91 316.29 523.27 
 577 523.51 311.89 523.27 
 578 506.59 306.85 523.51 
 579 514.89 311.18 523.51 
 580 520.85 309.63 523.51 
 581 522.58 318.86 523.51 
 582 517.31 323.61 523.51 
 583 517.70 333.38 523.51 
 584 516.62 333.39 523.51 
 585 517.83 327.81 523.51 
 586 517.04 313.24 523.51 
 587 519.03 312.80 523.51 
 588 520.69 315.46 523.51 
 589 518.74 316.13 523.51 
 590 508.05 322.50 523.51 
 591 522.40 313.28 523.51 
 592 522.23 321.54 523.51 
 593 516.14 287.87 523.51 
 594 520.34 314.61 523.51 
 595 516.36 310.37 523.51 
 596 509.14 292.09 523.51 
 597 521.40 316.16 523.51 
 598 517.94 324.36 523.51 
 599 522.41 323.91 523.51 
 600 517.41 314.31 523.51 
 601 522.83 324.83 523.51 
 602 517.59 319.63 523.51 
 603 518.12 313.98 523.51 
 604 522.00 313.84 523.51 
 605 521.31 315.44 523.51 
 606 523.50 313.09 523.51 
 607 523.95 320.56 523.51 
 608 521.35 332.62 523.95 
 609 516.97 319.27 523.95 
 610 524.69 320.38 523.95 
 611 518.28 321.96 524.69 
 612 518.17 329.87 524.69 
 613 518.21 319.58 524.69 
 614 523.38 309.10 524.69 
 615 521.14 311.88 524.69 
 616 505.11 310.15 524.69 
 617 516.58 300.41 524.69 
 618 516.67 305.15 524.69 
 619 520.74 314.25 524.69 
 620 518.63 314.97 524.69 
 621 520.04 323.75 524.69 
 622 517.69 318.23 524.69 
 623 523.91 313.45 524.69 
 624 523.58 314.08 524.69 
 625 517.86 284.45 524.69 
 626 515.16 263.61 524.69 
 627 521.84 281.83 524.69 
 628 519.33 285.70 524.69 
 629 511.65 317.91 524.69 
 630 517.90 310.85 524.69 
 631 516.57 306.27 524.69 
 632 512.06 318.01 524.69 
 633 521.49 306.13 524.69 
 634 512.71 308.24 524.69 
 635 518.35 310.64 524.69 
 636 516.67 315.82 524.69 
 637 520.09 316.06 524.69 
 638 520.30 312.02 524.69 
 639 519.18 311.14 524.69 
 640 515.80 306.64 524.69 
 641 521.80 311.51 524.69 
 642 522.77 330.62 524.69 
 643 511.81 326.80 524.69 
 644 525.16 330.16 524.69 
 645 520.99 333.97 525.16 
 646 523.37 325.43 525.16 
 647 524.22 325.56 525.16 
 648 511.36 325.54 525.16 
 649 524.61 301.45 525.16 
 650 522.56 330.30 525.16 
 651 518.48 320.33 525.16 
 652 523.87 315.40 525.16 
 653 522.11 344.43 525.16 
 654 509.47 335.24 525.16 
 655 507.33 343.32 525.16 
 656 518.90 324.24 525.16 
 657 524.88 328.51 525.16 
 658 509.99 314.43 525.16 
 659 525.22 333.11 525.16 
 660 516.44 314.37 525.22 
 661 517.37 308.21 525.22 
 662 520.32 323.04 525.22 
 663 521.25 319.08 525.22 
 664 524.22 315.63 525.22 
 665 524.85 336.73 525.22 
 666 526.95 342.29 525.22 
 667 520.66 371.73 526.95 
 668 521.85 370.28 526.95 
 669 520.45 336.31 526.95 
 670 523.74 331.08 526.95 
 671 517.84 331.84 526.95 
 672 507.99 335.99 526.95 
 673 525.54 331.80 526.95 
 674 524.44 351.02 526.95 
 675 525.48 343.98 526.95 
 676 511.79 351.78 526.95 
 677 525.28 357.01 526.95 
 678 525.47 362.00 526.95 
 679 526.53 395.50 526.95 
 680 520.74 395.25 526.95 
 681 514.45 390.45 526.95 
 682 509.74 381.20 526.95 
 683 524.18 371.88 526.95 
 684 521.06 375.59 526.95 
 685 523.17 375.61 526.95 
 686 516.13 376.59 526.95 
 687 512.15 371.14 526.95 
 688 519.81 336.68 526.95 
 689 519.84 366.31 526.95 
 690 512.51 361.91 526.95 
 691 520.71 347.46 526.95 
 692 526.77 348.53 526.95 
 693 527.38 343.56 526.95 
 694 526.55 362.10 527.38 
 695 527.42 362.57 527.38 
 696 524.37 359.39 527.42 
 697 523.46 356.12 527.42 
 698 526.59 336.54 527.42 
 699 513.08 335.98 527.42 
 700 521.38 330.83 527.42 
 701 513.39 330.14 527.42 
 702 526.77 330.51 527.42 
 703 526.11 335.02 527.42 
 704 526.51 344.39 527.42 
 705 522.43 343.57 527.42 
 706 514.08 324.52 527.42 
 707 515.84 324.10 527.42 
 708 517.79 334.93 527.42 
 709 517.22 339.74 527.42 
 710 524.51 345.98 527.42 
 711 525.67 370.26 527.42 
 712 516.17 373.74 527.42 
 713 526.92 374.75 527.42 
 714 523.77 360.15 527.42 
 715 519.74 363.83 527.42 
 716 526.53 378.19 527.42 
 717 526.86 378.82 527.42 
 718 528.40 390.54 527.42 
 719 529.22 420.15 528.40 
 720 529.27 403.51 529.22 
 721 520.42 412.47 529.27 
 722 528.71 400.04 529.27 
 723 529.25 412.71 529.27 
 724 525.62 402.61 529.27 
 725 519.26 397.77 529.27 
 726 521.90 406.20 529.27 
 727 526.97 398.58 529.27 
 728 527.65 407.61 529.27 
 729 529.31 385.99 529.27 
 730 529.91 399.47 529.31 
 731 531.07 418.47 529.91 
 732 530.15 415.03 531.07 
 733 529.41 452.30 531.07 
 734 527.38 420.67 531.07 
 735 530.89 420.21 531.07 
 736 525.34 434.01 531.07 
 737 531.62 433.25 531.07 
 738 527.46 458.37 531.62 
 739 529.03 463.15 531.62 
 740 514.69 439.73 531.62 
 741 522.05 425.69 531.62 
 742 512.42 470.64 531.62 
 743 519.95 433.78 531.62 
 744 527.09 405.13 531.62 
 745 520.07 404.42 531.62 
 746 530.48 385.91 531.62 
 747 529.59 388.21 531.62 
 748 524.75 399.78 531.62 
 749 525.68 382.19 531.62 
 750 529.97 380.38 531.62 
 751 521.16 413.24 531.62 
 752 529.98 402.22 531.62 
 753 528.76 369.87 531.62 
 754 521.56 365.31 531.62 
 755 530.47 408.17 531.62 
 756 530.32 407.52 531.62 
 757 524.17 387.79 531.62 
 758 524.68 383.56 531.62 
 759 524.16 384.02 531.62 
 760 529.17 373.15 531.62 
 761 522.30 367.99 531.62 
 762 526.82 392.08 531.62 
 763 524.11 378.34 531.62 
 764 529.09 360.69 531.62 
 765 520.38 350.39 531.62 
 766 526.38 360.84 531.62 
 767 518.48 351.27 531.62 
 768 527.77 351.70 531.62 
 769 527.73 362.35 531.62 
 770 523.03 362.33 531.62 
 771 529.21 369.08 531.62 
 772 522.68 369.34 531.62 
 773 514.43 374.67 531.62 
 774 528.94 368.55 531.62 
 775 518.03 371.84 531.62 
 776 513.42 362.04 531.62 
 777 527.83 367.77 531.62 
 778 529.11 360.18 531.62 
 779 528.66 360.78 531.62 
 780 525.35 355.64 531.62 
 781 531.59 371.25 531.62 
 782 520.48 370.68 531.62 
 783 525.47 322.58 531.62 
 784 531.20 319.43 531.62 
 785 515.57 318.49 531.62 
 786 518.40 312.75 531.62 
 787 518.28 312.72 531.62 
 788 529.36 308.30 531.62 
 789 528.19 341.27 531.62 
 790 523.26 292.78 531.62 
 791 523.18 316.52 531.62 
 792 522.13 316.50 531.62 
 793 523.07 315.92 531.62 
 794 529.92 307.85 531.62 
 795 520.13 303.05 531.62 
 796 516.73 296.55 531.62 
 797 525.83 289.88 531.62 
 798 516.73 290.48 531.62 
 799 520.34 304.68 531.62 
 800 515.52 292.95 531.62 
 801 516.11 305.77 531.62 
 802 527.79 315.27 531.62 
 803 521.50 331.53 531.62 
 804 523.84 318.09 531.62 
 805 528.89 328.19 531.62 
 806 528.98 358.18 531.62 
 807 529.82 344.03 531.62 
 808 520.95 340.41 531.62 
 809 524.17 345.48 531.62 
 810 519.62 339.91 531.62 
 811 528.95 372.10 531.62 
 812 529.92 368.24 531.62 
 813 524.52 366.59 531.62 
 814 525.87 367.06 531.62 
 815 530.34 377.19 531.62 
 816 518.13 372.77 531.62 
 817 530.85 377.24 531.62 
 818 530.25 383.73 531.62 
 819 527.68 378.17 531.62 
 820 521.86 378.89 531.62 
 821 531.68 382.30 531.62 
 822 531.81 382.95 531.68 
 823 532.12 391.91 531.81 
 824 530.63 400.33 532.12 
 825 525.81 386.56 532.12 
 826 512.21 436.46 532.12 
 827 526.00 432.35 532.12 
 828 532.48 418.26 532.12 
 829 530.65 417.87 532.48 
 830 532.56 422.76 532.48 
 831 532.29 412.62 532.56 
 832 531.07 402.60 532.56 
 833 524.74 387.92 532.56 
 834 530.93 373.37 532.56 
 835 532.56 406.74 532.56 
 836 531.81 460.70 532.56 
 837 532.49 421.35 532.56 
 838 532.91 448.92 532.56 
 839 533.75 508.99 532.91 
 840 519.62 514.03 533.75 
 841 533.25 513.24 533.75 
 842 527.31 489.96 533.75 
 843 528.12 502.79 533.75 
 844 515.40 501.48 533.75 
 845 526.85 488.65 533.75 
 846 533.26 463.29 533.75 
 847 533.07 497.10 533.75 
 848 529.02 450.58 533.75 
 849 521.33 458.50 533.75 
 850 525.70 435.30 533.75 
 851 525.86 491.80 533.75 
 852 531.99 510.13 533.75 
 853 532.75 512.78 533.75 
 854 533.05 513.96 533.75 
 855 530.17 511.08 533.75 
 856 528.37 510.23 533.75 
 857 532.60 483.17 533.75 
 858 533.18 496.83 533.75 
 859 533.06 505.67 533.75 
 860 523.14 515.83 533.75 
 861 523.69 513.78 533.75 
 862 532.85 514.64 533.75 
 863 533.08 513.52 533.75 
 864 533.29 515.03 533.75 
 865 533.61 516.48 533.75 
 866 533.09 516.82 533.75 
 867 533.38 516.48 533.75 
 868 533.90 515.63 533.75 
 869 533.89 515.87 533.90 
 870 533.70 494.42 533.90 
 871 533.82 513.56 533.90 
 872 532.22 507.99 533.90 
 873 533.80 504.19 533.90 
 874 533.63 504.55 533.90 
 875 534.07 517.56 533.90 
 876 534.38 518.69 534.07 
 877 534.81 500.54 534.38 
 878 528.85 486.47 534.81 
 879 523.07 511.57 534.81 
 880 534.63 471.68 534.81 
 881 533.84 479.49 534.81 
 882 534.12 467.23 534.81 
 883 528.09 466.97 534.81 
 884 534.31 457.05 534.81 
 885 534.09 470.70 534.81 
 886 528.15 467.11 534.81 
 887 534.43 476.76 534.81 
 888 530.51 488.29 534.81 
 889 533.20 482.12 534.81 
 890 531.06 486.51 534.81 
 891 518.16 451.51 534.81 
 892 532.44 434.10 534.81 
 893 532.71 448.90 534.81 
 894 531.93 467.72 534.81 
 895 534.31 489.57 534.81 
 896 533.93 516.58 534.81 
 897 535.03 518.07 534.81 
 898 528.05 516.69 535.03 
 899 534.32 516.01 535.03 
 900 534.30 518.23 535.03 
 901 534.53 517.86 535.03 
 902 535.19 518.17 535.03 
 903 535.26 518.72 535.19 
 904 517.37 518.59 535.26 
 905 534.56 517.95 535.26 
 906 523.04 516.47 535.26 
 907 534.84 515.91 535.26 
 908 534.45 516.76 535.26 
 909 534.51 516.27 535.26 
 910 534.73 515.67 535.26 
 911 534.81 517.99 535.26 
 912 534.88 515.78 535.26 
 913 529.22 513.91 535.26 
 914 534.83 514.12 535.26 
 915 528.79 511.30 535.26 
 916 529.87 511.78 535.26 
 917 534.76 513.30 535.26 
 918 534.42 513.00 535.26 
 919 534.52 514.34 535.26 
 920 533.72 514.39 535.26 
 921 528.34 511.76 535.26 
 922 533.99 511.80 535.26 
 923 522.19 510.15 535.26 
 924 533.91 508.29 535.26 
 925 533.55 511.45 535.26 
 926 527.89 513.88 535.26 
 927 527.57 514.62 535.26 
 928 534.94 514.64 535.26 
 929 527.77 514.86 535.26 
 930 535.00 513.86 535.26 
 931 534.61 514.75 535.26 
 932 528.74 513.66 535.26 
 933 534.96 518.14 535.26 
 934 534.54 519.48 535.26 
 935 534.94 521.54 535.26 
 936 535.14 523.06 535.26 
 937 535.85 524.40 535.26 
 938 536.20 525.21 535.85 
 939 523.18 524.93 536.20 
 940 521.75 522.63 536.20 
 941 518.88 525.17 536.20 
 942 521.72 523.47 536.20 
 943 535.12 525.37 536.20 
 944 535.15 525.84 536.20 
 945 529.42 522.82 536.20 
 946 535.30 523.92 536.20 
 947 535.36 522.85 536.20 
 948 530.87 524.13 536.20 
 949 530.01 523.80 536.20 
 950 529.43 525.83 536.20 
 951 535.47 525.54 536.20 
 952 535.21 526.28 536.20 
 953 524.54 526.29 536.20 
 954 524.85 524.35 536.20 
 955 529.20 527.60 536.20 
 956 522.49 523.00 536.20 
 957 535.69 522.71 536.20 
 958 529.62 521.52 536.20 
 959 535.21 520.83 536.20 
 960 534.89 520.70 536.20 
 961 528.15 521.01 536.20 
 962 534.85 521.99 536.20 
 963 532.20 521.84 536.20 
 964 528.76 520.33 536.20 
 965 528.11 520.06 536.20 
 966 528.17 519.88 536.20 
 967 534.47 520.02 536.20 
 968 534.99 521.86 536.20 
 969 528.30 524.09 536.20 
 970 535.00 527.75 536.20 
 971 535.32 523.21 536.20 
 972 535.37 527.09 536.20 
 973 526.08 525.56 536.20 
 974 535.30 525.36 536.20 
 975 535.79 528.31 536.20 
 976 536.10 522.89 536.20 
 977 535.89 524.17 536.20 
 978 529.33 521.48 536.20 
 979 535.80 524.96 536.20 
 980 529.02 524.03 536.20 
 981 535.59 525.83 536.20 
 982 529.95 524.19 536.20 
 983 534.12 525.48 536.20 
 984 531.25 527.53 536.20 
 985 533.06 527.55 536.20 
 986 531.18 525.98 536.20 
 987 534.34 527.84 536.20 
 988 535.16 523.78 536.20 
 989 534.77 525.51 536.20 
 990 528.58 525.99 536.20 
 991 528.43 524.61 536.20 
 992 535.27 524.20 536.20 
 993 530.05 524.75 536.20 
 994 535.75 524.63 536.20 
 995 535.36 524.22 536.20 
 996 535.43 528.36 536.20 
 997 536.02 529.43 536.20 
 998 530.52 527.58 536.20 
 999 535.36 525.84 536.20 
1000 529.11 525.65 536.20 
1001 535.67 528.56 536.20 
1002 535.40 527.46 536.20 
1003 535.65 527.26 536.20 
1004 536.33 526.90 536.20 
1005 536.66 526.05 536.33 
1006 535.97 527.78 536.66 
1007 536.26 527.19 536.66 
1008 535.46 528.31 536.66 
1009 529.61 529.45 536.66 
1010 536.42 529.31 536.66 
1011 533.16 529.48 536.66 
1012 536.67 530.42 536.66 
1013 536.53 529.45 536.67 
1014 536.56 528.69 536.67 
1015 537.04 530.55 536.67 
1016 536.89 531.07 537.04 
1017 536.75 530.81 537.04 
1018 536.79 530.19 537.04 
1019 530.11 528.20 537.04 
1020 530.49 529.44 537.04 
1021 536.52 528.78 537.04 
1022 536.41 528.98 537.04 
1023 536.14 529.53 537.04 
1024 537.01 532.86 537.04 
1025 530.59 527.69 537.04 
1026 531.00 527.43 537.04 
1027 536.52 527.24 537.04 
1028 536.91 528.06 537.04 
1029 536.99 528.99 537.04 
1030 537.12 528.88 537.04 
1031 530.33 527.50 537.12 
1032 535.98 530.10 537.12 
1033 536.85 529.54 537.12 
1034 536.89 529.53 537.12 
1035 536.59 530.65 537.12 
1036 536.79 531.02 537.12 
1037 537.37 530.63 537.12 
1038 536.87 530.76 537.37 
1039 537.09 529.50 537.37 
1040 536.94 527.42 537.37 
1041 532.29 528.68 537.37 
1042 537.01 528.73 537.37 
1043 537.15 528.54 537.37 
1044 537.36 529.13 537.37 
1045 526.35 529.57 537.37 
1046 530.96 529.74 537.37 
1047 537.18 533.42 537.37 
1048 537.03 533.54 537.37 
1049 536.92 532.79 537.37 
1050 532.44 530.82 537.37 
1051 537.18 533.25 537.37 
1052 536.84 531.92 537.37 
1053 531.15 531.82 537.37 
1054 536.93 531.36 537.37 
1055 537.24 531.58 537.37 
1056 536.99 532.01 537.37 
1057 530.04 532.86 537.37 
1058 536.88 530.10 537.37 
1059 537.33 529.31 537.37 
1060 531.73 530.51 537.37 
1061 537.07 529.54 537.37 
1062 529.54 529.53 537.37 
1063 537.16 530.15 537.37 
1064 532.29 530.29 537.37 
1065 532.41 531.54 537.37 
1066 537.21 533.22 537.37 
1067 537.31 533.45 537.37 
1068 537.45 534.39 537.37 
1069 531.77 533.87 537.45 
1070 537.32 534.29 537.45 
1071 537.14 533.96 537.45 
1072 537.08 532.26 537.45 
1073 537.57 532.13 537.45 
1074 537.28 530.80 537.57 
1075 530.64 530.79 537.57 
1076 524.88 531.62 537.57 
1077 537.33 530.36 537.57 
1078 537.57 530.40 537.57 
1079 532.14 528.63 537.57 
1080 530.79 527.42 537.57 
1081 531.90 526.35 537.57 
1082 537.10 526.67 537.57 
1083 537.41 528.34 537.57 
1084 537.15 528.11 537.57 
1085 537.09 529.34 537.57 
1086 537.34 529.26 537.57 
1087 532.17 528.44 537.57 
1088 536.97 528.02 537.57 
1089 525.99 528.05 537.57 
1090 537.23 527.91 537.57 
1091 536.54 526.68 537.57 
1092 536.70 527.90 537.57 
1093 537.43 528.94 537.57 
1094 537.48 529.33 537.57 
1095 533.64 529.30 537.57 
1096 537.24 529.60 537.57 
1097 537.54 530.15 537.57 
1098 537.73 528.84 537.57 
1099 531.75 528.44 537.73 
1100 537.17 527.81 537.73 
1101 536.58 527.74 537.73 
1102 536.78 528.92 537.73 
1103 537.30 529.57 537.73 
1104 537.69 531.01 537.73 
1105 537.66 532.31 537.73 
1106 537.39 532.57 537.73 
1107 531.87 531.72 537.73 
1108 537.97 530.82 537.73 
1109 525.28 531.23 537.97 
1110 537.92 530.38 537.97 
1111 537.47 530.92 537.97 
1112 537.55 532.04 537.97 
1113 537.77 532.03 537.97 
1114 538.02 532.63 537.97 
1115 531.84 533.19 538.02 
1116 537.96 532.83 538.02 
1117 538.16 532.85 538.02 
1118 537.93 533.18 538.16 
1119 526.01 531.69 538.16 
1120 537.56 529.95 538.16 
1121 538.07 530.68 538.16 
1122 537.80 532.01 538.16 
1123 537.73 530.87 538.16 
1124 531.40 531.15 538.16 
1125 537.81 531.87 538.16 
1126 537.52 532.60 538.16 
1127 532.94 532.00 538.16 
1128 536.62 533.47 538.16 
1129 537.80 530.84 538.16 
1130 537.73 531.81 538.16 
1131 537.31 530.46 538.16 
1132 537.82 529.63 538.16 
1133 537.80 529.94 538.16 
1134 537.74 530.96 538.16 
1135 537.64 531.07 538.16 
1136 538.07 531.73 538.16 
1137 538.06 531.61 538.16 
1138 537.94 531.27 538.16 
1139 538.07 531.85 538.16 
1140 538.61 532.69 538.16 
1141 526.17 532.66 538.61 
1142 538.47 531.80 538.61 
1143 532.59 531.74 538.61 
1144 538.96 531.65 538.61 
1145 538.33 531.80 538.96 
1146 538.32 531.60 538.96 
1147 538.12 531.53 538.96 
1148 538.81 531.98 538.96 
1149 538.44 532.56 538.96 
1150 538.72 533.08 538.96 
1151 538.93 532.94 538.96 
1152 513.23 533.73 538.96 
1153 538.92 533.84 538.96 
1154 532.13 533.81 538.96 
1155 538.73 533.67 538.96 
1156 538.87 532.17 538.96 
1157 538.82 532.15 538.96 
1158 539.00 532.22 538.96 
1159 538.66 532.87 539.00 
1160 538.63 533.98 539.00 
1161 538.79 533.91 539.00 
1162 539.14 533.87 539.00 
1163 538.82 534.41 539.14 
1164 538.88 535.69 539.14 
1165 539.20 536.89 539.14 
1166 539.30 536.58 539.20 
1167 539.58 536.80 539.30 
1168 539.49 535.91 539.58 
1169 534.53 536.92 539.58 
1170 539.66 537.45 539.58 
1171 539.90 536.95 539.66 
1172 539.61 536.63 539.90 
1173 539.52 537.61 539.90 
1174 536.25 537.90 539.90 
1175 539.49 538.03 539.90 
1176 539.66 537.96 539.90 
1177 539.51 537.93 539.90 
1178 539.76 538.39 539.90 
1179 532.99 538.74 539.90 
1180 539.70 538.35 539.90 
1181 539.55 538.55 539.90 
1182 540.06 539.02 539.90 
1183 527.14 538.86 540.06 
1184 539.95 538.94 540.06 
1185 539.99 538.02 540.06 
1186 540.13 538.38 540.06 
1187 540.26 537.74 540.13 
1188 533.31 538.34 540.26 
1189 540.02 537.94 540.26 
1190 539.87 538.90 540.26 
1191 533.44 538.29 540.26 
1192 540.03 538.12 540.26 
1193 540.17 539.01 540.26 
1194 540.20 539.77 540.26 
1195 539.95 539.09 540.26 
1196 533.33 539.32 540.26 
1197 540.03 540.14 540.26 
1198 540.14 539.55 540.26 
1199 540.25 538.72 540.26 
1200 540.24 538.66 540.26 
1201 540.20 538.40 540.26 
1202 540.27 538.40 540.26 
1203 534.16 538.43 540.27 
1204 540.14 537.05 540.27 
1205 540.42 537.26 540.27 
1206 540.08 538.85 540.42 
1207 540.52 539.33 540.42 
1208 540.54 539.37 540.52 
1209 535.70 538.87 540.54 
1210 540.36 539.37 540.54 
1211 540.34 539.79 540.54 
1212 540.71 539.11 540.54 
1213 534.28 538.65 540.71 
1214 540.39 539.03 540.71 
1215 539.24 538.86 540.71 
1216 540.04 540.02 540.71 
1217 540.24 539.44 540.71 
1218 540.48 540.67 540.71 
1219 540.68 539.33 540.71 
1220 540.63 538.98 540.71 
1221 540.54 540.22 540.71 
1222 540.42 540.39 540.71 
1223 533.46 539.94 540.71 
1224 540.41 539.56 540.71 
1225 540.68 538.73 540.71 
1226 535.55 538.92 540.71 
1227 540.71 539.47 540.71 
1228 540.40 538.66 540.71 
1229 540.27 538.05 540.71 
1230 540.51 538.47 540.71 
1231 540.32 538.78 540.71 
1232 540.72 538.81 540.71 
1233 540.26 539.50 540.72 
1234 540.66 539.66 540.72 
1235 540.79 539.34 540.72 
1236 540.90 539.33 540.79 
1237 540.77 538.97 540.90 
1238 540.75 539.22 540.90 
1239 540.85 539.83 540.90 
1240 541.20 539.63 540.90 
1241 541.10 539.42 541.20 
1242 541.51 539.75 541.20 
1243 541.04 539.46 541.51 
1244 540.72 540.47 541.51 
1245 541.01 540.30 541.51 
1246 541.41 540.69 541.51 
1247 541.34 540.58 541.51 
1248 541.08 540.36 541.51 
1249 541.20 540.34 541.51 
1250 534.40 540.66 541.51 
1251 541.52 540.62 541.51 
1252 541.85 540.91 541.52 
1253 528.50 540.99 541.85 
1254 542.03 540.88 541.85 
1255 541.82 540.40 542.03 
1256 541.80 540.28 542.03 
1257 527.91 539.86 542.03 
1258 541.62 539.33 542.03 
1259 535.20 540.14 542.03 
1260 535.35 540.08 542.03 
1261 541.87 540.83 542.03 
1262 542.20 540.08 542.03 
1263 542.78 540.22 542.20 
1264 530.94 539.96 542.78 
1265 542.73 540.17 542.78 
1266 543.25 540.90 542.78 
1267 512.75 540.45 543.25 
1268 544.07 540.77 543.25 
1269 541.75 540.56 544.07 
1270 543.38 541.46 544.07 
1271 538.06 541.36 544.07 
1272 543.84 540.29 544.07 
1273 543.04 544.07 544.07 
1274 544.75 549.14 544.07 
1275 493.73 544.31 544.75 
1276 544.78 543.76 544.75 
1277 530.38 539.93 544.78 
1278 537.88 539.54 544.78 
1279 537.16 539.61 544.78 
1280 543.55 540.30 544.78 
1281 530.50 540.89 544.78 
1282 543.12 541.18 544.78 
1283 536.78 542.68 544.78 
1284 543.78 542.70 544.78 
1285 544.51 545.67 544.78 
1286 517.22 545.22 544.78 
1287 523.62 541.91 544.78 
1288 530.76 545.47 544.78 
1289 537.42 545.63 544.78 
1290 544.37 546.04 544.78 
1291 544.18 546.06 544.78 
1292 530.66 546.31 544.78 
1293 530.41 545.78 544.78 
1294 537.60 546.38 544.78 
1295 525.31 546.81 544.78 
1296 539.25 546.29 544.78 
1297 544.96 546.33 544.78 
1298 546.05 544.53 544.96 
1299 531.99 544.83 546.05 
1300 545.68 545.36 546.05 
1301 538.49 544.92 546.05 
1302 526.49 546.71 546.05 
1303 541.30 546.41 546.05 
1304 545.51 545.41 546.05 
1305 546.13 545.80 546.05 
1306 539.36 546.28 546.13 
1307 538.72 546.26 546.13 
1308 545.42 546.65 546.13 
1309 539.13 546.66 546.13 
1310 538.79 546.64 546.13 
1311 545.54 546.42 546.13 
1312 539.11 545.85 546.13 
1313 545.71 545.70 546.13 
1314 538.74 541.00 546.13 
1315 543.86 545.30 546.13 
1316 537.85 542.43 546.13 
1317 543.90 542.68 546.13 
1318 544.10 546.65 546.13 
1319 545.97 546.88 546.13 
1320 539.98 546.50 546.13 
1321 516.27 546.30 546.13 
1322 541.18 546.28 546.13 
1323 546.10 546.97 546.13 
1324 547.27 547.44 546.13 
1325 547.27 547.26 547.27 
1326 534.40 547.12 547.27 
1327 546.98 546.90 547.27 
1328 527.46 546.30 547.27 
1329 547.24 546.49 547.27 
1330 547.64 545.79 547.27 
1331 542.47 546.85 547.64 
1332 535.05 550.06 547.64 
1333 523.82 546.31 547.64 
1334 529.02 545.37 547.64 
1335 535.84 545.53 547.64 
1336 546.56 545.44 547.64 
1337 546.99 545.70 547.64 
1338 547.54 545.92 547.64 
1339 520.97 546.06 547.64 
1340 534.93 546.91 547.64 
1341 548.24 546.84 547.64 
1342 548.11 546.51 548.24 
1343 542.00 546.98 548.24 
1344 547.62 550.83 548.24 
1345 548.11 551.34 548.24 
1346 542.07 550.57 548.24 
1347 534.40 546.48 548.24 
1348 547.76 546.01 548.24 
1349 541.23 545.80 548.24 
1350 541.13 546.11 548.24 
1351 547.19 546.18 548.24 
1352 545.09 546.55 548.24 
1353 547.47 546.78 548.24 
1354 548.19 546.86 548.24 
1355 547.94 550.41 548.24 
1356 541.51 549.81 548.24 
1357 541.31 545.98 548.24 
1358 547.21 545.85 548.24 
1359 547.87 549.91 548.24 
1360 540.09 550.55 548.24 
1361 547.90 549.90 548.24 
1362 546.56 545.78 548.24 
1363 548.55 544.79 548.24 
1364 534.82 545.35 548.55 
1365 540.83 545.17 548.55 
1366 547.41 545.92 548.55 
1367 548.11 549.90 548.55 
1368 531.54 549.66 548.55 
1369 548.17 549.24 548.55 
1370 535.06 544.82 548.55 
1371 547.53 548.68 548.55 
1372 547.22 549.43 548.55 
1373 543.76 549.02 548.55 
1374 547.92 548.75 548.55 
1375 548.16 549.28 548.55 
1376 541.91 545.51 548.55 
1377 547.78 546.14 548.55 
1378 548.13 549.18 548.55 
1379 548.69 549.60 548.55 
1380 542.03 549.51 548.69 
1381 542.10 548.88 548.69 
1382 548.60 549.53 548.69 
1383 547.85 549.44 548.69 
1384 548.83 548.97 548.69 
1385 548.72 549.67 548.83 
1386 549.13 548.57 548.83 
1387 549.07 549.67 549.13 
1388 543.39 549.11 549.13 
1389 549.42 549.16 549.13 
1390 548.80 548.98 549.42 
1391 548.45 549.28 549.42 
1392 548.82 549.17 549.42 
1393 549.63 549.59 549.42 
1394 549.52 550.25 549.63 
1395 549.48 550.08 549.63 
1396 549.79 550.24 549.63 
1397 550.25 550.55 549.79 
1398 549.91 550.59 550.25 
1399 536.37 550.24 550.25 
1400 549.83 550.92 550.25 
1401 550.19 550.76 550.25 
1402 550.40 550.13 550.25 
1403 550.64 550.87 550.40 
1404 550.44 551.33 550.64 
1405 536.87 550.27 550.64 
1406 550.50 550.59 550.64 
1407 550.72 550.62 550.64 
1408 550.78 550.24 550.72 
1409 550.61 550.12 550.78 
1410 550.55 550.73 550.78 
1411 550.53 550.45 550.78 
1412 545.00 550.25 550.78 
1413 551.42 550.25 550.78 
1414 550.94 550.44 551.42 
1415 544.28 550.46 551.42 
1416 550.95 550.89 551.42 
1417 550.62 550.39 551.42 
1418 551.08 550.85 551.42 
1419 550.97 550.76 551.42 
1420 551.21 550.43 551.42 
1421 551.44 550.49 551.42 
1422 551.18 550.00 551.44 
1423 551.34 549.47 551.44 
1424 551.28 549.87 551.44 
1425 551.16 549.99 551.44 
1426 551.43 550.15 551.44 
1427 551.59 550.08 551.44 
1428 545.47 550.64 551.59 
1429 545.75 550.71 551.59 
1430 550.94 551.12 551.59 
1431 551.19 550.78 551.59 
1432 551.28 550.74 551.59 
1433 551.34 551.51 551.59 
1434 551.50 551.43 551.59 
1435 550.41 551.47 551.59 
1436 551.25 550.62 551.59 
1437 551.36 551.05 551.59 
1438 545.23 550.44 551.59 
1439 544.60 550.41 551.59 
1440 550.97 550.64 551.59 
1441 551.70 550.91 551.59 
1442 551.31 551.10 551.70 
1443 544.24 551.54 551.70 
1444 551.07 552.38 551.70 
1445 550.98 551.74 551.70 
1446 551.08 551.69 551.70 
1447 551.25 551.21 551.70 
1448 551.46 551.37 551.70 
1449 551.56 551.48 551.70 
1450 551.47 550.96 551.70 
1451 551.10 550.55 551.70 
1452 551.92 550.55 551.70 
1453 551.73 550.94 551.92 
1454 551.80 550.86 551.92 
1455 551.96 550.79 551.92 
1456 551.91 550.63 551.96 
1457 552.10 551.31 551.96 
1458 552.40 551.78 552.10 
1459 552.50 552.13 552.40 
1460 551.97 552.05 552.50 
1461 552.34 552.05 552.50 
1462 552.23 551.35 552.50 
1463 552.39 551.68 552.50 
1464 546.76 551.47 552.50 
1465 552.27 551.71 552.50 
1466 552.36 551.15 552.50 
1467 552.11 551.69 552.50 
1468 552.29 551.48 552.50 
1469 551.92 551.83 552.50 
1470 545.46 551.97 552.50 
1471 552.51 552.00 552.50 
1472 552.43 552.41 552.51 
1473 552.49 552.09 552.51 
1474 545.61 552.57 552.51 
1475 548.65 552.75 552.51 
1476 552.23 552.77 552.51 
1477 552.02 552.58 552.51 
1478 552.42 552.37 552.51 
1479 552.44 552.14 552.51 
1480 552.43 552.39 552.51 
1481 552.61 552.78 552.51 
1482 552.71 552.55 552.61 
1483 552.76 552.18 552.71 
1484 552.67 552.48 552.76 
1485 552.98 552.24 552.76 
1486 552.97 552.35 552.98 
1487 552.92 552.48 552.98 
1488 552.84 552.74 552.98 
1489 552.82 552.66 552.98 
1490 552.85 552.47 552.98 
1491 552.95 552.60 552.98 
1492 553.09 552.54 552.98 
1493 552.65 552.43 553.09 
1494 552.95 552.23 553.09 
1495 552.88 552.11 553.09 
1496 552.95 551.81 553.09 
1497 552.91 551.80 553.09 
1498 553.00 551.52 553.09 
1499 553.05 551.23 553.09 
1500 553.14 551.05 553.09 
1501 553.11 551.52 553.14 
1502 552.90 551.65 553.14 
1503 553.09 552.04 553.14 
1504 553.20 552.17 553.14 
1505 553.23 552.55 553.20 
1506 553.27 552.41 553.23 
1507 553.20 552.29 553.27 
1508 553.34 552.00 553.27 
1509 553.49 552.32 553.34 
1510 553.21 552.21 553.49 
1511 553.39 552.72 553.49 
1512 546.71 552.81 553.49 
1513 553.03 552.37 553.49 
1514 553.26 552.51 553.49 
1515 553.44 552.25 553.49 
1516 553.20 552.37 553.49 
1517 553.29 552.16 553.49 
1518 553.53 551.69 553.49 
1519 553.46 551.80 553.53 
1520 553.57 551.80 553.53 
1521 553.58 551.61 553.57 
1522 553.47 551.67 553.58 
1523 553.33 551.51 553.58 
1524 553.32 551.60 553.58 
1525 553.61 552.25 553.58 
1526 553.62 552.29 553.61 
1527 553.58 551.99 553.62 
1528 553.57 552.07 553.62 
1529 553.54 552.42 553.62 
1530 553.44 551.57 553.62 
1531 546.94 551.67 553.62 
1532 553.81 551.61 553.62 
1533 553.74 551.79 553.81 
1534 553.29 551.52 553.81 
1535 553.51 551.81 553.81 
1536 553.71 551.42 553.81 
1537 550.29 551.19 553.81 
1538 553.55 551.06 553.81 
1539 553.56 551.09 553.81 
1540 553.66 551.24 553.81 
1541 553.53 551.51 553.81 
1542 553.62 551.81 553.81 
1543 553.62 552.35 553.81 
1544 553.53 552.38 553.81 
1545 553.31 552.31 553.81 
1546 553.49 552.47 553.81 
1547 553.70 552.37 553.81 
1548 553.83 552.05 553.81 
1549 553.94 551.87 553.83 
1550 553.54 552.17 553.94 
1551 553.83 552.33 553.94 
1552 553.37 552.19 553.94 
1553 553.42 552.24 553.94 
1554 553.96 552.54 553.94 
1555 553.88 552.83 553.96 
1556 553.80 552.40 553.96 
1557 554.03 552.49 553.96 
1558 553.92 552.73 554.03 
1559 554.16 552.69 554.03 
1560 553.97 552.82 554.16 
1561 553.99 552.86 554.16 
1562 553.94 553.04 554.16 
1563 554.04 553.32 554.16 
1564 553.99 553.13 554.16 
1565 553.94 552.88 554.16 
1566 554.24 553.01 554.16 
1567 553.91 552.71 554.24 
1568 552.81 553.16 554.24 
1569 553.90 552.55 554.24 
1570 553.79 552.34 554.24 
1571 553.99 552.45 554.24 
1572 554.04 552.56 554.24 
1573 553.96 553.10 554.24 
1574 547.83 552.79 554.24 
1575 553.83 552.78 554.24 
1576 553.97 552.61 554.24 
1577 554.04 552.57 554.24 
1578 553.90 552.44 554.24 
1579 553.81 552.53 554.24 
1580 553.98 552.45 554.24 
1581 553.56 552.76 554.24 
1582 553.86 552.89 554.24 
1583 553.76 552.28 554.24 
1584 553.75 553.21 554.24 
1585 553.72 552.34 554.24 
1586 553.91 551.95 554.24 
1587 553.92 552.22 554.24 
1588 553.90 552.78 554.24 
1589 554.05 553.06 554.24 
1590 554.18 552.78 554.24 
1591 554.20 553.12 554.24 
1592 554.10 552.72 554.24 
1593 554.07 552.60 554.24 
1594 554.15 552.88 554.24 
1595 553.92 552.48 554.24 
1596 554.02 552.45 554.24 
1597 554.14 552.60 554.24 
1598 553.95 552.46 554.24 
1599 553.79 552.18 554.24 
1600 554.17 552.46 554.24 
1601 554.06 552.58 554.24 
1602 554.17 552.72 554.24 
1603 554.17 552.95 554.24 
1604 554.08 552.77 554.24 
1605 554.14 553.08 554.24 
1606 554.08 552.62 554.24 
1607 549.81 552.83 554.24 
1608 553.97 552.47 554.24 
1609 553.96 552.24 554.24 
1610 553.83 552.51 554.24 
1611 554.10 552.96 554.24 
1612 547.15 552.94 554.24 
1613 553.95 552.76 554.24 
1614 554.31 552.84 554.24 
1615 554.11 552.64 554.31 
1616 553.91 552.53 554.31 
1617 554.02 552.81 554.31 
1618 553.81 553.11 554.31 
1619 553.88 553.19 554.31 
1620 554.04 552.86 554.31 
1621 554.21 553.23 554.31 
1622 554.12 553.15 554.31 
1623 554.20 553.16 554.31 
1624 554.02 552.82 554.31 
1625 554.38 552.99 554.31 
1626 548.22 553.22 554.38 
1627 554.26 553.08 554.38 
1628 554.26 552.97 554.38 
1629 554.35 552.76 554.38 
1630 554.35 553.23 554.38 
1631 554.13 553.28 554.38 
1632 554.02 553.29 554.38 
1633 554.08 552.99 554.38 
1634 554.45 552.34 554.38 
1635 554.26 552.78 554.45 
1636 554.31 553.00 554.45 
1637 554.23 552.64 554.45 
1638 554.30 552.65 554.45 
1639 554.29 552.38 554.45 
1640 554.25 552.63 554.45 
1641 554.44 553.22 554.45 
1642 554.50 553.55 554.45 
1643 554.46 553.69 554.50 
1644 554.60 553.82 554.50 
1645 554.50 553.90 554.60 
1646 554.49 553.87 554.60 
1647 554.58 553.72 554.60 
1648 554.52 553.77 554.60 
1649 554.58 553.71 554.60 
1650 554.72 553.78 554.60 
1651 554.52 554.05 554.72 
1652 554.78 553.84 554.72 
1653 554.56 553.62 554.78 
1654 554.61 553.49 554.78 
1655 554.68 553.61 554.78 
1656 554.62 553.93 554.78 
1657 554.72 554.04 554.78 
1658 554.58 554.14 554.78 
1659 554.79 554.32 554.78 
1660 554.69 554.10 554.79 
1661 554.63 553.94 554.79 
1662 554.86 553.88 554.79 
1663 554.99 553.90 554.86 
1664 554.78 554.00 554.99 
1665 554.95 553.93 554.99 
1666 554.74 553.89 554.99 
1667 554.95 553.76 554.99 
1668 554.74 553.81 554.99 
1669 554.77 554.03 554.99 
1670 554.95 553.86 554.99 
1671 554.69 554.04 554.99 
1672 554.74 553.82 554.99 
1673 555.03 553.96 554.99 
1674 554.88 553.63 555.03 
1675 554.97 554.27 555.03 
1676 555.03 554.21 555.03 
1677 554.95 554.57 555.03 
1678 555.06 554.32 555.03 
1679 555.11 554.09 555.06 
1680 555.11 553.88 555.11 
1681 554.87 553.83 555.11 
1682 554.84 553.49 555.11 
1683 554.92 553.36 555.11 
1684 555.01 553.25 555.11 
1685 555.04 553.64 555.11 
1686 555.12 553.98 555.11 
1687 554.84 554.08 555.12 
1688 554.86 554.16 555.12 
1689 554.81 553.86 555.12 
1690 554.63 553.95 555.12 
1691 554.98 553.99 555.12 
1692 555.09 553.83 555.12 
1693 555.04 553.81 555.12 
1694 555.20 553.84 555.12 
1695 554.94 553.77 555.20 
1696 555.18 554.01 555.20 
1697 555.11 553.97 555.20 
1698 555.18 553.87 555.20 
1699 554.95 553.98 555.20 
1700 554.93 553.67 555.20 
1701 554.83 553.67 555.20 
1702 554.65 553.67 555.20 
1703 554.91 553.68 555.20 
1704 547.96 553.23 555.20 
1705 554.89 553.39 555.20 
1706 554.83 553.18 555.20 
1707 554.74 552.99 555.20 
1708 554.74 552.94 555.20 
1709 554.89 552.84 555.20 
1710 554.82 553.05 555.20 
1711 555.05 552.98 555.20 
1712 554.94 553.20 555.20 
1713 555.11 553.49 555.20 
1714 554.99 553.35 555.20 
1715 555.00 553.34 555.20 
1716 554.78 553.24 555.20 
1717 554.89 553.43 555.20 
1718 554.98 553.51 555.20 
1719 554.92 553.55 555.20 
1720 555.14 553.55 555.20 
1721 554.97 553.63 555.20 
1722 554.92 553.56 555.20 
1723 555.15 553.37 555.20 
1724 555.15 553.45 555.20 
1725 554.85 552.96 555.20 
1726 555.14 552.87 555.20 
1727 555.07 553.04 555.20 
1728 555.18 552.95 555.20 
1729 548.00 553.18 555.20 
1730 554.95 553.00 555.20 
1731 554.90 552.77 555.20 
1732 554.82 552.69 555.20 
1733 554.16 552.70 555.20 
1734 554.84 552.76 555.20 
1735 554.97 552.62 555.20 
1736 554.90 552.57 555.20 
1737 554.71 553.14 555.20 
1738 554.92 552.85 555.20 
1739 554.97 552.52 555.20 
1740 554.92 552.60 555.20 
1741 555.06 552.60 555.20 
1742 554.79 552.48 555.20 
1743 554.74 552.74 555.20 
1744 555.07 552.73 555.20 
1745 555.26 552.46 555.20 
1746 555.26 552.26 555.26 
1747 555.29 552.44 555.26 
1748 555.02 552.70 555.29 
1749 555.33 552.92 555.29 
1750 555.37 553.33 555.33 
1751 555.18 553.06 555.37 
1752 555.42 553.03 555.37 
1753 555.11 553.53 555.42 
1754 555.38 553.13 555.42 
1755 555.16 553.87 555.42 
1756 555.50 553.61 555.42 
1757 555.42 553.46 555.50 
1758 555.43 553.90 555.50 
1759 555.38 553.90 555.50 
1760 549.94 553.73 555.50 
1761 555.47 553.77 555.50 
1762 555.27 553.81 555.50 
1763 555.31 553.54 555.50 
1764 555.23 553.45 555.50 
1765 555.33 552.86 555.50 
1766 555.18 552.87 555.50 
1767 555.16 553.17 555.50 
1768 555.37 553.02 555.50 
1769 555.12 553.30 555.50 
1770 554.91 553.38 555.50 
1771 555.16 553.38 555.50 
1772 555.16 553.05 555.50 
1773 555.18 553.23 555.50 
1774 555.14 552.56 555.50 
1775 555.34 552.57 555.50 
1776 552.60 552.87 555.50 
1777 555.22 552.64 555.50 
1778 555.00 553.05 555.50 
1779 555.10 552.76 555.50 
1780 555.09 552.50 555.50 
1781 555.17 552.55 555.50 
1782 555.03 553.49 555.50 
1783 555.03 553.48 555.50 
1784 555.24 553.44 555.50 
1785 555.04 553.31 555.50 
1786 555.11 553.49 555.50 
1787 555.21 553.30 555.50 
1788 555.07 553.90 555.50 
1789 555.31 553.74 555.50 
1790 555.23 553.86 555.50 
1791 555.26 554.01 555.50 
1792 555.38 553.95 555.50 
1793 555.39 553.91 555.50 
1794 555.19 554.01 555.50 
1795 555.19 554.19 555.50 
1796 555.47 554.23 555.50 
1797 555.34 554.11 555.50 
1798 555.42 554.15 555.50 
1799 555.33 554.11 555.50 
1800 555.39 554.43 555.50 
1801 555.25 554.55 555.50 
1802 555.35 554.50 555.50 
1803 555.47 554.35 555.50 
1804 555.38 554.14 555.50 
1805 555.45 553.97 555.50 
1806 555.46 554.01 555.50 
1807 555.28 554.00 555.50 
1808 555.53 554.03 555.50 
1809 555.45 553.85 555.53 
1810 555.51 553.68 555.53 
1811 555.50 553.69 555.53 
1812 555.35 553.89 555.53 
1813 555.37 553.76 555.53 
1814 555.58 554.00 555.53 
1815 555.55 553.96 555.58 
1816 555.65 553.96 555.58 
1817 555.44 553.79 555.65 
1818 555.52 553.57 555.65 
1819 555.68 553.41 555.65 
1820 555.55 553.35 555.68 
1821 555.58 553.55 555.68 
1822 555.70 553.14 555.68 
1823 555.70 553.43 555.70 
1824 555.76 553.42 555.70 
1825 555.51 553.11 555.76 
1826 555.57 553.06 555.76 
1827 555.52 553.16 555.76 
1828 555.32 553.19 555.76 
1829 555.47 553.14 555.76 
1830 555.51 552.97 555.76 
1831 555.59 553.09 555.76 
1832 555.65 553.35 555.76 
1833 555.66 553.32 555.76 
1834 555.44 553.08 555.76 
1835 555.59 553.09 555.76 
1836 555.60 553.01 555.76 
1837 555.64 552.60 555.76 
1838 555.73 552.82 555.76 
1839 555.62 552.90 555.76 
1840 555.28 553.24 555.76 
1841 555.52 553.40 555.76 
1842 555.60 553.28 555.76 
1843 555.57 553.52 555.76 
1844 555.57 553.26 555.76 
1845 555.66 553.20 555.76 
1846 555.65 553.12 555.76 
1847 555.64 552.80 555.76 
1848 555.59 553.00 555.76 
1849 555.57 553.33 555.76 
1850 555.67 553.10 555.76 
1851 555.66 553.16 555.76 
1852 555.62 553.05 555.76 
1853 555.61 553.28 555.76 
1854 555.47 553.00 555.76 
1855 555.66 552.87 555.76 
1856 555.64 552.93 555.76 
1857 555.70 552.84 555.76 
1858 555.73 552.65 555.76 
1859 555.59 552.41 555.76 
1860 555.83 552.42 555.76 
1861 555.77 552.69 555.83 
1862 555.66 552.80 555.83 
1863 555.77 552.81 555.83 
1864 555.76 553.10 555.83 
1865 555.48 552.97 555.83 
1866 555.25 553.01 555.83 
1867 555.66 553.06 555.83 
1868 555.60 553.02 555.83 
1869 555.66 552.82 555.83 
1870 555.74 552.49 555.83 
1871 555.71 552.90 555.83 
1872 555.73 552.61 555.83 
1873 555.54 552.25 555.83 
1874 555.86 552.41 555.83 
1875 555.79 552.34 555.86 
1876 555.78 552.19 555.86 
1877 555.89 551.81 555.86 
1878 555.93 551.93 555.89 
1879 555.74 551.72 555.93 
1880 555.87 551.63 555.93 
1881 555.72 551.62 555.93 
1882 555.89 551.97 555.93 
1883 555.88 552.21 555.93 
1884 555.76 552.06 555.93 
1885 555.87 551.97 555.93 
1886 555.75 552.12 555.93 
1887 555.96 552.08 555.93 
1888 555.92 552.11 555.96 
1889 555.91 552.09 555.96 
1890 555.80 552.14 555.96 
1891 555.91 552.39 555.96 
1892 555.92 552.59 555.96 
1893 555.98 552.58 555.96 
1894 555.97 552.40 555.98 
1895 555.88 552.19 555.98 
1896 555.83 552.47 555.98 
1897 555.98 552.36 555.98 
1898 555.82 552.43 555.98 
1899 555.96 552.40 555.98 
1900 555.81 552.60 555.98 
1901 555.76 552.50 555.98 
1902 555.89 552.48 555.98 
1903 555.88 552.47 555.98 
1904 555.83 552.36 555.98 
1905 555.97 552.30 555.98 
1906 555.93 552.05 555.98 
1907 555.84 552.04 555.98 
1908 555.94 552.35 555.98 
1909 555.93 552.28 555.98 
1910 555.89 552.37 555.98 
1911 555.96 552.20 555.98 
1912 556.00 552.16 555.98 
1913 555.98 552.08 556.00 
1914 555.97 552.13 556.00 
1915 555.92 552.17 556.00 
1916 556.00 552.30 556.00 
1917 556.02 552.28 556.00 
1918 555.99 552.16 556.02 
1919 556.01 552.45 556.02 
1920 555.92 552.39 556.02 
1921 556.00 552.32 556.02 
1922 556.03 552.43 556.02 
1923 556.01 552.50 556.03 
1924 556.11 552.48 556.03 
1925 556.06 552.48 556.11 
1926 556.01 552.41 556.11 
1927 555.87 552.25 556.11 
1928 556.02 552.03 556.11 
1929 556.05 552.06 556.11 
1930 556.02 551.79 556.11 
1931 555.94 552.01 556.11 
1932 556.08 551.73 556.11 
1933 556.09 551.83 556.11 
1934 555.99 552.01 556.11 
1935 555.99 552.05 556.11 
1936 556.01 552.14 556.11 
1937 556.04 552.10 556.11 
1938 556.10 552.07 556.11 
1939 556.06 552.28 556.11 
1940 556.09 552.36 556.11 
1941 556.00 552.18 556.11 
1942 556.16 552.38 556.11 
1943 556.16 552.07 556.16 
1944 556.18 551.92 556.16 
1945 556.14 552.15 556.18 
1946 556.11 552.05 556.18 
1947 556.12 551.97 556.18 
1948 556.05 552.08 556.18 
1949 556.23 551.95 556.18 
1950 556.26 551.83 556.23 
1951 556.18 552.25 556.26 
1952 556.20 552.27 556.26 
1953 556.22 552.18 556.26 
1954 556.10 552.04 556.26 
1955 556.19 552.04 556.26 
1956 556.21 552.08 556.26 
1957 556.28 552.00 556.26 
1958 556.26 552.57 556.28 
1959 556.25 552.29 556.28 
1960 556.33 552.33 556.28 
1961 556.29 552.09 556.33 
1962 556.24 551.78 556.33 
1963 556.23 551.69 556.33 
1964 556.26 551.80 556.33 
1965 556.19 551.91 556.33 
1966 556.21 551.94 556.33 
1967 556.32 551.98 556.33 
1968 556.39 551.82 556.33 
1969 556.37 551.74 556.39 
1970 556.27 551.64 556.39 
1971 556.33 551.65 556.39 
1972 556.30 551.77 556.39 
1973 556.38 551.77 556.39 
1974 556.26 551.69 556.39 
1975 556.28 551.87 556.39 
1976 556.28 551.70 556.39 
1977 556.22 551.75 556.39 
1978 556.35 551.75 556.39 
1979 556.32 551.62 556.39 
1980 556.35 551.75 556.39 
1981 556.26 551.72 556.39 
1982 556.35 551.76 556.39 
1983 556.34 551.73 556.39 
1984 556.34 551.76 556.39 
1985 556.31 551.65 556.39 
1986 556.41 551.66 556.39 
1987 556.46 551.73 556.41 
1988 555.05 552.07 556.46 
1989 556.39 551.96 556.46 
1990 556.40 552.22 556.46 
1991 556.31 552.06 556.46 
1992 556.37 552.13 556.46 
1993 556.28 552.21 556.46 
1994 556.34 551.99 556.46 
1995 556.36 551.95 556.46 
1996 556.31 551.70 556.46 
1997 556.28 551.60 556.46 
1998 556.31 551.71 556.46 
1999 556.31 551.58 556.46 
2000 556.39 551.40 556.46 
2001 556.38 551.58 556.46 
2002 556.31 551.57 556.46 
2003 556.19 551.63 556.46 
2004 556.25 551.83 556.46 
2005 556.27 551.75 556.46 
2006 556.27 551.93 556.46 
2007 556.23 551.79 556.46 
2008 556.31 551.71 556.46 
2009 556.33 551.79 556.46 
2010 556.34 551.95 556.46 
2011 556.29 551.87 556.46 
2012 556.25 551.74 556.46 
2013 556.28 551.90 556.46 
2014 556.19 551.88 556.46 
2015 556.23 551.87 556.46 
2016 556.34 551.83 556.46 
2017 556.40 551.83 556.46 
2018 556.35 551.86 556.46 
2019 556.39 551.92 556.46 
2020 556.32 551.93 556.46 
2021 556.33 551.91 556.46 
2022 556.27 551.81 556.46 
2023 556.21 551.94 556.46 
2024 556.41 552.11 556.46 
2025 556.29 551.87 556.46 
2026 556.35 551.83 556.46 
2027 556.39 551.69 556.46 
2028 556.40 551.74 556.46 
2029 556.31 551.63 556.46 
2030 556.43 551.80 556.46 
2031 556.41 551.86 556.46 
2032 556.38 551.91 556.46 
2033 556.28 552.16 556.46 
2034 556.26 552.09 556.46 
2035 556.42 551.97 556.46 
2036 556.50 552.08 556.46 
2037 556.43 551.95 556.50 
2038 556.43 552.00 556.50 
2039 556.34 552.06 556.50 
2040 556.37 552.08 556.50 
2041 556.33 552.00 556.50 
2042 556.36 552.16 556.50 
2043 556.40 552.14 556.50 
2044 556.42 552.09 556.50 
2045 556.46 552.04 556.50 
2046 556.38 551.96 556.50 
2047 549.95 552.00 556.50 
2048 556.41 552.07 556.50 
2049 556.40 552.15 556.50 
2050 556.30 552.16 556.50 
2051 556.38 552.09 556.50 
2052 556.41 552.13 556.50 
2053 556.47 552.21 556.50 
2054 556.40 552.18 556.50 
2055 556.43 552.00 556.50 
2056 556.45 551.87 556.50 
2057 556.35 551.87 556.50 
2058 556.49 551.85 556.50 
2059 556.41 551.86 556.50 
2060 556.46 551.95 556.50 
2061 556.51 551.97 556.50 
2062 556.52 551.92 556.51 
2063 556.43 551.82 556.52 
2064 556.49 551.90 556.52 
2065 556.40 551.79 556.52 
2066 556.53 551.75 556.52 
2067 556.50 551.85 556.53 
2068 556.56 552.20 556.53 
2069 556.60 552.12 556.56 
2070 556.60 552.30 556.60 
2071 556.59 552.31 556.60 
2072 556.53 552.49 556.60 
2073 556.53 552.35 556.60 
2074 556.45 552.36 556.60 
2075 556.49 552.05 556.60 
2076 556.68 552.12 556.60 
2077 556.58 552.00 556.68 
2078 556.63 552.19 556.68 
2079 556.63 552.10 556.68 
2080 556.55 551.76 556.68 
2081 556.47 551.87 556.68 
2082 556.54 551.93 556.68 
2083 556.61 551.93 556.68 
2084 556.54 552.06 556.68 
2085 556.48 552.32 556.68 
2086 556.54 552.27 556.68 
2087 556.64 552.18 556.68 
2088 556.55 552.00 556.68 
2089 556.63 552.07 556.68 
2090 556.55 552.17 556.68 
2091 556.62 552.01 556.68 
2092 556.59 552.30 556.68 
2093 556.59 552.33 556.68 
2094 556.53 552.45 556.68 
2095 556.63 552.17 556.68 
2096 556.68 551.88 556.68 
2097 556.69 551.95 556.68 
2098 556.72 551.85 556.69 
2099 556.69 551.80 556.72 
2100 556.75 551.94 556.72 
2101 556.58 552.03 556.75 
2102 556.65 551.91 556.75 
2103 556.67 551.69 556.75 
2104 556.62 551.62 556.75 
2105 556.61 551.61 556.75 
2106 556.67 551.78 556.75 
2107 556.73 551.94 556.75 
2108 556.63 551.90 556.75 
2109 556.65 551.85 556.75 
2110 556.49 551.76 556.75 
2111 556.68 551.84 556.75 
2112 556.67 552.00 556.75 
2113 556.53 552.01 556.75 
2114 556.65 552.05 556.75 
2115 556.56 551.97 556.75 
2116 556.59 551.93 556.75 
2117 556.68 551.97 556.75 
2118 556.72 551.92 556.75 
2119 556.71 552.11 556.75 
2120 556.63 552.02 556.75 
2121 556.57 551.96 556.75 
2122 556.73 551.95 556.75 
2123 556.58 551.92 556.75 
2124 556.62 551.95 556.75 
2125 556.67 551.92 556.75 
2126 556.76 551.77 556.75 
2127 556.60 551.74 556.76 
2128 556.74 551.81 556.76 
2129 556.72 551.84 556.76 
2130 556.63 551.73 556.76 
2131 556.63 551.79 556.76 
2132 556.72 551.66 556.76 
2133 556.74 551.77 556.76 
2134 556.72 551.62 556.76 
2135 556.72 551.74 556.76 
2136 556.69 551.67 556.76 
2137 556.71 551.62 556.76 
2138 556.70 551.71 556.76 
2139 556.75 551.77 556.76 
2140 556.74 551.78 556.76 
2141 556.81 551.76 556.76 
2142 556.79 551.80 556.81 
2143 549.32 551.79 556.81 
2144 556.68 551.70 556.81 
2145 556.77 551.67 556.81 
2146 556.64 551.74 556.81 
2147 556.73 551.44 556.81 
2148 556.59 551.71 556.81 
2149 556.75 551.65 556.81 
2150 556.71 551.83 556.81 
2151 556.56 551.97 556.81 
2152 556.55 551.87 556.81 
2153 556.70 551.95 556.81 
2154 556.66 552.09 556.81 
2155 556.69 552.03 556.81 
2156 556.69 552.33 556.81 
2157 556.73 552.38 556.81 
2158 556.65 552.44 556.81 
2159 554.30 552.65 556.81 
2160 556.56 552.67 556.81 
2161 556.52 552.86 556.81 
2162 556.42 552.89 556.81 
2163 556.57 552.63 556.81 
2164 556.62 552.57 556.81 
2165 556.57 552.28 556.81 
2166 556.54 552.24 556.81 
2167 556.57 552.26 556.81 
2168 556.51 552.55 556.81 
2169 556.59 552.50 556.81 
2170 556.61 553.01 556.81 
2171 556.58 553.17 556.81 
2172 556.55 553.15 556.81 
2173 556.62 553.04 556.81 
2174 556.51 553.16 556.81 
2175 556.65 553.17 556.81 
2176 556.61 553.18 556.81 
2177 556.56 553.10 556.81 
2178 556.57 553.07 556.81 
2179 556.83 553.33 556.81 
2180 556.67 553.26 556.83 
2181 556.74 553.55 556.83 
2182 556.72 553.55 556.83 
2183 556.64 553.48 556.83 
2184 556.68 553.30 556.83 
2185 556.61 553.40 556.83 
2186 556.71 553.17 556.83 
2187 556.70 553.68 556.83 
2188 556.58 553.45 556.83 
2189 556.66 553.78 556.83 
2190 556.63 553.74 556.83 
2191 556.65 553.77 556.83 
2192 556.56 553.80 556.83 
2193 556.70 553.90 556.83 
2194 556.70 553.92 556.83 
2195 556.66 553.90 556.83 
2196 556.53 553.73 556.83 
2197 556.63 553.96 556.83 
2198 556.71 554.07 556.83 
2199 556.69 553.74 556.83 
2200 556.73 553.69 556.83 
2201 556.71 553.33 556.83 
2202 556.76 553.35 556.83 
2203 556.67 553.37 556.83 
2204 556.75 553.14 556.83 
2205 556.78 553.22 556.83 
2206 556.72 552.82 556.83 
2207 556.75 553.14 556.83 
2208 556.76 553.48 556.83 
2209 556.77 553.72 556.83 
2210 556.81 553.55 556.83 
2211 556.81 553.60 556.83 
2212 556.85 553.65 556.83 
2213 556.79 553.65 556.85 
2214 556.89 553.42 556.85 
2215 556.76 553.22 556.89 
2216 556.83 552.81 556.89 
2217 556.79 553.06 556.89 
2218 556.76 553.09 556.89 
2219 556.71 553.10 556.89 
2220 556.71 552.96 556.89 
2221 556.71 552.93 556.89 
2222 556.79 552.95 556.89 
2223 556.83 552.89 556.89 
2224 556.75 552.74 556.89 
2225 556.75 552.69 556.89 
2226 556.75 552.78 556.89 
2227 556.74 552.82 556.89 
2228 556.74 553.12 556.89 
2229 556.76 552.99 556.89 
2230 555.37 552.83 556.89 
2231 556.76 552.84 556.89 
2232 556.79 552.78 556.89 
2233 556.77 553.05 556.89 
2234 556.78 552.97 556.89 
2235 556.59 552.94 556.89 
2236 556.76 552.59 556.89 
2237 556.81 552.64 556.89 
2238 556.77 552.58 556.89 
2239 556.88 552.71 556.89 
2240 556.80 552.66 556.89 
2241 556.85 552.77 556.89 
2242 556.80 552.78 556.89 
2243 556.85 553.04 556.89 
2244 556.80 553.03 556.89 
2245 556.71 553.03 556.89 
2246 556.78 552.99 556.89 
2247 556.73 552.82 556.89 
2248 556.77 552.97 556.89 
2249 556.73 553.05 556.89 
2250 556.79 552.95 556.89 
2251 556.74 552.78 556.89 
2252 556.78 553.04 556.89 
2253 556.67 552.70 556.89 
2254 556.68 552.49 556.89 
2255 556.53 552.49 556.89 
2256 556.75 552.63 556.89 
2257 556.70 552.63 556.89 
2258 556.71 552.45 556.89 
2259 556.75 552.61 556.89 
2260 556.76 552.66 556.89 
2261 556.83 552.80 556.89 
2262 556.79 552.85 556.89 
2263 556.78 552.97 556.89 
2264 556.82 553.00 556.89 
2265 556.82 553.03 556.89 
2266 556.89 553.20 556.89 
2267 556.92 553.14 556.89 
2268 556.80 552.97 556.92 
2269 556.94 553.03 556.92 
2270 556.87 553.03 556.94 
2271 556.86 552.75 556.94 
2272 556.74 552.96 556.94 
2273 556.83 552.92 556.94 
2274 556.82 552.98 556.94 
2275 556.88 553.03 556.94 
2276 556.88 553.24 556.94 
2277 556.81 553.29 556.94 
2278 556.74 553.35 556.94 
2279 556.89 553.18 556.94 
2280 556.82 552.93 556.94 
2281 556.79 552.73 556.94 
2282 556.88 552.95 556.94 
2283 556.85 552.86 556.94 
2284 556.87 553.07 556.94 
2285 556.87 553.22 556.94 
2286 556.89 553.47 556.94 
2287 556.85 553.44 556.94 
2288 556.89 553.41 556.94 
2289 556.88 553.49 556.94 
2290 556.87 553.40 556.94 
2291 556.83 553.77 556.94 
2292 556.75 553.58 556.94 
2293 556.85 553.15 556.94 
2294 556.90 553.12 556.94 
2295 556.84 553.28 556.94 
2296 556.72 553.26 556.94 
2297 556.84 553.18 556.94 
2298 556.93 553.03 556.94 
2299 556.89 553.09 556.94 
2300 557.00 553.17 556.94 
2301 556.97 553.10 557.00 
2302 556.97 553.19 557.00 
2303 556.92 553.07 557.00 
2304 556.83 553.19 557.00 
2305 556.92 553.02 557.00 
2306 556.82 553.06 557.00 
2307 556.90 553.07 557.00 
2308 556.92 553.16 557.00 
2309 556.85 553.13 557.00 
2310 556.83 553.33 557.00 
2311 556.89 553.32 557.00 
2312 556.89 553.36 557.00 
2313 556.89 553.38 557.00 
2314 556.93 553.21 557.00 
2315 556.93 553.09 557.00 
2316 555.88 553.26 557.00 
2317 556.98 553.37 557.00 
2318 556.82 553.14 557.00 
2319 556.86 553.25 557.00 
2320 556.91 553.04 557.00 
2321 556.85 553.21 557.00 
2322 556.85 553.42 557.00 
2323 556.92 553.03 557.00 
2324 556.79 552.84 557.00 
2325 556.85 552.85 557.00 
2326 557.02 552.79 557.00 
2327 556.94 552.93 557.02 
2328 556.89 552.98 557.02 
2329 556.96 553.00 557.02 
2330 556.82 553.04 557.02 
2331 556.89 553.14 557.02 
2332 556.93 553.12 557.02 
2333 556.90 553.11 557.02 
2334 556.97 553.02 557.02 
2335 556.97 553.03 557.02 
2336 556.89 553.08 557.02 
2337 551.54 553.05 557.02 
2338 556.85 553.15 557.02 
2339 556.92 553.31 557.02 
2340 556.95 553.32 557.02 
2341 556.85 553.28 557.02 
2342 556.89 553.32 557.02 
2343 556.86 553.37 557.02 
2344 556.96 553.25 557.02 
2345 556.96 553.27 557.02 
2346 556.91 553.10 557.02 
2347 556.89 553.19 557.02 
2348 556.87 553.11 557.02 
2349 556.96 553.03 557.02 
2350 556.89 552.94 557.02 
2351 556.80 552.93 557.02 
2352 556.65 552.92 557.02 
2353 556.89 552.97 557.02 
2354 556.83 553.09 557.02 
2355 556.78 553.23 557.02 
2356 556.79 553.26 557.02 
2357 556.70 553.12 557.02 
2358 556.66 553.14 557.02 
2359 556.62 553.13 557.02 
2360 556.72 553.08 557.02 
2361 556.78 553.12 557.02 
2362 556.81 553.23 557.02 
2363 556.77 553.25 557.02 
2364 556.76 553.23 557.02 
2365 556.66 553.35 557.02 
2366 556.66 553.38 557.02 
2367 556.69 553.26 557.02 
2368 556.81 553.21 557.02 
2369 556.56 553.19 557.02 
2370 556.74 553.12 557.02 
2371 556.68 553.04 557.02 
2372 556.64 553.01 557.02 
2373 556.63 553.02 557.02 
2374 556.62 552.96 557.02 
2375 556.60 552.96 557.02 
2376 556.61 553.07 557.02 
2377 556.59 552.98 557.02 
2378 556.71 553.00 557.02 
2379 556.72 553.14 557.02 
2380 556.73 553.07 557.02 
2381 556.78 553.11 557.02 
2382 556.65 553.13 557.02 
2383 556.67 553.31 557.02 
2384 556.59 553.36 557.02 
2385 556.73 553.47 557.02 
2386 556.61 553.81 557.02 
2387 556.70 553.95 557.02 
2388 556.67 553.92 557.02 
2389 556.67 553.85 557.02 
2390 556.84 553.74 557.02 
2391 556.79 553.68 557.02 
2392 556.84 553.64 557.02 
2393 556.83 553.63 557.02 
2394 556.81 553.49 557.02 
2395 556.88 553.43 557.02 
2396 556.97 553.39 557.02 
2397 556.79 553.48 557.02 
2398 556.90 553.45 557.02 
2399 556.78 553.52 557.02 
2400 556.87 553.45 557.02 
2401 556.91 553.55 557.02 
2402 556.88 553.61 557.02 
2403 556.89 553.70 557.02 
2404 556.86 553.80 557.02 
2405 556.96 553.90 557.02 
2406 556.74 553.84 557.02 
2407 555.97 553.91 557.02 
2408 556.14 553.93 557.02 
2409 556.66 553.98 557.02 
2410 556.81 554.11 557.02 
2411 556.67 554.25 557.02 
2412 556.68 554.10 557.02 
2413 556.77 554.22 557.02 
2414 556.60 554.22 557.02 
2415 556.70 554.44 557.02 
2416 556.70 554.31 557.02 
2417 556.81 554.22 557.02 
2418 556.83 554.30 557.02 
2419 556.70 554.32 557.02 
2420 556.73 554.43 557.02 
2421 556.85 554.42 557.02 
2422 556.88 554.40 557.02 
2423 556.93 554.30 557.02 
2424 556.76 554.27 557.02 
2425 556.89 554.30 557.02 
2426 556.85 554.20 557.02 
2427 556.90 554.16 557.02 
2428 556.79 554.12 557.02 
2429 556.93 554.19 557.02 
2430 556.75 554.22 557.02 
2431 557.02 554.43 557.02 
2432 556.85 554.37 557.02 
2433 556.83 554.38 557.02 
2434 556.85 554.30 557.02 
2435 556.89 554.26 557.02 
2436 556.94 554.25 557.02 
2437 556.80 554.15 557.02 
2438 556.87 554.17 557.02 
2439 556.88 554.06 557.02 
2440 556.97 554.02 557.02 
2441 556.99 554.10 557.02 
2442 557.04 553.96 557.02 
2443 557.00 553.93 557.04 
2444 557.00 553.89 557.04 
2445 556.98 554.07 557.04 
2446 556.36 554.09 557.04 
2447 556.92 554.05 557.04 
2448 557.02 554.14 557.04 
2449 556.89 554.21 557.04 
2450 556.99 554.21 557.04 
2451 556.98 554.22 557.04 
2452 556.96 554.36 557.04 
2453 557.14 554.23 557.04 
2454 557.02 554.28 557.14 
2455 556.96 554.24 557.14 
2456 557.06 554.36 557.14 
2457 557.01 554.33 557.14 
2458 556.85 554.28 557.14 
2459 557.01 554.31 557.14 
2460 557.05 554.26 557.14 
2461 556.98 554.21 557.14 
2462 557.12 554.01 557.14 
2463 557.07 553.95 557.14 
2464 557.06 554.15 557.14 
2465 556.96 554.09 557.14 
2466 556.95 553.97 557.14 
2467 557.04 554.01 557.14 
2468 557.02 554.09 557.14 
2469 556.84 554.04 557.14 
2470 557.11 554.17 557.14 
2471 551.77 554.14 557.14 
2472 557.07 554.21 557.14 
2473 557.05 554.33 557.14 
2474 556.94 554.49 557.14 
2475 557.01 554.51 557.14 
2476 557.02 554.40 557.14 
2477 557.01 554.46 557.14 
2478 552.72 554.46 557.14 
2479 556.83 554.45 557.14 
2480 557.06 554.80 557.14 
2481 556.84 554.68 557.14 
2482 556.89 554.48 557.14 
2483 556.99 554.53 557.14 
2484 556.92 554.17 557.14 
2485 556.94 554.17 557.14 
2486 556.86 554.02 557.14 
2487 556.91 553.83 557.14 
2488 557.04 553.74 557.14 
2489 557.03 553.41 557.14 
2490 557.06 553.53 557.14 
2491 556.96 553.47 557.14 
2492 556.85 553.45 557.14 
2493 557.03 553.54 557.14 
2494 557.00 553.57 557.14 
2495 556.92 553.44 557.14 
2496 557.00 553.37 557.14 
2497 557.01 553.49 557.14 
2498 557.01 553.64 557.14 
2499 557.03 553.55 557.14 
2500 557.01 553.55 557.14 
2501 556.92 553.48 557.14 
2502 557.01 553.43 557.14 
2503 556.98 553.33 557.14 
2504 556.84 553.52 557.14 
2505 556.78 553.37 557.14 
2506 556.85 553.42 557.14 
2507 556.95 553.41 557.14 
2508 556.93 553.53 557.14 
2509 556.86 553.56 557.14 
2510 556.93 553.66 557.14 
2511 556.84 553.61 557.14 
2512 556.78 553.59 557.14 
2513 556.89 553.61 557.14 
2514 557.07 553.53 557.14 
2515 556.91 553.57 557.14 
2516 556.94 553.63 557.14 
2517 556.90 553.59 557.14 
2518 556.87 553.56 557.14 
2519 557.13 553.50 557.14 
2520 556.91 553.49 557.14 
2521 556.88 553.45 557.14 
2522 556.87 553.37 557.14 
2523 556.70 553.34 557.14 
2524 556.83 553.32 557.14 
2525 556.83 553.42 557.14 
2526 556.80 553.40 557.14 
2527 556.74 553.53 557.14 
2528 556.71 553.60 557.14 
2529 556.88 553.53 557.14 
2530 556.85 553.46 557.14 
2531 556.93 553.50 557.14 
2532 556.90 553.65 557.14 
2533 556.82 553.66 557.14 
2534 556.78 553.62 557.14 
2535 556.80 553.70 557.14 
2536 557.03 553.60 557.14 
2537 556.93 553.66 557.14 
2538 556.90 553.64 557.14 
2539 556.92 553.66 557.14 
2540 556.81 553.59 557.14 
2541 556.92 553.47 557.14 
2542 556.97 553.50 557.14 
2543 556.81 553.68 557.14 
2544 556.95 553.63 557.14 
2545 556.97 553.94 557.14 
2546 557.07 554.13 557.14 
2547 556.98 554.12 557.14 
2548 556.98 554.10 557.14 
2549 557.01 554.24 557.14 
2550 556.92 554.23 557.14 
2551 556.87 554.16 557.14 
2552 557.11 553.94 557.14 
2553 557.09 553.90 557.14 
2554 557.02 554.07 557.14 
2555 557.04 553.97 557.14 
2556 557.10 554.11 557.14 
2557 557.12 554.35 557.14 
2558 557.10 554.41 557.14 
2559 557.15 554.51 557.14 
2560 557.02 554.46 557.15 
2561 557.09 554.38 557.15 
2562 557.12 554.43 557.15 
2563 557.14 554.31 557.15 
2564 557.10 554.34 557.15 
2565 557.10 554.33 557.15 
2566 556.88 554.26 557.15 
2567 557.12 554.28 557.15 
2568 557.10 554.20 557.15 
2569 557.08 554.18 557.15 
2570 557.04 554.18 557.15 
2571 557.09 554.17 557.15 
2572 557.01 554.15 557.15 
2573 557.11 554.15 557.15 
2574 557.12 554.03 557.15 
2575 557.07 553.92 557.15 
2576 557.17 553.86 557.15 
2577 557.21 553.87 557.17 
2578 557.02 553.78 557.21 
2579 556.99 553.65 557.21 
2580 557.05 553.62 557.21 
2581 557.16 553.75 557.21 
2582 557.10 553.84 557.21 
2583 557.06 553.98 557.21 
2584 557.11 553.90 557.21 
2585 557.17 554.02 557.21 
2586 557.19 553.98 557.21 
2587 557.16 554.04 557.21 
2588 557.15 554.17 557.21 
2589 557.17 554.17 557.21 
2590 557.23 554.19 557.21 
2591 557.12 554.07 557.23 
2592 557.11 554.18 557.23 
2593 557.05 554.16 557.23 
2594 556.99 554.17 557.23 
2595 557.13 554.06 557.23 
2596 557.10 553.89 557.23 
2597 557.12 553.94 557.23 
2598 557.18 554.03 557.23 
2599 557.17 554.00 557.23 
2600 557.18 554.21 557.23 
2601 557.15 554.14 557.23 
2602 557.11 554.16 557.23 
2603 557.10 554.14 557.23 
2604 557.10 554.14 557.23 
2605 557.11 554.13 557.23 
2606 557.12 554.09 557.23 
2607 557.22 554.14 557.23 
2608 557.04 554.24 557.23 
2609 557.17 554.26 557.23 
2610 557.17 554.40 557.23 
2611 557.06 554.34 557.23 
2612 557.21 554.37 557.23 
2613 557.15 554.49 557.23 
2614 557.16 554.45 557.23 
2615 549.40 554.43 557.23 
2616 557.15 554.53 557.23 
2617 557.16 554.57 557.23 
2618 557.13 554.60 557.23 
2619 557.10 554.93 557.23 
2620 557.13 554.83 557.23 
2621 557.11 554.98 557.23 
2622 557.10 554.95 557.23 
2623 557.13 554.97 557.23 
2624 557.04 554.86 557.23 
2625 557.12 554.95 557.23 
2626 557.17 554.99 557.23 
2627 557.06 555.17 557.23 
2628 557.11 554.97 557.23 
2629 556.95 554.67 557.23 
2630 557.04 554.90 557.23 
2631 556.94 555.10 557.23 
2632 556.86 555.21 557.23 
2633 556.76 555.46 557.23 
2634 556.78 555.20 557.23 
2635 556.86 555.03 557.23 
2636 556.78 554.85 557.23 
2637 556.80 554.78 557.23 
2638 556.91 554.55 557.23 
2639 556.73 554.27 557.23 
2640 556.87 554.34 557.23 
2641 556.80 554.50 557.23 
2642 556.77 554.71 557.23 
2643 556.81 554.83 557.23 
2644 556.90 554.83 557.23 
2645 556.61 554.70 557.23 
2646 556.76 554.83 557.23 
2647 556.76 555.21 557.23 
2648 556.82 555.20 557.23 
2649 556.68 555.06 557.23 
2650 556.68 554.84 557.23 
2651 556.78 555.13 557.23 
2652 556.61 554.74 557.23 
2653 556.75 554.77 557.23 
2654 556.64 554.39 557.23 
2655 556.74 554.52 557.23 
2656 556.61 554.54 557.23 
2657 556.65 554.59 557.23 
2658 556.77 554.74 557.23 
2659 556.78 554.71 557.23 
2660 556.86 554.82 557.23 
2661 556.73 554.92 557.23 
2662 556.72 554.53 557.23 
2663 556.85 554.52 557.23 
2664 556.94 554.74 557.23 
2665 556.92 554.66 557.23 
2666 556.94 554.46 557.23 
2667 556.93 554.41 557.23 
2668 556.99 554.44 557.23 
2669 556.89 554.21 557.23 
2670 556.82 554.41 557.23 
2671 556.87 554.36 557.23 
2672 556.89 554.31 557.23 
2673 556.80 553.87 557.23 
2674 556.77 554.01 557.23 
2675 556.98 553.73 557.23 
2676 556.96 553.81 557.23 
2677 556.91 553.96 557.23 
2678 556.91 553.80 557.23 
2679 556.08 553.88 557.23 
2680 556.75 554.01 557.23 
2681 556.92 554.41 557.23 
2682 557.02 554.46 557.23 
2683 556.99 554.23 557.23 
2684 556.93 554.10 557.23 
2685 556.73 554.40 557.23 
2686 556.80 554.19 557.23 
2687 556.96 553.95 557.23 
2688 557.03 553.62 557.23 
2689 556.82 553.49 557.23 
2690 556.87 553.52 557.23 
2691 556.78 553.50 557.23 
2692 556.98 553.46 557.23 
2693 556.88 553.70 557.23 
2694 557.07 553.79 557.23 
2695 556.96 553.82 557.23 
2696 556.97 553.85 557.23 
2697 556.98 553.85 557.23 
2698 557.07 554.12 557.23 
2699 556.99 554.20 557.23 
2700 557.02 554.04 557.23 
2701 556.99 554.15 557.23 
2702 557.05 554.09 557.23 
2703 557.08 554.36 557.23 
2704 557.09 554.58 557.23 
2705 557.16 554.06 557.23 
2706 557.14 554.16 557.23 
2707 556.84 554.08 557.23 
2708 557.21 553.97 557.23 
2709 557.13 554.16 557.23 
2710 557.14 554.11 557.23 
2711 557.01 554.31 557.23 
2712 556.99 554.55 557.23 
2713 557.11 554.46 557.23 
2714 557.09 554.55 557.23 
2715 557.11 554.35 557.23 
2716 556.99 554.44 557.23 
2717 557.22 554.50 557.23 
2718 556.47 554.50 557.23 
2719 557.15 554.46 557.23 
2720 557.00 554.77 557.23 
2721 556.95 554.83 557.23 
2722 557.06 554.71 557.23 
2723 557.07 554.49 557.23 
2724 556.88 554.34 557.23 
2725 557.03 554.42 557.23 
2726 557.06 554.39 557.23 
2727 556.92 554.38 557.23 
2728 557.02 554.31 557.23 
2729 557.08 554.44 557.23 
2730 557.13 554.14 557.23 
2731 557.12 554.17 557.23 
2732 557.17 554.26 557.23 
2733 557.08 554.19 557.23 
2734 557.07 554.14 557.23 
2735 557.20 554.21 557.23 
2736 557.07 553.99 557.23 
2737 557.08 553.83 557.23 
2738 557.08 553.98 557.23 
2739 557.06 553.89 557.23 
2740 557.03 553.77 557.23 
2741 557.01 553.64 557.23 
2742 556.95 554.02 557.23 
2743 557.00 553.62 557.23 
2744 556.96 553.79 557.23 
2745 557.02 554.06 557.23 
2746 557.13 553.82 557.23 
2747 557.03 554.38 557.23 
2748 557.11 554.10 557.23 
2749 557.08 553.78 557.23 
2750 557.05 553.43 557.23 
2751 556.98 553.36 557.23 
2752 556.95 553.13 557.23 
2753 556.78 552.79 557.23 
2754 556.80 552.82 557.23 
2755 557.03 553.01 557.23 
2756 557.02 552.99 557.23 
2757 557.06 552.94 557.23 
2758 557.08 553.35 557.23 
2759 557.09 553.86 557.23 
2760 557.01 553.71 557.23 
2761 554.20 553.64 557.23 
2762 557.00 553.57 557.23 
2763 557.04 554.06 557.23 
2764 557.00 553.82 557.23 
2765 556.99 553.76 557.23 
2766 557.12 553.78 557.23 
2767 557.13 553.27 557.23 
2768 552.42 553.09 557.23 
2769 557.06 553.40 557.23 
2770 557.16 552.95 557.23 
2771 557.16 553.12 557.23 
2772 557.13 553.00 557.23 
2773 557.01 552.36 557.23 
2774 557.23 552.45 557.23 
2775 557.05 552.53 557.23 
2776 556.92 552.02 557.23 
2777 556.91 551.70 557.23 
2778 557.09 551.21 557.23 
2779 556.84 551.29 557.23 
2780 557.00 551.63 557.23 
2781 556.84 551.35 557.23 
2782 557.03 551.03 557.23 
2783 552.30 551.41 557.23 
2784 556.84 551.38 557.23 
2785 556.75 552.37 557.23 
2786 556.66 552.42 557.23 
2787 557.02 552.73 557.23 
2788 556.73 551.91 557.23 
2789 556.90 552.57 557.23 
2790 557.06 552.12 557.23 
2791 557.09 552.18 557.23 
2792 557.02 551.86 557.23 
2793 556.77 551.50 557.23 
2794 556.96 551.45 557.23 
2795 557.04 551.23 557.23 
2796 556.91 550.99 557.23 
2797 556.66 550.70 557.23 
2798 556.86 550.72 557.23 
2799 556.80 551.05 557.23 
2800 556.99 551.31 557.23 
2801 556.90 551.40 557.23 
2802 556.52 551.39 557.23 
2803 554.27 551.67 557.23 
2804 556.86 551.50 557.23 
2805 556.67 550.96 557.23 
2806 556.72 550.38 557.23 
2807 556.86 550.71 557.23 
2808 556.84 552.17 557.23 
2809 556.80 552.17 557.23 
2810 557.04 551.90 557.23 
2811 556.98 552.38 557.23 
2812 556.84 551.56 557.23 
2813 556.98 551.28 557.23 
2814 556.92 551.19 557.23 
2815 556.51 551.86 557.23 
2816 556.77 552.12 557.23 
2817 556.94 551.92 557.23 
2818 554.31 552.42 557.23 
2819 556.93 552.26 557.23 
2820 556.95 552.87 557.23 
2821 556.86 552.71 557.23 
2822 556.95 552.91 557.23 
2823 556.94 552.86 557.23 
2824 557.02 553.00 557.23 
2825 556.96 552.88 557.23 
2826 556.98 552.79 557.23 
2827 556.82 553.44 557.23 
2828 556.95 552.92 557.23 
2829 556.84 553.00 557.23 
2830 556.87 553.43 557.23 
2831 557.09 553.40 557.23 
2832 556.88 553.64 557.23 
2833 556.80 553.70 557.23 
2834 556.97 553.57 557.23 
2835 556.84 553.31 557.23 
2836 556.81 552.87 557.23 
2837 556.92 553.18 557.23 
2838 557.04 553.09 557.23 
2839 556.99 552.88 557.23 
2840 557.03 553.13 557.23 
2841 556.88 553.44 557.23 
2842 556.87 553.73 557.23 
2843 556.83 553.52 557.23 
2844 556.88 553.12 557.23 
2845 556.77 552.88 557.23 
2846 556.91 553.22 557.23 
2847 556.85 553.39 557.23 
2848 557.02 553.54 557.23 
2849 556.64 552.95 557.23 
2850 556.76 552.94 557.23 
2851 556.88 551.96 557.23 
2852 556.93 551.92 557.23 
2853 556.81 551.88 557.23 
2854 556.70 551.93 557.23 
2855 553.66 552.25 557.23 
2856 556.71 552.36 557.23 
2857 556.72 552.23 557.23 
2858 556.89 551.21 557.23 
2859 556.68 551.77 557.23 
2860 556.76 551.09 557.23 
2861 556.68 550.77 557.23 
2862 556.67 551.35 557.23 
2863 556.83 551.29 557.23 
2864 556.84 551.84 557.23 
2865 556.80 550.80 557.23 
2866 556.84 550.44 557.23 
2867 556.87 550.23 557.23 
2868 556.81 550.32 557.23 
2869 556.86 550.44 557.23 
2870 556.80 550.47 557.23 
2871 556.95 551.58 557.23 
2872 556.86 551.60 557.23 
2873 556.81 551.05 557.23 
2874 554.30 551.38 557.23 
2875 556.98 551.09 557.23 
2876 556.92 550.59 557.23 
2877 556.63 550.34 557.23 
2878 556.91 550.74 557.23 
2879 556.54 551.20 557.23 
2880 556.78 551.10 557.23 
2881 556.78 550.86 557.23 
2882 556.82 551.46 557.23 
2883 556.73 551.51 557.23 
2884 556.86 551.56 557.23 
2885 556.76 552.17 557.23 
2886 556.84 552.15 557.23 
2887 556.67 552.26 557.23 
2888 556.92 551.70 557.23 
2889 556.94 552.12 557.23 
2890 556.86 551.84 557.23 
2891 557.03 551.73 557.23 
2892 556.84 551.84 557.23 
2893 556.73 551.68 557.23 
2894 550.60 551.48 557.23 
2895 556.94 551.88 557.23 
2896 556.82 551.90 557.23 
2897 556.74 551.64 557.23 
2898 556.82 551.54 557.23 
2899 556.77 551.46 557.23 
2900 556.62 551.44 557.23 
2901 556.92 551.42 557.23 
2902 556.77 550.82 557.23 
2903 556.60 551.14 557.23 
2904 556.92 550.54 557.23 
2905 556.60 550.75 557.23 
2906 556.57 550.47 557.23 
2907 556.64 550.36 557.23 
2908 556.49 549.34 557.23 
2909 556.01 550.28 557.23 
2910 556.67 550.12 557.23 
2911 556.46 550.10 557.23 
2912 556.51 549.90 557.23 
2913 556.30 549.74 557.23 
2914 556.60 550.02 557.23 
2915 556.57 550.89 557.23 
2916 556.44 550.69 557.23 
2917 556.40 551.30 557.23 
2918 556.50 551.19 557.23 
2919 556.52 551.00 557.23 
2920 556.42 550.85 557.23 
2921 556.58 551.33 557.23 
2922 556.55 551.19 557.23 
2923 556.77 551.84 557.23 
2924 556.62 551.89 557.23 
2925 556.55 551.85 557.23 
2926 556.62 551.70 557.23 
2927 556.69 552.47 557.23 
2928 554.76 552.87 557.23 
2929 556.64 552.35 557.23 
2930 556.68 551.72 557.23 
2931 556.59 551.68 557.23 
2932 556.50 552.25 557.23 
2933 556.68 552.41 557.23 
2934 556.54 552.77 557.23 
2935 556.65 552.44 557.23 
2936 556.71 552.55 557.23 
2937 556.48 552.36 557.23 
2938 556.63 552.35 557.23 
2939 556.73 552.65 557.23 
2940 556.54 552.79 557.23 
2941 556.76 553.05 557.23 
2942 556.54 552.44 557.23 
2943 556.66 552.41 557.23 
2944 556.56 552.51 557.23 
2945 556.59 552.13 557.23 
2946 556.43 552.32 557.23 
2947 556.42 552.20 557.23 
2948 556.59 552.13 557.23 
2949 556.54 552.84 557.23 
2950 556.41 552.98 557.23 
2951 556.73 553.13 557.23 
2952 556.70 552.97 557.23 
2953 556.71 552.96 557.23 
2954 556.62 552.93 557.23 
2955 556.57 552.70 557.23 
2956 556.71 553.02 557.23 
2957 556.80 553.22 557.23 
2958 556.54 553.20 557.23 
2959 556.81 553.11 557.23 
2960 556.58 552.94 557.23 
2961 556.88 552.60 557.23 
2962 556.67 553.18 557.23 
2963 556.63 553.44 557.23 
2964 556.82 553.47 557.23 
2965 556.69 553.79 557.23 
2966 556.72 553.60 557.23 
2967 556.59 553.59 557.23 
2968 556.66 553.62 557.23 
2969 556.86 553.54 557.23 
2970 556.88 553.80 557.23 
2971 557.00 553.41 557.23 
2972 556.70 553.30 557.23 
2973 556.89 552.81 557.23 
2974 556.75 552.91 557.23 
2975 556.64 552.89 557.23 
2976 556.73 553.71 557.23 
2977 556.69 553.40 557.23 
2978 556.96 552.82 557.23 
2979 556.74 552.77 557.23 
2980 556.75 553.46 557.23 
2981 556.72 553.33 557.23 
2982 556.49 553.39 557.23 
2983 556.69 553.60 557.23 
2984 556.67 553.63 557.23 
2985 556.91 552.86 557.23 
2986 556.81 552.76 557.23 
2987 556.75 553.38 557.23 
2988 556.67 553.39 557.23 
2989 556.72 553.04 557.23 
2990 556.67 553.15 557.23 
2991 556.59 553.30 557.23 
2992 556.58 553.88 557.23 
2993 556.63 553.50 557.23 
2994 556.59 552.77 557.23 
2995 556.65 552.76 557.23 
2996 556.69 553.79 557.23 
2997 556.71 554.00 557.23 
2998 553.66 553.34 557.23 
2999 556.83 553.52 557.23 
3000 556.75 553.26 557.23 
3001 556.76 553.22 557.23 
3002 556.90 553.22 557.23 
3003 556.67 553.43 557.23 
3004 556.97 553.41 557.23 
3005 556.85 553.21 557.23 
3006 556.92 553.50 557.23 
3007 556.77 554.17 557.23 
3008 556.81 554.28 557.23 
3009 556.45 553.96 557.23 
3010 556.75 554.06 557.23 
3011 556.85 553.71 557.23 
3012 556.82 553.40 557.23 
3013 556.82 553.81 557.23 
3014 556.74 553.90 557.23 
3015 556.88 554.15 557.23 
3016 556.81 553.95 557.23 
3017 556.84 553.96 557.23 
3018 556.82 554.30 557.23 
3019 556.77 554.41 557.23 
3020 556.95 554.64 557.23 
3021 556.93 554.41 557.23 
3022 556.99 554.34 557.23 
3023 556.70 554.09 557.23 
3024 556.94 554.41 557.23 
3025 556.93 554.50 557.23 
3026 556.89 554.00 557.23 
3027 556.73 554.04 557.23 
3028 556.85 554.05 557.23 
3029 556.85 554.37 557.23 
3030 556.92 554.50 557.23 
3031 556.94 554.32 557.23 
3032 556.83 554.49 557.23 
3033 556.89 554.62 557.23 
3034 556.87 555.03 557.23 
3035 556.90 554.96 557.23 
3036 557.06 554.92 557.23 
3037 556.77 555.04 557.23 
3038 557.01 554.99 557.23 
3039 556.93 555.00 557.23 
3040 556.85 555.11 557.23 
3041 556.79 554.95 557.23 
3042 556.92 554.93 557.23 
3043 556.90 554.90 557.23 
3044 556.86 554.90 557.23 
3045 556.89 554.98 557.23 
3046 556.95 554.70 557.23 
3047 556.64 554.77 557.23 
3048 556.75 554.60 557.23 
3049 556.84 554.69 557.23 
3050 556.82 555.01 557.23 
3051 556.92 555.07 557.23 
3052 556.77 554.83 557.23 
3053 556.77 554.95 557.23 
3054 556.73 555.19 557.23 
3055 556.56 554.87 557.23 
3056 556.75 554.85 557.23 
3057 556.77 554.94 557.23 
3058 556.62 555.08 557.23 
3059 556.82 555.19 557.23 
3060 556.90 555.11 557.23 
3061 556.90 555.19 557.23 
3062 556.76 555.30 557.23 
3063 552.57 555.50 557.23 
3064 556.78 555.82 557.23 
3065 556.70 556.16 557.23 
3066 556.75 556.20 557.23 
3067 556.74 555.56 557.23 
3068 556.67 555.79 557.23 
3069 556.67 555.66 557.23 
3070 556.60 555.62 557.23 
3071 556.40 555.50 557.23 
3072 556.64 555.26 557.23 
3073 556.61 554.97 557.23 
3074 556.64 554.29 557.23 
3075 556.55 554.37 557.23 
3076 556.60 555.20 557.23 
3077 556.73 554.49 557.23 
3078 556.74 554.13 557.23 
3079 556.52 554.55 557.23 
3080 556.57 554.12 557.23 
3081 556.55 553.98 557.23 
3082 556.53 554.20 557.23 
3083 556.71 554.34 557.23 
3084 556.56 554.12 557.23 
3085 556.60 554.84 557.23 
3086 556.60 555.20 557.23 
3087 556.85 555.17 557.23 
3088 556.66 554.99 557.23 
3089 556.52 554.98 557.23 
3090 556.57 554.86 557.23 
3091 556.81 555.14 557.23 
3092 556.71 555.04 557.23 
3093 556.83 554.96 557.23 
3094 556.78 555.08 557.23 
3095 556.84 555.05 557.23 
3096 556.75 554.71 557.23 
3097 556.64 554.61 557.23 
3098 556.80 554.67 557.23 
3099 556.71 554.62 557.23 
3100 556.73 554.40 557.23 
3101 556.85 554.06 557.23 
3102 556.73 554.43 557.23 
3103 556.74 554.22 557.23 
3104 556.70 554.25 557.23 
3105 556.63 554.29 557.23 
3106 556.75 554.64 557.23 
3107 556.75 554.96 557.23 
3108 556.61 554.97 557.23 
3109 556.78 554.99 557.23 
3110 556.83 555.32 557.23 
3111 556.94 555.33 557.23 
3112 557.02 555.40 557.23 
3113 556.61 555.50 557.23 
3114 556.69 555.32 557.23 
3115 556.77 555.13 557.23 
3116 556.68 555.28 557.23 
3117 556.83 555.42 557.23 
3118 556.91 555.66 557.23 
3119 556.86 555.50 557.23 
3120 556.90 555.25 557.23 
3121 556.75 555.30 557.23 
3122 557.01 555.37 557.23 
3123 557.03 555.37 557.23 
3124 556.84 555.30 557.23 
3125 556.77 554.95 557.23 
3126 556.86 555.44 557.23 
3127 556.90 555.45 557.23 
3128 556.77 555.57 557.23 
3129 556.77 555.68 557.23 
3130 556.86 555.77 557.23 
3131 556.73 555.70 557.23 
3132 556.98 555.66 557.23 
3133 556.79 555.63 557.23 
3134 556.79 555.81 557.23 
3135 556.92 555.98 557.23 
3136 556.90 555.86 557.23 
3137 556.91 555.80 557.23 
3138 556.70 555.90 557.23 
3139 556.95 555.91 557.23 
3140 556.81 555.93 557.23 
3141 556.88 555.72 557.23 
3142 556.70 555.86 557.23 
3143 556.96 555.55 557.23 
3144 556.88 555.04 557.23 
3145 556.87 555.17 557.23 
3146 556.85 555.28 557.23 
3147 556.95 555.19 557.23 
3148 556.94 555.20 557.23 
3149 556.88 555.30 557.23 
3150 556.89 555.04 557.23 
3151 557.05 554.75 557.23 
3152 557.06 554.95 557.23 
3153 556.91 555.30 557.23 
3154 556.90 555.31 557.23 
3155 556.98 555.75 557.23 
3156 556.95 555.33 557.23 
3157 556.95 555.53 557.23 
3158 556.95 554.75 557.23 
3159 556.92 554.45 557.23 
3160 557.06 555.14 557.23 
3161 556.98 554.94 557.23 
3162 557.05 554.32 557.23 
3163 556.91 554.38 557.23 
3164 556.80 554.52 557.23 
3165 556.76 554.74 557.23 
3166 556.78 554.78 557.23 
3167 556.98 554.72 557.23 
3168 556.96 554.69 557.23 
3169 557.14 555.16 557.23 
3170 557.00 555.65 557.23 
3171 557.06 555.15 557.23 
3172 557.02 555.03 557.23 
3173 556.98 554.81 557.23 
3174 557.05 555.02 557.23 
3175 557.08 555.67 557.23 
3176 556.95 555.46 557.23 
3177 557.02 555.37 557.23 
3178 557.12 555.40 557.23 
3179 557.06 554.96 557.23 
3180 557.03 555.30 557.23 
3181 556.99 555.23 557.23 
3182 556.95 554.93 557.23 
3183 557.09 555.23 557.23 
3184 557.09 555.63 557.23 
3185 557.08 555.54 557.23 
3186 557.03 555.75 557.23 
3187 557.03 555.92 557.23 
3188 557.14 555.69 557.23 
3189 557.12 555.77 557.23 
3190 557.06 555.84 557.23 
3191 557.04 555.65 557.23 
3192 557.13 555.53 557.23 
3193 557.21 555.41 557.23 
3194 556.90 555.67 557.23 
3195 557.12 555.68 557.23 
3196 557.17 555.38 557.23 
3197 557.19 555.41 557.23 
3198 557.06 555.08 557.23 
3199 557.12 555.62 557.23 
3200 557.18 555.51 557.23 
3201 557.16 555.89 557.23 
3202 557.21 555.50 557.23 
3203 557.13 555.65 557.23 
3204 557.06 555.66 557.23 
3205 557.16 555.70 557.23 
3206 557.28 555.82 557.23 
3207 557.17 555.61 557.28 
3208 557.18 555.50 557.28 
3209 557.17 555.60 557.28 
3210 557.24 555.39 557.28 
3211 557.14 555.51 557.28 
3212 557.12 555.54 557.28 
3213 557.19 555.34 557.28 
3214 557.31 555.37 557.28 
3215 557.11 554.99 557.31 
3216 557.20 555.10 557.31 
3217 557.21 555.26 557.31 
3218 557.08 555.70 557.31 
3219 557.23 555.56 557.31 
3220 557.15 555.43 557.31 
3221 557.16 555.68 557.31 
3222 557.01 555.79 557.31 
3223 557.24 555.93 557.31 
3224 557.15 555.79 557.31 
3225 557.14 555.39 557.31 
3226 557.23 555.45 557.31 
3227 557.20 555.28 557.31 
3228 557.19 555.29 557.31 
3229 557.18 555.16 557.31 
3230 557.25 555.21 557.31 
3231 557.18 555.07 557.31 
3232 557.24 555.24 557.31 
3233 557.19 555.05 557.31 
3234 557.02 555.19 557.31 
3235 557.09 555.07 557.31 
3236 557.11 555.02 557.31 
3237 557.07 555.05 557.31 
3238 557.14 555.15 557.31 
3239 557.08 555.24 557.31 
3240 557.02 554.96 557.31 
3241 557.08 555.03 557.31 
3242 557.06 554.79 557.31 
3243 557.03 555.21 557.31 
3244 557.14 555.16 557.31 
3245 557.05 555.32 557.31 
3246 557.12 555.49 557.31 
3247 557.11 555.65 557.31 
3248 557.04 555.88 557.31 
3249 557.07 555.77 557.31 
3250 557.08 555.77 557.31 
3251 557.15 555.67 557.31 
3252 557.15 555.74 557.31 
3253 557.05 555.69 557.31 
3254 557.19 555.69 557.31 
3255 557.31 555.74 557.31 
3256 557.20 555.74 557.31 
3257 557.10 555.68 557.31 
3258 557.17 555.67 557.31 
3259 557.25 555.64 557.31 
3260 557.24 555.77 557.31 
3261 557.14 555.64 557.31 
3262 557.12 555.56 557.31 
3263 557.17 555.39 557.31 
3264 557.23 555.88 557.31 
3265 557.13 555.84 557.31 
3266 557.16 555.88 557.31 
3267 557.12 555.80 557.31 
3268 557.23 555.66 557.31 
3269 557.11 555.64 557.31 
3270 557.20 555.60 557.31 
3271 557.26 555.51 557.31 
3272 557.22 555.50 557.31 
3273 557.23 555.41 557.31 
3274 557.21 555.79 557.31 
3275 557.27 555.80 557.31 
3276 557.29 555.67 557.31 
3277 557.23 555.82 557.31 
3278 557.30 555.90 557.31 
3279 557.25 555.79 557.31 
3280 557.21 555.89 557.31 
3281 557.25 555.86 557.31 
3282 557.31 555.84 557.31 
3283 557.38 555.72 557.31 
3284 557.31 555.84 557.38 
3285 557.32 555.69 557.38 
3286 557.25 555.68 557.38 
3287 557.18 555.74 557.38 
3288 557.28 555.34 557.38 
3289 557.29 555.48 557.38 
3290 557.31 555.40 557.38 
3291 557.23 555.45 557.38 
3292 557.25 555.68 557.38 
3293 557.28 555.66 557.38 
3294 557.29 555.57 557.38 
3295 557.30 555.70 557.38 
3296 557.24 555.87 557.38 
3297 557.22 555.66 557.38 
3298 557.22 555.83 557.38 
3299 557.21 555.68 557.38 
3300 557.32 555.67 557.38 
3301 557.13 555.64 557.38 
3302 557.14 555.31 557.38 
3303 557.25 555.61 557.38 
3304 557.23 555.36 557.38 
3305 557.22 555.25 557.38 
3306 557.08 555.67 557.38 
3307 557.17 555.52 557.38 
3308 557.15 555.35 557.38 
3309 557.08 555.16 557.38 
3310 557.18 555.29 557.38 
3311 557.19 555.15 557.38 
3312 557.19 554.93 557.38 
3313 557.13 554.95 557.38 
3314 557.22 555.51 557.38 
3315 557.23 555.30 557.38 
3316 557.22 555.32 557.38 
3317 557.31 555.36 557.38 
3318 557.26 555.67 557.38 
3319 557.18 555.32 557.38 
3320 557.23 555.39 557.38 
3321 557.24 555.44 557.38 
3322 557.30 555.58 557.38 
3323 557.31 555.87 557.38 
3324 557.18 555.82 557.38 
3325 557.26 555.77 557.38 
3326 557.25 555.73 557.38 
3327 557.18 555.59 557.38 
3328 557.18 555.63 557.38 
3329 557.29 555.66 557.38 
3330 557.18 555.50 557.38 
3331 557.22 555.89 557.38 
3332 557.19 555.14 557.38 
3333 557.15 555.19 557.38 
3334 557.14 555.85 557.38 
3335 557.09 555.43 557.38 
3336 557.11 555.45 557.38 
3337 557.20 555.06 557.38 
3338 557.26 555.13 557.38 
3339 557.19 555.06 557.38 
3340 557.27 554.70 557.38 
3341 557.24 554.91 557.38 
3342 557.18 554.57 557.38 
3343 557.21 554.41 557.38 
3344 557.29 554.87 557.38 
3345 557.26 555.10 557.38 
3346 557.26 555.26 557.38 
3347 557.16 555.11 557.38 
3348 557.31 555.12 557.38 
3349 557.28 555.38 557.38 
3350 557.20 555.32 557.38 
3351 557.33 555.43 557.38 
3352 557.19 555.52 557.38 
3353 557.21 555.33 557.38 
3354 557.28 555.49 557.38 
3355 557.32 555.59 557.38 
3356 557.28 555.56 557.38 
3357 557.20 555.59 557.38 
3358 557.30 555.54 557.38 
3359 557.25 555.65 557.38 
3360 557.26 555.69 557.38 
3361 557.33 555.64 557.38 
3362 557.28 555.54 557.38 
3363 557.30 555.58 557.38 
3364 557.26 555.66 557.38 
3365 557.31 555.89 557.38 
3366 557.35 555.94 557.38 
3367 557.34 555.85 557.38 
3368 557.27 555.82 557.38 
3369 557.21 555.99 557.38 
3370 557.27 555.81 557.38 
3371 557.23 555.78 557.38 
3372 557.29 556.02 557.38 
3373 557.23 556.14 557.38 
3374 557.25 555.95 557.38 
3375 557.23 556.07 557.38 
3376 552.31 556.21 557.38 
3377 557.26 556.16 557.38 
3378 557.26 556.20 557.38 
3379 557.35 556.44 557.38 
3380 557.18 556.45 557.38 
3381 557.24 556.39 557.38 
3382 557.20 556.52 557.38 
3383 557.40 556.48 557.38 
3384 557.18 556.65 557.40 
3385 557.03 556.82 557.40 
3386 557.14 556.57 557.40 
3387 557.22 556.46 557.40 
3388 557.34 556.66 557.40 
3389 557.22 556.17 557.40 
3390 557.28 556.32 557.40 
3391 557.24 556.31 557.40 
3392 557.18 555.96 557.40 
3393 557.25 555.80 557.40 
3394 557.21 555.61 557.40 
3395 557.24 555.87 557.40 
3396 557.28 555.67 557.40 
3397 557.15 555.85 557.40 
3398 557.14 555.85 557.40 
3399 557.20 555.87 557.40 
3400 557.20 556.00 557.40 
3401 557.30 556.14 557.40 
3402 557.29 555.93 557.40 
3403 557.33 556.13 557.40 
3404 557.33 556.02 557.40 
3405 557.22 556.10 557.40 
3406 557.32 556.01 557.40 
3407 557.27 555.87 557.40 
3408 557.28 555.88 557.40 
3409 557.32 555.95 557.40 
3410 557.35 555.94 557.40 
3411 557.34 555.89 557.40 
3412 557.29 555.71 557.40 
3413 557.29 555.63 557.40 
3414 557.30 555.43 557.40 
3415 557.26 555.62 557.40 
3416 557.25 555.88 557.40 
3417 557.34 555.78 557.40 
3418 557.23 555.74 557.40 
3419 557.33 555.81 557.40 
3420 557.31 555.81 557.40 
3421 557.38 555.86 557.40 
3422 557.33 556.11 557.40 
3423 557.41 556.21 557.40 
3424 557.35 556.18 557.41 
3425 557.32 556.07 557.41 
3426 557.38 555.86 557.41 
3427 557.27 555.67 557.41 
3428 557.33 555.95 557.41 
3429 557.37 556.04 557.41 
3430 557.37 556.26 557.41 
3431 557.43 556.05 557.41 
3432 557.43 555.96 557.43 
3433 552.68 555.93 557.43 
3434 557.38 556.30 557.43 
3435 557.29 556.41 557.43 
3436 557.37 556.41 557.43 
3437 557.30 556.59 557.43 
3438 557.27 557.09 557.43 
3439 557.32 557.10 557.43 
3440 557.14 556.86 557.43 
3441 557.11 556.96 557.43 
3442 557.24 556.95 557.43 
3443 557.30 557.09 557.43 
3444 557.19 556.95 557.43 
3445 557.37 557.10 557.43 
3446 557.25 556.39 557.43 
3447 557.27 556.47 557.43 
3448 557.25 556.05 557.43 
3449 557.21 555.67 557.43 
3450 557.20 555.66 557.43 
3451 557.13 554.87 557.43 
3452 557.17 555.17 557.43 
3453 557.14 555.25 557.43 
3454 557.09 555.31 557.43 
3455 557.20 555.79 557.43 
3456 557.07 555.48 557.43 
3457 557.09 555.48 557.43 
3458 554.27 555.31 557.43 
3459 557.13 555.61 557.43 
3460 557.07 555.55 557.43 
3461 557.10 555.46 557.43 
3462 557.05 555.21 557.43 
3463 556.83 555.11 557.43 
3464 556.88 554.54 557.43 
3465 556.92 554.77 557.43 
3466 556.97 554.69 557.43 
3467 556.94 554.30 557.43 
3468 556.89 553.96 557.43 
3469 556.75 553.43 557.43 
3470 556.63 553.46 557.43 
3471 556.59 553.76 557.43 
3472 556.90 554.25 557.43 
3473 557.00 553.92 557.43 
3474 556.84 554.26 557.43 
3475 556.93 554.63 557.43 
3476 557.04 554.77 557.43 
3477 556.99 554.77 557.43 
3478 557.00 554.68 557.43 
3479 556.98 554.76 557.43 
3480 557.07 554.86 557.43 
3481 557.21 554.81 557.43 
3482 557.06 554.68 557.43 
3483 557.07 554.53 557.43 
3484 557.01 554.85 557.43 
3485 557.06 554.84 557.43 
3486 556.98 555.29 557.43 
3487 557.13 555.59 557.43 
3488 557.24 555.74 557.43 
3489 557.15 555.29 557.43 
3490 557.04 555.85 557.43 
3491 557.13 556.04 557.43 
3492 557.20 555.80 557.43 
3493 557.19 555.76 557.43 
3494 557.16 555.97 557.43 
3495 557.23 556.23 557.43 
3496 550.85 556.25 557.43 
3497 557.13 556.36 557.43 
3498 557.12 556.58 557.43 
3499 557.16 556.87 557.43 
3500 556.98 556.63 557.43 
3501 557.01 556.77 557.43 
3502 557.17 556.84 557.43 
3503 556.95 556.89 557.43 
3504 556.94 556.85 557.43 
3505 557.04 556.74 557.43 
3506 556.96 556.91 557.43 
3507 557.15 556.86 557.43 
3508 556.98 556.85 557.43 
3509 557.09 557.12 557.43 
3510 557.09 557.08 557.43 
3511 557.07 556.84 557.43 
3512 557.05 556.93 557.43 
3513 557.12 557.08 557.43 
3514 557.13 557.19 557.43 
3515 556.98 556.95 557.43 
3516 557.19 556.77 557.43 
3517 557.10 556.98 557.43 
3518 557.01 556.78 557.43 
3519 557.20 556.86 557.43 
3520 557.19 556.64 557.43 
3521 557.02 556.64 557.43 
3522 556.92 556.32 557.43 
3523 557.08 556.11 557.43 
3524 557.06 556.04 557.43 
3525 556.99 556.36 557.43 
3526 557.19 556.41 557.43 
3527 557.13 556.43 557.43 
3528 557.16 556.41 557.43 
3529 557.14 556.35 557.43 
3530 557.15 556.44 557.43 
3531 557.06 556.52 557.43 
3532 557.12 556.45 557.43 
3533 557.21 556.89 557.43 
3534 557.21 556.46 557.43 
3535 557.20 556.37 557.43 
3536 557.21 556.64 557.43 
3537 557.29 556.77 557.43 
3538 557.19 556.90 557.43 
3539 557.25 556.77 557.43 
3540 557.12 556.73 557.43 
3541 557.07 556.82 557.43 
3542 557.06 556.72 557.43 
3543 557.15 556.92 557.43 
3544 556.97 556.96 557.43 
3545 556.91 557.17 557.43 
3546 557.17 557.07 557.43 
3547 556.53 557.12 557.43 
3548 557.22 557.04 557.43 
3549 557.21 556.99 557.43 
3550 556.88 556.95 557.43 
3551 557.13 556.90 557.43 
3552 557.07 556.76 557.43 
3553 557.20 556.69 557.43 
3554 557.19 556.73 557.43 
3555 556.95 556.47 557.43 
3556 557.15 556.41 557.43 
3557 557.17 556.28 557.43 
3558 557.19 556.22 557.43 
3559 557.31 556.45 557.43 
3560 557.27 556.42 557.43 
3561 557.26 556.41 557.43 
3562 557.00 556.09 557.43 
3563 557.15 555.97 557.43 
3564 557.25 555.58 557.43 
3565 557.27 555.83 557.43 
3566 557.38 555.86 557.43 
3567 557.29 555.90 557.43 
3568 557.21 555.84 557.43 
3569 557.16 556.16 557.43 
3570 557.20 556.24 557.43 
3571 557.21 555.92 557.43 
3572 557.15 556.47 557.43 
3573 557.28 556.46 557.43 
3574 557.35 556.07 557.43 
3575 557.42 556.04 557.43 
3576 557.20 556.14 557.43 
3577 557.33 555.69 557.43 
3578 557.25 555.71 557.43 
3579 557.21 556.06 557.43 
3580 557.22 555.59 557.43 
3581 557.14 555.43 557.43 
3582 557.28 555.72 557.43 
3583 557.25 555.67 557.43 
3584 557.34 556.17 557.43 
3585 557.28 555.55 557.43 
3586 557.28 555.33 557.43 
3587 557.24 555.12 557.43 
3588 557.25 555.30 557.43 
3589 557.27 555.84 557.43 
3590 557.17 555.45 557.43 
3591 557.27 555.17 557.43 
3592 557.32 555.43 557.43 
3593 557.34 555.67 557.43 
3594 557.40 555.54 557.43 
3595 557.42 555.54 557.43 
3596 557.34 555.57 557.43 
3597 557.28 555.37 557.43 
3598 557.31 555.68 557.43 
3599 557.40 555.46 557.43 
3600 557.30 555.23 557.43 
3601 557.36 555.66 557.43 
3602 557.31 555.03 557.43 
3603 557.36 555.03 557.43 
3604 557.25 555.20 557.43 
3605 557.25 555.59 557.43 
3606 557.36 555.70 557.43 
3607 557.31 555.62 557.43 
3608 557.38 555.54 557.43 
3609 557.39 555.67 557.43 
3610 557.36 555.77 557.43 
3611 557.43 555.76 557.43 
3612 557.28 555.69 557.43 
3613 557.38 555.80 557.43 
3614 557.36 555.59 557.43 
3615 557.32 555.67 557.43 
3616 557.31 555.68 557.43 
3617 557.33 555.72 557.43 
3618 557.38 555.95 557.43 
3619 557.36 556.29 557.43 
3620 557.26 555.91 557.43 
3621 557.42 556.24 557.43 
3622 557.37 556.05 557.43 
3623 557.19 556.51 557.43 
3624 557.30 556.40 557.43 
3625 557.35 556.35 557.43 
3626 557.37 555.94 557.43 
3627 557.33 555.85 557.43 
3628 557.36 555.75 557.43 
3629 557.34 556.20 557.43 
3630 557.31 556.45 557.43 
3631 557.32 556.06 557.43 
3632 557.43 556.17 557.43 
3633 557.41 556.03 557.43 
3634 557.35 555.84 557.43 
3635 557.34 555.99 557.43 
3636 557.33 556.11 557.43 
3637 557.37 556.04 557.43 
3638 557.39 556.20 557.43 
3639 557.45 555.97 557.43 
3640 557.36 556.62 557.45 
3641 557.25 556.06 557.45 
3642 557.25 556.03 557.45 
3643 557.29 555.84 557.45 
3644 557.26 555.79 557.45 
3645 557.26 556.21 557.45 
3646 557.16 555.86 557.45 
3647 557.28 556.38 557.45 
3648 557.21 555.84 557.45 
3649 557.30 555.75 557.45 
3650 557.33 555.96 557.45 
3651 557.27 555.73 557.45 
3652 557.28 555.53 557.45 
3653 557.43 556.08 557.45 
3654 557.34 556.30 557.45 
3655 557.44 556.28 557.45 
3656 557.41 555.63 557.45 
3657 557.28 555.76 557.45 
3658 557.39 555.94 557.45 
3659 557.33 556.03 557.45 
3660 557.34 555.92 557.45 
3661 557.33 556.12 557.45 
3662 557.35 555.81 557.45 
3663 557.32 555.51 557.45 
3664 557.36 556.00 557.45 
3665 557.35 555.51 557.45 
3666 557.32 556.06 557.45 
3667 557.29 555.71 557.45 
3668 557.42 555.82 557.45 
3669 557.35 556.27 557.45 
3670 557.30 555.88 557.45 
3671 557.37 556.08 557.45 
3672 557.34 556.33 557.45 
3673 557.37 556.19 557.45 
3674 557.40 556.04 557.45 
3675 557.45 556.16 557.45 
3676 557.41 556.05 557.45 
3677 557.36 555.97 557.45 
3678 557.39 555.88 557.45 
3679 557.18 555.96 557.45 
3680 557.26 555.98 557.45 
3681 557.31 556.11 557.45 
3682 557.21 555.77 557.45 
3683 557.36 555.94 557.45 
3684 557.36 555.96 557.45 
3685 557.32 555.75 557.45 
3686 557.46 555.63 557.45 
3687 557.45 555.67 557.46 
3688 557.43 555.66 557.46 
3689 557.22 555.55 557.46 
3690 557.24 555.53 557.46 
3691 557.27 555.57 557.46 
3692 557.40 555.44 557.46 
3693 557.35 555.41 557.46 
3694 557.33 555.40 557.46 
3695 557.25 555.52 557.46 
3696 557.29 555.42 557.46 
3697 557.34 555.55 557.46 
3698 557.39 555.60 557.46 
3699 557.36 555.99 557.46 
3700 557.39 556.15 557.46 
3701 557.36 556.23 557.46 
3702 557.35 556.09 557.46 
3703 557.38 556.00 557.46 
3704 557.33 555.87 557.46 
3705 557.38 555.86 557.46 
3706 557.37 555.78 557.46 
3707 557.22 555.87 557.46 
3708 557.33 555.97 557.46 
3709 557.40 555.98 557.46 
3710 557.40 555.85 557.46 
3711 557.45 555.71 557.46 
3712 557.33 555.84 557.46 
3713 557.39 555.88 557.46 
3714 557.49 555.94 557.46 
3715 552.81 556.03 557.49 
3716 557.41 556.37 557.49 
3717 557.27 556.83 557.49 
3718 557.42 557.12 557.49 
3719 557.31 557.32 557.49 
3720 557.26 557.50 557.49 
3721 557.21 557.42 557.49 
3722 557.22 557.49 557.49 
3723 557.22 557.58 557.49 
3724 557.23 557.63 557.49 
3725 557.23 557.73 557.49 
3726 557.04 557.68 557.49 
3727 557.15 557.66 557.49 
3728 557.25 557.44 557.49 
3729 557.15 557.46 557.49 
3730 557.23 557.23 557.49 
3731 557.12 557.15 557.49 
3732 557.08 557.15 557.49 
3733 557.20 557.25 557.49 
3734 557.29 557.22 557.49 
3735 557.11 557.03 557.49 
3736 557.23 556.73 557.49 
3737 557.23 556.73 557.49 
3738 557.25 556.84 557.49 
3739 557.34 557.14 557.49 
3740 557.35 557.06 557.49 
3741 557.24 557.00 557.49 
3742 557.19 556.96 557.49 
3743 557.27 556.98 557.49 
3744 557.11 556.77 557.49 
3745 557.21 556.63 557.49 
3746 557.28 556.59 557.49 
3747 557.23 556.43 557.49 
3748 557.01 556.67 557.49 
3749 557.27 556.82 557.49 
3750 557.14 556.65 557.49 
3751 557.14 556.59 557.49 
3752 557.27 556.43 557.49 
3753 557.17 556.59 557.49 
3754 557.27 556.49 557.49 
3755 557.24 556.48 557.49 
3756 557.30 556.53 557.49 
3757 557.15 556.52 557.49 
3758 557.24 556.29 557.49 
3759 557.27 556.11 557.49 
3760 557.23 556.25 557.49 
3761 557.33 556.15 557.49 
3762 557.34 556.26 557.49 
3763 557.38 556.26 557.49 
3764 557.39 556.32 557.49 
3765 557.37 556.29 557.49 
3766 557.43 556.23 557.49 
3767 557.35 556.32 557.49 
3768 553.85 556.32 557.49 
3769 557.26 556.27 557.49 
3770 557.37 556.38 557.49 
3771 557.28 556.47 557.49 
3772 557.15 556.33 557.49 
3773 557.14 556.44 557.49 
3774 557.29 556.33 557.49 
3775 557.13 556.47 557.49 
3776 557.14 556.22 557.49 
3777 557.32 555.93 557.49 
3778 557.19 555.63 557.49 
3779 557.04 555.56 557.49 
3780 557.06 556.08 557.49 
3781 557.08 555.52 557.49 
3782 557.20 555.55 557.49 
3783 557.18 555.45 557.49 
3784 557.17 555.62 557.49 
3785 557.19 555.52 557.49 
3786 557.05 555.31 557.49 
3787 557.21 555.53 557.49 
3788 557.22 555.56 557.49 
3789 557.20 555.48 557.49 
3790 557.22 555.57 557.49 
3791 557.27 555.67 557.49 
3792 557.31 555.87 557.49 
3793 557.36 555.97 557.49 
3794 557.33 556.06 557.49 
3795 557.24 555.94 557.49 
3796 556.66 555.96 557.49 
3797 557.22 555.93 557.49 
3798 557.24 555.95 557.49 
3799 557.33 555.85 557.49 
3800 557.34 556.07 557.49 
3801 557.33 556.08 557.49 
3802 557.18 556.02 557.49 
3803 556.47 555.99 557.49 
3804 557.34 555.74 557.49 
3805 557.31 555.63 557.49 
3806 557.41 555.54 557.49 
3807 557.32 555.81 557.49 
3808 557.31 555.78 557.49 
3809 557.31 555.82 557.49 
3810 557.16 555.66 557.49 
3811 557.28 555.77 557.49 
3812 557.41 555.98 557.49 
3813 557.38 555.99 557.49 
3814 557.41 555.92 557.49 
3815 557.34 555.72 557.49 
3816 557.36 555.64 557.49 
3817 557.30 555.79 557.49 
3818 557.29 555.96 557.49 
3819 557.32 555.97 557.49 
3820 557.39 555.96 557.49 
3821 557.31 556.14 557.49 
3822 557.19 556.12 557.49 
3823 557.45 556.20 557.49 
3824 557.36 556.07 557.49 
3825 557.12 556.16 557.49 
3826 557.32 556.27 557.49 
3827 557.31 556.23 557.49 
3828 557.33 556.17 557.49 
3829 557.23 555.93 557.49 
3830 557.28 555.92 557.49 
3831 557.32 555.94 557.49 
3832 557.26 556.00 557.49 
3833 557.29 555.93 557.49 
3834 557.37 555.97 557.49 
3835 557.34 556.02 557.49 
3836 557.29 555.95 557.49 
3837 556.00 555.69 557.49 
3838 557.25 555.67 557.49 
3839 557.29 555.57 557.49 
3840 557.17 555.77 557.49 
3841 557.39 555.65 557.49 
3842 557.22 555.78 557.49 
3843 557.30 555.51 557.49 
3844 557.24 555.58 557.49 
3845 557.20 555.66 557.49 
3846 557.12 555.66 557.49 
3847 557.13 555.49 557.49 
3848 557.08 555.51 557.49 
3849 557.26 555.45 557.49 
3850 557.28 555.53 557.49 
3851 557.08 555.56 557.49 
3852 557.21 555.51 557.49 
3853 557.10 555.70 557.49 
3854 557.08 555.67 557.49 
3855 557.19 555.66 557.49 
3856 557.12 555.81 557.49 
3857 557.26 555.79 557.49 
3858 557.19 555.77 557.49 
3859 557.07 555.92 557.49 
3860 557.20 556.07 557.49 
3861 557.33 556.13 557.49 
3862 557.21 556.30 557.49 
3863 557.32 556.12 557.49 
3864 557.08 555.94 557.49 
3865 557.19 556.02 557.49 
3866 557.33 556.16 557.49 
3867 557.20 556.09 557.49 
3868 557.22 555.90 557.49 
3869 557.29 555.90 557.49 
3870 557.31 555.79 557.49 
3871 557.30 555.73 557.49 
3872 557.31 555.77 557.49 
3873 557.25 556.02 557.49 
3874 557.36 555.98 557.49 
3875 557.33 556.06 557.49 
3876 557.30 556.09 557.49 
3877 557.43 555.93 557.49 
3878 557.30 555.72 557.49 
3879 557.28 555.70 557.49 
3880 557.30 555.89 557.49 
3881 557.35 556.03 557.49 
3882 557.43 556.12 557.49 
3883 557.34 556.28 557.49 
3884 557.36 556.19 557.49 
3885 557.27 556.03 557.49 
3886 557.32 555.95 557.49 
3887 557.39 555.88 557.49 
3888 557.31 556.16 557.49 
3889 557.36 556.04 557.49 
3890 557.41 555.99 557.49 
3891 557.20 556.01 557.49 
3892 557.32 556.18 557.49 
3893 556.23 556.23 557.49 
3894 557.36 556.19 557.49 
3895 557.26 556.55 557.49 
3896 557.42 556.40 557.49 
3897 557.42 556.30 557.49 
3898 557.28 556.23 557.49 
3899 557.16 556.27 557.49 
3900 557.15 556.21 557.49 
3901 557.21 556.34 557.49 
3902 557.24 556.49 557.49 
3903 557.20 556.34 557.49 
3904 557.17 556.21 557.49 
3905 557.27 556.43 557.49 
3906 557.19 556.33 557.49 
3907 557.30 556.39 557.49 
3908 557.24 556.20 557.49 
3909 557.23 556.23 557.49 
3910 557.30 556.10 557.49 
3911 557.27 556.07 557.49 
3912 557.19 556.06 557.49 
3913 557.25 556.07 557.49 
3914 557.29 556.09 557.49 
3915 557.23 556.09 557.49 
3916 557.33 556.04 557.49 
3917 557.22 556.09 557.49 
3918 557.23 555.91 557.49 
3919 553.03 556.17 557.49 
3920 557.29 556.03 557.49 
3921 557.25 556.10 557.49 
3922 557.30 556.27 557.49 
3923 557.28 556.25 557.49 
3924 557.20 556.12 557.49 
3925 557.05 556.02 557.49 
3926 557.29 555.94 557.49 
3927 557.22 556.06 557.49 
3928 557.24 555.98 557.49 
3929 557.20 555.79 557.49 
3930 557.17 555.65 557.49 
3931 557.34 555.75 557.49 
3932 557.17 555.86 557.49 
3933 557.35 555.88 557.49 
3934 557.22 555.89 557.49 
3935 557.29 555.88 557.49 
3936 557.23 555.95 557.49 
3937 557.30 555.86 557.49 
3938 557.13 555.83 557.49 
3939 557.18 555.84 557.49 
3940 557.19 555.81 557.49 
3941 557.24 555.94 557.49 
3942 557.29 555.88 557.49 
3943 557.20 555.81 557.49 
3944 557.21 555.76 557.49 
3945 557.15 555.84 557.49 
3946 557.29 555.90 557.49 
3947 557.36 555.96 557.49 
3948 557.25 555.92 557.49 
3949 557.22 555.93 557.49 
3950 557.31 556.02 557.49 
3951 557.23 556.00 557.49 
3952 557.22 556.11 557.49 
3953 557.16 556.29 557.49 
3954 557.31 556.39 557.49 
3955 557.25 556.35 557.49 
3956 557.24 556.48 557.49 
3957 557.31 556.12 557.49 
3958 557.32 556.18 557.49 
3959 557.24 556.16 557.49 
3960 557.33 556.24 557.49 
3961 557.28 556.04 557.49 
3962 557.25 556.00 557.49 
3963 557.19 556.11 557.49 
3964 557.32 556.05 557.49 
3965 557.19 555.91 557.49 
3966 557.30 556.20 557.49 
3967 557.21 555.92 557.49 
3968 557.31 555.89 557.49 
3969 557.35 556.01 557.49 
3970 557.36 556.08 557.49 
3971 557.34 556.15 557.49 
3972 557.38 556.03 557.49 
3973 557.30 556.14 557.49 
3974 557.35 556.12 557.49 
3975 557.39 555.82 557.49 
3976 557.33 555.89 557.49 
3977 557.37 555.73 557.49 
3978 557.38 555.63 557.49 
3979 557.28 555.57 557.49 
3980 557.34 555.74 557.49 
3981 557.25 555.57 557.49 
3982 557.27 555.59 557.49 
3983 557.38 555.75 557.49 
3984 557.22 555.78 557.49 
3985 557.31 555.68 557.49 
3986 557.30 555.90 557.49 
3987 557.35 556.03 557.49 
3988 557.41 556.15 557.49 
3989 557.35 556.21 557.49 
3990 557.42 556.08 557.49 
3991 557.29 555.90 557.49 
3992 557.44 555.99 557.49 
3993 557.33 555.77 557.49 
3994 557.38 555.71 557.49 
3995 557.41 555.60 557.49 
3996 557.36 556.00 557.49 
3997 557.23 556.06 557.49 
3998 557.27 555.89 557.49 
3999 557.39 555.68 557.49 
4000 557.42 555.83 557.49 
4001 557.50 556.03 557.49 
4002 557.42 555.85 557.50 
4003 557.40 556.13 557.50 
4004 557.45 556.21 557.50 
4005 557.30 556.15 557.50 
4006 552.10 556.37 557.50 
4007 557.34 556.69 557.50 
4008 557.37 556.96 557.50 
4009 557.38 556.94 557.50 
4010 557.31 556.93 557.50 
4011 557.31 557.22 557.50 
4012 557.29 557.42 557.50 
4013 557.32 557.30 557.50 
4014 557.19 557.46 557.50 
4015 557.36 557.41 557.50 
4016 557.22 557.36 557.50 
4017 557.34 557.36 557.50 
4018 557.22 557.14 557.50 
4019 557.27 557.19 557.50 
4020 557.31 556.87 557.50 
4021 557.34 557.07 557.50 
4022 557.33 556.81 557.50 
4023 557.24 556.80 557.50 
4024 557.30 556.64 557.50 
4025 557.33 556.84 557.50 
4026 557.37 556.65 557.50 
4027 557.22 556.68 557.50 
4028 557.31 556.68 557.50 
4029 557.39 556.41 557.50 
4030 557.25 556.37 557.50 
4031 557.16 556.49 557.50 
4032 557.32 556.47 557.50 
4033 557.38 556.59 557.50 
4034 557.17 556.43 557.50 
4035 557.36 556.19 557.50 
4036 557.35 556.29 557.50 
4037 557.23 556.20 557.50 
4038 557.31 556.30 557.50 
4039 557.41 556.54 557.50 
4040 557.37 556.45 557.50 
4041 557.47 556.33 557.50 
4042 557.25 556.39 557.50 
4043 557.29 556.71 557.50 
4044 557.35 556.69 557.50 
4045 557.34 556.77 557.50 
4046 557.46 556.65 557.50 
4047 557.41 556.42 557.50 
4048 557.42 556.55 557.50 
4049 557.29 556.56 557.50 
4050 557.41 556.35 557.50 
4051 557.35 556.47 557.50 
4052 557.35 556.82 557.50 
4053 557.35 556.76 557.50 
4054 554.23 556.68 557.50 
4055 557.42 556.80 557.50 
4056 557.38 556.92 557.50 
4057 557.33 556.91 557.50 
4058 557.32 556.76 557.50 
4059 557.15 556.87 557.50 
4060 557.36 556.86 557.50 
4061 557.26 557.24 557.50 
4062 557.32 557.28 557.50 
4063 557.32 557.17 557.50 
4064 557.26 557.14 557.50 
4065 557.29 557.20 557.50 
4066 557.23 557.24 557.50 
4067 557.23 557.07 557.50 
4068 557.31 557.07 557.50 
4069 557.12 557.00 557.50 
4070 557.25 557.03 557.50 
4071 557.33 557.05 557.50 
4072 557.30 557.16 557.50 
4073 557.28 556.89 557.50 
4074 557.41 556.90 557.50 
4075 557.42 556.93 557.50 
4076 557.41 557.00 557.50 
4077 557.46 556.96 557.50 
4078 557.51 557.07 557.50 
4079 557.38 557.12 557.51 
4080 557.39 557.01 557.51 
4081 557.44 557.09 557.51 
4082 557.48 557.10 557.51 
4083 557.31 557.34 557.51 
4084 557.40 557.22 557.51 
4085 557.33 557.02 557.51 
4086 557.38 557.12 557.51 
4087 557.42 557.27 557.51 
4088 557.28 557.00 557.51 
4089 557.35 557.02 557.51 
4090 557.39 556.88 557.51 
4091 557.39 556.64 557.51 
4092 557.47 556.58 557.51 
4093 557.36 556.59 557.51 
4094 557.40 556.58 557.51 
4095 557.44 556.73 557.51 
4096 557.37 556.93 557.51 
4097 557.48 556.48 557.51 
4098 557.36 556.51 557.51 
4099 557.34 556.23 557.51 
4100 557.35 556.40 557.51 
4101 557.39 556.55 557.51 
4102 557.42 556.39 557.51 
4103 557.38 556.59 557.51 
4104 557.44 556.53 557.51 
4105 557.40 556.56 557.51 
4106 557.28 556.56 557.51 
4107 557.26 556.51 557.51 
4108 557.42 556.54 557.51 
4109 557.44 556.52 557.51 
4110 557.34 556.50 557.51 
4111 557.42 556.63 557.51 
4112 557.45 556.59 557.51 
4113 557.29 556.74 557.51 
4114 557.43 556.80 557.51 
4115 557.33 556.69 557.51 
4116 557.26 556.80 557.51 
4117 557.25 556.61 557.51 
4118 557.35 556.78 557.51 
4119 557.36 556.64 557.51 
4120 557.41 556.88 557.51 
4121 557.42 557.02 557.51 
4122 557.43 556.54 557.51 
4123 557.43 556.79 557.51 
4124 557.40 556.79 557.51 
4125 557.44 556.90 557.51 
4126 557.43 557.02 557.51 
4127 557.50 556.83 557.51 
4128 557.49 556.93 557.51 
4129 551.45 556.87 557.51 
4130 557.46 556.77 557.51 
4131 557.47 556.86 557.51 
4132 557.38 556.97 557.51 
4133 557.43 557.07 557.51 
4134 557.46 557.09 557.51 
4135 557.45 556.98 557.51 
4136 557.41 557.15 557.51 
4137 557.39 556.96 557.51 
4138 557.48 556.91 557.51 
4139 557.46 557.01 557.51 
4140 557.41 556.90 557.51 
4141 557.39 556.85 557.51 
4142 557.38 557.08 557.51 
4143 557.32 557.08 557.51 
4144 557.40 557.03 557.51 
4145 557.38 557.03 557.51 
4146 557.39 557.09 557.51 
4147 557.35 557.13 557.51 
4148 557.42 557.05 557.51 
4149 557.45 557.11 557.51 
4150 557.41 557.18 557.51 
4151 557.43 557.23 557.51 
4152 557.39 557.34 557.51 
4153 557.38 557.18 557.51 
4154 557.46 556.80 557.51 
4155 557.44 556.99 557.51 
4156 557.40 556.92 557.51 
4157 557.35 557.04 557.51 
4158 557.41 556.95 557.51 
4159 557.37 557.12 557.51 
4160 557.30 557.05 557.51 
4161 557.41 556.88 557.51 
4162 557.43 556.72 557.51 
4163 557.49 556.81 557.51 
4164 557.34 556.43 557.51 
4165 557.33 556.64 557.51 
4166 557.33 556.67 557.51 
4167 557.34 557.00 557.51 
4168 557.32 556.82 557.51 
4169 557.39 557.07 557.51 
4170 557.36 557.10 557.51 
4171 557.31 557.09 557.51 
4172 557.34 556.93 557.51 
4173 557.49 556.83 557.51 
4174 557.35 556.77 557.51 
4175 557.44 556.88 557.51 
4176 557.36 556.92 557.51 
4177 557.51 556.70 557.51 
4178 557.42 556.71 557.51 
4179 557.41 556.90 557.51 
4180 551.83 556.90 557.51 
4181 557.45 556.88 557.51 
4182 557.45 557.11 557.51 
4183 557.43 557.20 557.51 
4184 557.39 557.29 557.51 
4185 557.28 557.32 557.51 
4186 557.39 557.22 557.51 
4187 557.40 557.05 557.51 
4188 557.32 557.05 557.51 
4189 557.37 556.94 557.51 
4190 557.47 556.74 557.51 
4191 557.34 556.78 557.51 
4192 557.52 556.78 557.51 
4193 557.49 556.84 557.52 
4194 557.40 556.68 557.52 
4195 557.37 556.75 557.52 
4196 557.44 556.82 557.52 
4197 557.47 556.82 557.52 
4198 557.30 556.85 557.52 
4199 557.46 556.63 557.52 
4200 557.53 556.65 557.52 
4201 557.47 556.73 557.53 
4202 557.47 556.69 557.53 
4203 557.50 556.86 557.53 
4204 557.54 556.83 557.53 
4205 557.49 556.68 557.54 
4206 557.39 556.65 557.54 
4207 557.46 556.55 557.54 
4208 557.50 556.51 557.54 
4209 557.44 556.51 557.54 
4210 557.41 556.47 557.54 
4211 557.51 556.62 557.54 
4212 557.43 556.53 557.54 
4213 557.33 556.53 557.54 
4214 557.51 556.60 557.54 
4215 551.02 556.60 557.54 
4216 557.43 556.81 557.54 
4217 557.45 556.92 557.54 
4218 557.45 557.07 557.54 
4219 557.33 557.03 557.54 
4220 552.38 557.10 557.54 
4221 557.43 557.25 557.54 
4222 557.35 557.33 557.54 
4223 551.49 557.29 557.54 
4224 551.95 557.38 557.54 
4225 557.50 557.30 557.54 
4226 557.40 557.41 557.54 
4227 557.42 557.47 557.54 
4228 557.40 557.51 557.54 
4229 557.23 557.37 557.54 
4230 557.37 557.54 557.54 
4231 557.28 557.49 557.54 
4232 557.36 557.32 557.54 
4233 557.41 557.34 557.54 
4234 557.38 557.36 557.54 
4235 557.30 557.26 557.54 
4236 557.42 557.19 557.54 
4237 557.37 557.18 557.54 
4238 557.41 557.27 557.54 
4239 557.41 557.22 557.54 
4240 557.31 557.28 557.54 
4241 557.38 557.41 557.54 
4242 557.30 557.45 557.54 
4243 557.23 557.38 557.54 
4244 557.29 557.58 557.54 
4245 557.28 557.58 557.54 
4246 557.30 557.43 557.54 
4247 557.30 557.56 557.54 
4248 557.38 557.46 557.54 
4249 557.29 557.43 557.54 
4250 557.34 557.37 557.54 
4251 557.30 557.35 557.54 
4252 557.31 557.37 557.54 
4253 557.34 557.56 557.54 
4254 557.28 557.61 557.54 
4255 557.31 557.60 557.54 
4256 557.35 557.40 557.54 
4257 557.32 557.27 557.54 
4258 557.36 557.01 557.54 
4259 557.25 557.06 557.54 
4260 557.38 556.99 557.54 
4261 557.29 557.23 557.54 
4262 557.27 557.26 557.54 
4263 557.22 557.26 557.54 
4264 557.33 557.01 557.54 
4265 557.30 556.96 557.54 
4266 557.31 556.80 557.54 
4267 557.26 556.60 557.54 
4268 557.25 556.73 557.54 
4269 557.31 556.74 557.54 
4270 557.23 556.83 557.54 
4271 557.32 556.78 557.54 
4272 557.48 556.78 557.54 
4273 557.36 556.76 557.54 
4274 557.42 557.03 557.54 
4275 557.43 556.96 557.54 
4276 557.51 556.96 557.54 
4277 557.45 557.00 557.54 
4278 557.46 556.92 557.54 
4279 557.39 556.91 557.54 
4280 557.43 556.90 557.54 
4281 557.36 557.15 557.54 
4282 557.30 556.90 557.54 
4283 557.44 556.93 557.54 
4284 557.37 556.91 557.54 
4285 557.41 556.84 557.54 
4286 557.38 556.87 557.54 
4287 557.30 556.59 557.54 
4288 557.39 556.81 557.54 
4289 557.24 556.75 557.54 
4290 557.42 556.92 557.54 
4291 557.43 557.04 557.54 
4292 557.36 556.93 557.54 
4293 557.49 556.80 557.54 
4294 557.39 556.90 557.54 
4295 557.37 556.81 557.54 
4296 557.45 556.68 557.54 
4297 557.31 556.53 557.54 
4298 557.45 556.58 557.54 
4299 557.46 556.47 557.54 
4300 557.45 556.55 557.54 
4301 557.41 556.52 557.54 
4302 557.50 556.54 557.54 
4303 557.49 556.49 557.54 
4304 557.47 556.34 557.54 
4305 557.43 556.31 557.54 
4306 557.47 556.43 557.54 
4307 557.48 556.39 557.54 
4308 557.45 556.40 557.54 
4309 557.44 556.20 557.54 
4310 557.45 556.27 557.54 
4311 557.53 556.36 557.54 
4312 557.45 556.40 557.54 
4313 557.55 556.29 557.54 
4314 557.46 556.23 557.55 
4315 557.49 556.31 557.55 
4316 557.43 556.47 557.55 
4317 557.50 556.42 557.55 
4318 557.53 556.42 557.55 
4319 557.57 556.46 557.55 
4320 557.51 556.47 557.57 
4321 557.46 556.42 557.57 
4322 551.69 556.30 557.57 
4323 557.48 556.32 557.57 
4324 557.48 556.24 557.57 
4325 557.42 556.21 557.57 
4326 557.44 556.09 557.57 
4327 557.41 556.02 557.57 
4328 557.52 556.00 557.57 
4329 557.47 556.00 557.57 
4330 557.49 556.27 557.57 
4331 557.37 555.93 557.57 
4332 557.44 556.16 557.57 
4333 557.49 556.16 557.57 
4334 557.42 556.17 557.57 
4335 557.38 556.03 557.57 
4336 557.51 556.08 557.57 
4337 557.38 556.08 557.57 
4338 557.48 556.18 557.57 
4339 557.50 556.22 557.57 
4340 557.50 556.32 557.57 
4341 557.51 556.45 557.57 
4342 557.46 556.53 557.57 
4343 557.51 556.54 557.57 
4344 557.48 556.58 557.57 
4345 557.49 556.47 557.57 
4346 557.40 556.41 557.57 
4347 557.45 556.36 557.57 
4348 557.36 556.35 557.57 
4349 557.47 556.34 557.57 
4350 557.42 556.44 557.57 
4351 557.34 556.45 557.57 
4352 557.40 556.55 557.57 
4353 557.45 556.45 557.57 
4354 557.50 556.39 557.57 
4355 557.37 556.28 557.57 
4356 557.45 556.35 557.57 
4357 557.37 556.36 557.57 
4358 557.35 556.54 557.57 
4359 557.45 556.63 557.57 
4360 557.37 556.65 557.57 
4361 557.45 556.57 557.57 
4362 557.36 556.44 557.57 
4363 557.39 556.42 557.57 
4364 557.38 556.35 557.57 
4365 557.43 556.38 557.57 
4366 557.40 556.38 557.57 
4367 557.49 556.46 557.57 
4368 557.42 556.39 557.57 
4369 557.35 556.29 557.57 
4370 557.53 556.37 557.57 
4371 557.41 556.46 557.57 
4372 557.46 556.40 557.57 
4373 557.44 556.51 557.57 
4374 557.47 556.39 557.57 
4375 557.35 556.32 557.57 
4376 557.43 556.29 557.57 
4377 557.48 556.52 557.57 
4378 557.44 556.48 557.57 
4379 557.40 556.53 557.57 
4380 557.46 556.58 557.57 
4381 557.42 556.72 557.57 
4382 557.36 556.64 557.57 
4383 557.40 556.58 557.57 
4384 557.46 556.61 557.57 
4385 557.39 556.74 557.57 
4386 557.40 556.65 557.57 
4387 557.43 556.56 557.57 
4388 557.51 556.69 557.57 
4389 557.48 556.79 557.57 
4390 557.58 556.80 557.57 
4391 557.40 556.75 557.58 
4392 557.46 556.60 557.58 
4393 557.52 556.57 557.58 
4394 557.45 556.64 557.58 
4395 557.53 556.55 557.58 
4396 557.49 556.59 557.58 
4397 557.51 556.66 557.58 
4398 557.52 556.73 557.58 
4399 557.51 556.58 557.58 
4400 557.45 556.55 557.58 
4401 557.50 556.60 557.58 
4402 557.43 556.45 557.58 
4403 557.44 556.28 557.58 
4404 557.48 556.33 557.58 
4405 557.38 556.08 557.58 
4406 557.42 555.98 557.58 
4407 557.45 556.01 557.58 
4408 557.47 555.91 557.58 
4409 557.45 555.90 557.58 
4410 557.47 556.07 557.58 
4411 557.51 556.13 557.58 
4412 557.51 556.03 557.58 
4413 557.49 556.14 557.58 
4414 557.41 556.20 557.58 
4415 557.45 556.26 557.58 
4416 557.53 556.34 557.58 
4417 557.47 556.45 557.58 
4418 557.52 556.31 557.58 
