iteration,time_sampling,stoc_pol_mean,stoc_pol_std,stoc_pol_max,stoc_pol_min,rollout_success,alpha,delta,time_vpg,time_npg,kl_dist,surr_improvement,running_score,rwd_sparse,rwd_dense,success_percentage,num_samples,time_VF,VF_error_before,VF_error_after,eval_score,eval_success
0,1.8564372062683105,-107.29731574094257,55.44291474539998,227.54376282000163,-181.55042697470745,2.0833333333333335,4.079314195641001,0.1,0.015013933181762695,0.20069169998168945,0.049702868,0.024266303,-107.29731574094257,-1.1146488721293761,-1.0730589984113326,2.0833333333333335,9600,0.8700094223022461,0.9992958293395243,0.4024665899582872,-102.78441596280734,0.0
1,1.6529297828674316,-78.62969598264857,93.80382215709048,288.95453875771614,-178.97586729360188,9.375,3.6601346347645403,0.1,0.008522272109985352,0.18944954872131348,0.048544157,0.028247064,-104.43055376511316,-1.0344040808056518,-0.7858705689097764,9.375,9600,0.8497195243835449,0.7496594701598667,0.6431197250033944,-78.73388699349559,0.0
2,1.6401457786560059,-87.30201188236988,65.29241112475255,258.76633645918014,-182.22855601393084,8.333333333333334,3.8509709688618448,0.1,0.008394241333007812,0.18944716453552246,0.05319186,0.027272945,-102.71769957683884,-1.0161081171071762,-0.8731149990304005,8.333333333333334,9600,0.8377537727355957,0.4608023954739201,0.3042257662287137,-69.0616940393662,6.25
3,1.6386713981628418,-64.42944288275703,101.76231561658504,454.1364015925025,-172.5835236728806,11.458333333333334,3.06473394065048,0.1,0.008673906326293945,0.1965780258178711,0.06065204,0.038533386,-98.88887390743065,-0.9850873685819493,-0.6439176555411518,11.458333333333334,9600,0.8484869003295898,0.6356970904800209,0.5664095952052718,-57.34675720892919,0.0
4,1.8639802932739258,-63.94515529576909,84.34320009303464,266.96222385724155,-172.83843456506492,6.25,2.939055719490367,0.1,0.008881807327270508,0.19269967079162598,0.047784794,0.032887187,-95.39450204626449,-0.9347612176100238,-0.6395622959935823,6.25,9600,0.980067253112793,0.395524141869946,0.36284017975103844,36.234751098686004,25.0
5,1.642024278640747,-53.81357291004633,101.82027968318368,382.3741015016289,-170.73584538098484,9.375,3.526477735736086,0.1,0.008461236953735352,0.20027685165405273,0.053804003,0.032229412,-91.23640913264268,-0.9147124023686978,-0.5377999791379259,9.375,9600,1.1775407791137695,0.5924829790872249,0.5531212793140614,10.460344811667692,37.5
6,1.743260383605957,-36.50922454348437,123.62886861388694,414.8792499513657,-166.12455003580638,10.416666666666666,3.005182439429935,0.1,0.009238958358764648,0.19290924072265625,0.053313192,0.03603612,-85.76369067372684,-0.8606111007130584,-0.364718456683171,10.416666666666666,9600,1.1848702430725098,0.7832726536224903,0.696340876122174,85.04155570067212,43.75
7,1.6562447547912598,-9.055669820098556,143.39547412897667,406.3980399879991,-140.87461373159613,15.625,3.983620593901924,0.1,0.008658170700073242,0.19065403938293457,0.048508167,0.024946094,-78.09288858836402,-0.820262496103526,-0.09006475203565585,15.625,9600,1.2059862613677979,0.757145304597712,0.6286116725828719,116.09625793881153,31.25
8,1.6481070518493652,9.026195692360824,167.61836846077986,584.4722307013075,-154.8931098892353,19.791666666666668,3.261091328731203,0.1,0.008770942687988281,0.19516825675964355,0.053241484,0.031076739,-69.38098016029154,-0.7933176643751064,0.09013179635698548,19.791666666666668,9600,1.237724781036377,0.7254530422763114,0.6119993591322478,101.43359704357738,12.5
9,1.69364333152771,2.0178712626356625,151.06921661509517,476.7505891818659,-167.31800867697882,18.75,3.5565855211626234,0.1,0.010288000106811523,0.18374180793762207,0.052548535,0.026887864,-62.24109501799882,-0.7776882743055151,0.018488656981534086,18.75,9600,1.259521245956421,0.6336257651713897,0.5531342564934346,88.23928564902167,6.25
10,1.6590499877929688,12.830609281647526,180.031595997753,583.2951548253451,-142.09196610436075,16.666666666666668,3.4782760099394863,0.1,0.008669853210449219,0.19130325317382812,0.053919945,0.027531536,-54.73392458803419,-0.7492704904742394,0.1280089663167017,16.666666666666668,9600,1.3063454627990723,0.609703581005189,0.5553497102823857,92.6384734022293,0.0
11,1.6621477603912354,29.41634013692044,204.07129019722387,568.0099683036178,-152.40987320457234,21.875,3.5104290219950602,0.1,0.008581161499023438,0.18826818466186523,0.053677224,0.027344706,-46.31889811553873,-0.7559241388096014,0.2934510317109455,21.875,9600,1.274094581604004,0.5455400266288131,0.4825734966815598,79.6382676826735,6.25
12,1.6653389930725098,12.380831150982514,177.09099889419616,631.3367980077794,-141.02283508433365,15.625,3.913100127764159,0.1,0.00846409797668457,0.19124436378479004,0.055737507,0.026258595,-40.44892518888661,-0.7683693857492718,0.12317997458404434,15.625,9600,1.2711334228515625,0.5557570633846375,0.5061452085176229,112.17464343060179,12.5
13,1.7448558807373047,9.731508637052352,174.02112350253458,554.469351641928,-146.84533728287946,16.666666666666668,3.5063344284994304,0.1,0.010435104370117188,0.21101593971252441,0.052170075,0.026218344,-35.43088180629272,-0.7739271757821052,0.09660840108869269,16.666666666666668,9600,1.2884976863861084,0.5408062033675048,0.5106772213790536,87.80126021461454,6.25
14,1.792203664779663,31.67947857436049,191.7318513116094,650.5740013700353,-121.81130517326521,17.708333333333332,3.0991919570659343,0.1,0.008736371994018555,0.19255447387695312,0.04903719,0.03554739,-28.719845768227394,-0.732882105825088,0.31702015633996555,17.708333333333332,9600,1.3221442699432373,0.5753259983246446,0.5139335402486407,84.61330179205135,0.0
15,1.7206487655639648,16.374302440929426,163.72869446678598,567.0402517033968,-145.27007479218054,16.666666666666668,3.3285542898538285,0.1,0.008425712585449219,0.19078826904296875,0.052078687,0.03181127,-24.21043094731171,-0.7259628436010409,0.16255573779315982,16.666666666666668,9600,1.2872302532196045,0.58586665353725,0.5132604593255989,98.84358066162716,0.0
16,1.674577236175537,49.91636558383009,189.47756382880272,566.899104586756,-126.85169000116039,22.916666666666668,3.2258688097111947,0.1,0.008617401123046875,0.18796396255493164,0.04923412,0.031343777,-16.79775129419753,-0.6808907048717558,0.4983724329499486,22.916666666666668,9600,1.2550296783447266,0.5252850435746507,0.4761943189519799,144.10034269818266,6.25
17,1.6727521419525146,98.02818465483217,218.88791015461297,658.166351141712,-152.43202970178086,28.125,3.2370904188237204,0.1,0.009412050247192383,0.1981656551361084,0.05194664,0.032079607,-5.3151576992945575,-0.6595970136099601,0.9795170323685012,28.125,9600,1.2528212070465088,0.4643251854195376,0.4139111100966326,177.90377718528913,6.25
18,1.6970155239105225,125.634246639418,216.17948310899104,661.3791192181708,-109.7230077296893,41.666666666666664,3.3564996105515545,0.1,0.008935928344726562,0.19535088539123535,0.05338096,0.030307312,7.779782734576699,-0.6123028262755367,1.2533521112076331,41.666666666666664,9600,1.2643582820892334,0.352838170476637,0.3104309779217366,228.69487921756462,6.25
19,1.678551435470581,62.41811309871974,189.06872868913396,581.1044525918537,-130.13784974636886,25.0,3.494158333192098,0.1,0.009007692337036133,0.18844366073608398,0.049799446,0.028794179,13.243615770991003,-0.6760902134266837,0.6225962726930568,25.0,9600,1.2745070457458496,0.48687195010690704,0.42491574536307075,259.43149859436426,6.25
20,1.7813396453857422,97.66403831425163,204.8120318430647,614.4325737442302,-133.89913137892262,28.125,3.4138740173311297,0.1,0.009063720703125,0.18909072875976562,0.051314298,0.027218046,21.685658025317068,-0.6370589388542957,0.9744744350360849,28.125,9600,1.269240379333496,0.39403075625010403,0.34929307448795793,197.47083642232082,6.25
21,1.6673901081085205,100.33613773403938,195.0947141762736,663.9934028950789,-127.51917816113144,34.375,3.1817321817200925,0.1,0.00865316390991211,0.19016003608703613,0.04974283,0.029934946,29.5507059961893,-0.6294737780367458,1.0026056581516538,34.375,9600,1.2522478103637695,0.4245747542328713,0.3302136894148721,220.85124536176983,18.75
22,1.6703827381134033,96.89173961529237,194.05576098393863,643.357595122297,-133.31014853839267,25.0,3.082509950100572,0.1,0.008511066436767578,0.19454669952392578,0.05207392,0.031987224,36.28480935809961,-0.6297309346542007,0.9672225923618653,25.0,9600,1.2349915504455566,0.430031074036832,0.4016051369402752,268.9941525234068,25.0
23,1.671584129333496,146.95203708973472,247.24410884076408,725.1248311601489,-125.74066542274568,39.583333333333336,3.2800897757408456,0.1,0.010055065155029297,0.19997334480285645,0.046714425,0.028020186,47.35153213126312,-0.5996108322830993,1.4674089850624574,39.583333333333336,9600,1.2610430717468262,0.35102401792756577,0.2792032761728808,239.4128110784484,37.5
24,1.6772475242614746,138.1912754915305,232.23175190333,690.7213727256202,-119.67862293258975,44.791666666666664,3.2713948866742646,0.1,0.008652687072753906,0.1941511631011963,0.052757613,0.03154811,56.43550646728986,-0.628204115724137,1.3807422344036742,44.791666666666664,9600,1.2916505336761475,0.35271456995830514,0.31434889051440057,310.44550484347974,31.25
25,1.657930612564087,120.43471681953383,215.4969947152028,654.5016442343849,-125.33700053020085,40.625,3.1273044602726516,0.1,0.008947610855102539,0.1875293254852295,0.049210835,0.032349687,62.835427502514264,-0.6292934628968988,1.2023016881106325,40.625,9600,1.2552566528320312,0.30797566624496986,0.2751123646125051,262.0070988615622,31.25
26,1.6664576530456543,160.24856404382956,231.74273699342606,690.487266327999,-129.04626043363055,41.666666666666664,3.2536897726761733,0.1,0.008914947509765625,0.19360852241516113,0.05294994,0.029901301,72.5767411566458,-0.581537718216332,1.6012351778048621,41.666666666666664,9600,1.2590887546539307,0.27566447281918793,0.24777914650527888,225.5856052699098,31.25
27,1.8687925338745117,161.82128796693985,214.05873164401407,755.2082508412194,-133.93722951332316,35.416666666666664,3.0273211336929657,0.1,0.008730888366699219,0.1967763900756836,0.050577898,0.033003516,81.50119583767521,-0.5907097008852279,1.6155837090855372,35.416666666666664,9600,1.2877755165100098,0.2565114361852169,0.23148577519807426,294.5018027553217,37.5
28,1.6528511047363281,139.4874898799823,217.2073478343235,616.9453451481271,-123.454932944949,41.666666666666664,3.1045069943908037,0.1,0.008339643478393555,0.17783355712890625,0.047739577,0.029067539,87.29982524190592,-0.6020437169310222,1.394506228856863,41.666666666666664,9600,1.2920403480529785,0.26233519874658584,0.22484715627376145,304.67414626965706,50.0
29,1.8280847072601318,200.61759524264627,240.78714249002564,717.6738520338735,-112.20779499856495,43.75,3.0592669945401547,0.1,0.00870656967163086,0.1946854591369629,0.047967836,0.028087432,98.63160224197996,-0.5683958862044463,2.003109848031651,43.75,9600,1.3258178234100342,0.19438130610453103,0.16419486633244265,244.84367973135988,31.25
30,1.666717529296875,227.52504015188651,235.5244352760046,725.6689182002339,-98.45736427173219,46.875,3.5676855216094916,0.1,0.008660078048706055,0.1917264461517334,0.04269225,0.02511829,111.52094603297061,-0.5361775353311976,2.2748275381922887,46.875,9600,1.280695915222168,0.1716180258518867,0.1373386448274899,297.47697077341803,50.0
31,1.6613538265228271,179.3070884464512,238.14086770865737,669.5523790662611,-149.29394495764762,48.958333333333336,2.969562072786612,0.1,0.008609533309936523,0.19501447677612305,0.049229547,0.030041533,118.29956027431868,-0.5876691321243527,1.7900906484498884,48.958333333333336,9600,1.2591180801391602,0.24457301764497516,0.21209046319401564,317.8039370547712,50.0
32,1.669922113418579,213.3592393489574,255.50179131435488,735.6430301549472,-162.83884591578362,48.958333333333336,2.93925056660854,0.1,0.008657455444335938,0.18976855278015137,0.049342066,0.030038133,127.80552818178256,-0.5668654106007858,2.1305636279513167,48.958333333333336,9600,1.2134981155395508,0.166170788344186,0.1401619042460472,314.2744671272792,50.0
33,1.7658414840698242,200.68703152487194,261.3888350013933,747.5619553358605,-109.34225597812932,52.083333333333336,3.600489136112016,0.1,0.008842229843139648,0.18906331062316895,0.044401027,0.024149453,135.0936785160915,-0.5738315171856295,2.004864150557388,52.083333333333336,9600,1.238621473312378,0.2010349399527913,0.1720462726336769,333.7990243895291,56.25
34,1.690328598022461,251.09743826487738,264.24219294581644,721.3445093692744,-142.8872524682083,53.125,2.883991744966339,0.1,0.008414983749389648,0.1876673698425293,0.048696075,0.03903712,146.6940544909701,-0.5452691080346218,2.5070547584557517,53.125,9600,1.2061898708343506,0.12509756252631654,0.1053770969604763,295.7294142785346,56.25
35,1.688678503036499,262.986954620108,259.8210332008932,735.8498422365656,-128.12272228419693,56.25,3.0008053277288784,0.1,0.008582830429077148,0.19574737548828125,0.046156418,0.030603126,158.3233445038839,-0.5262611225743798,2.6277113468501736,56.25,9600,1.2092933654785156,0.14067613070153606,0.12230747719007029,295.05346239362837,62.5
36,1.6562607288360596,246.20178334518278,259.84098618907865,741.3750538493396,-121.11580742550417,48.958333333333336,3.037646398781494,0.1,0.009481668472290039,0.19453883171081543,0.046689693,0.035275217,167.1111883880138,-0.5137097775710348,2.45981215961444,48.958333333333336,9600,1.2349615097045898,0.1378377179300228,0.11844892383701568,312.12662394319347,62.5
37,1.7427570819854736,270.5459390768174,249.84530877109017,718.4557723499645,-144.90197285990467,58.333333333333336,3.3788498717891398,0.1,0.009923219680786133,0.19787287712097168,0.038258478,0.020801563,177.45466345689417,-0.5385559060843849,2.7033544504286957,58.333333333333336,9600,1.2486748695373535,0.09716671946568642,0.08932113269830796,345.0075654124681,56.25
38,1.6869091987609863,258.4104904486905,281.79483860607246,742.0064910306968,-149.12175953823245,48.958333333333336,3.128847474673423,0.1,0.008717536926269531,0.1992955207824707,0.04983228,0.029093366,185.5502461560738,-0.5425296287253487,2.5806716109455485,48.958333333333336,9600,1.2738964557647705,0.1161233878441182,0.10363362168075307,279.9452233202704,25.0
39,1.6744730472564697,197.04897581248392,275.9435158307784,745.3697729436584,-118.66626885944326,47.916666666666664,3.3461064130035036,0.1,0.008397579193115234,0.18546247482299805,0.04608043,0.027833382,186.7001191217148,-0.5854089806674976,1.9696714552547891,47.916666666666664,9600,1.2195234298706055,0.13477636644556684,0.11887167065741334,323.7842719348172,31.25
40,1.7687945365905762,266.4714914261453,253.3568716642975,732.2826344272577,-135.8546082512311,57.291666666666664,3.0146316071467454,0.1,0.008443355560302734,0.19048738479614258,0.04756816,0.03221367,194.67725635215785,-0.5287202359112878,2.6599290871899237,57.291666666666664,9600,1.2250258922576904,0.1189157836577406,0.10753243682369633,281.3379259352623,31.25
41,1.6803910732269287,240.51089468575182,263.4373320512359,714.843788538469,-125.8407949534036,43.75,3.1247999698451094,0.1,0.009613990783691406,0.20033049583435059,0.051729538,0.030624183,199.26062018551727,-0.5400691209460514,2.4011732664169667,43.75,9600,1.2335424423217773,0.15968405312356349,0.13626887170489743,292.99979393525007,31.25
42,1.7041349411010742,251.26491955897518,265.6575428335171,743.8793012911223,-127.86669507987024,54.166666666666664,3.1205555728066154,0.1,0.009789228439331055,0.2014787197113037,0.044994626,0.031448435,204.46105012286307,-0.5281240528833122,2.5095892699437545,54.166666666666664,9600,1.2534630298614502,0.11483779471853475,0.10026416370222765,324.8775538683218,50.0
43,1.6931359767913818,248.8580256078624,254.9430190417503,714.0145054260943,-135.7130887169942,53.125,2.658575545416114,0.1,0.008470296859741211,0.186079740524292,0.040184572,0.030932281,208.900747671363,-0.550424179336791,2.4859607953264042,53.125,9600,1.2382347583770752,0.15228721991291208,0.13241856848426797,308.5840585578516,31.25
44,1.677539348602295,260.54613353152826,247.40706452951412,714.6160596608611,-115.9599643811338,56.25,3.0804214834374184,0.1,0.008668899536132812,0.18655776977539062,0.04827252,0.030471176,214.06528625737954,-0.5273311082820435,2.602418106894795,56.25,9600,1.1776657104492188,0.12238681297454995,0.10731366999300876,367.05647804353066,56.25
45,1.6622767448425293,303.1868410423667,257.0192709377772,730.1972264300438,-129.79319071048178,61.458333333333336,3.2064582498318277,0.1,0.008383750915527344,0.1874232292175293,0.04313149,0.026047423,222.97744173587824,-0.5056785848367061,3.0298002264494657,61.458333333333336,9600,1.1656415462493896,0.10789016887307586,0.09480994772596033,435.4575207800344,68.75
46,1.6664068698883057,268.7907971596983,266.14117011512707,742.0657088944034,-136.44329240668475,58.333333333333336,2.723821734575527,0.1,0.008781194686889648,0.19502854347229004,0.04657874,0.03761368,227.55877727826024,-0.532840348404234,2.6857553979024438,58.333333333333336,9600,1.1811697483062744,0.11313124224263463,0.10178667215980718,434.8177192905821,68.75
47,1.7855679988861084,289.13409026523505,253.67657027844223,723.4532465021417,-102.10429363545234,54.166666666666664,3.289090448151874,0.1,0.008622884750366211,0.19484519958496094,0.048402417,0.027921882,233.71630857695772,-0.5032447603402405,2.888363397909145,54.166666666666664,9600,1.2261745929718018,0.1259756489147272,0.10926805399661588,436.90531103953947,68.75
48,1.674375295639038,283.9844222356328,267.18253557541544,733.8921399291654,-101.43354392527401,57.291666666666664,3.1319252038316625,0.1,0.008466243743896484,0.18704438209533691,0.043078378,0.030781226,238.74311994282522,-0.514924129334547,2.836767941318703,57.291666666666664,9600,1.1962740421295166,0.10321161254390564,0.08628873844379434,439.3532805860527,68.75
49,1.6946775913238525,307.180115429974,262.8679481574878,752.5570512725408,-115.79552752193901,60.416666666666664,3.0558289294000724,0.1,0.008902788162231445,0.19000744819641113,0.04871867,0.032731365,245.5868194915401,-0.49792480216493185,3.070090197044518,60.416666666666664,9600,1.1888563632965088,0.0903369457118389,0.07962912021832243,430.6530176044216,75.0
50,1.6704654693603516,284.69777788501585,267.81451851095596,748.3827867843986,-136.66338373297646,57.291666666666664,3.1408177780402555,0.1,0.008889913558959961,0.19620680809020996,0.04805422,0.030028483,249.49791533088768,-0.524846687097756,2.843518347542601,57.291666666666664,9600,1.1888890266418457,0.10216217514840231,0.08898714466937659,505.610627569858,75.0
51,1.6754376888275146,320.79444496767934,272.6308447944427,725.7957207491397,-100.58752228081553,67.70833333333333,3.396828451385772,0.1,0.00885462760925293,0.18988633155822754,0.049186077,0.030361125,256.62756829456686,-0.5005174014735724,3.2054457782043517,67.70833333333333,9600,1.2153089046478271,0.10467685810308419,0.09885367195655123,490.0106618010455,81.25
52,1.68595552444458,279.89253226950467,257.13893068948863,701.8474201631466,-86.2493918913695,64.58333333333333,3.5037377554728284,0.1,0.008973836898803711,0.1967301368713379,0.04445509,0.024682958,258.9540646920607,-0.5181889122270689,2.796339074425896,64.58333333333333,9600,1.249830722808838,0.1297984442427073,0.11082385111515297,528.2794456358699,75.0
53,1.8724794387817383,346.3511355517856,256.332462143039,752.3499585732209,-140.73024897420214,72.91666666666667,3.193590779083991,0.1,0.008613348007202148,0.19094252586364746,0.049532145,0.03248865,267.6937717780332,-0.47045073568978196,3.458278708263794,72.91666666666667,9600,1.2359583377838135,0.08348615460363461,0.07607714570746353,485.1597061101239,81.25
54,1.6578569412231445,323.8117833161801,253.24653177879458,698.0644514138149,-106.30336157553235,71.875,3.8539959873126257,0.1,0.008581399917602539,0.1947789192199707,0.04861659,0.02321405,273.3055729318479,-0.5080941545808876,3.234206605425259,71.875,9600,1.2001051902770996,0.09473123440032653,0.08106363978411822,391.7699788992985,68.75
55,1.6826117038726807,335.02263779021615,252.58861580428865,740.4686536508522,-88.60443456721323,66.66666666666667,2.9714027648929013,0.1,0.008760213851928711,0.19577622413635254,0.042593315,0.031426247,279.4772794176847,-0.47853197554109844,3.346338882292765,66.66666666666667,9600,1.1899635791778564,0.10859161798120517,0.08657572429265782,393.21949492899284,68.75
56,1.6624186038970947,306.663992811795,268.61283330590936,746.9393202309703,-100.47282238654972,65.625,2.870524089835116,0.1,0.008919477462768555,0.189072847366333,0.050264064,0.033143755,282.1959507570957,-0.49916915782296795,3.0618851953417647,65.625,9600,1.1929361820220947,0.12140825954317344,0.08441519086346874,405.1012708135265,62.5
57,1.7955687046051025,349.0072360012961,222.7489959807718,732.1490302001463,-86.53520380886648,69.79166666666667,3.3266038198722536,0.1,0.008996963500976562,0.19455885887145996,0.043215167,0.025538864,288.87707928151576,-0.46984468642619975,3.4870406152024542,69.79166666666667,9600,1.2219133377075195,0.0999985257835734,0.08544258279999795,434.7193856402181,62.5
58,1.6553890705108643,334.7864193821413,259.4863438210759,746.3161628147354,-89.84094223390277,64.58333333333333,3.341800407855164,0.1,0.008683443069458008,0.1913743019104004,0.046920918,0.028275767,293.46801329157836,-0.47155267307499155,3.343118713915191,64.58333333333333,9600,1.2379226684570312,0.0894259317783828,0.07790243510915777,363.35509769123144,56.25
59,1.6905858516693115,321.16250885734803,253.92104460313365,727.3648336775359,-123.52270232536891,66.66666666666667,3.199722021088856,0.1,0.008590221405029297,0.18736624717712402,0.0441556,0.030361526,296.23746284815536,-0.4908982744778876,3.2081111523540606,66.66666666666667,9600,1.2249789237976074,0.095017047387798,0.08181141513692002,405.41019436454735,62.5
60,1.9178059101104736,337.2892703909602,258.0412233571007,705.3200800520102,-108.72053970837798,68.75,3.334106671856983,0.1,0.00862574577331543,0.19711518287658691,0.046670254,0.03079068,300.3426436024358,-0.480336978510935,3.3689490223646157,68.75,9600,1.2062108516693115,0.08338058496154604,0.07230926572296421,387.89403002133605,43.75
61,1.6782262325286865,273.051739845907,266.5778295973008,700.9582018611329,-93.14221729814628,60.416666666666664,3.136910690033565,0.1,0.008756399154663086,0.19389581680297852,0.04684737,0.030663941,297.6135532267829,-0.5179525024817347,2.727494321068202,60.416666666666664,9600,1.211454153060913,0.101779008983891,0.08440002704438199,400.11964142103903,50.0
62,1.6638569831848145,341.29943622438714,237.6614498569429,707.4665612723537,-79.53492048809886,72.91666666666667,3.292008325061666,0.1,0.008790969848632812,0.1911630630493164,0.045975335,0.03081629,301.98214152654333,-0.4727552612659543,3.4086239192058994,72.91666666666667,9600,1.2246251106262207,0.12834658955452793,0.08551177051510213,351.65505981416084,50.0
63,1.6671063899993896,319.9527016695486,267.90907692325675,745.2114316392467,-117.48789057331354,64.58333333333333,2.928977345892162,0.1,0.009099721908569336,0.19153690338134766,0.03991792,0.027957395,303.7791975408439,-0.498111636761197,3.1952107478949343,64.58333333333333,9600,1.2568786144256592,0.10011401816971378,0.0858867402551215,356.2395078446306,50.0
64,1.6486425399780273,311.76939063260085,266.0586088090276,727.8011399649064,-97.3763222752303,61.458333333333336,2.8383480590070467,0.1,0.008403301239013672,0.17642807960510254,0.047688097,0.032781214,304.5782168500196,-0.49524327219423475,3.11552017004853,61.458333333333336,9600,1.1964757442474365,0.10870997501154146,0.0969130399113961,385.93530351482536,68.75
65,1.6572515964508057,326.27640893739766,274.6539050800476,751.8056118172553,-109.8974604620231,66.66666666666667,3.784550622088211,0.1,0.008672475814819336,0.19597792625427246,0.046609484,0.028562715,306.7480360587574,-0.48245961653586494,3.259734542361214,66.66666666666667,9600,1.2289648056030273,0.0958370084199428,0.08269948817082326,415.34750075879344,68.75
66,1.674694299697876,373.5797754513421,247.26707863628354,753.282554757021,-124.18128143298259,68.75,3.1379126040127967,0.1,0.008794307708740234,0.1923234462738037,0.051376812,0.034533553,313.43120999801585,-0.45611447480699807,3.731440615772,68.75,9600,1.2192463874816895,0.09146487560948477,0.08206500412679564,393.54076747834256,68.75
67,1.905646800994873,364.46386099373996,260.8246795656114,748.2028294883785,-93.55640237706876,70.83333333333333,3.4713438189786974,0.1,0.008937597274780273,0.19119477272033691,0.049068164,0.036236793,318.53447509758826,-0.4751672676883705,3.6403074730796194,70.83333333333333,9600,1.272632122039795,0.07712009201408661,0.06496359825080487,436.04988381192993,68.75
68,1.67331862449646,363.8722854501951,252.03492411289074,712.2761701771994,-79.23207759591034,71.875,3.469285180314843,0.1,0.008993148803710938,0.19138693809509277,0.04217863,0.023502603,323.06825613284894,-0.45751588185607783,3.6339271002200135,71.875,9600,1.244795799255371,0.08028870771359048,0.07181789684801633,451.78509736830824,81.25
69,1.664649248123169,306.28038440212805,264.18999460668374,742.6723875818417,-97.37143391590426,66.66666666666667,3.5204105979544944,0.1,0.008283376693725586,0.18701624870300293,0.046725765,0.026592845,321.3894689597769,-0.4946562052427536,3.0602154638401573,66.66666666666667,9600,1.2204320430755615,0.11744356340200421,0.10474540717402221,449.7216349288969,81.25
70,1.6881177425384521,340.93878678015176,260.41876096614317,738.3241649744184,-95.79509380820916,67.70833333333333,3.657889714873032,0.1,0.009245634078979492,0.1900801658630371,0.037701406,0.023412729,323.3444007418144,-0.47138596606867517,3.4068034912505514,67.70833333333333,9600,1.2262394428253174,0.09256912353541415,0.07559978244944353,426.90001285875314,81.25
71,1.6602060794830322,352.98362600199806,262.17907645889335,738.9790631046737,-88.81358783383936,72.91666666666667,3.1852942568233,0.1,0.00886845588684082,0.19399261474609375,0.05056299,0.030982196,326.3083232678328,-0.46219913779853555,3.525494780355634,72.91666666666667,9600,1.239912986755371,0.09335900135243738,0.0860992217488589,367.6433256408753,62.5
72,1.6619327068328857,389.9920651876458,245.01474024331193,744.4130929289169,-96.58467321137816,75.0,3.5283711331301326,0.1,0.00987863540649414,0.19286799430847168,0.049104616,0.02742491,332.67669745981414,-0.45028641159392685,3.8960414104229244,75.0,9600,1.274186611175537,0.0746757541669887,0.06674005045668069,431.66947868789396,75.0
73,1.6748967170715332,367.72383139208745,251.48874077222592,723.3275990636514,-85.14525698569064,76.04166666666667,3.1551790906991095,0.1,0.008759498596191406,0.19072628021240234,0.042994287,0.029560313,336.1814108530415,-0.46136935482690494,3.673320840884575,76.04166666666667,9600,1.2874104976654053,0.08091315178898208,0.07273648223736916,388.7682335566424,75.0
74,1.8839237689971924,273.0816418359331,262.1029371621534,744.5227658546694,-87.45495903272608,55.208333333333336,3.1796112023584984,0.1,0.009002685546875,0.18869352340698242,0.043373726,0.0303362,329.87143395133063,-0.5151833283662739,2.727835414693986,55.208333333333336,9600,1.2897672653198242,0.11724263634100542,0.09313376492466935,418.50700752358017,81.25
75,1.6705150604248047,304.3837683390528,276.9057370747472,752.773750247826,-82.7724574358725,63.541666666666664,3.0924969033503884,0.1,0.00838780403137207,0.18910670280456543,0.048441842,0.032162152,327.3226673901029,-0.49583240405411333,3.0399226725051633,63.541666666666664,9600,1.2731389999389648,0.1223524184473355,0.10456078804366799,349.20788451273677,56.25
76,1.665128469467163,374.98962228216106,247.4788558248889,712.3086341668638,-85.39738609399383,72.91666666666667,3.9443836365827933,0.1,0.008518457412719727,0.18654108047485352,0.048503496,0.024448594,332.0893628793087,-0.44675117691579924,3.746358781459494,72.91666666666667,9600,1.2538971900939941,0.06501390551203538,0.057678931962289993,375.18007879887233,75.0
77,1.6768264770507812,346.8956498153998,266.20787181665816,739.4938786117671,-81.05164829475412,63.541666666666664,3.023878928915612,0.1,0.008751869201660156,0.18708062171936035,0.0460068,0.030745728,333.56999157291784,-0.4691248783319431,3.4668329515084015,63.541666666666664,9600,1.2523691654205322,0.08268775132518064,0.07781233210268516,402.4534348188041,81.25
78,1.6650831699371338,357.0369512350051,278.6876601920966,747.3938341025317,-82.8907087694657,66.66666666666667,3.0879922934173116,0.1,0.008967399597167969,0.18877434730529785,0.046426266,0.030592933,335.91668753912654,-0.46365780463967066,3.5669174366166327,66.66666666666667,9600,1.277559518814087,0.09173752819628596,0.07567304320643722,399.85413405548576,75.0
79,1.7865171432495117,370.4710875854519,261.8638707202234,746.0708112118192,-100.0307600741732,69.79166666666667,3.1131085474641376,0.1,0.009114503860473633,0.18833351135253906,0.044027705,0.028811967,339.3721275437591,-0.4604582545180742,3.700383486161396,69.79166666666667,9600,1.2766239643096924,0.0747887191744381,0.06622379661556121,436.0423333400118,81.25
80,1.6728088855743408,374.51170739385196,275.2288047836653,745.2047154363644,-91.18492542320193,72.91666666666667,3.2429307940964622,0.1,0.010416269302368164,0.18528056144714355,0.043961708,0.026438516,342.88608552876843,-0.45875931282280275,3.7420606283346776,72.91666666666667,9600,1.2572362422943115,0.08727919823919059,0.0720870674257371,370.46327861078294,75.0
81,1.8831422328948975,389.65225004375196,272.9137071357257,746.7184748918622,-77.94033205590829,70.83333333333333,3.617298299275889,0.1,0.008712530136108398,0.1910996437072754,0.04465881,0.025362384,347.5627019802668,-0.45552971229594724,3.8913033374024653,70.83333333333333,9600,1.2704334259033203,0.07091542405988449,0.061032531886377334,381.9709455447955,62.5
82,1.6873359680175781,382.1388978109162,261.7685452450356,748.4898277119843,-95.04045334259264,70.83333333333333,3.398071125854792,0.1,0.008718490600585938,0.1877894401550293,0.04890263,0.027696893,351.0203215633317,-0.4462680184623498,3.8174675554881907,70.83333333333333,9600,1.2316696643829346,0.07174703476543623,0.06294857376393868,293.59336302744157,43.75
83,1.7125158309936523,350.07357531734243,243.5066245317775,740.5446065462079,-90.52502373246719,67.70833333333333,3.3100759643070945,0.1,0.009668588638305664,0.2005457878112793,0.049261533,0.032106295,350.9256469387328,-0.45740654055153307,3.4972635171759556,67.70833333333333,9600,1.2454123497009277,0.08490401004862617,0.07018413001534626,346.5094432404679,43.75
84,1.682530403137207,356.08018014379576,265.9363773848155,709.4413129219679,-108.54214181307776,67.70833333333333,3.036705254830114,0.1,0.008902788162231445,0.19140839576721191,0.05067861,0.03384832,351.44110025923914,-0.46851533376507354,3.5577319826434852,67.70833333333333,9600,1.3112599849700928,0.08446202922399053,0.07781431634081468,359.43423209303705,56.25
85,1.675339698791504,345.75540422948296,264.4231894787023,746.0760717901729,-77.85682494789765,63.541666666666664,3.3787092309439997,0.1,0.008577823638916016,0.19333100318908691,0.045076758,0.029581014,350.8725306562635,-0.45974344792751465,3.4536649029837783,63.541666666666664,9600,1.281820297241211,0.0760232554335221,0.06820098769876796,358.76399073490364,56.25
86,1.6805047988891602,360.4730202408018,252.06344224424154,744.9871405390337,-76.6724402796584,64.58333333333333,2.645744749329383,0.1,0.008661270141601562,0.18938994407653809,0.052082244,0.04257312,351.83257961471736,-0.44612471675441384,3.6016900874070856,64.58333333333333,9600,1.2842719554901123,0.08327168947219914,0.07315864026828978,406.79987835331974,75.0
87,1.6816248893737793,333.13794397916104,269.38949989344263,747.2110982958543,-119.11076072748192,58.333333333333336,3.0170544080440673,0.1,0.008381366729736328,0.1916658878326416,0.050468683,0.031497687,349.96311605116176,-0.47331328145433443,3.3288142694077827,58.333333333333336,9600,1.2779688835144043,0.0800278011812915,0.06922926832460859,417.97289593212867,81.25
88,1.8695383071899414,356.4942150874245,260.5465932835818,720.6833743795044,-75.57719236932355,71.875,3.2785955227076524,0.1,0.008553028106689453,0.1952805519104004,0.04129737,0.030204725,350.6162259547881,-0.46825389902350995,3.562769101899313,71.875,9600,1.2801659107208252,0.06553170116125082,0.05886600164263763,412.7027335019967,81.25
89,1.6724295616149902,409.1091415080385,266.8832836512009,732.5171038408732,-96.6828011331917,72.91666666666667,3.9171901065341466,0.1,0.009050130844116211,0.19293427467346191,0.045832004,0.024811562,356.46551751011316,-0.43653329904671306,4.087166762280791,72.91666666666667,9600,1.3082268238067627,0.07372831891955166,0.05604629771824449,449.39787311975573,81.25
90,1.7295353412628174,367.5456020698921,270.68950632351806,748.7474265576104,-94.89133913441383,65.625,3.246584233934068,0.1,0.008993148803710938,0.19170093536376953,0.039770987,0.023208762,357.57352596609104,-0.4515867007348331,3.6724888142038075,65.625,9600,1.3191323280334473,0.07702660838538888,0.06293551388743972,436.9170698245075,81.25
91,1.690047025680542,388.3873940601322,261.24661324669785,747.4518878184873,-98.98886432811703,70.83333333333333,2.840957959582724,0.1,0.008707046508789062,0.18720769882202148,0.045109253,0.034039225,360.6549127754952,-0.45562130634018344,3.881684714729257,70.83333333333333,9600,1.2968299388885498,0.05487358393417882,0.046250045132059034,438.2604942090767,81.25
92,1.6771271228790283,381.38691222503167,257.7408737097128,720.7245043223952,-68.20412130429102,72.91666666666667,3.234329733991655,0.1,0.00957179069519043,0.19625401496887207,0.04938532,0.029590612,362.72811272044885,-0.44130392826800074,3.811703352954421,72.91666666666667,9600,1.2900168895721436,0.08110636468669824,0.0708903122969103,421.9222596293893,75.0
93,1.6677377223968506,401.7540437795853,247.1094808192532,734.8696582241686,-85.34611527491995,73.95833333333333,3.4835029859555044,0.1,0.009258508682250977,0.19239473342895508,0.04466199,0.024809469,366.6307058263625,-0.4373937831278285,4.012359121368282,73.95833333333333,9600,1.2739477157592773,0.06060224157693594,0.05043005719708555,430.010351179731,75.0
94,1.7565782070159912,405.3973966346222,251.92950617138465,729.7190620468522,-67.54636591222098,73.95833333333333,3.357615156109478,0.1,0.008940458297729492,0.1884899139404297,0.04907995,0.030370455,370.5073749071885,-0.43340560472961337,4.050472666701956,73.95833333333333,9600,1.297107458114624,0.0779093851780257,0.06852299226304699,452.3787445818393,81.25
95,1.6671631336212158,381.49899544341014,262.5465982774377,747.3680990457775,-91.37800736415385,69.79166666666667,3.023534182603663,0.1,0.009001493453979492,0.1939239501953125,0.050091814,0.032026112,371.6065369608106,-0.4558029733157965,3.812769597213856,69.79166666666667,9600,1.335343360900879,0.07448180204279627,0.0590048968462182,455.96696140464707,81.25
96,1.6695635318756104,452.4677427817331,238.7941620367495,752.9162972896437,-79.07492238329591,82.29166666666667,3.1221350966256405,0.1,0.00923609733581543,0.18735170364379883,0.04750439,0.03011978,379.69265754290285,-0.414101215421175,4.518614435729229,82.29166666666667,9600,1.2607746124267578,0.05868388301121992,0.046480423454922655,456.5682297291573,81.25
97,1.669663906097412,364.4180656242306,270.4965391620927,721.6914138723321,-109.05422999768294,69.79166666666667,3.2465682991213742,0.1,0.009855508804321289,0.18831562995910645,0.049981292,0.02923102,378.1651983510356,-0.46387833133804496,3.642000527129671,69.79166666666667,9600,1.2492506504058838,0.06717559841459855,0.059574629646886375,412.1287839385567,75.0
98,1.6713154315948486,379.90355643442604,276.43498189241984,752.7922369596142,-113.8078605166175,69.79166666666667,3.1625457337456204,0.1,0.009737253189086914,0.20114660263061523,0.04456109,0.030320099,378.33903415937465,-0.46109430220438075,3.795085470721297,69.79166666666667,9600,1.2434754371643066,0.06138366738880947,0.051670950821857915,434.31999710924515,68.75
99,1.6818928718566895,404.5037612141268,261.8525701344775,741.9240849124793,-130.44117033437,73.95833333333333,2.779210426427976,0.1,0.009057760238647461,0.19210267066955566,0.050732926,0.03700733,380.9555068648499,-0.4424406464169073,4.040202648271799,73.95833333333333,9600,1.2895164489746094,0.05568656200901986,0.04957569051999891,426.55821703389154,68.75
100,1.670562505722046,381.2281873958313,268.93895063067265,732.8596375627908,-66.03755178722376,68.75,3.422735371402235,0.1,0.009030818939208984,0.19133281707763672,0.050396886,0.026285535,380.98277491794806,-0.44454847323233565,3.8074496735263725,68.75,9600,1.2962985038757324,0.06316149084174126,0.04608426073000469,415.7520719868464,68.75
101,1.873091697692871,377.23440923553034,299.3356922281272,746.2514922450516,-87.02704144869983,72.91666666666667,2.9987849072474604,0.1,0.009134292602539062,0.18587255477905273,0.050408084,0.0331317,380.6079383497063,-0.46033521162795127,3.7702739799957876,72.91666666666667,9600,1.2644579410552979,0.053204168208099416,0.0407888329747883,432.1371785347886,75.0
102,1.6858489513397217,363.6301353218078,263.75799646881745,751.5621685670776,-91.62517611723656,68.75,3.3703314869064394,0.1,0.009585380554199219,0.18846869468688965,0.049170416,0.029775875,378.9101580469164,-0.4578737991298489,3.6319362119014507,68.75,9600,1.2585043907165527,0.06871747562818066,0.0554748087407013,473.0059866841297,81.25
103,1.671072006225586,364.37109384969307,268.15926624032613,735.0766648650855,-111.82954528183285,73.95833333333333,2.9573582046902898,0.1,0.008695363998413086,0.19248414039611816,0.0485898,0.035113163,377.4562516271941,-0.4698261811903442,3.6393206826426407,73.95833333333333,9600,1.2637183666229248,0.07629838893922086,0.06531208098633158,463.339545543995,81.25
104,1.660611867904663,358.91641139776976,278.63229873828453,750.8138763162929,-84.48113000741309,65.625,3.4403820433743446,0.1,0.008641958236694336,0.19326281547546387,0.048541453,0.028016616,375.60226760425167,-0.46184759254558666,3.5870059969728687,65.625,9600,1.2992031574249268,0.07205542486107974,0.06352105123992303,426.6110277417097,68.75
105,1.6884551048278809,373.03217227867907,270.261895587859,743.2206920522634,-89.94500208718392,71.875,3.0134333519399648,0.1,0.008826971054077148,0.19280099868774414,0.04335268,0.028083017,375.3452580716944,-0.4581514837142803,3.7277750041741733,71.875,9600,1.290785312652588,0.07667240424935441,0.06517527698101008,431.4404041530347,68.75
106,1.6621935367584229,391.0286081171345,272.90443982527944,753.3427299103882,-85.6366966154827,72.91666666666667,3.806252637842837,0.1,0.009034872055053711,0.18733549118041992,0.047789652,0.025571797,376.91359307623844,-0.44730248504510667,3.9059316182140322,72.91666666666667,9600,1.2496521472930908,0.08087908120854037,0.06735238558181701,397.29897420067476,68.75
107,1.7616753578186035,355.8317590794398,276.2728201566167,745.7625885105682,-77.18363399781457,68.75,3.6913625530084007,0.1,0.009258508682250977,0.1973271369934082,0.050305825,0.024486676,374.8054096765586,-0.4531646759097419,3.5561225362672624,68.75,9600,1.2420814037322998,0.07283922060703632,0.06597866060577363,393.0405729408219,62.5
108,1.6687159538269043,406.2059405101575,261.3049904017265,727.3454975380781,-87.3390289390627,70.83333333333333,3.4385386874327906,0.1,0.008819103240966797,0.19719743728637695,0.048001215,0.030120017,377.94546275991854,-0.4264282322470658,4.057212773645703,70.83333333333333,9600,1.2652127742767334,0.05589233154659389,0.05296242873833188,352.80596733061293,56.25
109,1.6850340366363525,388.2933111801297,279.54790651535893,754.2089684936437,-66.22369554646177,70.83333333333333,3.414990836164854,0.1,0.008771657943725586,0.1912236213684082,0.048662193,0.028896136,378.9802476019397,-0.4418778040583342,3.878546857668528,70.83333333333333,9600,1.2835171222686768,0.05625623474273309,0.046859886928683335,295.262743386541,37.5
110,1.6746935844421387,425.3016680757478,259.39194812028626,733.5842395752422,-108.99890363889976,73.95833333333333,2.6502322226671358,0.1,0.00925302505493164,0.20714783668518066,0.048185766,0.03375991,383.61238964932056,-0.4329645806547773,4.248669212643065,73.95833333333333,9600,1.2933924198150635,0.0522920813525861,0.042448202029101906,386.7277228389845,62.5
111,1.70688796043396,405.6598922611506,260.142446761547,748.7264018470225,-66.34270883597024,72.91666666666667,3.097689336585958,0.1,0.008557796478271484,0.18828439712524414,0.049959954,0.031371333,385.81713991050356,-0.42984970737564177,4.052269264304495,72.91666666666667,9600,1.2561140060424805,0.05468423420110814,0.0496020123722591,381.8515049005688,62.5
112,1.671372890472412,391.33385224625255,267.18387962997946,736.4132754534476,-72.08430747332893,67.70833333333333,3.5255248334595803,0.1,0.00917673110961914,0.19694924354553223,0.049134523,0.028605485,386.3688111440785,-0.44551960743130287,3.9094009770567406,67.70833333333333,9600,1.2366087436676025,0.06026177045985503,0.055531102883608734,342.5629724642102,56.25
113,1.6626155376434326,399.1906582846602,276.53245848887457,757.2889205318919,-69.82727506268472,73.95833333333333,3.2083009258315895,0.1,0.008974552154541016,0.19594240188598633,0.049442783,0.031498432,387.65099585813664,-0.447083820169284,3.98756747318578,73.95833333333333,9600,1.248460054397583,0.05834571108816426,0.04709399557091833,309.1397089498156,37.5
114,1.8049213886260986,387.235309622462,273.77672468791894,758.0823360448246,-93.32415702201898,73.95833333333333,3.221241131005533,0.1,0.009279489517211914,0.1948692798614502,0.04757613,0.029301746,387.60942723456924,-0.44810331807749887,3.869302289225756,73.95833333333333,9600,1.2778611183166504,0.0508355708773467,0.04458904085783343,381.8486699772196,68.75
115,1.7239391803741455,343.9942184182242,273.6768798455323,753.1351366533833,-88.06578813599319,65.625,3.279014410355127,0.1,0.009061336517333984,0.20034170150756836,0.047741737,0.030828834,383.2479063529347,-0.4692383885529334,3.4364334546292317,65.625,9600,1.3166065216064453,0.08816788387994733,0.07167356705790785,402.52483225739843,68.75
116,1.676727533340454,421.20173708512976,240.12104430231747,740.6303658832849,-73.01961817139717,76.04166666666667,3.5499004253941475,0.1,0.008779048919677734,0.19509363174438477,0.046574496,0.027826916,387.0432894261542,-0.4219919806639763,4.2054646438514345,76.04166666666667,9600,1.269697666168213,0.05856134868233103,0.049362824226428584,452.58215648683097,62.5
117,1.6820745468139648,431.8840946168507,242.4957540774742,752.7608498457529,-89.84296166833936,78.125,3.630178853675248,0.1,0.00886392593383789,0.19411754608154297,0.045697473,0.025104156,391.5273699452239,-0.42141831219705495,4.31357432391938,78.125,9600,1.2175347805023193,0.048962951954077544,0.04537923430091744,460.5121782514871,62.5
118,1.661510944366455,387.4561787367795,288.46156159586235,751.3180564513308,-70.29576656798827,72.91666666666667,3.2046990509809166,0.1,0.008432626724243164,0.19587016105651855,0.046113495,0.030974187,391.12025082437947,-0.4548452747438872,3.8701973451218787,72.91666666666667,9600,1.202984094619751,0.06426996361251304,0.04997156484461168,480.63882756447083,62.5
119,1.680527687072754,405.9399986150758,288.54561081681703,748.5074527031312,-73.4970845570072,78.125,2.86065384371276,0.1,0.010040760040283203,0.20635414123535156,0.04878206,0.032748103,392.60222560344914,-0.44083837956817357,4.054171019005353,78.125,9600,1.2272725105285645,0.05102829274219495,0.0370094412964121,493.20915948413915,75.0
120,1.709176778793335,402.5534993697407,252.1292034837417,750.1296796768028,-57.330142812072445,80.20833333333333,3.0350177199372816,0.1,0.008874654769897461,0.19359159469604492,0.050367497,0.0314407,393.5973529800783,-0.4381076377618684,4.021580114601104,80.20833333333333,9600,1.2429862022399902,0.05306225103707494,0.049319795453698405,493.5428355244574,75.0
121,1.7532458305358887,426.60415369378956,249.45679034172315,742.7573867144374,-56.25425442815821,79.16666666666667,3.4532743468316687,0.1,0.008629083633422852,0.18728280067443848,0.045588337,0.02606106,396.89803305144943,-0.4191578435268928,4.263432444710211,79.16666666666667,9600,1.2100830078125,0.05703179317633302,0.04805149004963332,463.14788856345234,68.75
122,1.6831252574920654,384.6003369188,260.0676916072571,726.4138124853351,-106.3868189880929,79.16666666666667,2.7068153076075814,0.1,0.008600950241088867,0.19312691688537598,0.044159878,0.032586392,395.66826343818445,-0.4484440092656516,3.84253344914479,79.16666666666667,9600,1.218550682067871,0.058392422677880064,0.049409600704094975,477.1447264101997,68.75
123,1.7172682285308838,442.8618803906514,242.71200310696096,740.8354427884225,-99.86473377887397,83.33333333333333,3.673596735857217,0.1,0.008556604385375977,0.1920487880706787,0.045218643,0.02500975,400.38762513343113,-0.41787842069067965,4.422480048943246,83.33333333333333,9600,1.240799903869629,0.0502710671268596,0.044721781714404885,484.85293292913263,62.5
124,1.6859714984893799,374.8445098927268,258.2632969777086,754.7945846672922,-88.68568048359673,80.20833333333333,3.409876369938627,0.1,0.008947372436523438,0.19267511367797852,0.050295737,0.028166456,397.8333136093607,-0.45444379099713356,3.744498842331383,80.20833333333333,9600,1.2519803047180176,0.07304972538326271,0.057647878595387676,480.17491059621074,62.5
125,1.6721889972686768,414.379030752862,259.9797395596103,738.9144987192204,-84.6578196153008,82.29166666666667,3.7615069168605375,0.1,0.008934259414672852,0.19259309768676758,0.048073065,0.023087095,399.4878853237108,-0.43599084787650483,4.140724293746923,82.29166666666667,9600,1.2017710208892822,0.052940308338161,0.045182012495481316,455.5214758675894,62.5
126,1.6851270198822021,394.64274202754814,267.6329270088087,748.4610545120448,-88.64804565568065,70.83333333333333,3.1271466673511474,0.1,0.008658647537231445,0.19193577766418457,0.049301844,0.033045936,399.0033709940946,-0.4409711685000355,3.9425013469169996,70.83333333333333,9600,1.1901094913482666,0.06868069035497816,0.056057837926346464,447.73462062367093,62.5
127,1.6727540493011475,375.3459014064436,287.4901353200534,731.1642217833229,-76.9679954080883,75.0,3.3974643185297895,0.1,0.009060859680175781,0.1901552677154541,0.045123436,0.027302984,396.6376240353295,-0.45710603063174665,3.7491022654877586,75.0,9600,1.1867306232452393,0.05508507332770389,0.04380905128072838,410.3354867340634,62.5
128,1.771071434020996,392.02499301773963,237.91859794233213,746.3940305835844,-79.97966726373959,76.04166666666667,3.273868580920259,0.1,0.008810758590698242,0.19441676139831543,0.048697874,0.03191877,396.17636093357055,-0.43549726096990815,3.914551967421016,76.04166666666667,9600,1.2202823162078857,0.0687000199574822,0.05168232062743319,394.3986341479201,62.5
129,1.6904466152191162,383.09786124505166,279.01227697268257,755.7686564744546,-76.19464440118746,67.70833333333333,2.9184899369403623,0.1,0.008974313735961914,0.19076967239379883,0.050513986,0.037674505,394.86851096471867,-0.44784362221719515,3.828830327017274,67.70833333333333,9600,1.192373514175415,0.05374778914650973,0.04450413148745071,359.3264984867412,56.25
130,1.6671042442321777,439.3782774641131,254.91065982517236,757.7025136000241,-105.53346343175437,76.04166666666667,3.3524563741066973,0.1,0.009536981582641602,0.19991612434387207,0.04760986,0.028856345,399.3194876146581,-0.4150177804772251,4.388532656310119,76.04166666666667,9600,1.178678274154663,0.04677636454132742,0.035013937091391015,397.09554519585186,62.5
131,1.6829535961151123,383.56036017063894,282.77758767566115,751.2839135284281,-79.8667672490319,69.79166666666667,3.27188196774711,0.1,0.00957632064819336,0.1950991153717041,0.04828777,0.028516175,397.7435748702562,-0.44826885325539995,3.8325230073520102,69.79166666666667,9600,1.20259428024292,0.05797461470633382,0.048713938626000375,446.8979006249215,75.0
132,1.7177975177764893,414.6418035328282,240.17655401582257,744.8231698360642,-88.42922132169112,86.45833333333333,3.27033146792334,0.1,0.008696556091308594,0.19735121726989746,0.04212796,0.025002116,399.4333977365134,-0.4348981529005484,4.142892520130483,86.45833333333333,9600,1.2183706760406494,0.05330088237190124,0.04825925899112069,464.68203005287785,75.0
133,1.6769428253173828,379.8316347202975,270.1377010856,755.3543472499229,-90.71211329716071,75.0,3.251040192493003,0.1,0.008850336074829102,0.18841052055358887,0.0454395,0.032028995,397.4732214348918,-0.4465186603595668,3.7938948575471287,75.0,9600,1.1871161460876465,0.05806726583150413,0.04783731108880551,469.1143639984286,75.0
134,1.6720142364501953,415.0991473256684,244.523235639889,754.4538109585384,-80.86875081129192,81.25,3.362473637989407,0.1,0.008661985397338867,0.1901552677154541,0.048487943,0.028362349,399.2358140239695,-0.4339716892829905,4.145710610179287,81.25,9600,1.1850497722625732,0.0450706501166892,0.03400145062295816,499.9695847312606,75.0
135,1.7813525199890137,391.9117281418041,248.9166458299173,730.730968074561,-56.936031051033126,86.45833333333333,3.1678031635022967,0.1,0.00850367546081543,0.19447898864746094,0.04710077,0.030151412,398.50340543575294,-0.4482376474524081,3.9147330020209616,86.45833333333333,9600,1.1959304809570312,0.05852799638233825,0.04842463158898183,518.3220122014172,81.25
136,1.7003295421600342,396.6629013369638,278.7705260722315,752.5086639474229,-81.12793568440686,78.125,3.5173322125542126,0.1,0.009519577026367188,0.20043349266052246,0.048127178,0.028654171,398.3193550258741,-0.44316613030702706,3.962677150183994,78.125,9600,1.2370524406433105,0.039829124623062026,0.03237524413292576,512.9453678488392,81.25
137,1.6876945495605469,436.1705817545024,253.17093144172026,760.3348148481958,-82.72582250496184,82.29166666666667,2.9781416414696245,0.1,0.008859634399414062,0.19768309593200684,0.042334944,0.033795178,402.1044776987369,-0.4185913042507521,4.357373932856111,82.29166666666667,9600,1.2578763961791992,0.05082372233855819,0.03820040298398423,514.5701755368885,81.25
138,1.6840956211090088,383.5306860925898,274.73885078364384,754.5789632394749,-63.984736549687554,77.08333333333333,3.774029750854918,0.1,0.008778572082519531,0.18898725509643555,0.046770703,0.027233653,400.2470985381222,-0.4423734641005481,3.831370663201211,77.08333333333333,9600,1.2150225639343262,0.04310601120230651,0.03237567809944327,525.5977136407269,81.25
139,1.683119773864746,367.4494085951308,272.64484445340145,735.525662311426,-82.41228952319076,69.79166666666667,3.142576842208026,0.1,0.009630918502807617,0.21422410011291504,0.046785068,0.029175205,396.96732954382304,-0.47040338933156,3.6718898525879378,69.79166666666667,9600,1.2293872833251953,0.0446222009361835,0.034630682578050964,520.2798092567889,87.5
140,1.7093870639801025,420.56140591683135,254.45803261966728,749.292074960809,-117.52084053977605,80.20833333333333,3.5074741735671076,0.1,0.00831460952758789,0.19870257377624512,0.04909758,0.026661351,399.32673718112386,-0.4316226836027788,4.2003962570847495,80.20833333333333,9600,1.270327091217041,0.04452593362405185,0.03729689895574451,509.8863879405646,75.0
141,1.6694982051849365,433.5824559533571,257.5733062898727,750.6432538069821,-64.11805743767061,79.16666666666667,3.2897273816731776,0.1,0.0117034912109375,0.2257983684539795,0.047600802,0.029631011,402.75230905834724,-0.4147831709450063,4.333197484157947,79.16666666666667,9600,1.2528846263885498,0.04591210418131946,0.03465718791021893,509.7818676676153,87.5
142,1.877166509628296,393.03309788863936,257.241230120288,755.5034486424639,-95.81734723126314,80.20833333333333,3.6588986305788396,0.1,0.008762598037719727,0.19035840034484863,0.04880252,0.026961839,401.7803879413765,-0.44186422546600085,3.9268218007089892,80.20833333333333,9600,1.2639858722686768,0.048616258817622514,0.03883405655959724,503.0740978438093,87.5
143,1.6841719150543213,406.7605714270073,274.3683080527906,747.9575369024826,-110.262704917739,71.875,3.2011789348812614,0.1,0.008527994155883789,0.19066548347473145,0.042098887,0.025541987,402.27840628993954,-0.4359111760712273,4.063270556513349,71.875,9600,1.229964256286621,0.037987853148250664,0.031554796756742894,502.74995670279,81.25
144,1.688537836074829,423.90857021670246,273.9716373352373,757.7594034331908,-70.52491107197082,84.375,3.487310443152023,0.1,0.008868217468261719,0.1926283836364746,0.046239916,0.029012123,404.44142268261584,-0.42671049794428023,4.235129635404203,84.375,9600,1.2374141216278076,0.046403954237220775,0.03714767150650701,508.75068428500776,87.5
145,1.6738197803497314,457.3357815846607,237.9239137240161,747.611923245953,-68.92894115867598,90.625,3.6082038325473778,0.1,0.008616209030151367,0.19762325286865234,0.049209543,0.027789637,409.7308585728203,-0.40698342415264815,4.568553642806864,90.625,9600,1.2421061992645264,0.04177184770741017,0.029085406182037244,501.9649634477675,87.5
146,1.6646904945373535,437.3394718874985,269.883155714328,748.6451163305843,-51.73165164923793,71.875,3.5116782280096417,0.1,0.00875234603881836,0.1919727325439453,0.04429493,0.023568593,412.4917199042882,-0.4178814143455218,4.367684927498259,71.875,9600,1.2285740375518799,0.035578265817154,0.025267524133004517,507.6942943517255,75.0
147,1.6727266311645508,414.3108895956446,277.2813992540629,752.1556069636871,-89.76189298775093,75.0,2.7086849685147207,0.1,0.008901834487915039,0.19004058837890625,0.05026605,0.03671245,412.67363687342385,-0.4277141531575476,4.140048755948193,75.0,9600,1.2374026775360107,0.03268382332488851,0.02748135778890476,492.6976768191658,75.0
148,1.703193187713623,411.0613967441802,261.25192620173397,759.6660406579175,-75.18195471788265,75.0,3.115608950116716,0.1,0.00937199592590332,0.20061182975769043,0.04723303,0.030545782,412.51241286049947,-0.42649513556884827,4.106768360641802,75.0,9600,1.2504770755767822,0.03837640030603506,0.03516956635613961,497.2603466102896,75.0
149,1.875701665878296,448.13371068864853,236.5878422867699,743.0591124079444,-75.02273538739222,90.625,3.1048672279716376,0.1,0.009049415588378906,0.19209003448486328,0.045579366,0.029432394,416.0745426433144,-0.40825789497742376,4.476538815832128,90.625,9600,1.2654767036437988,0.04653756982557757,0.038448077837257615,512.7383603311122,81.25
150,1.677001714706421,410.7124770342998,260.5113974104255,725.1625589740872,-65.27840481928506,76.04166666666667,3.082202844966962,0.1,0.009827852249145508,0.1934490203857422,0.04258508,0.027890056,415.53833608241297,-0.42734046994937974,4.10229401109763,76.04166666666667,9600,1.2320821285247803,0.03540355913439783,0.027084632975628676,481.1979381852853,75.0
151,1.6790685653686523,401.51940113722145,266.258804923494,735.5626868036667,-53.039353087343336,79.16666666666667,3.3455080102485706,0.1,0.008546113967895508,0.18781447410583496,0.040472977,0.026551008,414.13644258789384,-0.4380511759004582,4.010380385472424,79.16666666666667,9600,1.232264518737793,0.0333551926821292,0.027278175602267758,460.7820627912489,75.0
152,1.682446002960205,418.47932556270445,253.62588180779113,749.663561985636,-40.49776257346556,77.08333333333333,3.3955796644993286,0.1,0.01004171371459961,0.19350910186767578,0.049510412,0.029200865,414.5707308853749,-0.4220168211354011,4.181250500798952,77.08333333333333,9600,1.264394998550415,0.04150066262672333,0.03451690572144829,389.38337047570207,62.5
153,1.6639838218688965,429.37972103120575,257.5880022824817,739.8482097210978,-42.08702685599006,80.20833333333333,3.7878832209805355,0.1,0.009111642837524414,0.1949295997619629,0.0496108,0.026107682,416.051629899958,-0.4189681786008525,4.289847297441086,80.20833333333333,9600,1.2873668670654297,0.04100180586805149,0.03355256833039709,407.01172376627443,56.25
154,1.6884300708770752,440.73180044063764,237.53114596059314,749.2033048713487,-32.445445856806224,87.5,3.1494187295053653,0.1,0.008907556533813477,0.19237399101257324,0.04732403,0.03143471,418.519646954026,-0.4105860355731816,4.402057176517885,87.5,9600,1.296926498413086,0.042219378787674774,0.032593365113629855,404.2561830920568,56.25
155,1.7783398628234863,479.99741932964434,224.04247776823314,749.7940449633725,-97.75780554303061,83.33333333333333,2.98798710055386,0.1,0.008546829223632812,0.18803954124450684,0.04753593,0.03173302,424.66742419158777,-0.39043153288570415,4.794764131938204,83.33333333333333,9600,1.2457404136657715,0.027999039702394778,0.021769408458216448,450.66830351685024,68.75
156,1.6695752143859863,448.44587962637416,219.55572003081022,739.9112967210808,-83.02961017675281,82.29166666666667,3.3279015781162484,0.1,0.008574485778808594,0.19130444526672363,0.0407182,0.025535299,427.0452697350664,-0.3986724364467342,4.479202749409474,82.29166666666667,9600,1.2365458011627197,0.029965459779815344,0.02452285841243507,453.6176992880895,68.75
157,1.6634464263916016,386.069248584279,266.58145981984705,752.7766930921448,-99.25356915824565,73.95833333333333,3.1924971729272205,0.1,0.008816719055175781,0.2036139965057373,0.043626525,0.029908447,422.94766761998767,-0.44444746594784207,3.857639066615277,73.95833333333333,9600,1.2436118125915527,0.053178363968071976,0.03951458486330501,477.71888671960346,68.75
158,1.693023920059204,422.9878739839699,275.2246811961711,746.9678679414386,-94.0898960839367,77.08333333333333,3.413208710529114,0.1,0.008883476257324219,0.19178199768066406,0.04833763,0.027816819,422.9516882563859,-0.4227812822110246,4.223735576400638,77.08333333333333,9600,1.2724435329437256,0.03860007901075389,0.02953681546621892,473.70330695334724,62.5
159,1.7659003734588623,434.0689439374378,267.62477004853866,752.7256549530921,-87.24646126112859,77.08333333333333,2.8472919716944456,0.1,0.008804798126220703,0.19164681434631348,0.04436889,0.031770613,424.06341382449114,-0.4183971468873307,4.3363449777371015,77.08333333333333,9600,1.289874792098999,0.03375153150342677,0.02360193782573682,465.0760458752843,62.5
160,1.6980626583099365,419.49602663123204,273.7022552556946,750.0514815954734,-96.95061907404985,77.08333333333333,2.8348822187640828,0.1,0.008260726928710938,0.1818230152130127,0.046355568,0.0350048,423.6066751051652,-0.43077433785206537,4.190174172735835,77.08333333333333,9600,1.2950713634490967,0.04388637249283726,0.03320398584495049,497.22149868758265,68.75
161,1.673746109008789,461.57449375111014,255.2871270410946,751.5465878263859,-105.48121568477514,86.45833333333333,2.920208699172917,0.1,0.008449792861938477,0.18122291564941406,0.045532558,0.030100387,427.4034569697597,-0.4118724747904872,4.610970330942484,86.45833333333333,9600,1.258345365524292,0.029097129248587775,0.02583345054820754,532.4984201694757,75.0
162,1.757411241531372,406.31308139680567,262.21488330445266,751.0120969565055,-65.91279517963832,78.125,2.9908538439075647,0.1,0.00994420051574707,0.1941072940826416,0.046835084,0.032274313,425.2944194124643,-0.4331181251732639,4.059168452036327,78.125,9600,1.2501418590545654,0.033294570317410795,0.026790526793005413,532.8708428648713,75.0
163,1.67008638381958,390.3673559183882,272.8104993924257,751.0949629447717,-90.03023667631285,75.0,3.241862359116885,0.1,0.008912324905395508,0.1922612190246582,0.040476914,0.025740093,421.8017130630567,-0.43882365999327555,3.9002272818447974,75.0,9600,1.2936666011810303,0.04376116838859259,0.031073940788661106,549.8197984656035,81.25
164,1.7825605869293213,391.1398418187607,271.31163047714574,753.2074405729672,-96.81046335540911,76.04166666666667,2.9590060381059837,0.1,0.00877833366394043,0.19468212127685547,0.047774337,0.03199806,418.7355259386271,-0.43924444100893983,3.907896986952656,76.04166666666667,9600,1.2927048206329346,0.04036498889140857,0.0265678942781533,514.4413283654271,81.25
165,1.6667590141296387,382.74491091249564,285.02130191550475,752.3223768751062,-57.53664366375879,75.0,3.2190734507584575,0.1,0.008405447006225586,0.1933605670928955,0.045883663,0.030369613,415.13646443601397,-0.4373054891882231,3.8239613345160604,75.0,9600,1.2724924087524414,0.0551363115536094,0.04488913002923089,520.1672475789476,75.0
166,1.6657660007476807,469.75955232461564,253.6342612567792,754.034747613586,-83.31150636595781,78.125,3.445131858462211,0.1,0.008380889892578125,0.17829608917236328,0.052294273,0.029787166,420.59877322487415,-0.39728651065226567,4.694039267261776,78.125,9600,1.2238764762878418,0.026819963494184466,0.020354389743244307,517.2778234688104,81.25
167,1.6585323810577393,451.8173736941006,245.86864760178017,751.1202464514965,-66.6818063247925,78.125,3.180988644268092,0.1,0.008293628692626953,0.1791987419128418,0.048388336,0.030539889,423.7206332717968,-0.4073276412620945,4.512887156500709,78.125,9600,1.209345817565918,0.03474090609493909,0.02795264634816932,530.8529765341507,87.5
168,1.6739723682403564,429.70214920911053,265.9025285123958,751.3923155294294,-69.94990397647354,82.29166666666667,3.122238555954095,0.1,0.008955955505371094,0.19203591346740723,0.0504614,0.031081326,424.31878486552824,-0.4271950371827879,4.293980176904409,82.29166666666667,9600,1.2298922538757324,0.03424362953017791,0.021587528605697154,525.2367010714174,87.5
169,1.818904161453247,475.07644617274633,222.32495526979298,740.5650148342601,-72.85177300030033,83.33333333333333,3.246260484589106,0.1,0.008790731430053711,0.19541072845458984,0.04650728,0.029448895,429.3945509962501,-0.39208006289317804,4.7467925779054445,83.33333333333333,9600,1.2586262226104736,0.035035308417610066,0.024899720219482717,523.1001720638614,81.25
170,1.6774957180023193,451.09515697026194,243.91865339926937,751.5886664655901,-59.0586025410733,80.20833333333333,3.300724035992556,0.1,0.008808135986328125,0.19136953353881836,0.049218096,0.030100368,431.5646115936513,-0.4035855635034551,4.507435827547955,80.20833333333333,9600,1.2568395137786865,0.027841821119832424,0.02497345965330456,516.9381537007328,75.0
171,1.6676280498504639,363.8163843813909,279.56417076696374,744.5784215238805,-95.85716116362235,79.16666666666667,3.0804895423431753,0.1,0.008784294128417969,0.19890475273132324,0.0492384,0.03196459,424.7897888724253,-0.4598466086118127,3.6338257771553644,79.16666666666667,9600,1.2465102672576904,0.05427454669610714,0.032533445161182534,549.4628906184901,81.25
172,1.6679956912994385,464.58419943542594,257.22872420374404,755.0574654180111,-96.00368413885434,81.25,3.314063035745823,0.1,0.00849151611328125,0.19692325592041016,0.04783085,0.02872289,428.76922992872534,-0.4033422246209071,4.642333228409445,81.25,9600,1.24310302734375,0.03155341144544359,0.025495071245784432,578.9199723582117,93.75
173,1.7029151916503906,415.25817115415344,261.7352076212411,749.5089776581204,-95.92127083361648,84.375,3.410720965060064,0.1,0.008846759796142578,0.1930372714996338,0.050585873,0.030707143,427.41812405126814,-0.43553732435749737,4.1495489530751835,84.375,9600,1.2701380252838135,0.04710742840651769,0.03560689352651347,577.4885439176963,81.25
174,1.67769455909729,412.027534133404,274.08185713798184,750.9567488877271,-61.25913844186282,78.125,3.639192566864809,0.1,0.008887529373168945,0.19341397285461426,0.04802809,0.024659062,425.8790650594818,-0.4257246506573649,4.116710436680083,78.125,9600,1.3019180297851562,0.04149467490933981,0.03333228488663756,542.3533615728736,100.0
175,1.6841294765472412,465.99103098211754,241.0901991829867,736.7107600603814,-82.59301726228276,83.33333333333333,2.9430714990896485,0.1,0.008741140365600586,0.19290566444396973,0.046929672,0.03476706,429.89026165174533,-0.3989500185476593,4.655502610899262,83.33333333333333,9600,1.2836391925811768,0.03396211475328207,0.02866784072098412,579.3657885872983,93.75
176,1.761613130569458,446.5048257106644,255.94093457474773,762.3357200761765,-59.494624348143915,83.33333333333333,3.519035769723358,0.1,0.008853912353515625,0.18993282318115234,0.045603633,0.024327558,431.55171805763723,-0.4141236532764665,4.460643640309216,83.33333333333333,9600,1.248661756515503,0.03248983812704461,0.024816172011736484,600.7478880902336,93.75
177,1.6728711128234863,422.3459513441944,274.3929637395518,757.3527419543617,-93.91264015894973,75.0,2.9422757796572934,0.1,0.008560895919799805,0.19168686866760254,0.044956286,0.030333865,430.631141386293,-0.4235542375279433,4.217732481691741,75.0,9600,1.254262924194336,0.03484611224836398,0.026148218342727306,578.5787070799549,93.75
178,1.6912529468536377,421.9194669478267,265.96533785945803,758.274938973993,-62.64697838319545,76.04166666666667,3.114702111427875,0.1,0.009185552597045898,0.1925978660583496,0.037554316,0.026825448,429.7599739424463,-0.42762839004076486,4.214000298918106,76.04166666666667,9600,1.2573270797729492,0.03522892395035963,0.02873038841198807,577.15378458493,100.0
179,1.7086756229400635,470.3367721591255,260.4943148693314,759.951995198541,-73.93572190990557,83.33333333333333,3.011868517477855,0.1,0.008924484252929688,0.19118189811706543,0.046843827,0.03418616,433.8176537641142,-0.40199311523466913,4.699380180998712,83.33333333333333,9600,1.2912135124206543,0.036418515974701006,0.023743509163596348,559.6279064958958,93.75
180,1.6895580291748047,501.0670596850632,221.4831336912184,736.0386635064618,-54.861777633506165,85.41666666666667,2.9245469380890663,0.1,0.009161710739135742,0.1968679428100586,0.048879974,0.034603704,440.5425943562091,-0.3768971620226907,5.0054025873156425,85.41666666666667,9600,1.2934467792510986,0.029027810008052816,0.02316855558050864,583.437062620643,100.0
181,1.6917293071746826,420.22713645928934,269.72688164568063,746.1036741517437,-60.16237306462236,81.25,3.079861121806469,0.1,0.009429216384887695,0.19051742553710938,0.048202366,0.02810234,438.51104856651716,-0.4248974084643058,4.197464979778181,81.25,9600,1.2463548183441162,0.04296047346239615,0.02377478415896179,570.3563743829596,100.0
182,1.6666316986083984,444.3313603154873,254.53502568799266,728.2410695801709,-64.2934262564933,78.125,2.7767490399842885,0.1,0.00861358642578125,0.18916535377502441,0.04876364,0.03442641,439.09307974141416,-0.4087997481070061,4.437620170145436,78.125,9600,1.2359731197357178,0.04127228439813474,0.029693597450397697,548.7536478518402,87.5
183,1.8736519813537598,445.6126529743963,261.53504221302666,740.9533937824332,-58.02582906567223,85.41666666666667,3.050788824621223,0.1,0.009760856628417969,0.1971268653869629,0.049975198,0.03300863,439.7450370647124,-0.4082185717881577,4.452225003913022,85.41666666666667,9600,1.2533292770385742,0.02610671090045115,0.017892900321357923,578.822188294467,100.0
184,1.6870152950286865,426.81678142567006,259.7745579948952,748.4344197800505,-53.15053057146371,77.08333333333333,3.2041091587250623,0.1,0.009387016296386719,0.19359254837036133,0.04606157,0.031540655,438.4522115008082,-0.4227941909967175,4.262932422343674,77.08333333333333,9600,1.2437005043029785,0.04130888821855511,0.03385247721841596,574.3373799385436,93.75
185,1.6778717041015625,429.50706800370335,274.4391097437004,750.5320914133948,-72.81801948331717,80.20833333333333,2.7998773959344763,0.1,0.00891733169555664,0.19819855690002441,0.047809295,0.041827474,437.5576971510977,-0.43257754279332983,4.289767048696042,80.20833333333333,9600,1.2522552013397217,0.03897641771932313,0.029557427127870146,587.2738135195222,100.0
186,1.6634159088134766,474.4847391804321,242.28362804953855,744.7267612595537,-53.94329574702414,86.45833333333333,2.8350777631999025,0.1,0.009445428848266602,0.2151963710784912,0.047164604,0.033346403,441.25040135403117,-0.3901595100721906,4.74047214936403,86.45833333333333,9600,1.242414951324463,0.030096406841518562,0.022661092898563856,593.9366997880641,100.0
187,1.6856210231781006,450.95354876555734,257.84490904091837,747.790170537406,-55.06482234838972,79.16666666666667,3.552450643867992,0.1,0.00869297981262207,0.18738269805908203,0.047779158,0.025293123,442.22071609518383,-0.4061780960475978,4.505610615946467,79.16666666666667,9600,1.234158992767334,0.03113148089920781,0.02184999485948475,581.9271550362921,93.75
188,1.6758625507354736,465.02001308711874,246.80430155293374,753.6614684833818,-51.94678542665768,82.29166666666667,2.9814562440380277,0.1,0.008655786514282227,0.18797898292541504,0.044816624,0.029133191,444.50064579437736,-0.39412263806110776,4.646265900417202,82.29166666666667,9600,1.2501280307769775,0.023246985492367336,0.018832377895073985,591.5711355010098,93.75
189,1.7775990962982178,454.17413794819487,243.54368392877086,726.3841376939689,-72.94245284301941,82.29166666666667,2.886134073370432,0.1,0.0086669921875,0.18946528434753418,0.04614774,0.030664489,445.46799500975914,-0.40907181606606907,4.539088569048282,82.29166666666667,9600,1.2341983318328857,0.03586733598745388,0.02508077309920337,606.2188597828217,100.0
190,1.713453769683838,483.8487781085523,251.08225439817662,753.3836278568702,-52.46722534015818,88.54166666666667,3.1448628942459393,0.1,0.009017467498779297,0.18953514099121094,0.049645323,0.028058084,449.3060733196385,-0.38601365554757744,4.834521691578416,88.54166666666667,9600,1.2524781227111816,0.02609968314446418,0.019953984075312504,606.9929452721108,93.75
191,1.6891288757324219,454.16597356031684,277.9611238724362,750.9746213924329,-59.352634911284184,81.25,3.0386371492903868,0.1,0.008596658706665039,0.18725109100341797,0.045335498,0.032567028,449.79206334370633,-0.40648460291946303,4.538216048496417,81.25,9600,1.2274093627929688,0.033470841472010626,0.027748602866720287,605.055010338549,100.0
192,1.6710929870605469,414.8435196861694,260.3056518030365,752.3434733784201,-66.74577511861128,76.04166666666667,3.004499960451267,0.1,0.008399009704589844,0.17898964881896973,0.04803469,0.031167848,446.2972089779526,-0.4217436116032263,4.145801522687509,76.04166666666667,9600,1.195901870727539,0.045631166876219945,0.03324088388975743,602.1449247200444,100.0
193,1.6624910831451416,464.8540254876114,248.8706564947351,747.7520056759761,-49.95283768091631,83.33333333333333,3.366958621187836,0.1,0.00900578498840332,0.18948650360107422,0.046277817,0.029617183,448.1528906289185,-0.39916992774825716,4.64326653755506,83.33333333333333,9600,1.197342872619629,0.03292191319193323,0.026367172642427675,583.5449212384185,100.0
194,1.668320894241333,452.22456868189994,259.78013711075477,749.2685577101262,-55.974116112579964,79.16666666666667,2.6412412110632353,0.1,0.008538484573364258,0.1908726692199707,0.050791565,0.037180148,448.56005843421667,-0.39980440047052385,4.516085132687879,79.16666666666667,9600,1.247732400894165,0.02903628860506597,0.024035442876753712,580.0462869306734,100.0
195,1.706350564956665,429.80237057660935,248.25934339934636,747.4927787976637,-68.07408034106352,77.08333333333333,3.09569849413979,0.1,0.009046792984008789,0.19731903076171875,0.044647314,0.03319034,446.68428964845594,-0.4115741375027537,4.295375165352863,77.08333333333333,9600,1.2909467220306396,0.044239259067050736,0.03453284466423641,584.0313363230651,93.75
196,1.778393268585205,512.8389848630687,226.80254835618146,749.708323177435,-61.693061129910156,92.70833333333333,2.940093537513134,0.1,0.008730888366699219,0.18654751777648926,0.04953707,0.032814607,453.29975916991725,-0.3774775699022442,5.124008817590525,92.70833333333333,9600,1.2428498268127441,0.021067168986664088,0.017322986387524265,583.7555082458972,100.0
197,1.7101948261260986,440.34154662954626,251.7227393016931,744.6159673766703,-52.09261625801242,78.125,3.1496213831341913,0.1,0.008606195449829102,0.18809819221496582,0.04615563,0.03418893,452.00393791588016,-0.4096308553229017,4.3986240629561415,78.125,9600,1.2391746044158936,0.04263560590818114,0.029263062142939264,595.2766394917667,93.75
198,1.6768789291381836,458.44166357303146,264.515061432417,748.9835705715084,-74.90651710490533,81.25,3.3658271701539317,0.1,0.008838176727294922,0.200761079788208,0.04506862,0.026226843,452.6477104815953,-0.4033768961886747,4.578706036287478,81.25,9600,1.2566320896148682,0.03150255965412947,0.02615957580567392,596.1770932088682,100.0
199,1.674757480621338,488.99237383485007,240.58203784554175,752.4222817117702,-61.57539805651849,86.45833333333333,3.3568023468995443,0.1,0.008753061294555664,0.19300246238708496,0.05148257,0.028967887,456.2821768169208,-0.3870985368286095,4.886871655168325,86.45833333333333,9600,1.2498159408569336,0.02662148477204557,0.02104539431742787,587.0913257825946,93.75
200,1.6843628883361816,441.9083889673481,256.5646556207323,762.4333562768478,-57.75256654690775,81.25,3.3136075317952716,0.1,0.009208202362060547,0.1943504810333252,0.048753243,0.02724736,454.84479803196353,-0.40737084594696865,4.413375639576111,81.25,9600,1.2886817455291748,0.036592737350985755,0.029093695093593486,576.1846094400545,93.75
201,1.7138683795928955,448.76426469236577,252.40496797173597,763.9695537665705,-67.62228340460625,80.20833333333333,3.2855269432015817,0.1,0.008693218231201172,0.188889741897583,0.04765498,0.027212778,454.2367446980038,-0.4026807912070633,4.482418924383478,80.20833333333333,9600,1.2607495784759521,0.04040195099588889,0.029943397927591996,608.911692597126,93.75
202,1.7041642665863037,489.59014229671317,245.5844853801286,750.8764830557031,-51.55626529200625,86.45833333333333,3.2232446148021006,0.1,0.008831262588500977,0.19125652313232422,0.05081125,0.033402104,457.77208445787477,-0.3821100187737352,4.890659324657691,86.45833333333333,9600,1.317713975906372,0.033410268330547464,0.02298059313772264,578.116072156128,87.5
203,1.866776704788208,457.8824020451537,264.5179224149827,741.6855234250492,-73.13523004942009,81.25,2.852491690346072,0.1,0.008941173553466797,0.18897390365600586,0.050543744,0.031347837,457.78311621660265,-0.4016276949165742,4.5717745541646195,81.25,9600,1.2779171466827393,0.029224956435685262,0.022675114301003094,523.9751058515374,87.5
204,1.677588701248169,456.2287246683275,251.57229049813844,756.187508950655,-51.87452435457039,72.91666666666667,3.6030423135463505,0.1,0.008762359619140625,0.18878459930419922,0.049891308,0.026560323,457.62767706177516,-0.3920920516931083,4.557002855404923,72.91666666666667,9600,1.264397144317627,0.026176848571432983,0.019069896362979084,528.9192322107465,81.25
205,1.6971840858459473,465.4137491162706,247.91919622425414,756.1047447564604,-73.6890269775709,81.25,3.108962343735899,0.1,0.008590936660766602,0.19278407096862793,0.045929182,0.02523166,458.4062842672247,-0.40065886752109603,4.650173741600389,81.25,9600,1.2919135093688965,0.03453279749146696,0.025894598472631564,553.079380795193,75.0
206,1.6950607299804688,446.5299268519386,256.47953983637944,750.9297542621036,-91.22142437086562,80.20833333333333,2.5088535700470116,0.1,0.008465051651000977,0.18172740936279297,0.043004263,0.03278003,457.2186485256961,-0.4041468210658014,4.460479499142642,80.20833333333333,9600,1.306859016418457,0.03299167152035298,0.023915493077014252,575.414954716077,75.0
207,1.7067511081695557,471.9055734270273,247.1656061429551,741.2504111044311,-73.24393254245884,80.20833333333333,3.523838124158648,0.1,0.008922338485717773,0.19490647315979004,0.04582153,0.028054623,458.68734101582925,-0.3899399593649162,4.7150988140221575,80.20833333333333,9600,1.3396446704864502,0.026963225318885602,0.0242754841739939,608.8597640148779,87.5
208,1.6874597072601318,462.50303877263497,257.9963129925381,758.6202215992964,-42.80467581760811,86.45833333333333,3.064535172238737,0.1,0.0098114013671875,0.20463180541992188,0.05188318,0.037312306,459.06891079150984,-0.3956671376655175,4.621986944690163,86.45833333333333,9600,1.350172519683838,0.04291019897050331,0.029622391849469576,611.8934898766776,93.75
209,1.7049174308776855,464.58988035230203,256.1754146061139,751.169410510149,-55.63844939725009,80.20833333333333,3.1869036532373003,0.1,0.008694171905517578,0.19183111190795898,0.04947489,0.03027186,459.6210077475891,-0.4050070119102549,4.641532231624468,80.20833333333333,9600,1.2945404052734375,0.029940678129345734,0.023448568855446404,639.870391472585,93.75
210,1.8509869575500488,429.81598089757375,253.70250692004865,740.3237313651549,-62.71295011333919,77.08333333333333,3.039276878958585,0.1,0.009519815444946289,0.19286084175109863,0.044317897,0.025389157,456.6405050625876,-0.41116723967271024,4.293793370836799,77.08333333333333,9600,1.2784955501556396,0.029279716568314258,0.027772198553817466,637.8255790419707,93.75
211,1.6766178607940674,480.5508645235255,240.16747296307975,751.9964676704707,-56.5733611200945,85.41666666666667,2.758070353324725,0.1,0.01038980484008789,0.20415282249450684,0.043935724,0.038622152,459.03154100868136,-0.38576592393049247,4.800258584481853,85.41666666666667,9600,1.3025145530700684,0.04110379393259223,0.027723237076808793,656.8326810942201,100.0
212,1.6762256622314453,472.0966137735572,237.2624874795257,739.0980461789146,-53.766045974647774,82.29166666666667,3.213439757587514,0.1,0.008821725845336914,0.19031429290771484,0.051142767,0.03557136,460.33804828516895,-0.39141877334448766,4.717009869178972,82.29166666666667,9600,1.2858922481536865,0.031053972632482996,0.024759092911667106,649.6032960136735,93.75
213,1.6994307041168213,442.3203520116106,239.61613993866644,744.3820475580395,-45.26567194973403,87.5,3.0431196924419717,0.1,0.008908510208129883,0.19204092025756836,0.04712082,0.02896633,458.5362786578131,-0.41268359241345776,4.420197455788031,87.5,9600,1.3286292552947998,0.03562620259768883,0.031314588633894684,630.0113172773513,93.75
214,1.6686599254608154,503.97849935569957,233.68879525101937,752.3082257671224,-48.55435963712893,91.66666666666667,3.5166155159003747,0.1,0.009234428405761719,0.19959807395935059,0.041095067,0.021217182,463.0805007276018,-0.372370576792959,5.034477240928572,91.66666666666667,9600,1.3269929885864258,0.021794339337008552,0.016277156642932007,609.7159151149322,93.75
215,1.6757781505584717,413.7793022044597,255.87958109648187,739.5576090650474,-59.80107103976314,83.33333333333333,3.1566244560038594,0.1,0.008742094039916992,0.1884002685546875,0.0487127,0.029152142,458.1503808752876,-0.4198056067064569,4.132966668735349,83.33333333333333,9600,1.3123867511749268,0.051560656429709195,0.039068622755955476,599.6153998886334,87.5
216,1.7637081146240234,510.58752444979905,230.75414498869898,761.1019403865828,-74.32022860173382,86.45833333333333,2.8201950247706526,0.1,0.00960397720336914,0.19791507720947266,0.045910336,0.034638032,463.3940952327388,-0.36949184437751187,5.101909913518191,86.45833333333333,9600,1.3357698917388916,0.0268543279210172,0.019524576472718692,617.9161477591423,87.5
217,1.6998372077941895,454.875571812438,256.59446774803644,732.8468224661619,-65.28997041971719,86.45833333333333,3.170753338507002,0.1,0.008762121200561523,0.1962583065032959,0.049981337,0.030518444,462.54224289070874,-0.4038502458271284,4.544362499286105,86.45833333333333,9600,1.3325843811035156,0.03833248456090822,0.02487296495803744,602.1937506314687,87.5
218,1.6786463260650635,479.53817683210644,239.75806053784902,752.4669765503573,-37.26764098148688,88.54166666666667,3.1428479967554788,0.1,0.009151458740234375,0.19352936744689941,0.049297146,0.029281862,464.24183628484855,-0.3872809487727524,4.790951425197629,88.54166666666667,9600,1.350961685180664,0.025784821476566525,0.021398048854145167,591.1353469169869,93.75
219,1.6852731704711914,421.98022269743075,270.5296738407295,762.8606290841861,-63.8929057867817,80.20833333333333,3.461984823696067,0.1,0.009705781936645508,0.19934773445129395,0.049612783,0.024225868,460.0156749261068,-0.41932127033995087,4.215832992548304,80.20833333333333,9600,1.3658864498138428,0.03689846475632117,0.028623259787204158,591.8509154012813,93.75
220,1.6869430541992188,523.1268220511793,234.0300468683753,755.9054024740001,-60.40809492949118,88.54166666666667,3.1275124188322425,0.1,0.00855398178100586,0.19374990463256836,0.04323163,0.028643379,466.32678963861406,-0.3626981494399533,5.225575961652172,88.54166666666667,9600,1.3675975799560547,0.021414520136297636,0.017563202549710954,583.8851120983518,93.75
221,1.7097866535186768,481.67369941244914,248.3946487406986,752.348603391427,-73.26258849896787,85.41666666666667,2.6656567344443483,0.1,0.009514331817626953,0.19781923294067383,0.04958099,0.048423193,467.8614806159976,-0.3891643795549884,4.811045722300531,85.41666666666667,9600,1.3197569847106934,0.029190143584309526,0.02170239592250521,557.977067254564,93.75
222,1.7069180011749268,417.17788653346355,260.0717385628661,746.1810594242297,-71.74003557648035,82.29166666666667,3.1745896542249565,0.1,0.008766651153564453,0.18759417533874512,0.046540085,0.025806744,462.7931212077442,-0.41480983648728603,4.1682559698306285,82.29166666666667,9600,1.2664752006530762,0.048891313551013615,0.03274945251514977,570.9128442309775,93.75
223,1.7674951553344727,518.3156615309008,217.0307221953042,755.5024342625502,-31.00703582001754,93.75,2.9298992244944744,0.1,0.009961605072021484,0.2035989761352539,0.04283872,0.026597332,468.34537524005987,-0.36852984673770334,5.179205492338938,93.75,9600,1.2747435569763184,0.025531602161995348,0.016650588974806382,567.990077598671,93.75
224,1.69162917137146,504.17130365246345,228.5124266508989,754.7036124399557,-33.37738009952145,90.625,3.2145152828552903,0.1,0.008730411529541016,0.19232559204101562,0.048501763,0.029028993,471.92796808130026,-0.37459823848352264,5.036470402943855,90.625,9600,1.3006293773651123,0.03948115819637748,0.02794803770023293,584.1100886357912,93.75
225,1.6756064891815186,500.4456478722306,215.1919996898709,746.5702079044877,-23.959452931980444,95.83333333333333,3.79572760386539,0.1,0.009880542755126953,0.19834470748901367,0.04522382,0.023332372,474.7797360603933,-0.3804202698535603,5.000046849444574,95.83333333333333,9600,1.356250524520874,0.04639772618444201,0.03309050108840292,588.4566385386981,93.75
226,1.6777026653289795,488.62598986253715,221.61789327897586,752.613380522484,-37.253784042610064,86.45833333333333,3.1561523533078453,0.1,0.008615732192993164,0.19782638549804688,0.0490076,0.030992331,476.1643614406077,-0.37892958086195394,4.882746716809183,86.45833333333333,9600,1.3240852355957031,0.05055719339030698,0.035657887675668194,581.6442206641664,93.75
227,1.6765453815460205,444.4953689111157,231.33577897075128,744.6624161972301,-44.27545732672233,82.29166666666667,2.834795547060371,0.1,0.008437633514404297,0.1826319694519043,0.050413363,0.033788692,472.9974621876585,-0.4037654829041792,4.4410210269523445,82.29166666666667,9600,1.2812590599060059,0.049594655341036506,0.03917110209370816,615.1164431594548,93.75
228,1.6791532039642334,508.18859341588524,234.04889630776353,738.6973936196081,-50.199606561022335,92.70833333333333,3.234653708898988,0.1,0.009149312973022461,0.1924424171447754,0.046669647,0.031246586,476.5165753104812,-0.37268091273508647,5.079259442706675,92.70833333333333,9600,1.2765588760375977,0.032630333375662124,0.02226051316644516,613.1287815297359,100.0
229,1.6707139015197754,482.1364166062776,234.16088461322747,747.7973924900126,-52.86883487910196,87.5,2.8378503970195945,0.1,0.00885152816772461,0.1914534568786621,0.049233634,0.033645846,477.07855944006087,-0.3902122198968015,4.815661443587488,87.5,9600,1.2890353202819824,0.03966076260440207,0.030121814059353155,628.5967476146673,100.0
230,1.7393803596496582,492.70222105056564,210.58533468883394,752.6694483577637,-52.25862332766579,87.5,3.474133040368993,0.1,0.008687019348144531,0.1916637420654297,0.045847576,0.02734043,478.64092560111135,-0.38039364159656786,4.923528173391186,87.5,9600,1.3450579643249512,0.03405123805342961,0.024374299355522336,633.9283973437148,100.0
231,1.6843323707580566,559.7985997845008,187.31395968715597,756.3122749426808,-12.250926460038695,95.83333333333333,3.134411316673496,0.1,0.00836181640625,0.19280076026916504,0.04492189,0.030010143,486.75669301945027,-0.3493857560243121,5.592691757454553,95.83333333333333,9600,1.335179090499878,0.02282880731173156,0.01595357851431347,645.3582257174623,93.75
232,1.6858301162719727,507.0401718337983,220.99404707732944,748.0872642399253,-53.806880150172724,93.75,2.696137280621021,0.1,0.008704423904418945,0.18990254402160645,0.047442645,0.034549195,488.7850409008851,-0.37562283855417894,5.065568250785726,93.75,9600,1.309584379196167,0.035933295934120285,0.027236611224474502,644.3966674191513,93.75
233,1.7139966487884521,480.9808964782904,233.60457833849992,731.5047552234892,-41.17212888555525,87.5,2.899841063363005,0.1,0.00857400894165039,0.1887674331665039,0.047084205,0.034992628,488.0046264586257,-0.386187680592517,4.805826682371222,87.5,9600,1.2872998714447021,0.0361827335849124,0.028607743887178096,677.4170922851043,93.75
234,1.688065767288208,508.2484171846999,232.07434246506384,755.4800999294382,-38.66375035727478,90.625,2.552584300258645,0.1,0.008710384368896484,0.19582843780517578,0.049989052,0.036086723,490.0290055312331,-0.3744920609672864,5.077197301129164,90.625,9600,1.325709581375122,0.035709409975611305,0.02207933981164813,677.6813905523677,93.75
235,1.663250207901001,458.5234879033476,232.66702693913362,756.4944093272891,-74.91770395253809,85.41666666666667,3.022692251325135,0.1,0.00937509536743164,0.20554208755493164,0.049371596,0.032867048,486.87845376844456,-0.39404839896706473,4.581271380315879,85.41666666666667,9600,1.2991385459899902,0.030908370893852545,0.02513745970282492,667.4428060305701,93.75
236,1.688405990600586,496.82171518112517,210.43129993651445,758.4205833573799,-49.117541020797695,90.625,3.086733622126276,0.1,0.009023427963256836,0.18992185592651367,0.048304256,0.030264294,487.8727799097126,-0.379398741816283,4.962548309847164,90.625,9600,1.3038780689239502,0.026837079818954234,0.01927969564661923,669.6502095387125,93.75
237,1.7738993167877197,505.09069204393603,245.26670275013342,749.978768656808,-44.462937792398826,87.5,3.0539769484670707,0.1,0.008922100067138672,0.19101524353027344,0.052148964,0.030992923,489.594571123135,-0.3766901236380256,5.047003489461649,87.5,9600,1.309607982635498,0.03365688711975082,0.021962616697432616,669.4833561347418,93.75
238,1.6788113117218018,496.29534687031264,243.56395500324732,751.2730935988174,-33.77200655416295,90.625,3.143883973269257,0.1,0.00884389877319336,0.19194531440734863,0.046910036,0.02990013,490.26464869785275,-0.3779570929797331,4.957714213222054,90.625,9600,1.2856152057647705,0.033754037659774264,0.024345900391753737,683.791734606073,93.75
239,1.6915392875671387,490.00769124347215,220.69264136992493,753.569761328859,-49.03254130910343,91.66666666666667,2.9410574661221034,0.1,0.008653640747070312,0.19251179695129395,0.049538527,0.03512802,490.2389529524147,-0.380821783982829,4.893939139777501,91.66666666666667,9600,1.2714989185333252,0.027153086053073747,0.018140253313927032,667.1672137631869,93.75
240,1.691446304321289,514.7373112673486,224.52269349948355,739.1706356275105,-34.41285382499141,88.54166666666667,3.0974584858767336,0.1,0.008742570877075195,0.18881726264953613,0.047955733,0.029655345,492.6887887839081,-0.36996387345398,5.142552473536484,88.54166666666667,9600,1.2450659275054932,0.03826528940727798,0.031000493115626176,673.4580951376529,93.75
241,1.6792025566101074,484.12802609864974,234.50238883833381,753.2228130866966,-24.553283408320183,91.66666666666667,2.9709458427249347,0.1,0.00870060920715332,0.190185546875,0.051170453,0.03195831,491.83271251538224,-0.3814493779815471,4.835546328738838,91.66666666666667,9600,1.2432284355163574,0.033100359489722106,0.024960821642548595,681.8869181343437,100.0
242,1.6729249954223633,480.83522754040246,255.06335923373547,759.2441100582872,-34.03587979349754,90.625,2.7044822851185133,0.1,0.009035110473632812,0.1986689567565918,0.051085334,0.03633491,490.7329640178843,-0.3823112720026789,4.804867974271599,90.625,9600,1.2746293544769287,0.026744899050573492,0.02028911412585343,636.8425505628911,93.75
243,1.6811485290527344,533.4261609776346,221.1499108960308,748.1286038515933,-33.63403677560664,91.66666666666667,3.2637183084734165,0.1,0.008944988250732422,0.19719171524047852,0.0489118,0.0274906,495.00228371385936,-0.364750985389831,5.329421621333197,91.66666666666667,9600,1.2922742366790771,0.040242725025149695,0.02625063024026127,647.4208438623352,100.0
244,1.7669548988342285,517.7032548344349,210.19567560834577,754.1317819670252,-33.96559399401656,94.79166666666667,3.3874500078511605,0.1,0.008634328842163086,0.18958806991577148,0.04584497,0.026784722,497.27238082591697,-0.36495751524192205,5.1717493848619425,94.79166666666667,9600,1.2826356887817383,0.04306459127382714,0.03005472364838938,643.643989796071,100.0
245,1.6667027473449707,515.2978934881571,211.3851069617065,749.9384115717479,-12.284708859113959,91.66666666666667,2.9317285818545944,0.1,0.008865594863891602,0.18796491622924805,0.045878474,0.036914263,499.074932092141,-0.3667103020149629,5.147694941650112,91.66666666666667,9600,1.2604129314422607,0.029420198453057784,0.021018646645914105,641.4769737691888,93.75
246,1.6792399883270264,518.1272808700935,203.3960040417443,752.2454168061442,50.9595410308159,93.75,3.4576234738324345,0.1,0.008796215057373047,0.19182372093200684,0.04843442,0.027026713,500.9801669699363,-0.36362158237949266,5.1768446355057405,93.75,9600,1.2925868034362793,0.037142317192798896,0.028770620270799123,632.9968042990572,93.75
247,1.7048852443695068,489.8894088211187,243.45003518427805,757.9696977368526,-38.900136850014924,90.625,3.64320249487517,0.1,0.00886988639831543,0.1920781135559082,0.04789046,0.023596948,499.87109115505456,-0.3826660702901949,4.894042653726249,90.625,9600,1.2949695587158203,0.04094233841827554,0.026380866537502944,629.6349020311079,93.75
248,1.696969985961914,507.38434237415913,226.78686690558237,760.5548669360275,-26.837777996843318,87.5,2.9119153825751045,0.1,0.01155400276184082,0.20974493026733398,0.049797673,0.033970192,500.622416276965,-0.371772066978404,5.068979184488224,87.5,9600,1.3233668804168701,0.029331716767571386,0.021037994580517954,627.5803915010765,93.75
249,1.6723887920379639,533.2359321695822,205.06295496000112,758.1111050491746,-71.40507726141115,93.75,2.6383824093694095,0.1,0.008699178695678711,0.18735241889953613,0.04570653,0.03392782,503.8837678662267,-0.36569027544249694,5.328397872112137,93.75,9600,1.3199279308319092,0.03986570107826781,0.029051657008279958,619.2664197470132,93.75
250,1.6866331100463867,518.108657910633,208.1672737857018,760.7929182563945,6.930442362997976,92.70833333333333,3.3562349814783143,0.1,0.008468389511108398,0.1873009204864502,0.048781037,0.025921626,505.30625687066737,-0.36477922646338956,5.177532796591371,92.70833333333333,9600,1.29071044921875,0.03059730204201,0.01777853822542597,611.4051545277437,93.75
251,1.8757524490356445,509.04755681491696,209.62366923258662,730.5524863632675,-48.39933979950432,90.625,2.9738204698114696,0.1,0.008736371994018555,0.19504427909851074,0.049371406,0.033499837,505.6803868650923,-0.3699691098287517,5.085194622256359,90.625,9600,1.3023838996887207,0.04044075117160374,0.02910856351245667,626.5141403839367,93.75
252,1.661635160446167,565.8304102791186,201.75344339148612,759.6362277095994,-43.61940454278085,95.83333333333333,3.0097199247087962,0.1,0.008895158767700195,0.1961367130279541,0.044069603,0.030534012,511.69538920649495,-0.3435717296065821,5.65209822819159,95.83333333333333,9600,1.3229448795318604,0.018096283868273486,0.01275599305422381,677.879800689428,93.75
253,1.6788020133972168,503.6793169537727,209.23945880655043,749.8090710289113,16.17115254445238,78.125,3.095469331264678,0.1,0.008082389831542969,0.17916488647460938,0.042838905,0.024659043,510.89378198122273,-0.3698840507934235,5.031495861799427,78.125,9600,1.3187899589538574,0.02319116771326486,0.014738572492054899,659.4187155387058,93.75
254,1.706594705581665,487.6280448233344,213.1445078022201,756.644259436727,-25.459434162753706,89.58333333333333,2.694357129405019,0.1,0.01029062271118164,0.19661879539489746,0.04724521,0.034361035,508.56720826543386,-0.3789794771276666,4.870567906164731,89.58333333333333,9600,1.2935969829559326,0.03368542448278343,0.026198643350655897,657.9910316521255,93.75
255,1.7144660949707031,477.5910708474389,215.60683568669631,756.5138993076652,35.89118740299833,91.66666666666667,3.3653782103100185,0.1,0.008503913879394531,0.19142961502075195,0.047381688,0.02836044,505.4695945236344,-0.3834388426768625,4.771062555529521,91.66666666666667,9600,1.3015775680541992,0.0444921997756464,0.03281291622289585,656.2563867789279,93.75
256,1.6836490631103516,545.8491949507974,212.1818513305316,751.8540664850417,-14.50610555829865,91.66666666666667,3.1251046366179738,0.1,0.008707523345947266,0.18982458114624023,0.0467166,0.032361057,509.50755456635073,-0.34907724257781475,5.452759418572621,91.66666666666667,9600,1.261878490447998,0.025505642937847246,0.01678706477793478,616.2229799525741,93.75
257,1.7528350353240967,530.9568620427591,211.72359044970491,755.2960104864925,-28.121798987537588,93.75,3.3317903787249783,0.1,0.009997367858886719,0.20636296272277832,0.04714837,0.02717427,511.6524853139916,-0.3608007406264297,5.303862466063299,93.75,9600,1.2591590881347656,0.025716805538007967,0.018366114259032538,643.3213981288409,93.75
258,1.6923980712890625,459.3363461843367,240.06636513273932,751.3606527462969,-80.57357274908198,86.45833333333333,3.1809202991754457,0.1,0.008817672729492188,0.189802885055542,0.048947845,0.030525438,506.42087140102615,-0.39514411956031453,4.588055275071059,86.45833333333333,9600,1.289522647857666,0.04486296537572925,0.03199405634073027,648.8145888423638,93.75
259,1.6708881855010986,513.1178690219398,202.8593796949947,762.5946150755158,-41.70931940689988,91.66666666666667,2.8954017642992267,0.1,0.008621692657470703,0.19189167022705078,0.04765877,0.034825657,507.09057116311754,-0.3629701744379363,5.125928036798914,91.66666666666667,9600,1.3159236907958984,0.027942723957158293,0.020354045011782798,640.4010357216226,93.75
260,1.7084410190582275,444.04047606393397,240.27860898291192,731.7443751012156,-24.5706743427182,94.79166666666667,3.347910714042073,0.1,0.008725881576538086,0.18857860565185547,0.05046861,0.027475396,500.78556165319924,-0.4017559930299779,4.436433464834083,94.79166666666667,9600,1.2816829681396484,0.04593912119042582,0.035810708742805425,642.5459939942092,100.0
261,1.6947433948516846,517.9668797022993,191.04318538826664,751.5152679756412,29.988502038654314,93.75,2.847981660019837,0.1,0.00856161117553711,0.1913917064666748,0.04905157,0.034708757,502.50369345810924,-0.36564222306202093,5.175267171086274,93.75,9600,1.281548023223877,0.02998695156513421,0.02017432728595028,631.6329134411681,100.0
262,1.6713318824768066,512.9351635638337,207.8007582176831,764.4905078108326,-38.20578598344248,96.875,3.14817340717992,0.1,0.00852060317993164,0.1843430995941162,0.04815796,0.028018812,503.5468404686817,-0.3657566635198539,5.1236301259437775,96.875,9600,1.2678501605987549,0.03104244364777243,0.023121176149075353,652.1422789455463,93.75
263,1.662482500076294,519.4925155237039,215.98438557039051,764.3660881269041,-23.43592616746428,95.83333333333333,3.2359354351601013,0.1,0.008989572525024414,0.1922779083251953,0.04809735,0.027984086,505.14140797418395,-0.36109443431161165,5.189647979981682,95.83333333333333,9600,1.2877204418182373,0.03830523764689242,0.02683172014951392,658.25811221236,100.0
264,1.7578003406524658,495.3102990866973,219.07882138093854,762.3387100374339,-104.71185978052704,92.70833333333333,2.7391565621596747,0.1,0.0087432861328125,0.1858062744140625,0.045133706,0.031154873,504.15829708543527,-0.37802194305403775,4.948700775457998,92.70833333333333,9600,1.3125126361846924,0.038710007085106184,0.027868932259117185,671.473959856799,100.0
265,1.6806795597076416,505.6616313998752,222.00522114881642,752.2446691025636,-1.722292206751479,92.70833333333333,2.914434548035383,0.1,0.008849382400512695,0.18770503997802734,0.048426945,0.03644714,504.30863051687925,-0.3684535948576005,5.051777767975493,92.70833333333333,9600,1.2594568729400635,0.03597194920910054,0.025673396640341514,644.3784999548286,100.0
266,1.686371088027954,516.9224134184625,184.17846955294115,738.2416588640338,-53.67222675795587,98.95833333333333,3.045741736529954,0.1,0.008608818054199219,0.19499421119689941,0.048533473,0.033179767,505.57000880703754,-0.36793668519923717,5.163019485238114,98.95833333333333,9600,1.2559592723846436,0.03771540148412579,0.024669471066537656,660.0858103913388,93.75
267,1.6980206966400146,540.2712714530621,188.52719990840052,756.0041902822579,16.752196637295164,97.91666666666667,3.1023120729090903,0.1,0.008913755416870117,0.19066071510314941,0.049701735,0.03112446,509.04013507164,-0.35423370808425975,5.397438232331223,97.91666666666667,9600,1.270082950592041,0.029816010915450105,0.02176115889242552,657.6374674362851,100.0
268,1.7903227806091309,514.0437150348399,194.9244194781918,763.4148265378503,-9.199593377836653,85.41666666666667,2.798175133265917,0.1,0.00835108757019043,0.18478965759277344,0.048903234,0.034596063,509.54049306796,-0.3647903849814657,5.136018456634486,85.41666666666667,9600,1.3401744365692139,0.033251588389307724,0.0207568254464919,649.1859520729038,100.0
269,1.6852760314941406,509.07929458851004,210.54506863183937,748.6411076975917,-65.59067576490654,94.79166666666667,3.096947559340487,0.1,0.008997917175292969,0.1909170150756836,0.049625285,0.031301524,509.49437322001506,-0.36785741823569884,5.0864179952839494,94.79166666666667,9600,1.2891242504119873,0.03991623496821686,0.03289659006985337,649.371552954627,100.0
270,1.690256118774414,506.1543473483985,206.7283621247693,752.8048049872333,-45.41391761254931,93.75,2.7230574647192793,0.1,0.008602142333984375,0.19788074493408203,0.045846246,0.032401573,509.1603706328534,-0.3691213166636566,5.056710505422696,93.75,9600,1.2440698146820068,0.03908165007903286,0.0232869539297115,658.4997172073703,100.0
271,1.752974510192871,542.9811759074837,197.57392864314556,752.1006609127546,-3.5656042459770596,95.83333333333333,2.9128828108343914,0.1,0.009110450744628906,0.19841456413269043,0.048066255,0.031837612,512.5424511603164,-0.351236115090179,5.423626721514978,95.83333333333333,9600,1.2900803089141846,0.034819348559778814,0.027321046989595973,684.5813320573507,100.0
272,1.7591705322265625,560.1254367279321,171.17038733460006,759.0239618727549,-17.225914357166968,93.75,3.040557813176368,0.1,0.009003162384033203,0.1975705623626709,0.040991712,0.023538169,517.300749717078,-0.3444051991758221,5.595519611847924,93.75,9600,1.3218176364898682,0.032274726153262975,0.024742599095246964,684.3026810786823,100.0
273,1.8284757137298584,479.27254536080267,220.87104308343189,760.7249123690372,-57.77667028161882,92.70833333333333,2.9467412617433353,0.1,0.009851455688476562,0.20310711860656738,0.05038763,0.029816326,513.4979292814505,-0.3878032811253444,4.789194073503008,92.70833333333333,9600,1.3310997486114502,0.04493504629927212,0.02891352911099732,674.3407991508197,100.0
274,1.6649341583251953,540.9944243919384,175.63232811081846,765.378747829293,95.97610084194385,95.83333333333333,2.9006654577213786,0.1,0.008263349533081055,0.19063448905944824,0.04900476,0.035734415,516.2475787924993,-0.35259918688220093,5.404256613780674,95.83333333333333,9600,1.31587553024292,0.02620250532541015,0.019473256367961368,672.0901315483071,100.0
275,1.6763155460357666,541.2738556509853,202.06018930491516,748.5109477733478,-45.306488750804135,91.66666666666667,2.9240108183416833,0.1,0.00862431526184082,0.18777084350585938,0.048365775,0.031571805,518.750206478348,-0.35860061565253626,5.407025327642636,91.66666666666667,9600,1.2958672046661377,0.03429276402365882,0.027651726092387304,663.2159348122924,100.0
276,1.665055274963379,502.3800803651904,207.77827185967203,745.6140526647674,-53.985304138414264,93.75,2.7834875525664757,0.1,0.00991964340209961,0.19849658012390137,0.049048077,0.034326028,517.1131938670322,-0.3763407781479557,5.0189854609664915,93.75,9600,1.318617343902588,0.031480103361785146,0.0215139597522798,672.7218315375026,100.0
277,1.6784462928771973,511.029190138795,184.2067168835485,737.1621487188446,31.301941842659097,96.875,2.973223629380175,0.1,0.008838176727294922,0.19565558433532715,0.04761328,0.03110418,516.5047934942086,-0.37252240013597415,5.105423422856447,96.875,9600,1.346440315246582,0.04222977613751357,0.0314829736195405,675.9166888376826,100.0
278,1.8091020584106445,520.4612682884475,176.3487667493394,754.8086781532339,58.781570080441774,92.70833333333333,2.945610697143284,0.1,0.009458780288696289,0.20043540000915527,0.047829334,0.031830058,516.9004409736325,-0.361862081334827,5.199311636494946,92.70833333333333,9600,1.3064663410186768,0.03484806808463703,0.022536022916250786,663.6313887511578,100.0
279,1.6941914558410645,509.89594961438024,199.0256783317897,748.8949622869521,-50.466944545054915,93.75,3.223914886274639,0.1,0.008829832077026367,0.18972396850585938,0.04817986,0.030239852,516.1999918377073,-0.37012137278886614,5.093200513457229,93.75,9600,1.3025100231170654,0.04105015444546014,0.029143429431782393,638.5779231035947,93.75
280,1.6833701133728027,525.805895480742,194.64485746479582,744.5028873887101,-41.876853625785834,97.91666666666667,2.7944533532412805,0.1,0.00862431526184082,0.19101309776306152,0.047900174,0.03162289,517.1605822020108,-0.3626518396308856,5.2522922311024205,97.91666666666667,9600,1.2765650749206543,0.042324046909231985,0.02508413270443585,624.1776655753965,93.75
281,1.6810920238494873,525.6683613015128,180.5308833067126,742.710589409259,16.22241740088153,98.95833333333333,2.687385310816424,0.1,0.00870060920715332,0.19197654724121094,0.048131853,0.03515687,518.011360111961,-0.3600574580332529,5.250953687254396,98.95833333333333,9600,1.3172147274017334,0.028944530826417094,0.02110677566968946,636.2174890598928,93.75
282,1.8799796104431152,522.2431977027868,183.61134380806513,760.5757109084166,-28.659985963284733,96.875,2.798447368299552,0.1,0.008757591247558594,0.19310426712036133,0.046819925,0.035267346,518.4345438710436,-0.36499828671255474,5.21800570882407,96.875,9600,1.3409154415130615,0.0425309547448092,0.03164625616086675,637.4721005081165,93.75
283,1.6837952136993408,550.1328573100195,174.48833331896273,762.400733911562,-26.352074092234226,95.83333333333333,2.638461692843561,0.1,0.008590221405029297,0.18659353256225586,0.047879476,0.038383532,521.6043752149412,-0.34838559442443134,5.496477358116095,95.83333333333333,9600,1.340538501739502,0.020575194220151194,0.015812842863314705,639.5351136504746,93.75
284,1.689072608947754,539.8594792743764,182.61855340385318,756.1329807803651,-39.93481038893873,92.70833333333333,3.245801156183991,0.1,0.008337020874023438,0.20240378379821777,0.04647383,0.027885564,523.4298856208848,-0.34789243502510053,5.394674776571544,92.70833333333333,9600,1.3185338973999023,0.02585747628279585,0.017352722169103996,646.289093346384,93.75
285,1.7671277523040771,551.9849338555581,168.81102473080637,766.0890400662283,19.21297066365154,95.83333333333333,2.973729237083489,0.1,0.00871729850769043,0.19698572158813477,0.04810668,0.03315309,526.2853904443521,-0.3453351595662393,5.514535831604083,95.83333333333333,9600,1.319864273071289,0.028316181387454266,0.020569455047448136,657.6610148418486,93.75
286,1.672283411026001,536.8882347404352,179.17489481067653,751.6338946184604,33.67181853035201,96.875,2.873978426691248,0.1,0.00876760482788086,0.1935882568359375,0.046478175,0.03614619,527.3456748739604,-0.35369091077656156,5.36403413998027,96.875,9600,1.312901496887207,0.028973378109653183,0.025028254513830495,660.8262837776001,93.75
287,1.6615808010101318,474.81436644341585,201.07894511574517,766.9697007579715,-21.453839772344313,92.70833333333333,2.7691095340200604,0.1,0.01025247573852539,0.20258450508117676,0.047414754,0.03435105,522.092544030906,-0.38448918523814396,4.741976526214477,92.70833333333333,9600,1.3626320362091064,0.05339913965927116,0.031927635976209824,630.4280783695347,93.75
288,1.7522897720336914,507.5395482127067,195.47130615684446,764.217188969734,-1.1384966124708944,94.79166666666667,3.312778515567849,0.1,0.0089111328125,0.19480466842651367,0.043121077,0.026064636,520.637244449086,-0.3697985949813396,5.069244202623595,94.79166666666667,9600,1.3626413345336914,0.036510061594559926,0.030089985368193368,630.8903537427875,93.75
289,1.7051384449005127,573.7679790061148,163.39464679050045,753.0152951482145,13.499233359498321,96.875,3.2168307735874024,0.1,0.008638858795166016,0.18618535995483398,0.04665172,0.029265815,525.9503179047889,-0.3307100193983396,5.731537755223333,96.875,9600,1.3188729286193848,0.025697293163845687,0.016340129536410477,659.1811160449065,93.75
290,1.6776251792907715,535.9249290288852,180.54692121540788,766.9582557998846,-17.485686418609284,96.875,3.3683648863871576,0.1,0.008686304092407227,0.19568300247192383,0.049102534,0.02858014,526.9477790171986,-0.3522099516085979,5.353955027927097,96.875,9600,1.318185567855835,0.04065328267038545,0.027075574050152415,620.1317169112492,93.75
291,1.6676721572875977,529.8594854914812,186.46887399266745,746.705725783686,-31.638520137222578,96.875,2.8593161406659995,0.1,0.00875544548034668,0.1932532787322998,0.04549199,0.031180562,527.2389496646268,-0.35961857007406595,5.294615675199169,96.875,9600,1.30186128616333,0.023210049149878276,0.01677003345440069,601.4927028701784,93.75
292,1.7488861083984375,534.9716397063361,176.8475658678569,735.3145941754736,53.03214744124316,93.75,3.566446372930859,0.1,0.0096588134765625,0.2048184871673584,0.046306934,0.026552016,528.0122186687977,-0.3532671849918196,5.34526058542929,93.75,9600,1.3402211666107178,0.02925695157698875,0.019332530401434372,607.7182817487515,87.5
293,1.6881613731384277,518.2018101090565,183.09830506326801,753.6340911005226,-6.670093978137151,98.95833333333333,3.084875496492131,0.1,0.00899648666381836,0.19578886032104492,0.045048468,0.029025864,527.0311778128236,-0.3659488757246918,5.1766885871303865,98.95833333333333,9600,1.368152141571045,0.030594805513724028,0.020573734288219566,627.5761970848789,93.75
294,1.715639591217041,537.1681480901417,172.60624781561546,764.1248318543182,17.33748861895815,95.83333333333333,3.321683554816175,0.1,0.008713245391845703,0.190171480178833,0.046981417,0.027898729,528.0448748405554,-0.35384534752848773,5.365504337507397,95.83333333333333,9600,1.3496296405792236,0.02159665547929634,0.014730121706128124,614.0090559721023,87.5
295,1.659590482711792,559.4924418103863,161.78403339761587,753.5168397698822,5.714792055216314,97.91666666666667,2.4952380787802366,0.1,0.008465290069580078,0.1888902187347412,0.047664545,0.037174504,531.1896315375385,-0.3447999180852284,5.589179130690101,97.91666666666667,9600,1.3256213665008545,0.02830972934432334,0.021662183869042437,614.8345490984013,93.75
296,1.6765239238739014,504.2921982042015,203.05046624815753,754.5000081331636,29.144282098116175,93.75,2.9063567388059592,0.1,0.008691549301147461,0.18916106224060059,0.04877385,0.031195777,528.4998882042048,-0.37130284366422234,5.037201409424212,93.75,9600,1.3397061824798584,0.0403015775137185,0.022403319917506843,622.0596188677226,87.5
297,1.7078161239624023,526.7326747719885,176.9368783134756,733.893045982948,16.850046893346608,94.79166666666667,2.893587067496743,0.1,0.008528709411621094,0.19059300422668457,0.050561246,0.03433903,528.3231668609832,-0.3604533631153439,5.261146014125646,94.79166666666667,9600,1.3413827419281006,0.03730958927687521,0.02570436349902808,633.5334540834915,93.75
298,1.6718568801879883,535.5008784649582,182.35210697370889,742.7873246652193,-11.280451084892857,93.75,3.296785358031715,0.1,0.011622428894042969,0.22707343101501465,0.04894454,0.03159083,529.0409380213807,-0.3560954418080513,5.351054705744353,93.75,9600,1.3782784938812256,0.033406996216188575,0.02266631922473411,645.0053649905282,93.75
299,1.7717065811157227,538.0510966204935,186.3684973118381,745.5188134968542,-33.154656476413166,94.79166666666667,3.132053389346305,0.1,0.009640216827392578,0.19879531860351562,0.04672556,0.030449877,529.941953881292,-0.35668471768476256,5.375233481770646,94.79166666666667,9600,1.3669216632843018,0.029280750444615034,0.01799555704224702,630.6810420875456,93.75
300,1.6949381828308105,559.311516983778,172.22291470519863,738.6037541699628,-21.414601338368527,95.83333333333333,3.319077155259272,0.1,0.008263111114501953,0.17896556854248047,0.04534453,0.026487727,532.8789101915406,-0.3424321571928808,5.5886784224773605,95.83333333333333,9600,1.340792179107666,0.024071953971075186,0.01900316262607542,620.2652085627045,93.75
301,1.6629846096038818,535.332005985147,175.04843286678525,742.2805828221095,-2.214843519557677,96.875,2.754308674651136,0.1,0.00845956802368164,0.18692278861999512,0.046152774,0.030755168,533.1242197709013,-0.35234086791625036,5.348907770881504,96.875,9600,1.3250551223754883,0.030154335511570582,0.022063208236216148,596.4202937603445,87.5
302,1.7069778442382812,551.0795000263207,175.1476597987169,738.5958961113612,-11.42527683187563,98.95833333333333,3.10127330240222,0.1,0.00854945182800293,0.1890854835510254,0.044171758,0.027256146,534.9197477964432,-0.3487091001394405,5.505935436932309,98.95833333333333,9600,1.2981646060943604,0.026292284737495192,0.01838490668187898,598.3893759902473,87.5
303,1.6785638332366943,535.484340594547,185.86977528636086,756.9675776059375,0.5400043573345656,97.91666666666667,2.682029600755262,0.1,0.008593559265136719,0.18876862525939941,0.046533838,0.031140408,534.9762070762536,-0.35532730320678946,5.349551942189529,97.91666666666667,9600,1.2769129276275635,0.026673619747551103,0.019014489758252706,601.9624334614041,87.5
304,1.7388570308685303,557.6108363381068,178.21481682142337,762.3717672795135,-1.0597080146328268,96.875,3.207726256496772,0.1,0.010886192321777344,0.20100736618041992,0.04946608,0.030547468,537.2396700024389,-0.34467961049577694,5.570803934415905,96.875,9600,1.3347721099853516,0.02092979155988674,0.016077180758667195,601.5723507956112,93.75
305,1.7614331245422363,524.7617394099851,192.96898303201957,735.4068149005104,-5.733017567327087,93.75,2.9425498063775466,0.1,0.008651018142700195,0.19456195831298828,0.04523048,0.027307726,535.9918769431935,-0.3608140692807959,5.244528389181095,93.75,9600,1.309204339981079,0.03147968442024379,0.023486226520163335,612.688300173074,93.75
306,1.6785235404968262,554.2332564571251,178.5778167976965,752.8713769609562,36.59687910660609,98.95833333333333,2.627871819353846,0.1,0.008469581604003906,0.18678569793701172,0.04801108,0.035196025,537.8160148945867,-0.3458256768578896,5.536578155194143,98.95833333333333,9600,1.2867813110351562,0.026642643706519985,0.0173561945913677,599.673939190283,93.75
307,1.6803042888641357,553.976142471803,174.92799516588863,770.2698704437192,21.118609474061117,94.79166666666667,3.125750500766611,0.1,0.008649110794067383,0.18806958198547363,0.048528355,0.03203853,539.4320276523084,-0.3418121598545614,5.5340371122615215,94.79166666666667,9600,1.268864631652832,0.02788555714138478,0.012545665363349537,599.0842652662286,93.75
308,1.6681034564971924,530.4593635543052,187.4782303107077,744.5137098031133,-16.362756456003147,94.79166666666667,2.704440927174929,0.1,0.008907318115234375,0.19352030754089355,0.047804244,0.03743219,538.5347612425081,-0.3559078771114194,5.300609500100612,94.79166666666667,9600,1.2515230178833008,0.032820821580367726,0.024020214728973626,585.2406726591814,93.75
309,1.6759731769561768,530.0765827730821,197.32828429550867,761.3743471420357,-3.2993616025299404,96.875,2.968944028325952,0.1,0.009154319763183594,0.1925499439239502,0.04857938,0.03512441,537.6889433955655,-0.35744366664597055,5.295504645759319,96.875,9600,1.3133039474487305,0.03796200439453401,0.0226249836810645,609.7411825322479,93.75
310,1.7174592018127441,571.1818956813196,157.18553128405702,740.7543433706628,115.82352923293492,97.91666666666667,2.962664238644073,0.1,0.008934736251831055,0.19400882720947266,0.046038844,0.030183127,541.038238624141,-0.3332004129499077,5.706054760243727,97.91666666666667,9600,1.2931890487670898,0.020291651287096944,0.012930569056951743,592.5922979851804,93.75
311,1.7023422718048096,540.7359862772282,184.01580814519002,758.8304729098297,-28.73739620817618,94.79166666666667,3.124687873763144,0.1,0.008301019668579102,0.18659067153930664,0.049489092,0.028197937,541.0080133894497,-0.34922613648332446,5.402516599664049,94.79166666666667,9600,1.234004020690918,0.03434421218799838,0.023223980318741615,620.7055273484043,93.75
312,1.8102688789367676,576.6723298771147,168.66012366644807,741.2567148380456,30.97875152526576,98.95833333333333,3.3174774927426958,0.1,0.008867979049682617,0.19118213653564453,0.04864166,0.029858697,544.5744450382163,-0.3357052178468319,5.7601082276366435,98.95833333333333,9600,1.2413012981414795,0.0231050079553861,0.01673894313816976,623.3411238514328,93.75
313,1.6885697841644287,539.5955619522579,200.95915565025174,756.5646046081742,-26.508486945581243,94.79166666666667,2.8117753723611596,0.1,0.009065866470336914,0.19486451148986816,0.048496023,0.03116414,544.0765567296205,-0.3489285329337542,5.391543018312727,94.79166666666667,9600,1.2479698657989502,0.027006887392323216,0.019268757137231397,611.8742868003936,93.75
314,1.6825628280639648,555.894741321494,165.4871977893505,742.5243329244621,40.81767770169741,100.0,3.014509140550559,0.1,0.009986400604248047,0.20280933380126953,0.048444282,0.03199563,545.2583751888078,-0.3459969388078092,5.55365707299985,100.0,9600,1.2886369228363037,0.022164071611690518,0.01554600791365553,622.7448225452355,93.75
315,1.6724226474761963,522.1944815979574,184.65926015782614,763.5809925885629,28.468996024621717,97.91666666666667,2.6277194699967383,0.1,0.009298086166381836,0.19844675064086914,0.051409606,0.040317155,542.9519858297227,-0.3603192000751696,5.216189411387911,97.91666666666667,9600,1.3321278095245361,0.035783272130126144,0.025193143994913424,620.9986055428119,93.75
316,1.6689040660858154,556.262327136635,184.736677377388,747.6950203782787,53.734945477534545,96.875,3.09897740069307,0.1,0.008630037307739258,0.19617462158203125,0.04912888,0.03189651,544.283019960414,-0.3389039077798477,5.555558478573684,96.875,9600,1.3176310062408447,0.025788660746664943,0.019378188771153732,638.0775611438436,100.0
317,1.6619791984558105,534.2012047300899,189.41832385327228,745.2938922806627,-11.07168903409922,93.75,2.346420467623843,0.1,0.008582592010498047,0.19196557998657227,0.050463643,0.03855566,543.2748384373816,-0.35247563000740545,5.337603660652569,93.75,9600,1.2654938697814941,0.04056102918422792,0.02889715382235,669.6187257221559,100.0
318,1.6967473030090332,556.7025781701285,170.83107792962346,765.4976741705126,13.023484501132964,96.875,2.934152164665156,0.1,0.009578704833984375,0.21029949188232422,0.045206,0.033828594,544.6176124106563,-0.3420369732230976,5.5613269788999515,96.875,9600,1.2917602062225342,0.034991610608586424,0.019485326411084043,661.2654510100799,100.0
319,1.7392354011535645,562.9716141408954,179.61540942129656,756.5934685838183,-17.223502236548313,98.95833333333333,3.1389212392577193,0.1,0.009413719177246094,0.1949455738067627,0.047899444,0.030199016,546.4530125836802,-0.33408468577301464,5.624859394977705,98.95833333333333,9600,1.2896857261657715,0.02975569055671199,0.021899701127488392,680.2936603599668,100.0
320,1.6523470878601074,546.9467482684031,176.45042019932663,739.5513325861211,90.3907017971065,97.91666666666667,2.898577267411859,0.1,0.008984804153442383,0.19320297241210938,0.05032027,0.032745946,546.5023861521526,-0.3464643369102925,5.46419693933307,97.91666666666667,9600,1.3273966312408447,0.024248562065676757,0.016928191280089537,668.8279829908373,100.0
321,1.6926991939544678,592.9792731218896,158.8799520849396,772.8463888412663,112.99830424820317,98.95833333333333,2.756396258518599,0.1,0.008844852447509766,0.1947035789489746,0.04469683,0.032008506,551.1500748491262,-0.32499077344924815,5.923564415464161,98.95833333333333,9600,1.2632896900177002,0.021634551918927016,0.015504737251919639,681.5878324017706,100.0
322,1.6772046089172363,558.5732652851339,167.8072476663092,758.8860797460867,71.99280053567895,97.91666666666667,3.38692340824807,0.1,0.008472919464111328,0.18557310104370117,0.044206783,0.026937434,551.892393892727,-0.34071098770486724,5.5790938386597375,97.91666666666667,9600,1.233741283416748,0.03167887299589976,0.024057808012731434,692.5180461846556,100.0
323,1.688081979751587,532.639792071173,177.9767712673564,768.4686806158103,20.905738989389874,96.875,3.008167456531346,0.1,0.008613109588623047,0.1862180233001709,0.043571785,0.027836721,549.9671337105716,-0.3514526859375944,5.321543741182272,96.875,9600,1.2288172245025635,0.03782952028279344,0.02659559632515575,692.8316624052069,100.0
324,1.6711671352386475,550.8443638654321,178.12464648398185,740.0511596315251,-7.811915833082082,96.875,3.0268744763499837,0.1,0.009889602661132812,0.20184779167175293,0.047441565,0.03415262,550.0548567260577,-0.34222803079529235,5.50311878903321,96.875,9600,1.2299699783325195,0.02929690638240478,0.023112774187587753,689.112243309185,100.0
325,1.701308012008667,560.4081826663833,172.97326590353137,761.1712525056914,51.17125276226916,95.83333333333333,3.011546685593233,0.1,0.008781194686889648,0.1902925968170166,0.047733508,0.032140393,551.0901893200903,-0.34648421750283126,5.5992004019330155,95.83333333333333,9600,1.275292158126831,0.03209627805574848,0.02031336032912198,690.3567698160557,100.0
326,1.776932716369629,565.7279307834416,160.85885694497327,762.6588316273726,37.897313705449086,96.875,2.63049311117639,0.1,0.008720874786376953,0.1927964687347412,0.049322497,0.04670134,552.5539634664254,-0.33787332737888304,5.651541029182742,96.875,9600,1.2931523323059082,0.027317805620034278,0.018596621786200435,667.1071894183062,100.0
327,1.678124189376831,572.8308615021888,156.70602828452095,750.1261788034681,-59.3411403075143,96.875,3.2486831450347133,0.1,0.010348081588745117,0.21040940284729004,0.041927226,0.026936037,554.5816532700018,-0.33680676570638823,5.7242785026360465,96.875,9600,1.276878833770752,0.03425704334089921,0.02329399742294878,678.896239521276,100.0
328,1.7072851657867432,549.4642160087639,172.9595134275018,735.49476965732,31.778537043733298,97.91666666666667,2.742737080530782,0.1,0.008634567260742188,0.19149041175842285,0.0471722,0.034998424,554.069909543878,-0.34464079527330377,5.488904286301846,97.91666666666667,9600,1.265305757522583,0.036962456901337,0.02466571991508867,631.6520226567857,93.75
329,1.666130781173706,535.0458323488734,195.18798472814169,750.0345733325204,-34.417703634920706,97.91666666666667,3.010531238521526,0.1,0.009099006652832031,0.1922464370727539,0.049140394,0.03590594,552.1675018243776,-0.35437917908668104,5.344272993152796,97.91666666666667,9600,1.292959213256836,0.04674068440447293,0.02670804275667887,624.9441431713933,93.75
330,1.6762683391571045,554.3460061183022,170.1496075753759,763.5740740060734,95.43377788103207,97.91666666666667,2.891804381023187,0.1,0.0087890625,0.18924379348754883,0.04735871,0.032400355,552.3853522537701,-0.34117824023237264,5.538151872516242,97.91666666666667,9600,1.2761940956115723,0.034068288325032246,0.02307758891233846,656.0532596964381,100.0
331,1.6631057262420654,554.3846395464121,176.8342059276002,773.8575788194454,-4.476122938593281,96.875,3.194496044250547,0.1,0.008608102798461914,0.19147944450378418,0.04352111,0.025082448,552.5852809830343,-0.3439214970798523,5.5385554907044,96.875,9600,1.2717177867889404,0.02672294467347045,0.01981222155189296,657.7918489356329,100.0
332,1.6871659755706787,533.721490017033,163.87695740256117,746.0626624575245,89.1878420893051,94.79166666666667,3.015334803181685,0.1,0.008720159530639648,0.18697309494018555,0.04590016,0.031040808,550.6989018864342,-0.3562847758596554,5.3322814812345785,94.79166666666667,9600,1.2335100173950195,0.033538203414120595,0.023806980088979912,654.7051791582544,100.0
333,1.8192572593688965,531.9643131315802,171.50458988910887,761.914974378903,16.75637717494495,100.0,3.054301166938943,0.1,0.009505987167358398,0.20714831352233887,0.04582165,0.030788038,548.8254430109488,-0.3559425049157592,5.312992102238603,100.0,9600,1.2379872798919678,0.0519564862515609,0.03482581611294983,645.6376894321187,100.0
334,1.6689953804016113,572.8273651796208,148.95444551546262,759.1944798163812,-28.543465891260162,96.875,3.1821661902686427,0.1,0.00861048698425293,0.18713927268981934,0.04023101,0.028142974,551.225635227816,-0.3353267785688634,5.724751902365412,96.875,9600,1.2345471382141113,0.03059214393525682,0.017853969099261832,636.6047887689967,100.0
