Iter | Sampling Pol | Evaluation Pol | Best (Sampled) 
   0 -219.45 -220.50 -100000000.00 
   1 -219.69 -218.78 -219.45 
   2 -218.63 -219.27 -219.45 
   3 -218.38 -218.98 -218.63 
   4 -218.64 -219.70 -218.38 
   5 -218.89 -218.53 -218.38 
   6 -218.63 -219.02 -218.38 
   7 -218.83 -217.24 -218.38 
   8 -217.83 -216.90 -218.38 
   9 -217.20 -215.75 -217.83 
  10 -216.10 -214.49 -217.20 
  11 -215.07 -214.11 -216.10 
  12 -214.49 -213.52 -215.07 
  13 -213.74 -213.28 -214.49 
  14 -213.43 -213.10 -213.74 
  15 -212.90 -213.07 -213.43 
  16 -212.81 -213.08 -212.90 
  17 -212.60 -213.07 -212.81 
  18 -212.58 -212.98 -212.60 
  19 -212.38 -212.71 -212.58 
  20 -212.04 -212.04 -212.38 
  21 -211.46 -211.60 -212.04 
  22 -211.04 -210.31 -211.46 
  23 -209.98 -209.07 -211.04 
  24 -209.00 -207.47 -209.98 
  25 -207.93 -205.62 -209.00 
  26 -206.83 -203.93 -207.93 
  27 -205.84 -202.56 -206.83 
  28 -204.95 -202.22 -205.84 
  29 -203.95 -201.99 -204.95 
  30 -203.15 -201.84 -203.95 
  31 -202.68 -201.74 -203.15 
  32 -202.58 -201.53 -202.68 
  33 -202.17 -201.44 -202.58 
  34 -201.97 -201.30 -202.17 
  35 -201.76 -201.29 -201.97 
  36 -201.66 -201.24 -201.76 
  37 -201.61 -201.22 -201.66 
  38 -201.65 -201.22 -201.61 
  39 -201.51 -201.20 -201.61 
  40 -201.45 -201.19 -201.51 
  41 -201.42 -201.18 -201.45 
  42 -201.36 -201.17 -201.42 
  43 -201.30 -201.14 -201.36 
  44 -201.27 -201.15 -201.30 
  45 -201.29 -201.12 -201.27 
  46 -201.20 -201.10 -201.27 
  47 -201.22 -201.09 -201.20 
  48 -201.16 -201.09 -201.20 
  49 -201.16 -201.10 -201.16 
  50 -201.20 -201.08 -201.16 
  51 -201.18 -201.08 -201.16 
  52 -201.16 -201.07 -201.16 
  53 -201.18 -201.07 -201.16 
  54 -201.17 -201.05 -201.16 
  55 -201.16 -201.06 -201.16 
  56 -201.18 -201.06 -201.16 
  57 -201.14 -201.05 -201.16 
  58 -201.13 -201.04 -201.14 
  59 -201.13 -201.03 -201.13 
  60 -201.09 -201.04 -201.13 
  61 -201.09 -201.02 -201.09 
  62 -201.06 -201.01 -201.09 
  63 -201.07 -201.01 -201.06 
  64 -201.07 -201.01 -201.06 
  65 -201.04 -201.00 -201.06 
  66 -201.03 -200.99 -201.04 
  67 -201.01 -200.99 -201.03 
  68 -200.99 -200.99 -201.01 
  69 -201.01 -200.99 -200.99 
  70 -201.00 -200.99 -200.99 
  71 -201.00 -200.98 -200.99 
  72 -200.97 -200.96 -200.99 
  73 -200.94 -200.96 -200.97 
  74 -200.95 -200.96 -200.94 
  75 -200.95 -200.95 -200.94 
  76 -200.91 -200.95 -200.94 
  77 -200.91 -200.95 -200.91 
  78 -200.90 -200.94 -200.91 
  79 -200.87 -200.93 -200.90 
  80 -200.92 -200.93 -200.87 
  81 -200.91 -200.93 -200.87 
  82 -200.89 -200.92 -200.87 
  83 -200.87 -200.92 -200.87 
  84 -200.84 -200.91 -200.87 
  85 -200.84 -200.91 -200.84 
  86 -200.87 -200.91 -200.84 
  87 -200.89 -200.90 -200.84 
  88 -200.88 -200.91 -200.84 
  89 -200.89 -200.91 -200.84 
  90 -200.90 -200.90 -200.84 
  91 -200.89 -200.91 -200.84 
  92 -200.89 -200.91 -200.84 
  93 -200.91 -200.91 -200.84 
  94 -200.89 -200.91 -200.84 
  95 -200.89 -200.92 -200.84 
  96 -200.89 -200.91 -200.84 
  97 -200.90 -200.91 -200.84 
  98 -200.89 -200.90 -200.84 
  99 -200.89 -200.90 -200.84 
 100 -200.87 -200.89 -200.84 
 101 -200.86 -200.89 -200.84 
 102 -200.85 -200.90 -200.84 
 103 -200.85 -200.89 -200.84 
 104 -200.87 -200.89 -200.84 
 105 -200.88 -200.89 -200.84 
 106 -200.86 -200.89 -200.84 
 107 -200.85 -200.90 -200.84 
 108 -200.89 -200.89 -200.84 
 109 -200.88 -200.89 -200.84 
 110 -200.88 -200.88 -200.84 
 111 -200.87 -200.88 -200.84 
 112 -200.86 -200.88 -200.84 
 113 -200.86 -200.88 -200.84 
 114 -200.84 -200.88 -200.84 
 115 -200.85 -200.88 -200.84 
 116 -200.85 -200.88 -200.84 
 117 -200.85 -200.88 -200.84 
 118 -200.86 -200.88 -200.84 
 119 -200.85 -200.88 -200.84 
 120 -200.89 -200.88 -200.84 
 121 -200.90 -200.88 -200.84 
 122 -200.91 -200.88 -200.84 
 123 -200.90 -200.88 -200.84 
 124 -200.91 -200.89 -200.84 
 125 -200.93 -200.90 -200.84 
 126 -200.95 -200.90 -200.84 
 127 -200.97 -200.91 -200.84 
 128 -200.97 -200.92 -200.84 
 129 -200.96 -200.91 -200.84 
 130 -200.96 -200.91 -200.84 
 131 -200.95 -200.91 -200.84 
 132 -200.97 -200.91 -200.84 
 133 -200.95 -200.91 -200.84 
 134 -200.95 -200.90 -200.84 
 135 -200.95 -200.91 -200.84 
 136 -200.95 -200.91 -200.84 
 137 -200.94 -200.93 -200.84 
 138 -200.96 -200.92 -200.84 
 139 -200.96 -200.92 -200.84 
 140 -200.95 -200.92 -200.84 
 141 -200.95 -200.93 -200.84 
 142 -200.95 -200.94 -200.84 
 143 -200.97 -200.94 -200.84 
 144 -200.97 -200.94 -200.84 
 145 -200.97 -200.95 -200.84 
 146 -200.97 -200.95 -200.84 
 147 -200.98 -200.94 -200.84 
 148 -200.97 -200.94 -200.84 
 149 -200.98 -200.94 -200.84 
 150 -200.97 -200.95 -200.84 
 151 -200.99 -200.96 -200.84 
 152 -201.01 -200.97 -200.84 
 153 -201.02 -200.98 -200.84 
 154 -201.02 -200.98 -200.84 
 155 -201.02 -200.98 -200.84 
 156 -201.03 -201.00 -200.84 
 157 -201.07 -201.02 -200.84 
 158 -201.10 -201.04 -200.84 
 159 -201.12 -201.05 -200.84 
 160 -201.14 -201.04 -200.84 
 161 -201.13 -201.05 -200.84 
 162 -201.14 -201.07 -200.84 
 163 -201.15 -201.07 -200.84 
 164 -201.16 -201.08 -200.84 
 165 -201.16 -201.08 -200.84 
 166 -201.16 -201.10 -200.84 
 167 -201.19 -201.09 -200.84 
 168 -201.17 -201.10 -200.84 
 169 -201.16 -201.08 -200.84 
 170 -201.15 -201.12 -200.84 
 171 -201.19 -201.15 -200.84 
 172 -201.22 -201.18 -200.84 
 173 -201.24 -201.18 -200.84 
 174 -201.24 -201.18 -200.84 
 175 -201.23 -201.22 -200.84 
 176 -201.27 -201.23 -200.84 
 177 -201.26 -201.26 -200.84 
 178 -201.29 -201.30 -200.84 
 179 -201.31 -201.25 -200.84 
 180 -201.26 -201.24 -200.84 
 181 -201.26 -201.26 -200.84 
 182 -201.28 -201.27 -200.84 
 183 -201.29 -201.30 -200.84 
 184 -201.30 -201.29 -200.84 
 185 -201.31 -201.34 -200.84 
 186 -201.35 -201.34 -200.84 
 187 -201.33 -201.38 -200.84 
 188 -201.34 -201.39 -200.84 
 189 -201.35 -201.36 -200.84 
 190 -201.32 -201.40 -200.84 
 191 -201.34 -201.46 -200.84 
 192 -201.41 -201.41 -200.84 
 193 -201.33 -201.47 -200.84 
 194 -201.36 -201.44 -200.84 
 195 -201.37 -201.48 -200.84 
 196 -201.41 -201.45 -200.84 
 197 -201.37 -201.50 -200.84 
 198 -201.38 -201.46 -200.84 
 199 -201.37 -201.43 -200.84 
 200 -201.36 -201.46 -200.84 
 201 -201.38 -201.48 -200.84 
 202 -201.41 -201.49 -200.84 
 203 -201.44 -201.55 -200.84 
 204 -201.51 -201.59 -200.84 
 205 -201.56 -201.55 -200.84 
 206 -201.52 -201.56 -200.84 
 207 -201.53 -201.59 -200.84 
 208 -201.58 -201.62 -200.84 
 209 -201.60 -201.59 -200.84 
 210 -201.57 -201.62 -200.84 
 211 -201.58 -201.68 -200.84 
 212 -201.61 -201.75 -200.84 
 213 -201.67 -201.78 -200.84 
 214 -201.69 -201.80 -200.84 
 215 -201.70 -201.82 -200.84 
 216 -201.69 -201.84 -200.84 
 217 -201.72 -201.88 -200.84 
 218 -201.71 -201.92 -200.84 
 219 -201.76 -201.99 -200.84 
 220 -201.81 -201.97 -200.84 
 221 -201.67 -201.93 -200.84 
 222 -201.57 -201.89 -200.84 
 223 -201.35 -201.94 -200.84 
 224 -201.36 -201.91 -200.84 
 225 -201.08 -201.91 -200.84 
 226 -200.87 -201.29 -200.84 
 227 -200.31 -200.65 -200.84 
 228 -199.74 -199.66 -200.31 
 229 -198.86 -198.44 -199.74 
 230 -197.83 -196.79 -198.86 
 231 -196.37 -194.46 -197.83 
 232 -194.28 -191.31 -196.37 
 233 -191.33 -186.29 -194.28 
 234 -187.06 -184.79 -191.33 
 235 -185.52 -184.34 -187.06 
 236 -184.87 -184.69 -185.52 
 237 -184.89 -184.99 -184.87 
 238 -185.07 -185.18 -184.87 
 239 -185.14 -185.14 -184.87 
 240 -185.05 -184.83 -184.87 
 241 -184.79 -184.55 -184.87 
 242 -184.53 -184.61 -184.79 
 243 -184.52 -184.45 -184.53 
 244 -184.37 -184.10 -184.52 
 245 -184.13 -183.91 -184.37 
 246 -183.96 -183.77 -184.13 
 247 -183.89 -183.72 -183.96 
 248 -183.88 -183.76 -183.89 
 249 -183.87 -183.80 -183.88 
 250 -183.92 -183.90 -183.87 
 251 -183.93 -183.91 -183.87 
 252 -183.88 -183.99 -183.87 
 253 -183.93 -183.89 -183.87 
 254 -183.90 -183.63 -183.87 
 255 -183.78 -183.62 -183.87 
 256 -183.77 -183.76 -183.78 
 257 -183.82 -183.91 -183.77 
 258 -183.86 -183.88 -183.77 
 259 -183.88 -183.80 -183.77 
 260 -183.85 -183.98 -183.77 
 261 -183.97 -183.96 -183.77 
 262 -183.93 -184.02 -183.77 
 263 -183.92 -183.91 -183.77 
 264 -183.84 -183.96 -183.77 
 265 -183.89 -183.88 -183.77 
 266 -183.80 -183.83 -183.77 
 267 -183.74 -183.87 -183.77 
 268 -183.78 -183.82 -183.74 
 269 -183.73 -183.67 -183.74 
 270 -183.65 -183.64 -183.73 
 271 -183.64 -183.58 -183.65 
 272 -183.61 -183.66 -183.64 
 273 -183.63 -183.72 -183.61 
 274 -183.66 -183.85 -183.61 
 275 -183.76 -183.84 -183.61 
 276 -183.76 -183.85 -183.61 
 277 -183.73 -183.88 -183.61 
 278 -183.77 -183.79 -183.61 
 279 -183.73 -183.88 -183.61 
 280 -183.81 -183.84 -183.61 
 281 -183.78 -183.91 -183.61 
 282 -183.83 -183.97 -183.61 
 283 -183.85 -184.02 -183.61 
 284 -183.89 -184.07 -183.61 
 285 -183.93 -184.18 -183.61 
 286 -183.98 -184.18 -183.61 
 287 -183.99 -184.20 -183.61 
 288 -184.00 -184.24 -183.61 
 289 -183.99 -184.38 -183.61 
 290 -184.06 -184.43 -183.61 
 291 -184.14 -184.32 -183.61 
 292 -184.02 -184.29 -183.61 
 293 -184.04 -184.22 -183.61 
 294 -183.98 -184.33 -183.61 
 295 -184.02 -184.31 -183.61 
 296 -184.04 -184.24 -183.61 
 297 -184.00 -184.25 -183.61 
 298 -183.96 -184.18 -183.61 
 299 -183.89 -184.12 -183.61 
 300 -183.89 -184.06 -183.61 
 301 -183.84 -183.96 -183.61 
 302 -183.75 -184.13 -183.61 
 303 -183.81 -184.16 -183.61 
 304 -183.82 -184.13 -183.61 
 305 -183.77 -184.14 -183.61 
 306 -183.79 -184.12 -183.61 
 307 -183.73 -184.15 -183.61 
 308 -183.77 -184.18 -183.61 
 309 -183.75 -184.15 -183.61 
 310 -183.72 -184.11 -183.61 
 311 -183.73 -184.22 -183.61 
 312 -183.81 -184.11 -183.61 
 313 -183.71 -184.12 -183.61 
 314 -183.71 -184.23 -183.61 
 315 -183.78 -184.26 -183.61 
 316 -183.83 -184.19 -183.61 
 317 -183.71 -184.50 -183.61 
 318 -183.90 -184.38 -183.61 
 319 -183.86 -184.53 -183.61 
 320 -183.96 -184.68 -183.61 
 321 -184.04 -184.42 -183.61 
 322 -183.90 -184.17 -183.61 
 323 -183.79 -184.15 -183.61 
 324 -183.73 -184.20 -183.61 
 325 -183.73 -184.10 -183.61 
 326 -183.70 -184.04 -183.61 
 327 -183.68 -183.83 -183.61 
 328 -183.60 -183.94 -183.61 
 329 -183.68 -183.97 -183.60 
 330 -183.65 -183.91 -183.60 
 331 -183.64 -183.84 -183.60 
 332 -183.64 -183.85 -183.60 
 333 -183.63 -183.84 -183.60 
 334 -183.61 -183.76 -183.60 
 335 -183.61 -183.74 -183.60 
 336 -183.59 -183.86 -183.60 
 337 -183.66 -184.03 -183.59 
 338 -183.68 -184.12 -183.59 
 339 -183.69 -184.14 -183.59 
 340 -183.73 -184.15 -183.59 
 341 -183.76 -184.16 -183.59 
 342 -183.78 -184.08 -183.59 
 343 -183.67 -184.23 -183.59 
 344 -183.79 -184.17 -183.59 
 345 -183.71 -184.28 -183.59 
 346 -183.77 -184.11 -183.59 
 347 -183.65 -184.04 -183.59 
 348 -183.65 -184.10 -183.59 
 349 -183.69 -184.12 -183.59 
 350 -183.69 -184.02 -183.59 
 351 -183.63 -184.21 -183.59 
 352 -183.74 -184.46 -183.59 
 353 -183.89 -184.44 -183.59 
 354 -183.83 -184.53 -183.59 
 355 -183.92 -184.34 -183.59 
 356 -183.81 -184.20 -183.59 
 357 -183.78 -184.24 -183.59 
 358 -183.73 -184.16 -183.59 
 359 -183.75 -184.11 -183.59 
 360 -183.72 -184.12 -183.59 
 361 -183.70 -184.30 -183.59 
 362 -183.82 -184.25 -183.59 
 363 -183.77 -184.22 -183.59 
 364 -183.75 -184.15 -183.59 
 365 -183.69 -184.01 -183.59 
 366 -183.65 -184.09 -183.59 
 367 -183.67 -184.04 -183.59 
 368 -183.61 -184.00 -183.59 
 369 -183.63 -184.03 -183.59 
 370 -183.61 -184.16 -183.59 
 371 -183.68 -184.05 -183.59 
 372 -183.62 -183.92 -183.59 
 373 -183.58 -184.04 -183.59 
 374 -183.68 -183.94 -183.58 
 375 -183.60 -183.92 -183.58 
 376 -183.62 -183.85 -183.58 
 377 -183.59 -183.98 -183.58 
 378 -183.67 -184.11 -183.58 
 379 -183.74 -184.22 -183.58 
 380 -183.86 -184.22 -183.58 
 381 -183.78 -184.09 -183.58 
 382 -183.72 -184.16 -183.58 
 383 -183.79 -184.16 -183.58 
 384 -183.79 -184.20 -183.58 
 385 -183.78 -184.18 -183.58 
 386 -183.77 -184.24 -183.58 
 387 -183.83 -184.45 -183.58 
 388 -183.99 -184.59 -183.58 
 389 -184.16 -184.50 -183.58 
 390 -184.04 -184.40 -183.58 
 391 -183.97 -184.46 -183.58 
 392 -184.03 -184.44 -183.58 
 393 -184.01 -184.36 -183.58 
 394 -183.94 -184.42 -183.58 
 395 -183.95 -184.33 -183.58 
 396 -183.94 -184.39 -183.58 
 397 -184.01 -184.49 -183.58 
 398 -184.05 -184.46 -183.58 
 399 -183.99 -184.38 -183.58 
 400 -183.93 -184.40 -183.58 
 401 -183.96 -184.43 -183.58 
 402 -183.97 -184.38 -183.58 
 403 -183.95 -184.25 -183.58 
 404 -183.89 -184.32 -183.58 
 405 -183.90 -184.45 -183.58 
 406 -183.98 -184.32 -183.58 
 407 -183.91 -184.16 -183.58 
 408 -183.80 -184.27 -183.58 
 409 -183.88 -184.18 -183.58 
 410 -183.84 -184.32 -183.58 
 411 -183.95 -184.34 -183.58 
 412 -183.98 -184.47 -183.58 
 413 -184.06 -184.51 -183.58 
 414 -184.08 -184.51 -183.58 
 415 -184.10 -184.49 -183.58 
 416 -184.10 -184.45 -183.58 
 417 -184.06 -184.58 -183.58 
 418 -184.18 -184.61 -183.58 
 419 -184.22 -184.56 -183.58 
 420 -184.18 -184.60 -183.58 
 421 -184.24 -184.64 -183.58 
 422 -184.23 -184.55 -183.58 
 423 -184.15 -184.50 -183.58 
 424 -184.16 -184.44 -183.58 
 425 -184.10 -184.39 -183.58 
 426 -184.07 -184.44 -183.58 
 427 -184.11 -184.54 -183.58 
 428 -184.23 -184.60 -183.58 
 429 -184.30 -184.64 -183.58 
 430 -184.36 -184.60 -183.58 
 431 -184.31 -184.64 -183.58 
 432 -184.39 -184.63 -183.58 
 433 -184.39 -184.63 -183.58 
 434 -184.40 -184.65 -183.58 
 435 -184.41 -184.61 -183.58 
 436 -184.37 -184.56 -183.58 
 437 -184.35 -184.62 -183.58 
 438 -184.42 -184.56 -183.58 
 439 -184.37 -184.61 -183.58 
 440 -184.42 -184.62 -183.58 
 441 -184.47 -184.56 -183.58 
 442 -184.39 -184.62 -183.58 
 443 -184.46 -184.53 -183.58 
 444 -184.38 -184.56 -183.58 
 445 -184.40 -184.55 -183.58 
 446 -184.33 -184.54 -183.58 
 447 -184.37 -184.61 -183.58 
 448 -184.43 -184.50 -183.58 
 449 -184.34 -184.54 -183.58 
 450 -184.35 -184.56 -183.58 
 451 -184.39 -184.58 -183.58 
 452 -184.38 -184.60 -183.58 
 453 -184.39 -184.57 -183.58 
 454 -184.33 -184.49 -183.58 
 455 -184.29 -184.47 -183.58 
 456 -184.23 -184.47 -183.58 
 457 -184.24 -184.39 -183.58 
 458 -184.18 -184.40 -183.58 
 459 -184.19 -184.46 -183.58 
 460 -184.27 -184.45 -183.58 
 461 -184.25 -184.49 -183.58 
 462 -184.26 -184.50 -183.58 
 463 -184.30 -184.49 -183.58 
 464 -184.31 -184.49 -183.58 
 465 -184.31 -184.44 -183.58 
 466 -184.27 -184.44 -183.58 
 467 -184.27 -184.41 -183.58 
 468 -184.22 -184.39 -183.58 
 469 -184.23 -184.38 -183.58 
 470 -184.21 -184.32 -183.58 
 471 -184.15 -184.37 -183.58 
 472 -184.20 -184.43 -183.58 
 473 -184.28 -184.43 -183.58 
 474 -184.28 -184.44 -183.58 
 475 -184.29 -184.40 -183.58 
 476 -184.27 -184.38 -183.58 
 477 -184.26 -184.41 -183.58 
 478 -184.28 -184.47 -183.58 
 479 -184.34 -184.56 -183.58 
 480 -184.41 -184.55 -183.58 
 481 -184.43 -184.56 -183.58 
 482 -184.42 -184.55 -183.58 
 483 -184.44 -184.56 -183.58 
 484 -184.44 -184.56 -183.58 
 485 -184.41 -184.64 -183.58 
 486 -184.48 -184.66 -183.58 
 487 -184.49 -184.62 -183.58 
 488 -184.46 -184.64 -183.58 
 489 -184.44 -184.62 -183.58 
 490 -184.44 -184.53 -183.58 
 491 -184.38 -184.56 -183.58 
 492 -184.37 -184.53 -183.58 
 493 -184.38 -184.50 -183.58 
 494 -184.35 -184.38 -183.58 
 495 -184.23 -184.32 -183.58 
 496 -184.17 -184.25 -183.58 
 497 -184.09 -184.21 -183.58 
 498 -184.06 -184.13 -183.58 
 499 -183.99 -184.08 -183.58 
 500 -183.96 -184.17 -183.58 
 501 -184.03 -184.27 -183.58 
 502 -184.12 -184.33 -183.58 
 503 -184.17 -184.30 -183.58 
 504 -184.16 -184.27 -183.58 
 505 -184.12 -184.29 -183.58 
 506 -184.14 -184.29 -183.58 
 507 -184.11 -184.22 -183.58 
 508 -184.06 -184.27 -183.58 
 509 -184.12 -184.21 -183.58 
 510 -184.05 -184.27 -183.58 
 511 -184.12 -184.24 -183.58 
 512 -184.08 -184.31 -183.58 
 513 -184.18 -184.23 -183.58 
 514 -184.10 -184.25 -183.58 
 515 -184.13 -184.28 -183.58 
 516 -184.15 -184.26 -183.58 
 517 -184.11 -184.24 -183.58 
 518 -184.10 -184.30 -183.58 
 519 -184.18 -184.30 -183.58 
 520 -184.19 -184.28 -183.58 
 521 -184.17 -184.23 -183.58 
 522 -184.14 -184.32 -183.58 
 523 -184.20 -184.33 -183.58 
 524 -184.22 -184.39 -183.58 
 525 -184.28 -184.40 -183.58 
 526 -184.30 -184.41 -183.58 
 527 -184.30 -184.34 -183.58 
 528 -184.24 -184.41 -183.58 
 529 -184.31 -184.39 -183.58 
 530 -184.27 -184.49 -183.58 
 531 -184.38 -184.45 -183.58 
 532 -184.34 -184.50 -183.58 
 533 -184.38 -184.52 -183.58 
 534 -184.38 -184.49 -183.58 
 535 -184.34 -184.55 -183.58 
 536 -184.43 -184.46 -183.58 
 537 -184.33 -184.45 -183.58 
 538 -184.32 -184.49 -183.58 
 539 -184.36 -184.45 -183.58 
 540 -184.32 -184.49 -183.58 
 541 -184.34 -184.45 -183.58 
 542 -184.31 -184.41 -183.58 
 543 -184.27 -184.38 -183.58 
 544 -184.22 -184.34 -183.58 
 545 -184.17 -184.40 -183.58 
 546 -184.22 -184.42 -183.58 
 547 -184.23 -184.41 -183.58 
 548 -184.26 -184.36 -183.58 
 549 -184.21 -184.41 -183.58 
 550 -184.24 -184.45 -183.58 
 551 -184.30 -184.40 -183.58 
 552 -184.26 -184.42 -183.58 
 553 -184.27 -184.37 -183.58 
 554 -184.23 -184.37 -183.58 
 555 -184.23 -184.36 -183.58 
 556 -184.20 -184.35 -183.58 
 557 -184.20 -184.35 -183.58 
 558 -184.24 -184.32 -183.58 
 559 -184.17 -184.31 -183.58 
 560 -184.18 -184.29 -183.58 
 561 -184.14 -184.28 -183.58 
 562 -184.13 -184.28 -183.58 
 563 -184.12 -184.28 -183.58 
 564 -184.14 -184.26 -183.58 
 565 -184.11 -184.29 -183.58 
 566 -184.15 -184.36 -183.58 
 567 -184.22 -184.38 -183.58 
 568 -184.23 -184.35 -183.58 
 569 -184.20 -184.39 -183.58 
 570 -184.24 -184.40 -183.58 
 571 -184.23 -184.37 -183.58 
 572 -184.20 -184.38 -183.58 
 573 -184.18 -184.39 -183.58 
 574 -184.20 -184.43 -183.58 
 575 -184.23 -184.44 -183.58 
 576 -184.20 -184.43 -183.58 
 577 -184.20 -184.46 -183.58 
 578 -184.26 -184.45 -183.58 
 579 -184.23 -184.50 -183.58 
 580 -184.27 -184.52 -183.58 
 581 -184.27 -184.60 -183.58 
 582 -184.34 -184.63 -183.58 
 583 -184.38 -184.66 -183.58 
 584 -184.41 -184.70 -183.58 
 585 -184.44 -184.69 -183.58 
 586 -184.48 -184.67 -183.58 
 587 -184.43 -184.69 -183.58 
 588 -184.44 -184.67 -183.58 
 589 -184.44 -184.62 -183.58 
 590 -184.36 -184.67 -183.58 
 591 -184.43 -184.64 -183.58 
 592 -184.43 -184.72 -183.58 
 593 -184.50 -184.65 -183.58 
 594 -184.44 -184.74 -183.58 
 595 -184.52 -184.71 -183.58 
 596 -184.49 -184.73 -183.58 
 597 -184.52 -184.70 -183.58 
 598 -184.50 -184.68 -183.58 
 599 -184.48 -184.64 -183.58 
 600 -184.45 -184.71 -183.58 
 601 -184.52 -184.75 -183.58 
 602 -184.58 -184.79 -183.58 
 603 -184.63 -184.87 -183.58 
 604 -184.72 -184.84 -183.58 
 605 -184.68 -184.84 -183.58 
 606 -184.68 -184.78 -183.58 
 607 -184.61 -184.70 -183.58 
 608 -184.55 -184.67 -183.58 
 609 -184.52 -184.62 -183.58 
 610 -184.48 -184.57 -183.58 
 611 -184.45 -184.55 -183.58 
 612 -184.42 -184.56 -183.58 
 613 -184.43 -184.57 -183.58 
 614 -184.44 -184.57 -183.58 
 615 -184.45 -184.55 -183.58 
 616 -184.44 -184.56 -183.58 
 617 -184.42 -184.60 -183.58 
 618 -184.44 -184.60 -183.58 
 619 -184.44 -184.64 -183.58 
 620 -184.47 -184.65 -183.58 
 621 -184.50 -184.67 -183.58 
 622 -184.53 -184.70 -183.58 
 623 -184.55 -184.70 -183.58 
 624 -184.55 -184.68 -183.58 
 625 -184.55 -184.65 -183.58 
 626 -184.53 -184.62 -183.58 
 627 -184.50 -184.60 -183.58 
 628 -184.51 -184.64 -183.58 
 629 -184.55 -184.60 -183.58 
 630 -184.51 -184.60 -183.58 
 631 -184.51 -184.57 -183.58 
 632 -184.50 -184.54 -183.58 
 633 -184.47 -184.54 -183.58 
 634 -184.43 -184.51 -183.58 
 635 -184.42 -184.49 -183.58 
 636 -184.42 -184.54 -183.58 
 637 -184.48 -184.53 -183.58 
 638 -184.47 -184.48 -183.58 
 639 -184.40 -184.52 -183.58 
 640 -184.44 -184.50 -183.58 
 641 -184.44 -184.49 -183.58 
 642 -184.41 -184.49 -183.58 
 643 -184.43 -184.49 -183.58 
 644 -184.44 -184.45 -183.58 
 645 -184.40 -184.44 -183.58 
 646 -184.42 -184.47 -183.58 
 647 -184.43 -184.45 -183.58 
 648 -184.40 -184.43 -183.58 
 649 -184.38 -184.46 -183.58 
 650 -184.39 -184.47 -183.58 
 651 -184.39 -184.46 -183.58 
 652 -184.38 -184.44 -183.58 
 653 -184.34 -184.46 -183.58 
 654 -184.36 -184.44 -183.58 
 655 -184.36 -184.40 -183.58 
 656 -184.30 -184.40 -183.58 
 657 -184.31 -184.41 -183.58 
 658 -184.31 -184.39 -183.58 
 659 -184.29 -184.34 -183.58 
 660 -184.25 -184.36 -183.58 
 661 -184.26 -184.36 -183.58 
 662 -184.26 -184.36 -183.58 
 663 -184.27 -184.36 -183.58 
 664 -184.28 -184.34 -183.58 
 665 -184.25 -184.36 -183.58 
 666 -184.25 -184.30 -183.58 
 667 -184.20 -184.32 -183.58 
 668 -184.21 -184.38 -183.58 
 669 -184.26 -184.34 -183.58 
 670 -184.21 -184.41 -183.58 
 671 -184.29 -184.47 -183.58 
 672 -184.34 -184.45 -183.58 
 673 -184.30 -184.45 -183.58 
 674 -184.31 -184.46 -183.58 
 675 -184.34 -184.50 -183.58 
 676 -184.38 -184.45 -183.58 
 677 -184.34 -184.44 -183.58 
 678 -184.30 -184.46 -183.58 
 679 -184.29 -184.47 -183.58 
 680 -184.31 -184.49 -183.58 
 681 -184.31 -184.49 -183.58 
 682 -184.28 -184.51 -183.58 
 683 -184.27 -184.51 -183.58 
 684 -184.31 -184.57 -183.58 
 685 -184.35 -184.56 -183.58 
 686 -184.34 -184.54 -183.58 
 687 -184.32 -184.62 -183.58 
 688 -184.39 -184.66 -183.58 
 689 -184.45 -184.66 -183.58 
 690 -184.47 -184.71 -183.58 
 691 -184.54 -184.70 -183.58 
 692 -184.58 -184.71 -183.58 
 693 -184.57 -184.75 -183.58 
 694 -184.63 -184.75 -183.58 
 695 -184.62 -184.74 -183.58 
 696 -184.58 -184.72 -183.58 
 697 -184.58 -184.72 -183.58 
 698 -184.55 -184.72 -183.58 
 699 -184.55 -184.70 -183.58 
 700 -184.50 -184.62 -183.58 
 701 -184.46 -184.58 -183.58 
 702 -184.43 -184.56 -183.58 
 703 -184.40 -184.52 -183.58 
 704 -184.33 -184.51 -183.58 
 705 -184.32 -184.50 -183.58 
 706 -184.29 -184.50 -183.58 
 707 -184.33 -184.50 -183.58 
 708 -184.32 -184.62 -183.58 
 709 -184.45 -184.58 -183.58 
 710 -184.43 -184.54 -183.58 
 711 -184.39 -184.56 -183.58 
 712 -184.40 -184.50 -183.58 
 713 -184.36 -184.48 -183.58 
 714 -184.35 -184.48 -183.58 
 715 -184.33 -184.45 -183.58 
 716 -184.32 -184.38 -183.58 
 717 -184.24 -184.37 -183.58 
 718 -184.24 -184.35 -183.58 
 719 -184.22 -184.32 -183.58 
 720 -184.17 -184.30 -183.58 
 721 -184.15 -184.36 -183.58 
 722 -184.21 -184.33 -183.58 
 723 -184.20 -184.38 -183.58 
 724 -184.22 -184.37 -183.58 
 725 -184.23 -184.34 -183.58 
 726 -184.20 -184.39 -183.58 
 727 -184.24 -184.47 -183.58 
 728 -184.33 -184.47 -183.58 
 729 -184.34 -184.47 -183.58 
 730 -184.33 -184.50 -183.58 
 731 -184.37 -184.47 -183.58 
 732 -184.35 -184.41 -183.58 
 733 -184.31 -184.47 -183.58 
 734 -184.36 -184.51 -183.58 
 735 -184.40 -184.55 -183.58 
 736 -184.40 -184.52 -183.58 
 737 -184.37 -184.51 -183.58 
 738 -184.36 -184.55 -183.58 
 739 -184.40 -184.57 -183.58 
 740 -184.39 -184.59 -183.58 
 741 -184.42 -184.59 -183.58 
 742 -184.41 -184.66 -183.58 
 743 -184.45 -184.63 -183.58 
 744 -184.44 -184.64 -183.58 
 745 -184.46 -184.66 -183.58 
 746 -184.43 -184.69 -183.58 
 747 -184.47 -184.74 -183.58 
 748 -184.51 -184.66 -183.58 
 749 -184.44 -184.70 -183.58 
 750 -184.48 -184.74 -183.58 
 751 -184.52 -184.69 -183.58 
 752 -184.47 -184.70 -183.58 
 753 -184.50 -184.72 -183.58 
 754 -184.55 -184.76 -183.58 
 755 -184.60 -184.78 -183.58 
 756 -184.61 -184.77 -183.58 
 757 -184.60 -184.77 -183.58 
 758 -184.60 -184.77 -183.58 
 759 -184.59 -184.73 -183.58 
 760 -184.58 -184.74 -183.58 
 761 -184.56 -184.77 -183.58 
 762 -184.61 -184.76 -183.58 
 763 -184.63 -184.76 -183.58 
 764 -184.62 -184.77 -183.58 
 765 -184.61 -184.78 -183.58 
 766 -184.59 -184.79 -183.58 
 767 -184.60 -184.77 -183.58 
 768 -184.58 -184.78 -183.58 
 769 -184.60 -184.69 -183.58 
 770 -184.53 -184.68 -183.58 
 771 -184.51 -184.64 -183.58 
 772 -184.48 -184.61 -183.58 
 773 -184.46 -184.59 -183.58 
 774 -184.42 -184.59 -183.58 
 775 -184.41 -184.57 -183.58 
 776 -184.37 -184.55 -183.58 
 777 -184.36 -184.49 -183.58 
 778 -184.31 -184.51 -183.58 
 779 -184.32 -184.55 -183.58 
 780 -184.36 -184.55 -183.58 
 781 -184.35 -184.54 -183.58 
 782 -184.28 -184.55 -183.58 
 783 -184.34 -184.63 -183.58 
 784 -184.36 -184.65 -183.58 
 785 -184.41 -184.59 -183.58 
 786 -184.40 -184.63 -183.58 
 787 -184.47 -184.68 -183.58 
 788 -184.53 -184.69 -183.58 
 789 -184.54 -184.70 -183.58 
 790 -184.58 -184.66 -183.58 
 791 -184.52 -184.69 -183.58 
 792 -184.51 -184.74 -183.58 
 793 -184.58 -184.77 -183.58 
 794 -184.65 -184.77 -183.58 
 795 -184.68 -184.76 -183.58 
 796 -184.63 -184.75 -183.58 
 797 -184.58 -184.76 -183.58 
 798 -184.57 -184.72 -183.58 
 799 -184.57 -184.72 -183.58 
 800 -184.59 -184.68 -183.58 
 801 -184.57 -184.64 -183.58 
 802 -184.50 -184.75 -183.58 
 803 -184.60 -184.74 -183.58 
 804 -184.62 -184.71 -183.58 
 805 -184.56 -184.74 -183.58 
 806 -184.63 -184.72 -183.58 
 807 -184.58 -184.70 -183.58 
 808 -184.55 -184.63 -183.58 
 809 -184.47 -184.58 -183.58 
 810 -184.49 -184.56 -183.58 
 811 -184.46 -184.55 -183.58 
 812 -184.49 -184.53 -183.58 
 813 -184.47 -184.52 -183.58 
 814 -184.44 -184.52 -183.58 
 815 -184.42 -184.52 -183.58 
 816 -184.35 -184.56 -183.58 
 817 -184.41 -184.60 -183.58 
 818 -184.43 -184.58 -183.58 
 819 -184.39 -184.60 -183.58 
 820 -184.43 -184.60 -183.58 
 821 -184.44 -184.57 -183.58 
 822 -184.44 -184.56 -183.58 
 823 -184.41 -184.57 -183.58 
 824 -184.40 -184.56 -183.58 
 825 -184.41 -184.57 -183.58 
 826 -184.45 -184.56 -183.58 
 827 -184.45 -184.57 -183.58 
 828 -184.45 -184.62 -183.58 
 829 -184.52 -184.61 -183.58 
 830 -184.51 -184.58 -183.58 
 831 -184.48 -184.62 -183.58 
 832 -184.52 -184.57 -183.58 
 833 -184.47 -184.54 -183.58 
 834 -184.43 -184.51 -183.58 
 835 -184.36 -184.53 -183.58 
 836 -184.38 -184.56 -183.58 
 837 -184.37 -184.52 -183.58 
 838 -184.30 -184.52 -183.58 
 839 -184.27 -184.51 -183.58 
 840 -184.29 -184.55 -183.58 
 841 -184.33 -184.51 -183.58 
 842 -184.25 -184.56 -183.58 
 843 -184.29 -184.59 -183.58 
 844 -184.29 -184.63 -183.58 
 845 -184.28 -184.70 -183.58 
 846 -184.36 -184.70 -183.58 
 847 -184.28 -184.63 -183.58 
 848 -184.24 -184.62 -183.58 
 849 -184.18 -184.59 -183.58 
 850 -184.13 -184.70 -183.58 
 851 -184.18 -184.79 -183.58 
 852 -184.25 -184.68 -183.58 
 853 -184.22 -184.63 -183.58 
 854 -184.16 -184.65 -183.58 
 855 -184.15 -184.67 -183.58 
 856 -184.23 -184.62 -183.58 
 857 -184.20 -184.61 -183.58 
 858 -184.25 -184.62 -183.58 
 859 -184.23 -184.51 -183.58 
 860 -184.14 -184.57 -183.58 
 861 -184.19 -184.54 -183.58 
 862 -184.19 -184.52 -183.58 
 863 -184.20 -184.49 -183.58 
 864 -184.17 -184.47 -183.58 
 865 -184.21 -184.50 -183.58 
 866 -184.18 -184.48 -183.58 
 867 -184.12 -184.48 -183.58 
 868 -184.12 -184.51 -183.58 
 869 -184.12 -184.50 -183.58 
 870 -184.07 -184.51 -183.58 
 871 -184.09 -184.53 -183.58 
 872 -184.12 -184.57 -183.58 
 873 -184.18 -184.52 -183.58 
 874 -184.15 -184.57 -183.58 
 875 -184.20 -184.58 -183.58 
 876 -184.25 -184.68 -183.58 
 877 -184.34 -184.71 -183.58 
 878 -184.33 -184.62 -183.58 
 879 -184.31 -184.64 -183.58 
 880 -184.32 -184.61 -183.58 
 881 -184.34 -184.56 -183.58 
 882 -184.30 -184.56 -183.58 
 883 -184.33 -184.54 -183.58 
 884 -184.32 -184.50 -183.58 
 885 -184.29 -184.49 -183.58 
 886 -184.26 -184.46 -183.58 
 887 -184.20 -184.49 -183.58 
 888 -184.27 -184.49 -183.58 
 889 -184.24 -184.48 -183.58 
 890 -184.24 -184.47 -183.58 
 891 -184.21 -184.47 -183.58 
 892 -184.24 -184.49 -183.58 
 893 -184.26 -184.52 -183.58 
 894 -184.31 -184.56 -183.58 
 895 -184.32 -184.56 -183.58 
 896 -184.32 -184.56 -183.58 
 897 -184.31 -184.56 -183.58 
 898 -184.31 -184.54 -183.58 
 899 -184.28 -184.50 -183.58 
 900 -184.23 -184.55 -183.58 
 901 -184.26 -184.55 -183.58 
 902 -184.25 -184.57 -183.58 
 903 -184.31 -184.54 -183.58 
 904 -184.30 -184.52 -183.58 
 905 -184.27 -184.51 -183.58 
 906 -184.25 -184.44 -183.58 
 907 -184.20 -184.44 -183.58 
 908 -184.21 -184.48 -183.58 
 909 -184.23 -184.46 -183.58 
 910 -184.20 -184.50 -183.58 
 911 -184.19 -184.49 -183.58 
 912 -184.16 -184.49 -183.58 
 913 -184.18 -184.52 -183.58 
 914 -184.16 -184.52 -183.58 
 915 -184.13 -184.50 -183.58 
 916 -184.10 -184.49 -183.58 
 917 -184.14 -184.47 -183.58 
 918 -184.16 -184.49 -183.58 
 919 -184.21 -184.50 -183.58 
 920 -184.25 -184.49 -183.58 
 921 -184.21 -184.51 -183.58 
 922 -184.22 -184.54 -183.58 
 923 -184.28 -184.49 -183.58 
 924 -184.26 -184.47 -183.58 
 925 -184.25 -184.52 -183.58 
 926 -184.30 -184.52 -183.58 
 927 -184.30 -184.55 -183.58 
 928 -184.33 -184.53 -183.58 
 929 -184.35 -184.54 -183.58 
 930 -184.41 -184.53 -183.58 
 931 -184.42 -184.47 -183.58 
 932 -184.33 -184.53 -183.58 
 933 -184.41 -184.50 -183.58 
 934 -184.39 -184.59 -183.58 
 935 -184.51 -184.56 -183.58 
 936 -184.46 -184.62 -183.58 
 937 -184.49 -184.59 -183.58 
 938 -184.46 -184.62 -183.58 
 939 -184.49 -184.65 -183.58 
 940 -184.53 -184.71 -183.58 
 941 -184.60 -184.73 -183.58 
 942 -184.63 -184.77 -183.58 
 943 -184.64 -184.74 -183.58 
 944 -184.61 -184.79 -183.58 
 945 -184.65 -184.75 -183.58 
 946 -184.62 -184.74 -183.58 
 947 -184.56 -184.82 -183.58 
 948 -184.65 -184.85 -183.58 
 949 -184.66 -184.86 -183.58 
 950 -184.69 -184.79 -183.58 
 951 -184.63 -184.74 -183.58 
 952 -184.57 -184.74 -183.58 
 953 -184.53 -184.75 -183.58 
 954 -184.55 -184.70 -183.58 
 955 -184.49 -184.63 -183.58 
 956 -184.43 -184.66 -183.58 
 957 -184.47 -184.71 -183.58 
 958 -184.48 -184.65 -183.58 
 959 -184.44 -184.61 -183.58 
 960 -184.36 -184.57 -183.58 
 961 -184.38 -184.55 -183.58 
 962 -184.37 -184.54 -183.58 
 963 -184.39 -184.54 -183.58 
 964 -184.40 -184.50 -183.58 
 965 -184.37 -184.50 -183.58 
 966 -184.38 -184.50 -183.58 
 967 -184.38 -184.52 -183.58 
 968 -184.39 -184.51 -183.58 
 969 -184.42 -184.50 -183.58 
 970 -184.40 -184.51 -183.58 
 971 -184.40 -184.52 -183.58 
 972 -184.40 -184.61 -183.58 
 973 -184.44 -184.57 -183.58 
 974 -184.41 -184.58 -183.58 
 975 -184.43 -184.54 -183.58 
 976 -184.39 -184.49 -183.58 
 977 -184.35 -184.48 -183.58 
 978 -184.34 -184.51 -183.58 
 979 -184.35 -184.48 -183.58 
 980 -184.33 -184.48 -183.58 
 981 -184.35 -184.46 -183.58 
 982 -184.33 -184.49 -183.58 
 983 -184.36 -184.53 -183.58 
 984 -184.41 -184.55 -183.58 
 985 -184.40 -184.57 -183.58 
 986 -184.44 -184.55 -183.58 
 987 -184.41 -184.56 -183.58 
 988 -184.41 -184.53 -183.58 
 989 -184.39 -184.50 -183.58 
 990 -184.37 -184.53 -183.58 
 991 -184.40 -184.56 -183.58 
 992 -184.44 -184.57 -183.58 
 993 -184.41 -184.57 -183.58 
 994 -184.46 -184.57 -183.58 
 995 -184.48 -184.59 -183.58 
 996 -184.55 -184.54 -183.58 
 997 -184.48 -184.56 -183.58 
 998 -184.48 -184.51 -183.58 
 999 -184.44 -184.49 -183.58 
1000 -184.41 -184.52 -183.58 
1001 -184.46 -184.49 -183.58 
1002 -184.40 -184.50 -183.58 
1003 -184.41 -184.53 -183.58 
1004 -184.43 -184.48 -183.58 
1005 -184.40 -184.54 -183.58 
1006 -184.47 -184.48 -183.58 
1007 -184.39 -184.52 -183.58 
1008 -184.45 -184.62 -183.58 
1009 -184.53 -184.67 -183.58 
1010 -184.53 -184.60 -183.58 
1011 -184.46 -184.58 -183.58 
1012 -184.43 -184.56 -183.58 
1013 -184.42 -184.54 -183.58 
1014 -184.42 -184.54 -183.58 
1015 -184.42 -184.53 -183.58 
1016 -184.39 -184.53 -183.58 
1017 -184.41 -184.55 -183.58 
1018 -184.43 -184.53 -183.58 
1019 -184.42 -184.56 -183.58 
1020 -184.44 -184.60 -183.58 
1021 -184.49 -184.53 -183.58 
1022 -184.41 -184.54 -183.58 
1023 -184.44 -184.58 -183.58 
1024 -184.48 -184.57 -183.58 
1025 -184.45 -184.56 -183.58 
1026 -184.43 -184.52 -183.58 
1027 -184.42 -184.55 -183.58 
1028 -184.45 -184.60 -183.58 
1029 -184.47 -184.57 -183.58 
1030 -184.44 -184.56 -183.58 
1031 -184.44 -184.55 -183.58 
1032 -184.41 -184.57 -183.58 
1033 -184.44 -184.54 -183.58 
1034 -184.42 -184.56 -183.58 
1035 -184.45 -184.55 -183.58 
1036 -184.40 -184.56 -183.58 
1037 -184.43 -184.59 -183.58 
1038 -184.46 -184.56 -183.58 
1039 -184.40 -184.57 -183.58 
1040 -184.40 -184.55 -183.58 
1041 -184.40 -184.65 -183.58 
1042 -184.51 -184.71 -183.58 
1043 -184.56 -184.75 -183.58 
1044 -184.59 -184.76 -183.58 
1045 -184.60 -184.89 -183.58 
1046 -184.71 -184.95 -183.58 
1047 -184.79 -185.01 -183.58 
1048 -184.83 -185.14 -183.58 
1001 -184.46 -184.52 -100000000.00 
1002 -184.45 -184.50 -184.46 
1003 -184.41 -184.50 -184.45 
1004 -184.43 -184.46 -184.41 
1005 -184.41 -184.48 -184.41 
1006 -184.44 -184.50 -184.41 
1007 -184.44 -184.53 -184.41 
1008 -184.52 -184.56 -184.41 
1009 -184.51 -184.57 -184.41 
1010 -184.51 -184.55 -184.41 
1011 -184.47 -184.61 -184.41 
1012 -184.56 -184.58 -184.41 
1013 -184.49 -184.60 -184.41 
1014 -184.51 -184.59 -184.41 
1015 -184.51 -184.62 -184.41 
1016 -184.55 -184.66 -184.41 
1017 -184.58 -184.66 -184.41 
1018 -184.58 -184.79 -184.41 
1019 -184.70 -184.67 -184.41 
1020 -184.58 -184.64 -184.41 
1021 -184.53 -184.68 -184.41 
1022 -184.53 -184.67 -184.41 
1023 -184.53 -184.70 -184.41 
1024 -184.56 -184.73 -184.41 
1025 -184.57 -184.77 -184.41 
1026 -184.58 -184.75 -184.41 
1027 -184.58 -184.76 -184.41 
1028 -184.58 -184.80 -184.41 
1029 -184.62 -184.76 -184.41 
1030 -184.54 -184.77 -184.41 
1031 -184.53 -184.66 -184.41 
1032 -184.43 -184.71 -184.41 
1033 -184.50 -184.70 -184.41 
1034 -184.43 -184.75 -184.41 
1035 -184.52 -184.82 -184.41 
1036 -184.53 -184.85 -184.41 
1037 -184.53 -184.85 -184.41 
1038 -184.53 -184.78 -184.41 
1039 -184.49 -184.78 -184.41 
1040 -184.51 -184.78 -184.41 
1041 -184.48 -184.74 -184.41 
1042 -184.44 -184.81 -184.41 
1043 -184.48 -184.86 -184.41 
1044 -184.54 -184.81 -184.41 
1045 -184.52 -184.88 -184.41 
1046 -184.57 -184.83 -184.41 
1047 -184.54 -184.86 -184.41 
1048 -184.54 -184.89 -184.41 
1049 -184.55 -184.89 -184.41 
1050 -184.52 -184.86 -184.41 
1051 -184.54 -184.91 -184.41 
1052 -184.61 -184.95 -184.41 
1053 -184.62 -184.99 -184.41 
1054 -184.66 -184.97 -184.41 
1055 -184.65 -184.99 -184.41 
1056 -184.64 -185.01 -184.41 
1057 -184.74 -185.01 -184.41 
1058 -184.69 -185.01 -184.41 
1059 -184.63 -185.01 -184.41 
1060 -184.63 -184.93 -184.41 
1061 -184.51 -184.92 -184.41 
1062 -184.54 -184.91 -184.41 
1063 -184.53 -184.88 -184.41 
1064 -184.51 -184.93 -184.41 
1065 -184.52 -184.98 -184.41 
1066 -184.57 -185.00 -184.41 
1067 -184.61 -184.96 -184.41 
1068 -184.57 -184.94 -184.41 
1069 -184.54 -184.94 -184.41 
1070 -184.52 -184.88 -184.41 
1071 -184.50 -184.79 -184.41 
1072 -184.41 -184.81 -184.41 
1073 -184.44 -184.84 -184.41 
1074 -184.51 -184.89 -184.41 
1075 -184.53 -184.86 -184.41 
1076 -184.48 -184.83 -184.41 
1077 -184.50 -184.78 -184.41 
1078 -184.44 -184.74 -184.41 
1079 -184.40 -184.76 -184.41 
1080 -184.41 -184.69 -184.40 
1081 -184.37 -184.72 -184.40 
1082 -184.33 -184.75 -184.37 
1083 -184.34 -184.80 -184.33 
1084 -184.38 -184.78 -184.33 
1085 -184.33 -184.79 -184.33 
1086 -184.37 -184.78 -184.33 
1087 -184.40 -184.80 -184.33 
1088 -184.45 -184.80 -184.33 
1089 -184.38 -184.79 -184.33 
1090 -184.35 -184.76 -184.33 
1091 -184.33 -184.88 -184.33 
1092 -184.40 -184.88 -184.33 
1093 -184.41 -184.86 -184.33 
1094 -184.36 -184.87 -184.33 
1095 -184.35 -184.80 -184.33 
1096 -184.35 -184.81 -184.33 
1097 -184.32 -184.76 -184.33 
1098 -184.26 -184.78 -184.32 
1099 -184.26 -184.79 -184.26 
1100 -184.28 -184.79 -184.26 
1101 -184.30 -184.78 -184.26 
1102 -184.26 -184.81 -184.26 
1103 -184.35 -184.73 -184.26 
1104 -184.27 -184.80 -184.26 
1105 -184.32 -184.70 -184.26 
1106 -184.20 -184.71 -184.26 
1107 -184.18 -184.66 -184.20 
1108 -184.19 -184.69 -184.18 
1109 -184.24 -184.60 -184.18 
1110 -184.14 -184.69 -184.18 
1111 -184.18 -184.72 -184.14 
1112 -184.15 -184.67 -184.14 
1113 -184.12 -184.59 -184.14 
1114 -184.10 -184.48 -184.12 
1115 -184.00 -184.53 -184.10 
1116 -184.06 -184.50 -184.00 
1117 -184.03 -184.61 -184.00 
1118 -184.13 -184.64 -184.00 
1119 -184.18 -184.72 -184.00 
1120 -184.16 -184.86 -184.00 
1121 -184.36 -184.81 -184.00 
1122 -184.30 -184.80 -184.00 
1123 -184.26 -184.70 -184.00 
1124 -184.29 -184.59 -184.00 
1125 -184.22 -184.55 -184.00 
1126 -184.15 -184.53 -184.00 
1127 -184.08 -184.50 -184.00 
1128 -184.08 -184.48 -184.00 
1129 -184.12 -184.50 -184.00 
1130 -184.17 -184.46 -184.00 
1131 -184.12 -184.45 -184.00 
1132 -184.09 -184.46 -184.00 
1133 -184.13 -184.47 -184.00 
1134 -184.14 -184.44 -184.00 
1135 -184.13 -184.41 -184.00 
1136 -184.10 -184.39 -184.00 
1137 -184.10 -184.39 -184.00 
1138 -184.08 -184.39 -184.00 
1139 -184.11 -184.40 -184.00 
1140 -184.13 -184.37 -184.00 
1141 -184.10 -184.33 -184.00 
1142 -184.10 -184.35 -184.00 
1143 -184.12 -184.30 -184.00 
1144 -184.09 -184.31 -184.00 
1145 -184.07 -184.37 -184.00 
1146 -184.13 -184.34 -184.00 
1147 -184.11 -184.34 -184.00 
1148 -184.11 -184.33 -184.00 
1149 -184.12 -184.31 -184.00 
1150 -184.10 -184.32 -184.00 
1151 -184.10 -184.35 -184.00 
1152 -184.14 -184.41 -184.00 
1153 -184.17 -184.38 -184.00 
1154 -184.16 -184.43 -184.00 
1155 -184.19 -184.46 -184.00 
1156 -184.21 -184.40 -184.00 
1157 -184.17 -184.42 -184.00 
1158 -184.19 -184.41 -184.00 
1159 -184.19 -184.41 -184.00 
1160 -184.19 -184.46 -184.00 
1161 -184.22 -184.47 -184.00 
1162 -184.22 -184.47 -184.00 
1163 -184.22 -184.50 -184.00 
1164 -184.24 -184.48 -184.00 
1165 -184.23 -184.51 -184.00 
1166 -184.26 -184.46 -184.00 
1167 -184.20 -184.47 -184.00 
1168 -184.20 -184.47 -184.00 
1169 -184.21 -184.48 -184.00 
1170 -184.24 -184.43 -184.00 
1171 -184.19 -184.42 -184.00 
1172 -184.18 -184.42 -184.00 
1173 -184.19 -184.39 -184.00 
1174 -184.20 -184.38 -184.00 
1175 -184.18 -184.34 -184.00 
1176 -184.12 -184.39 -184.00 
1177 -184.16 -184.40 -184.00 
1178 -184.19 -184.36 -184.00 
1179 -184.14 -184.33 -184.00 
1180 -184.09 -184.30 -184.00 
1181 -184.02 -184.29 -184.00 
1182 -183.99 -184.33 -184.00 
1183 -184.06 -184.33 -183.99 
1184 -184.08 -184.29 -183.99 
1185 -184.03 -184.31 -183.99 
1186 -184.09 -184.27 -183.99 
1187 -184.07 -184.28 -183.99 
1188 -184.07 -184.26 -183.99 
1189 -184.03 -184.26 -183.99 
1190 -184.05 -184.26 -183.99 
1191 -184.02 -184.28 -183.99 
1192 -184.00 -184.30 -183.99 
1193 -184.04 -184.32 -183.99 
1194 -184.08 -184.33 -183.99 
1195 -184.10 -184.33 -183.99 
1196 -184.12 -184.32 -183.99 
1197 -184.11 -184.29 -183.99 
1198 -184.06 -184.29 -183.99 
1199 -184.09 -184.34 -183.99 
1200 -184.14 -184.37 -183.99 
1201 -184.17 -184.37 -183.99 
1202 -184.19 -184.38 -183.99 
1203 -184.22 -184.37 -183.99 
1204 -184.19 -184.41 -183.99 
1205 -184.22 -184.42 -183.99 
1206 -184.25 -184.47 -183.99 
1207 -184.26 -184.46 -183.99 
1208 -184.26 -184.45 -183.99 
1209 -184.25 -184.40 -183.99 
1210 -184.19 -184.38 -183.99 
1211 -184.16 -184.35 -183.99 
1212 -184.12 -184.35 -183.99 
1213 -184.15 -184.30 -183.99 
1214 -184.09 -184.30 -183.99 
1215 -184.07 -184.32 -183.99 
1216 -184.10 -184.36 -183.99 
1217 -184.19 -184.40 -183.99 
1218 -184.23 -184.38 -183.99 
1219 -184.21 -184.37 -183.99 
1220 -184.20 -184.38 -183.99 
1221 -184.22 -184.41 -183.99 
1222 -184.28 -184.43 -183.99 
1223 -184.30 -184.46 -183.99 
1224 -184.31 -184.51 -183.99 
1225 -184.35 -184.51 -183.99 
1226 -184.36 -184.52 -183.99 
1227 -184.37 -184.52 -183.99 
1228 -184.39 -184.57 -183.99 
1229 -184.43 -184.53 -183.99 
1230 -184.39 -184.56 -183.99 
1231 -184.41 -184.55 -183.99 
1232 -184.43 -184.59 -183.99 
1233 -184.47 -184.59 -183.99 
1234 -184.48 -184.64 -183.99 
1235 -184.50 -184.63 -183.99 
1236 -184.48 -184.61 -183.99 
1237 -184.44 -184.62 -183.99 
1238 -184.44 -184.58 -183.99 
1239 -184.43 -184.57 -183.99 
1240 -184.41 -184.58 -183.99 
1241 -184.38 -184.54 -183.99 
1242 -184.34 -184.54 -183.99 
1243 -184.33 -184.53 -183.99 
1244 -184.31 -184.51 -183.99 
1245 -184.30 -184.53 -183.99 
1246 -184.31 -184.54 -183.99 
1247 -184.32 -184.54 -183.99 
1248 -184.33 -184.53 -183.99 
1249 -184.30 -184.54 -183.99 
1250 -184.29 -184.54 -183.99 
1251 -184.29 -184.58 -183.99 
1252 -184.30 -184.62 -183.99 
1253 -184.32 -184.62 -183.99 
1254 -184.30 -184.67 -183.99 
1255 -184.35 -184.57 -183.99 
1256 -184.26 -184.52 -183.99 
1257 -184.25 -184.51 -183.99 
1258 -184.21 -184.58 -183.99 
1259 -184.30 -184.55 -183.99 
1260 -184.31 -184.57 -183.99 
1261 -184.29 -184.60 -183.99 
1262 -184.36 -184.64 -183.99 
1263 -184.35 -184.68 -183.99 
1264 -184.41 -184.65 -183.99 
1265 -184.37 -184.67 -183.99 
1266 -184.38 -184.66 -183.99 
1267 -184.37 -184.65 -183.99 
1268 -184.39 -184.68 -183.99 
1269 -184.41 -184.69 -183.99 
1270 -184.46 -184.65 -183.99 
1271 -184.43 -184.61 -183.99 
1272 -184.41 -184.56 -183.99 
1273 -184.36 -184.59 -183.99 
1274 -184.34 -184.59 -183.99 
1275 -184.34 -184.61 -183.99 
1276 -184.35 -184.62 -183.99 
1277 -184.36 -184.61 -183.99 
1278 -184.37 -184.59 -183.99 
1279 -184.35 -184.55 -183.99 
1280 -184.31 -184.56 -183.99 
1281 -184.30 -184.52 -183.99 
1282 -184.28 -184.56 -183.99 
1283 -184.33 -184.58 -183.99 
1284 -184.33 -184.61 -183.99 
1285 -184.38 -184.65 -183.99 
1286 -184.39 -184.71 -183.99 
1287 -184.41 -184.73 -183.99 
1288 -184.44 -184.72 -183.99 
1289 -184.39 -184.73 -183.99 
1290 -184.36 -184.82 -183.99 
1291 -184.41 -184.81 -183.99 
1292 -184.42 -184.77 -183.99 
1293 -184.39 -184.75 -183.99 
1294 -184.32 -184.78 -183.99 
1295 -184.34 -184.87 -183.99 
1296 -184.40 -184.86 -183.99 
1297 -184.41 -184.89 -183.99 
1298 -184.42 -184.87 -183.99 
1299 -184.30 -184.83 -183.99 
1300 -184.26 -184.81 -183.99 
1301 -184.29 -184.77 -183.99 
1302 -184.23 -184.69 -183.99 
1303 -184.13 -184.74 -183.99 
1304 -184.16 -184.78 -183.99 
1305 -184.25 -184.80 -183.99 
1306 -184.24 -184.83 -183.99 
1307 -184.31 -184.90 -183.99 
1308 -184.31 -184.85 -183.99 
1309 -184.28 -184.85 -183.99 
1310 -184.19 -184.84 -183.99 
1311 -184.18 -184.85 -183.99 
1312 -184.24 -184.83 -183.99 
1313 -184.23 -184.79 -183.99 
1314 -184.19 -184.74 -183.99 
1315 -184.11 -184.78 -183.99 
1316 -184.12 -184.77 -183.99 
1317 -184.10 -184.73 -183.99 
1318 -183.94 -184.84 -183.99 
1319 -184.03 -184.76 -183.94 
1320 -184.00 -184.87 -183.94 
1321 -184.08 -185.04 -183.94 
1322 -184.14 -185.00 -183.94 
1323 -184.14 -184.87 -183.94 
1324 -184.06 -184.86 -183.94 
1325 -184.04 -184.99 -183.94 
1326 -184.12 -184.89 -183.94 
1327 -184.01 -184.81 -183.94 
1328 -183.96 -184.60 -183.94 
1329 -183.86 -184.75 -183.94 
1330 -183.95 -184.73 -183.86 
1331 -183.98 -184.61 -183.86 
1332 -183.94 -184.54 -183.86 
1333 -183.85 -184.49 -183.86 
1334 -183.80 -184.42 -183.85 
1335 -183.76 -184.34 -183.80 
1336 -183.69 -184.29 -183.76 
1337 -183.60 -184.37 -183.69 
1338 -183.62 -184.45 -183.60 
1339 -183.67 -184.50 -183.60 
1340 -183.68 -184.43 -183.60 
1341 -183.68 -184.50 -183.60 
1342 -183.76 -184.52 -183.60 
1343 -183.79 -184.48 -183.60 
1344 -183.69 -184.59 -183.60 
1345 -183.78 -184.55 -183.60 
1346 -183.73 -184.71 -183.60 
1347 -183.83 -184.57 -183.60 
1348 -183.76 -184.48 -183.60 
1349 -183.72 -184.47 -183.60 
1350 -183.74 -184.42 -183.60 
1351 -183.72 -184.35 -183.60 
1352 -183.65 -184.47 -183.60 
1353 -183.74 -184.56 -183.60 
1354 -183.78 -184.56 -183.60 
1355 -183.73 -184.62 -183.60 
1356 -183.78 -184.62 -183.60 
1357 -183.78 -184.56 -183.60 
1358 -183.73 -184.56 -183.60 
1359 -183.70 -184.43 -183.60 
1360 -183.68 -184.50 -183.60 
1361 -183.71 -184.61 -183.60 
1362 -183.78 -184.69 -183.60 
1363 -183.87 -184.64 -183.60 
1364 -183.82 -184.65 -183.60 
1365 -183.85 -184.63 -183.60 
1366 -183.81 -184.56 -183.60 
1367 -183.83 -184.54 -183.60 
1368 -183.80 -184.50 -183.60 
1369 -183.79 -184.46 -183.60 
1370 -183.80 -184.49 -183.60 
1371 -183.77 -184.57 -183.60 
1372 -183.82 -184.39 -183.60 
1373 -183.73 -184.29 -183.60 
1374 -183.68 -184.39 -183.60 
1375 -183.78 -184.27 -183.60 
1376 -183.69 -184.25 -183.60 
1377 -183.72 -184.14 -183.60 
1378 -183.65 -184.20 -183.60 
1379 -183.69 -184.32 -183.60 
1380 -183.79 -184.41 -183.60 
1381 -183.88 -184.40 -183.60 
1382 -183.82 -184.31 -183.60 
1383 -183.77 -184.36 -183.60 
1384 -183.83 -184.40 -183.60 
1385 -183.87 -184.41 -183.60 
1386 -183.83 -184.41 -183.60 
1387 -183.84 -184.50 -183.60 
1388 -183.95 -184.61 -183.60 
1389 -184.05 -184.67 -183.60 
1390 -184.12 -184.60 -183.60 
1391 -184.04 -184.50 -183.60 
1392 -183.98 -184.56 -183.60 
1393 -184.06 -184.61 -183.60 
1394 -184.05 -184.54 -183.60 
1395 -183.99 -184.56 -183.60 
1396 -183.97 -184.55 -183.60 
1397 -183.99 -184.58 -183.60 
1398 -184.04 -184.53 -183.60 
1399 -184.00 -184.50 -183.60 
1400 -183.93 -184.40 -183.60 
1401 -183.89 -184.43 -183.60 
1402 -183.92 -184.42 -183.60 
1403 -183.91 -184.41 -183.60 
1404 -183.92 -184.34 -183.60 
1405 -183.88 -184.34 -183.60 
1406 -183.83 -184.38 -183.60 
1407 -183.85 -184.29 -183.60 
1408 -183.81 -184.23 -183.60 
1409 -183.78 -184.29 -183.60 
1410 -183.83 -184.35 -183.60 
1411 -183.85 -184.38 -183.60 
1412 -183.89 -184.46 -183.60 
1413 -183.96 -184.49 -183.60 
1414 -184.00 -184.51 -183.60 
1415 -184.00 -184.50 -183.60 
1416 -184.03 -184.47 -183.60 
1417 -184.05 -184.46 -183.60 
1418 -184.02 -184.46 -183.60 
1419 -184.05 -184.46 -183.60 
1420 -184.07 -184.45 -183.60 
1421 -184.08 -184.46 -183.60 
1422 -184.12 -184.47 -183.60 
1423 -184.10 -184.42 -183.60 
1424 -184.05 -184.36 -183.60 
1425 -184.02 -184.35 -183.60 
1426 -184.03 -184.31 -183.60 
1427 -183.98 -184.31 -183.60 
1428 -183.98 -184.35 -183.60 
1429 -184.04 -184.37 -183.60 
1430 -184.05 -184.40 -183.60 
1431 -184.06 -184.37 -183.60 
1432 -184.03 -184.37 -183.60 
1433 -184.06 -184.37 -183.60 
1434 -184.07 -184.35 -183.60 
1435 -184.06 -184.39 -183.60 
1436 -184.10 -184.35 -183.60 
1437 -184.06 -184.32 -183.60 
1438 -184.03 -184.35 -183.60 
1439 -184.07 -184.31 -183.60 
1440 -184.04 -184.34 -183.60 
1441 -184.06 -184.32 -183.60 
1442 -184.09 -184.32 -183.60 
1443 -184.08 -184.37 -183.60 
1444 -184.14 -184.38 -183.60 
1445 -184.14 -184.43 -183.60 
1446 -184.18 -184.47 -183.60 
1447 -184.15 -184.46 -183.60 
1448 -184.21 -184.51 -183.60 
1449 -184.28 -184.50 -183.60 
1450 -184.29 -184.52 -183.60 
1451 -184.31 -184.54 -183.60 
1452 -184.34 -184.56 -183.60 
1453 -184.33 -184.57 -183.60 
1454 -184.34 -184.55 -183.60 
1455 -184.29 -184.49 -183.60 
1456 -184.24 -184.48 -183.60 
1457 -184.20 -184.47 -183.60 
1458 -184.21 -184.45 -183.60 
1459 -184.20 -184.46 -183.60 
1460 -184.18 -184.48 -183.60 
1461 -184.23 -184.47 -183.60 
1462 -184.22 -184.52 -183.60 
1463 -184.26 -184.51 -183.60 
1464 -184.26 -184.50 -183.60 
1465 -184.25 -184.50 -183.60 
1466 -184.24 -184.48 -183.60 
1467 -184.23 -184.50 -183.60 
1468 -184.25 -184.47 -183.60 
1469 -184.21 -184.44 -183.60 
1470 -184.21 -184.45 -183.60 
1471 -184.21 -184.44 -183.60 
1472 -184.20 -184.47 -183.60 
1473 -184.23 -184.47 -183.60 
1474 -184.25 -184.46 -183.60 
1475 -184.25 -184.44 -183.60 
1476 -184.23 -184.41 -183.60 
1477 -184.21 -184.40 -183.60 
1478 -184.19 -184.39 -183.60 
1479 -184.17 -184.43 -183.60 
1480 -184.21 -184.48 -183.60 
1481 -184.24 -184.47 -183.60 
1482 -184.24 -184.46 -183.60 
1483 -184.22 -184.45 -183.60 
1484 -184.21 -184.46 -183.60 
1485 -184.21 -184.45 -183.60 
1486 -184.17 -184.50 -183.60 
1487 -184.22 -184.54 -183.60 
1488 -184.25 -184.54 -183.60 
1489 -184.25 -184.58 -183.60 
1490 -184.25 -184.55 -183.60 
1491 -184.23 -184.48 -183.60 
1492 -184.19 -184.48 -183.60 
1493 -184.17 -184.44 -183.60 
1494 -184.16 -184.37 -183.60 
1495 -184.10 -184.36 -183.60 
1496 -184.08 -184.33 -183.60 
1497 -184.05 -184.27 -183.60 
1498 -183.96 -184.25 -183.60 
1499 -183.95 -184.22 -183.60 
1500 -183.93 -184.22 -183.60 
1501 -183.93 -184.29 -183.60 
1502 -183.98 -184.39 -183.60 
1503 -184.06 -184.44 -183.60 
1504 -184.11 -184.44 -183.60 
1505 -184.13 -184.43 -183.60 
1506 -184.13 -184.47 -183.60 
1507 -184.18 -184.50 -183.60 
1508 -184.20 -184.43 -183.60 
1509 -184.15 -184.44 -183.60 
1510 -184.15 -184.39 -183.60 
1511 -184.10 -184.40 -183.60 
1512 -184.12 -184.40 -183.60 
1513 -184.10 -184.45 -183.60 
1514 -184.17 -184.39 -183.60 
1515 -184.10 -184.41 -183.60 
1516 -184.17 -184.44 -183.60 
1517 -184.19 -184.45 -183.60 
1518 -184.18 -184.40 -183.60 
1519 -184.15 -184.43 -183.60 
1520 -184.22 -184.40 -183.60 
1521 -184.18 -184.37 -183.60 
1522 -184.15 -184.35 -183.60 
1523 -184.12 -184.40 -183.60 
1524 -184.18 -184.38 -183.60 
1525 -184.17 -184.40 -183.60 
1526 -184.21 -184.41 -183.60 
1527 -184.20 -184.41 -183.60 
1528 -184.19 -184.36 -183.60 
1529 -184.14 -184.39 -183.60 
1530 -184.19 -184.37 -183.60 
1531 -184.15 -184.42 -183.60 
1532 -184.21 -184.41 -183.60 
1533 -184.19 -184.43 -183.60 
1534 -184.21 -184.45 -183.60 
1535 -184.22 -184.46 -183.60 
1536 -184.22 -184.47 -183.60 
1537 -184.26 -184.41 -183.60 
1538 -184.19 -184.43 -183.60 
1539 -184.21 -184.43 -183.60 
1540 -184.21 -184.42 -183.60 
1541 -184.20 -184.48 -183.60 
1542 -184.24 -184.45 -183.60 
1543 -184.22 -184.44 -183.60 
1544 -184.23 -184.46 -183.60 
1545 -184.24 -184.45 -183.60 
1546 -184.23 -184.47 -183.60 
1547 -184.25 -184.48 -183.60 
1548 -184.25 -184.47 -183.60 
1549 -184.27 -184.44 -183.60 
1550 -184.23 -184.48 -183.60 
1551 -184.27 -184.49 -183.60 
1552 -184.30 -184.45 -183.60 
1553 -184.26 -184.46 -183.60 
1554 -184.27 -184.43 -183.60 
1555 -184.24 -184.43 -183.60 
1556 -184.24 -184.44 -183.60 
1557 -184.24 -184.42 -183.60 
1558 -184.23 -184.41 -183.60 
1559 -184.24 -184.39 -183.60 
1560 -184.19 -184.39 -183.60 
1561 -184.21 -184.38 -183.60 
1562 -184.19 -184.35 -183.60 
1563 -184.17 -184.34 -183.60 
1564 -184.15 -184.33 -183.60 
1565 -184.14 -184.32 -183.60 
1566 -184.13 -184.32 -183.60 
1567 -184.13 -184.35 -183.60 
1568 -184.17 -184.38 -183.60 
1569 -184.20 -184.37 -183.60 
1570 -184.18 -184.38 -183.60 
1571 -184.22 -184.39 -183.60 
1572 -184.22 -184.39 -183.60 
1573 -184.22 -184.39 -183.60 
1574 -184.22 -184.39 -183.60 
1575 -184.23 -184.41 -183.60 
1576 -184.24 -184.40 -183.60 
1577 -184.21 -184.39 -183.60 
1578 -184.20 -184.39 -183.60 
1579 -184.22 -184.39 -183.60 
1580 -184.21 -184.41 -183.60 
1581 -184.22 -184.43 -183.60 
1582 -184.24 -184.45 -183.60 
1583 -184.25 -184.46 -183.60 
1584 -184.27 -184.49 -183.60 
1585 -184.30 -184.51 -183.60 
1586 -184.31 -184.49 -183.60 
1587 -184.31 -184.48 -183.60 
1588 -184.29 -184.48 -183.60 
1589 -184.30 -184.48 -183.60 
1590 -184.29 -184.45 -183.60 
1591 -184.24 -184.48 -183.60 
1592 -184.29 -184.46 -183.60 
1593 -184.26 -184.50 -183.60 
1594 -184.29 -184.44 -183.60 
1595 -184.24 -184.48 -183.60 
1596 -184.29 -184.46 -183.60 
1597 -184.27 -184.47 -183.60 
1598 -184.27 -184.47 -183.60 
1599 -184.27 -184.47 -183.60 
1600 -184.27 -184.46 -183.60 
1601 -184.27 -184.49 -183.60 
1602 -184.29 -184.49 -183.60 
1603 -184.31 -184.51 -183.60 
1604 -184.34 -184.56 -183.60 
1605 -184.40 -184.56 -183.60 
1606 -184.40 -184.57 -183.60 
1607 -184.41 -184.52 -183.60 
1608 -184.36 -184.51 -183.60 
1609 -184.36 -184.49 -183.60 
1610 -184.34 -184.46 -183.60 
1611 -184.32 -184.46 -183.60 
1612 -184.32 -184.45 -183.60 
1613 -184.31 -184.46 -183.60 
1614 -184.32 -184.46 -183.60 
1615 -184.32 -184.48 -183.60 
1616 -184.33 -184.49 -183.60 
1617 -184.36 -184.52 -183.60 
1618 -184.37 -184.56 -183.60 
1619 -184.38 -184.58 -183.60 
1620 -184.40 -184.62 -183.60 
1621 -184.43 -184.61 -183.60 
1622 -184.44 -184.63 -183.60 
1623 -184.46 -184.65 -183.60 
1624 -184.46 -184.64 -183.60 
1625 -184.46 -184.63 -183.60 
1626 -184.45 -184.61 -183.60 
1627 -184.44 -184.59 -183.60 
1628 -184.41 -184.58 -183.60 
1629 -184.44 -184.60 -183.60 
1630 -184.45 -184.57 -183.60 
1631 -184.41 -184.58 -183.60 
1632 -184.42 -184.56 -183.60 
1633 -184.41 -184.53 -183.60 
1634 -184.39 -184.54 -183.60 
1635 -184.38 -184.53 -183.60 
1636 -184.36 -184.52 -183.60 
1637 -184.39 -184.55 -183.60 
1638 -184.41 -184.55 -183.60 
1639 -184.42 -184.51 -183.60 
1640 -184.37 -184.52 -183.60 
1641 -184.38 -184.49 -183.60 
1642 -184.38 -184.48 -183.60 
1643 -184.34 -184.48 -183.60 
1644 -184.35 -184.50 -183.60 
1645 -184.38 -184.46 -183.60 
1646 -184.35 -184.46 -183.60 
1647 -184.36 -184.49 -183.60 
1648 -184.38 -184.48 -183.60 
1649 -184.36 -184.45 -183.60 
1650 -184.34 -184.48 -183.60 
1651 -184.37 -184.48 -183.60 
1652 -184.37 -184.48 -183.60 
1653 -184.39 -184.47 -183.60 
1654 -184.35 -184.48 -183.60 
1655 -184.37 -184.47 -183.60 
1656 -184.38 -184.47 -183.60 
1657 -184.36 -184.46 -183.60 
1658 -184.37 -184.47 -183.60 
1659 -184.37 -184.45 -183.60 
1660 -184.36 -184.43 -183.60 
1661 -184.36 -184.45 -183.60 
1662 -184.38 -184.45 -183.60 
1663 -184.39 -184.44 -183.60 
1664 -184.39 -184.45 -183.60 
1665 -184.40 -184.44 -183.60 
1666 -184.40 -184.44 -183.60 
1667 -184.39 -184.42 -183.60 
1668 -184.38 -184.42 -183.60 
1669 -184.37 -184.42 -183.60 
1670 -184.38 -184.40 -183.60 
1671 -184.35 -184.43 -183.60 
1672 -184.38 -184.45 -183.60 
1673 -184.39 -184.43 -183.60 
1674 -184.39 -184.44 -183.60 
1675 -184.39 -184.45 -183.60 
1676 -184.40 -184.47 -183.60 
1677 -184.43 -184.44 -183.60 
1678 -184.41 -184.42 -183.60 
1679 -184.39 -184.42 -183.60 
1680 -184.38 -184.41 -183.60 
1681 -184.38 -184.42 -183.60 
1682 -184.39 -184.42 -183.60 
1683 -184.38 -184.42 -183.60 
1684 -184.37 -184.42 -183.60 
1685 -184.38 -184.46 -183.60 
1686 -184.40 -184.46 -183.60 
1687 -184.40 -184.45 -183.60 
1688 -184.39 -184.49 -183.60 
1689 -184.41 -184.49 -183.60 
1690 -184.44 -184.48 -183.60 
1691 -184.44 -184.51 -183.60 
1692 -184.47 -184.51 -183.60 
1693 -184.50 -184.52 -183.60 
1694 -184.49 -184.54 -183.60 
1695 -184.51 -184.54 -183.60 
1696 -184.51 -184.54 -183.60 
1697 -184.49 -184.53 -183.60 
1698 -184.50 -184.52 -183.60 
1699 -184.48 -184.53 -183.60 
1700 -184.50 -184.52 -183.60 
1701 -184.49 -184.49 -183.60 
1702 -184.46 -184.50 -183.60 
1703 -184.46 -184.50 -183.60 
1704 -184.46 -184.48 -183.60 
1705 -184.45 -184.48 -183.60 
1706 -184.44 -184.47 -183.60 
1707 -184.41 -184.47 -183.60 
1708 -184.43 -184.48 -183.60 
1709 -184.43 -184.53 -183.60 
1710 -184.48 -184.52 -183.60 
1711 -184.48 -184.51 -183.60 
1712 -184.46 -184.51 -183.60 
1713 -184.46 -184.49 -183.60 
1714 -184.44 -184.48 -183.60 
1715 -184.44 -184.48 -183.60 
1716 -184.44 -184.47 -183.60 
1717 -184.44 -184.44 -183.60 
1718 -184.41 -184.43 -183.60 
1719 -184.40 -184.43 -183.60 
1720 -184.40 -184.41 -183.60 
1721 -184.38 -184.40 -183.60 
1722 -184.37 -184.41 -183.60 
1723 -184.39 -184.39 -183.60 
1724 -184.38 -184.41 -183.60 
1725 -184.39 -184.40 -183.60 
1726 -184.39 -184.39 -183.60 
1727 -184.38 -184.39 -183.60 
1728 -184.39 -184.42 -183.60 
1729 -184.42 -184.42 -183.60 
1730 -184.42 -184.42 -183.60 
1731 -184.40 -184.43 -183.60 
1732 -184.42 -184.42 -183.60 
1733 -184.44 -184.40 -183.60 
1734 -184.43 -184.41 -183.60 
1735 -184.41 -184.43 -183.60 
1736 -184.41 -184.44 -183.60 
1737 -184.41 -184.42 -183.60 
1738 -184.39 -184.41 -183.60 
1739 -184.39 -184.43 -183.60 
1740 -184.41 -184.43 -183.60 
1741 -184.41 -184.44 -183.60 
1742 -184.41 -184.43 -183.60 
1743 -184.41 -184.46 -183.60 
1744 -184.42 -184.45 -183.60 
1745 -184.41 -184.46 -183.60 
1746 -184.44 -184.46 -183.60 
1747 -184.42 -184.46 -183.60 
1748 -184.43 -184.47 -183.60 
1749 -184.43 -184.46 -183.60 
1750 -184.43 -184.48 -183.60 
1751 -184.44 -184.49 -183.60 
1752 -184.46 -184.48 -183.60 
1753 -184.44 -184.49 -183.60 
1754 -184.45 -184.49 -183.60 
1755 -184.47 -184.52 -183.60 
1756 -184.49 -184.51 -183.60 
1757 -184.48 -184.50 -183.60 
1758 -184.48 -184.50 -183.60 
1759 -184.48 -184.50 -183.60 
1760 -184.47 -184.50 -183.60 
1761 -184.48 -184.50 -183.60 
1762 -184.47 -184.51 -183.60 
1763 -184.49 -184.51 -183.60 
1764 -184.51 -184.51 -183.60 
1765 -184.51 -184.52 -183.60 
1766 -184.51 -184.53 -183.60 
1767 -184.51 -184.51 -183.60 
1768 -184.50 -184.52 -183.60 
1769 -184.49 -184.52 -183.60 
1770 -184.50 -184.50 -183.60 
1771 -184.49 -184.49 -183.60 
1772 -184.48 -184.47 -183.60 
1773 -184.46 -184.47 -183.60 
1774 -184.46 -184.47 -183.60 
1775 -184.44 -184.46 -183.60 
1776 -184.44 -184.46 -183.60 
1777 -184.42 -184.44 -183.60 
1778 -184.41 -184.42 -183.60 
1779 -184.40 -184.43 -183.60 
1780 -184.41 -184.45 -183.60 
1781 -184.42 -184.45 -183.60 
1782 -184.43 -184.44 -183.60 
1783 -184.40 -184.44 -183.60 
1784 -184.41 -184.45 -183.60 
1785 -184.41 -184.45 -183.60 
1786 -184.42 -184.44 -183.60 
1787 -184.43 -184.45 -183.60 
1788 -184.45 -184.47 -183.60 
1789 -184.48 -184.48 -183.60 
1790 -184.48 -184.48 -183.60 
1791 -184.49 -184.47 -183.60 
1792 -184.48 -184.48 -183.60 
1793 -184.47 -184.49 -183.60 
1794 -184.49 -184.50 -183.60 
1795 -184.52 -184.51 -183.60 
1796 -184.56 -184.51 -183.60 
1797 -184.53 -184.50 -183.60 
1798 -184.49 -184.51 -183.60 
1799 -184.49 -184.50 -183.60 
1800 -184.48 -184.50 -183.60 
1801 -184.48 -184.48 -183.60 
1802 -184.50 -184.48 -183.60 
1803 -184.45 -184.51 -183.60 
1804 -184.49 -184.51 -183.60 
1805 -184.50 -184.50 -183.60 
1806 -184.50 -184.51 -183.60 
1807 -184.51 -184.50 -183.60 
1808 -184.49 -184.50 -183.60 
1809 -184.47 -184.47 -183.60 
1810 -184.45 -184.46 -183.60 
1811 -184.47 -184.46 -183.60 
1812 -184.45 -184.46 -183.60 
1813 -184.46 -184.45 -183.60 
1814 -184.46 -184.45 -183.60 
1815 -184.46 -184.46 -183.60 
1816 -184.47 -184.46 -183.60 
1817 -184.44 -184.47 -183.60 
1818 -184.46 -184.48 -183.60 
1819 -184.45 -184.48 -183.60 
1820 -184.44 -184.48 -183.60 
1821 -184.46 -184.50 -183.60 
1822 -184.46 -184.50 -183.60 
1823 -184.46 -184.50 -183.60 
1824 -184.47 -184.50 -183.60 
1825 -184.44 -184.50 -183.60 
1826 -184.45 -184.50 -183.60 
1827 -184.45 -184.51 -183.60 
1828 -184.49 -184.51 -183.60 
1829 -184.50 -184.53 -183.60 
1830 -184.51 -184.53 -183.60 
1831 -184.52 -184.53 -183.60 
1832 -184.49 -184.54 -183.60 
1833 -184.51 -184.52 -183.60 
1834 -184.49 -184.51 -183.60 
1835 -184.47 -184.51 -183.60 
1836 -184.45 -184.52 -183.60 
1837 -184.47 -184.53 -183.60 
1838 -184.47 -184.53 -183.60 
1839 -184.45 -184.52 -183.60 
1840 -184.44 -184.52 -183.60 
1841 -184.45 -184.53 -183.60 
1842 -184.46 -184.50 -183.60 
1843 -184.42 -184.52 -183.60 
1844 -184.42 -184.52 -183.60 
1845 -184.43 -184.53 -183.60 
1846 -184.40 -184.54 -183.60 
1847 -184.42 -184.53 -183.60 
1848 -184.40 -184.51 -183.60 
1849 -184.38 -184.50 -183.60 
1850 -184.34 -184.47 -183.60 
1851 -184.31 -184.50 -183.60 
1852 -184.32 -184.53 -183.60 
1853 -184.35 -184.51 -183.60 
1854 -184.34 -184.48 -183.60 
1855 -184.31 -184.48 -183.60 
1856 -184.30 -184.49 -183.60 
1857 -184.33 -184.47 -183.60 
1858 -184.30 -184.46 -183.60 
1859 -184.33 -184.45 -183.60 
1860 -184.32 -184.42 -183.60 
1861 -184.28 -184.43 -183.60 
1862 -184.29 -184.43 -183.60 
1863 -184.30 -184.43 -183.60 
1864 -184.32 -184.42 -183.60 
1865 -184.31 -184.41 -183.60 
1866 -184.32 -184.41 -183.60 
1867 -184.31 -184.41 -183.60 
1868 -184.28 -184.41 -183.60 
1869 -184.30 -184.42 -183.60 
1870 -184.30 -184.43 -183.60 
1871 -184.29 -184.45 -183.60 
1872 -184.31 -184.45 -183.60 
1873 -184.32 -184.47 -183.60 
1874 -184.34 -184.46 -183.60 
1875 -184.33 -184.47 -183.60 
1876 -184.36 -184.48 -183.60 
1877 -184.38 -184.50 -183.60 
1878 -184.41 -184.52 -183.60 
1879 -184.41 -184.50 -183.60 
1880 -184.41 -184.51 -183.60 
1881 -184.42 -184.52 -183.60 
1882 -184.44 -184.51 -183.60 
1883 -184.43 -184.52 -183.60 
1884 -184.44 -184.50 -183.60 
1885 -184.42 -184.48 -183.60 
1886 -184.41 -184.50 -183.60 
1887 -184.41 -184.46 -183.60 
1888 -184.38 -184.46 -183.60 
1889 -184.39 -184.45 -183.60 
1890 -184.37 -184.44 -183.60 
1891 -184.36 -184.42 -183.60 
1892 -184.33 -184.42 -183.60 
1893 -184.34 -184.43 -183.60 
1894 -184.34 -184.45 -183.60 
1895 -184.36 -184.46 -183.60 
1896 -184.37 -184.47 -183.60 
1897 -184.38 -184.47 -183.60 
1898 -184.37 -184.46 -183.60 
1899 -184.36 -184.44 -183.60 
1900 -184.35 -184.44 -183.60 
1901 -184.33 -184.46 -183.60 
1902 -184.35 -184.47 -183.60 
1903 -184.34 -184.48 -183.60 
1904 -184.36 -184.46 -183.60 
1905 -184.35 -184.47 -183.60 
1906 -184.35 -184.46 -183.60 
1907 -184.34 -184.43 -183.60 
1908 -184.31 -184.43 -183.60 
1909 -184.32 -184.44 -183.60 
1910 -184.32 -184.43 -183.60 
1911 -184.31 -184.46 -183.60 
1912 -184.31 -184.45 -183.60 
1913 -184.28 -184.45 -183.60 
1914 -184.29 -184.45 -183.60 
1915 -184.27 -184.44 -183.60 
1916 -184.26 -184.45 -183.60 
1917 -184.25 -184.44 -183.60 
1918 -184.27 -184.42 -183.60 
1919 -184.27 -184.45 -183.60 
1920 -184.31 -184.44 -183.60 
1921 -184.33 -184.44 -183.60 
1922 -184.30 -184.45 -183.60 
1923 -184.31 -184.46 -183.60 
1924 -184.34 -184.44 -183.60 
1925 -184.33 -184.43 -183.60 
1926 -184.32 -184.45 -183.60 
1927 -184.34 -184.45 -183.60 
1928 -184.35 -184.47 -183.60 
1929 -184.38 -184.46 -183.60 
1930 -184.38 -184.48 -183.60 
1931 -184.41 -184.46 -183.60 
1932 -184.41 -184.42 -183.60 
1933 -184.35 -184.45 -183.60 
1934 -184.39 -184.43 -183.60 
1935 -184.38 -184.47 -183.60 
1936 -184.42 -184.47 -183.60 
1937 -184.42 -184.50 -183.60 
1938 -184.45 -184.50 -183.60 
1939 -184.44 -184.51 -183.60 
1940 -184.45 -184.53 -183.60 
1941 -184.47 -184.56 -183.60 
1942 -184.49 -184.58 -183.60 
1943 -184.52 -184.62 -183.60 
1944 -184.54 -184.58 -183.60 
1945 -184.52 -184.58 -183.60 
1946 -184.51 -184.57 -183.60 
1947 -184.51 -184.53 -183.60 
1948 -184.47 -184.56 -183.60 
1949 -184.49 -184.58 -183.60 
1950 -184.51 -184.58 -183.60 
1951 -184.51 -184.56 -183.60 
1952 -184.50 -184.55 -183.60 
1953 -184.48 -184.53 -183.60 
1954 -184.45 -184.53 -183.60 
1955 -184.45 -184.52 -183.60 
1956 -184.44 -184.54 -183.60 
1957 -184.46 -184.56 -183.60 
1958 -184.47 -184.53 -183.60 
1959 -184.45 -184.51 -183.60 
1960 -184.44 -184.50 -183.60 
1961 -184.41 -184.50 -183.60 
1962 -184.42 -184.49 -183.60 
1963 -184.42 -184.50 -183.60 
1964 -184.44 -184.49 -183.60 
1965 -184.45 -184.48 -183.60 
1966 -184.44 -184.50 -183.60 
1967 -184.46 -184.50 -183.60 
1968 -184.47 -184.51 -183.60 
1969 -184.48 -184.52 -183.60 
1970 -184.50 -184.50 -183.60 
1971 -184.49 -184.52 -183.60 
1972 -184.50 -184.50 -183.60 
1973 -184.50 -184.49 -183.60 
1974 -184.49 -184.48 -183.60 
1975 -184.48 -184.49 -183.60 
1976 -184.48 -184.47 -183.60 
1977 -184.46 -184.47 -183.60 
1978 -184.47 -184.46 -183.60 
1979 -184.47 -184.47 -183.60 
1980 -184.46 -184.46 -183.60 
1981 -184.45 -184.46 -183.60 
1982 -184.47 -184.46 -183.60 
1983 -184.46 -184.45 -183.60 
1984 -184.45 -184.48 -183.60 
1985 -184.48 -184.47 -183.60 
1986 -184.45 -184.48 -183.60 
1987 -184.47 -184.46 -183.60 
1988 -184.45 -184.46 -183.60 
1989 -184.45 -184.46 -183.60 
1990 -184.45 -184.46 -183.60 
1991 -184.47 -184.46 -183.60 
1992 -184.47 -184.46 -183.60 
1993 -184.48 -184.45 -183.60 
1994 -184.45 -184.45 -183.60 
1995 -184.45 -184.45 -183.60 
1996 -184.46 -184.46 -183.60 
1997 -184.48 -184.47 -183.60 
1998 -184.47 -184.47 -183.60 
1999 -184.47 -184.46 -183.60 
2000 -184.47 -184.47 -183.60 
2001 -184.47 -184.46 -183.60 
2002 -184.48 -184.45 -183.60 
2003 -184.45 -184.46 -183.60 
2004 -184.45 -184.47 -183.60 
2005 -184.46 -184.44 -183.60 
2006 -184.45 -184.45 -183.60 
2007 -184.46 -184.44 -183.60 
2008 -184.43 -184.45 -183.60 
2009 -184.46 -184.52 -183.60 
2010 -184.51 -184.56 -183.60 
2011 -184.53 -184.54 -183.60 
2012 -184.50 -184.55 -183.60 
2013 -184.50 -184.53 -183.60 
2014 -184.49 -184.54 -183.60 
2015 -184.50 -184.55 -183.60 
2016 -184.49 -184.53 -183.60 
2017 -184.47 -184.53 -183.60 
2018 -184.48 -184.52 -183.60 
2019 -184.48 -184.56 -183.60 
2020 -184.51 -184.57 -183.60 
2021 -184.53 -184.61 -183.60 
2022 -184.55 -184.52 -183.60 
2023 -184.48 -184.57 -183.60 
2024 -184.53 -184.57 -183.60 
2025 -184.54 -184.58 -183.60 
2026 -184.53 -184.57 -183.60 
2027 -184.52 -184.55 -183.60 
2028 -184.51 -184.54 -183.60 
2029 -184.50 -184.58 -183.60 
2030 -184.53 -184.56 -183.60 
2031 -184.50 -184.52 -183.60 
2032 -184.48 -184.50 -183.60 
2033 -184.44 -184.49 -183.60 
2034 -184.45 -184.52 -183.60 
2035 -184.47 -184.58 -183.60 
2036 -184.52 -184.51 -183.60 
2037 -184.46 -184.55 -183.60 
2038 -184.49 -184.59 -183.60 
2039 -184.52 -184.51 -183.60 
2040 -184.44 -184.54 -183.60 
2041 -184.46 -184.50 -183.60 
2042 -184.44 -184.59 -183.60 
2043 -184.52 -184.60 -183.60 
2044 -184.52 -184.66 -183.60 
2045 -184.57 -184.68 -183.60 
2046 -184.61 -184.77 -183.60 
2047 -184.69 -184.82 -183.60 
2048 -184.74 -184.85 -183.60 
2049 -184.78 -184.93 -183.60 
2050 -184.84 -184.95 -183.60 
2051 -184.86 -184.93 -183.60 
2052 -184.87 -184.93 -183.60 
2053 -184.83 -184.95 -183.60 
2054 -184.86 -184.94 -183.60 
2055 -184.85 -184.94 -183.60 
2056 -184.85 -184.93 -183.60 
2057 -184.83 -184.93 -183.60 
2058 -184.83 -184.91 -183.60 
2059 -184.79 -184.98 -183.60 
2060 -184.89 -185.01 -183.60 
2061 -184.90 -184.94 -183.60 
2062 -184.85 -184.96 -183.60 
2063 -184.88 -184.93 -183.60 
2064 -184.83 -184.93 -183.60 
2065 -184.83 -184.92 -183.60 
2066 -184.81 -184.88 -183.60 
2067 -184.78 -184.91 -183.60 
2068 -184.79 -184.90 -183.60 
2069 -184.73 -184.91 -183.60 
2070 -184.77 -184.89 -183.60 
2071 -184.77 -184.86 -183.60 
2072 -184.71 -184.77 -183.60 
2073 -184.63 -184.74 -183.60 
2074 -184.57 -184.84 -183.60 
2075 -184.68 -184.83 -183.60 
2076 -184.65 -184.86 -183.60 
2077 -184.69 -184.84 -183.60 
2078 -184.67 -184.76 -183.60 
2079 -184.59 -184.72 -183.60 
2080 -184.57 -184.65 -183.60 
2081 -184.51 -184.66 -183.60 
2082 -184.48 -184.72 -183.60 
2083 -184.54 -184.76 -183.60 
2084 -184.57 -184.74 -183.60 
2085 -184.52 -184.74 -183.60 
2086 -184.56 -184.75 -183.60 
2087 -184.56 -184.82 -183.60 
2088 -184.62 -184.77 -183.60 
2089 -184.58 -184.73 -183.60 
2090 -184.58 -184.72 -183.60 
2091 -184.57 -184.75 -183.60 
2092 -184.59 -184.81 -183.60 
2093 -184.64 -184.82 -183.60 
2094 -184.67 -184.81 -183.60 
2095 -184.66 -184.79 -183.60 
2096 -184.65 -184.79 -183.60 
2097 -184.65 -184.76 -183.60 
2098 -184.62 -184.81 -183.60 
2099 -184.68 -184.82 -183.60 
2100 -184.69 -184.87 -183.60 
2101 -184.71 -184.85 -183.60 
2102 -184.72 -184.80 -183.60 
2103 -184.65 -184.78 -183.60 
2104 -184.67 -184.75 -183.60 
2105 -184.63 -184.72 -183.60 
2106 -184.61 -184.69 -183.60 
2107 -184.59 -184.70 -183.60 
2108 -184.60 -184.68 -183.60 
2109 -184.60 -184.69 -183.60 
2110 -184.58 -184.76 -183.60 
2111 -184.67 -184.75 -183.60 
2112 -184.64 -184.84 -183.60 
2113 -184.73 -184.84 -183.60 
2114 -184.74 -184.79 -183.60 
2115 -184.67 -184.77 -183.60 
2116 -184.66 -184.75 -183.60 
2117 -184.65 -184.73 -183.60 
2118 -184.63 -184.70 -183.60 
2119 -184.59 -184.71 -183.60 
2120 -184.61 -184.70 -183.60 
2121 -184.60 -184.74 -183.60 
2122 -184.63 -184.74 -183.60 
2123 -184.62 -184.73 -183.60 
2124 -184.59 -184.75 -183.60 
2125 -184.63 -184.71 -183.60 
2126 -184.59 -184.67 -183.60 
2127 -184.55 -184.64 -183.60 
2128 -184.53 -184.65 -183.60 
2129 -184.52 -184.67 -183.60 
2130 -184.55 -184.70 -183.60 
2131 -184.59 -184.73 -183.60 
2132 -184.64 -184.71 -183.60 
2133 -184.61 -184.72 -183.60 
2134 -184.59 -184.73 -183.60 
2135 -184.62 -184.72 -183.60 
2136 -184.61 -184.71 -183.60 
2137 -184.59 -184.72 -183.60 
2138 -184.61 -184.73 -183.60 
2139 -184.62 -184.71 -183.60 
2140 -184.58 -184.73 -183.60 
2141 -184.57 -184.78 -183.60 
2142 -184.64 -184.76 -183.60 
2143 -184.64 -184.80 -183.60 
2144 -184.67 -184.80 -183.60 
2145 -184.69 -184.77 -183.60 
2146 -184.66 -184.74 -183.60 
2147 -184.64 -184.81 -183.60 
2148 -184.73 -184.77 -183.60 
2149 -184.68 -184.74 -183.60 
2150 -184.66 -184.79 -183.60 
2151 -184.72 -184.83 -183.60 
2152 -184.73 -184.86 -183.60 
2153 -184.77 -184.93 -183.60 
2154 -184.83 -184.97 -183.60 
2155 -184.88 -185.00 -183.60 
2156 -184.90 -185.06 -183.60 
2157 -184.96 -185.11 -183.60 
2158 -185.02 -185.13 -183.60 
2159 -185.03 -185.06 -183.60 
2160 -184.98 -185.15 -183.60 
2161 -185.06 -185.16 -183.60 
2162 -185.07 -185.11 -183.60 
2163 -185.02 -185.15 -183.60 
2164 -185.07 -185.15 -183.60 
2165 -185.05 -185.13 -183.60 
2166 -185.03 -185.14 -183.60 
2167 -185.06 -185.21 -183.60 
2168 -185.11 -185.22 -183.60 
2169 -185.14 -185.21 -183.60 
2170 -185.11 -185.17 -183.60 
2171 -185.12 -185.15 -183.60 
2172 -185.07 -185.15 -183.60 
2173 -185.08 -185.11 -183.60 
2174 -185.04 -185.12 -183.60 
2175 -185.04 -185.09 -183.60 
2176 -185.04 -185.11 -183.60 
2177 -185.08 -185.17 -183.60 
2178 -185.12 -185.18 -183.60 
2179 -185.13 -185.19 -183.60 
2180 -185.13 -185.21 -183.60 
2181 -185.12 -185.16 -183.60 
2182 -185.08 -185.13 -183.60 
2183 -185.05 -185.11 -183.60 
2184 -185.02 -185.15 -183.60 
2185 -185.06 -185.04 -183.60 
2186 -184.93 -184.99 -183.60 
2187 -184.88 -185.00 -183.60 
2188 -184.90 -184.99 -183.60 
2189 -184.87 -185.03 -183.60 
2190 -184.89 -184.99 -183.60 
2191 -184.86 -184.94 -183.60 
2192 -184.84 -184.88 -183.60 
2193 -184.77 -184.88 -183.60 
2194 -184.78 -184.86 -183.60 
2195 -184.73 -184.84 -183.60 
2196 -184.72 -184.81 -183.60 
2197 -184.73 -184.79 -183.60 
2198 -184.68 -184.78 -183.60 
2199 -184.66 -184.82 -183.60 
2200 -184.72 -184.88 -183.60 
2201 -184.78 -184.87 -183.60 
2202 -184.83 -184.95 -183.60 
2203 -184.88 -184.98 -183.60 
2204 -184.90 -184.91 -183.60 
2205 -184.83 -184.94 -183.60 
2206 -184.86 -184.96 -183.60 
2207 -184.88 -185.00 -183.60 
2208 -184.92 -184.97 -183.60 
2209 -184.90 -185.01 -183.60 
2210 -184.94 -185.03 -183.60 
2211 -184.97 -185.02 -183.60 
2212 -184.96 -185.00 -183.60 
2213 -184.92 -184.96 -183.60 
2214 -184.90 -184.91 -183.60 
2215 -184.85 -184.94 -183.60 
2216 -184.87 -185.00 -183.60 
2217 -184.93 -184.99 -183.60 
2218 -184.92 -185.05 -183.60 
2219 -184.98 -185.05 -183.60 
2220 -184.97 -184.96 -183.60 
2221 -184.89 -185.02 -183.60 
2222 -184.95 -185.08 -183.60 
2223 -184.98 -185.01 -183.60 
2224 -184.92 -184.95 -183.60 
2225 -184.85 -184.99 -183.60 
2226 -184.90 -185.00 -183.60 
2227 -184.92 -184.99 -183.60 
2228 -184.90 -185.03 -183.60 
2229 -184.94 -185.00 -183.60 
2230 -184.92 -185.04 -183.60 
2231 -184.95 -185.02 -183.60 
2232 -184.93 -185.03 -183.60 
2233 -184.95 -185.02 -183.60 
2234 -184.93 -184.99 -183.60 
2235 -184.87 -184.99 -183.60 
2236 -184.88 -184.99 -183.60 
2237 -184.89 -184.94 -183.60 
2238 -184.84 -184.87 -183.60 
2239 -184.76 -184.93 -183.60 
2240 -184.82 -184.99 -183.60 
2241 -184.89 -184.97 -183.60 
2242 -184.87 -185.01 -183.60 
2243 -184.91 -184.97 -183.60 
2244 -184.86 -184.95 -183.60 
2245 -184.83 -184.89 -183.60 
2246 -184.77 -184.94 -183.60 
2247 -184.80 -184.98 -183.60 
2248 -184.85 -184.99 -183.60 
2249 -184.87 -184.98 -183.60 
2250 -184.85 -184.98 -183.60 
2251 -184.84 -184.96 -183.60 
2252 -184.83 -184.98 -183.60 
2253 -184.83 -185.03 -183.60 
2254 -184.91 -185.03 -183.60 
2255 -184.90 -185.06 -183.60 
2256 -184.94 -185.08 -183.60 
2257 -184.96 -185.09 -183.60 
2258 -184.97 -185.04 -183.60 
2259 -184.93 -185.09 -183.60 
2260 -184.98 -185.16 -183.60 
2261 -185.04 -185.22 -183.60 
2262 -185.08 -185.18 -183.60 
2263 -185.04 -185.17 -183.60 
2264 -185.02 -185.17 -183.60 
2265 -185.00 -185.11 -183.60 
2266 -184.92 -185.11 -183.60 
2267 -184.93 -185.20 -183.60 
2268 -184.99 -185.19 -183.60 
2269 -184.99 -185.21 -183.60 
2270 -185.04 -185.21 -183.60 
2271 -185.04 -185.14 -183.60 
2272 -184.95 -185.16 -183.60 
2273 -184.98 -185.15 -183.60 
2274 -184.98 -185.18 -183.60 
2275 -185.00 -185.20 -183.60 
2276 -184.98 -185.25 -183.60 
2277 -185.03 -185.20 -183.60 
2278 -184.99 -185.19 -183.60 
2279 -184.97 -185.24 -183.60 
2280 -185.03 -185.26 -183.60 
2281 -185.07 -185.29 -183.60 
2282 -185.13 -185.29 -183.60 
2283 -185.09 -185.30 -183.60 
2284 -185.11 -185.35 -183.60 
2285 -185.18 -185.43 -183.60 
2286 -185.25 -185.41 -183.60 
2287 -185.22 -185.43 -183.60 
2288 -185.23 -185.45 -183.60 
2289 -185.25 -185.43 -183.60 
2290 -185.22 -185.49 -183.60 
2291 -185.24 -185.41 -183.60 
2292 -185.17 -185.39 -183.60 
2293 -185.14 -185.43 -183.60 
2294 -185.17 -185.46 -183.60 
2295 -185.22 -185.49 -183.60 
2296 -185.24 -185.49 -183.60 
2297 -185.20 -185.52 -183.60 
2298 -185.21 -185.52 -183.60 
2299 -185.18 -185.54 -183.60 
2300 -185.21 -185.54 -183.60 
2301 -185.19 -185.66 -183.60 
2302 -185.32 -185.62 -183.60 
2303 -185.30 -185.61 -183.60 
2304 -185.34 -185.59 -183.60 
2305 -185.31 -185.58 -183.60 
2306 -185.33 -185.57 -183.60 
2307 -185.31 -185.59 -183.60 
2308 -185.35 -185.58 -183.60 
2309 -185.33 -185.56 -183.60 
2310 -185.33 -185.59 -183.60 
2311 -185.37 -185.60 -183.60 
2312 -185.40 -185.53 -183.60 
2313 -185.34 -185.57 -183.60 
2314 -185.38 -185.55 -183.60 
2315 -185.37 -185.65 -183.60 
2316 -185.48 -185.73 -183.60 
2317 -185.54 -185.75 -183.60 
2318 -185.60 -185.71 -183.60 
2319 -185.53 -185.72 -183.60 
2320 -185.54 -185.77 -183.60 
2321 -185.58 -185.73 -183.60 
2322 -185.56 -185.78 -183.60 
2323 -185.57 -185.73 -183.60 
2324 -185.54 -185.72 -183.60 
2325 -185.53 -185.72 -183.60 
2326 -185.54 -185.62 -183.60 
2327 -185.47 -185.60 -183.60 
2328 -185.45 -185.63 -183.60 
2329 -185.46 -185.57 -183.60 
2330 -185.41 -185.56 -183.60 
2331 -185.42 -185.54 -183.60 
2332 -185.39 -185.55 -183.60 
2333 -185.38 -185.54 -183.60 
2334 -185.36 -185.51 -183.60 
2335 -185.36 -185.58 -183.60 
2336 -185.42 -185.62 -183.60 
2337 -185.44 -185.64 -183.60 
2338 -185.45 -185.62 -183.60 
2339 -185.43 -185.63 -183.60 
2340 -185.44 -185.67 -183.60 
2341 -185.46 -185.66 -183.60 
2342 -185.47 -185.66 -183.60 
2343 -185.49 -185.64 -183.60 
2344 -185.47 -185.63 -183.60 
2345 -185.47 -185.65 -183.60 
2346 -185.51 -185.68 -183.60 
2347 -185.54 -185.66 -183.60 
2348 -185.54 -185.70 -183.60 
2349 -185.59 -185.76 -183.60 
2350 -185.67 -185.78 -183.60 
2351 -185.67 -185.76 -183.60 
2352 -185.66 -185.81 -183.60 
2353 -185.69 -185.86 -183.60 
2354 -185.75 -185.86 -183.60 
2355 -185.75 -185.87 -183.60 
2356 -185.75 -185.84 -183.60 
2357 -185.72 -185.84 -183.60 
2358 -185.70 -185.88 -183.60 
2359 -185.77 -185.87 -183.60 
2360 -185.75 -185.86 -183.60 
2361 -185.73 -185.87 -183.60 
2362 -185.75 -185.86 -183.60 
2363 -185.73 -185.83 -183.60 
2364 -185.70 -185.84 -183.60 
2365 -185.73 -185.81 -183.60 
2366 -185.70 -185.81 -183.60 
2367 -185.71 -185.79 -183.60 
2368 -185.68 -185.81 -183.60 
2369 -185.71 -185.83 -183.60 
2370 -185.72 -185.82 -183.60 
2371 -185.73 -185.83 -183.60 
2372 -185.71 -185.79 -183.60 
2373 -185.67 -185.82 -183.60 
2374 -185.71 -185.86 -183.60 
2375 -185.74 -185.79 -183.60 
2376 -185.67 -185.78 -183.60 
2377 -185.65 -185.81 -183.60 
2378 -185.68 -185.84 -183.60 
2379 -185.73 -185.83 -183.60 
2380 -185.70 -185.92 -183.60 
2381 -185.82 -185.94 -183.60 
2382 -185.84 -185.96 -183.60 
2383 -185.83 -186.00 -183.60 
2384 -185.89 -185.97 -183.60 
2385 -185.86 -185.93 -183.60 
2386 -185.80 -185.94 -183.60 
2387 -185.84 -185.95 -183.60 
2388 -185.85 -186.02 -183.60 
2389 -185.90 -186.02 -183.60 
2390 -185.90 -186.01 -183.60 
2391 -185.88 -186.00 -183.60 
2392 -185.87 -185.93 -183.60 
2393 -185.82 -185.88 -183.60 
2394 -185.77 -185.84 -183.60 
2395 -185.71 -185.83 -183.60 
2396 -185.69 -185.79 -183.60 
2397 -185.67 -185.79 -183.60 
2398 -185.69 -185.74 -183.60 
2399 -185.60 -185.76 -183.60 
2400 -185.63 -185.78 -183.60 
2401 -185.64 -185.73 -183.60 
2402 -185.62 -185.71 -183.60 
2403 -185.62 -185.66 -183.60 
2404 -185.56 -185.63 -183.60 
2405 -185.62 -185.63 -183.60 
2406 -185.58 -185.63 -183.60 
2407 -185.53 -185.61 -183.60 
2408 -185.50 -185.61 -183.60 
2409 -185.49 -185.60 -183.60 
2410 -185.57 -185.55 -183.60 
2411 -185.47 -185.55 -183.60 
2412 -185.49 -185.53 -183.60 
2413 -185.45 -185.47 -183.60 
2414 -185.39 -185.44 -183.60 
2415 -185.37 -185.38 -183.60 
2416 -185.33 -185.41 -183.60 
2417 -185.32 -185.41 -183.60 
2418 -185.33 -185.35 -183.60 
2419 -185.27 -185.31 -183.60 
2420 -185.22 -185.33 -183.60 
2421 -185.23 -185.34 -183.60 
2422 -185.26 -185.29 -183.60 
2423 -185.21 -185.21 -183.60 
2424 -185.15 -185.24 -183.60 
2425 -185.14 -185.29 -183.60 
2426 -185.21 -185.39 -183.60 
2427 -185.29 -185.36 -183.60 
2428 -185.28 -185.28 -183.60 
2429 -185.21 -185.29 -183.60 
2430 -185.20 -185.36 -183.60 
2431 -185.30 -185.36 -183.60 
2432 -185.28 -185.36 -183.60 
2433 -185.28 -185.42 -183.60 
2434 -185.34 -185.40 -183.60 
2435 -185.32 -185.42 -183.60 
2436 -185.34 -185.43 -183.60 
2437 -185.35 -185.43 -183.60 
2438 -185.34 -185.42 -183.60 
2439 -185.34 -185.40 -183.60 
2440 -185.31 -185.35 -183.60 
2441 -185.26 -185.37 -183.60 
2442 -185.28 -185.39 -183.60 
2443 -185.29 -185.39 -183.60 
2444 -185.31 -185.44 -183.60 
2445 -185.34 -185.38 -183.60 
2446 -185.26 -185.42 -183.60 
2447 -185.28 -185.42 -183.60 
2448 -185.27 -185.41 -183.60 
2449 -185.28 -185.41 -183.60 
2450 -185.26 -185.47 -183.60 
2451 -185.30 -185.44 -183.60 
2452 -185.28 -185.44 -183.60 
2453 -185.31 -185.41 -183.60 
2454 -185.26 -185.40 -183.60 
2455 -185.27 -185.38 -183.60 
2456 -185.25 -185.34 -183.60 
2457 -185.18 -185.34 -183.60 
2458 -185.21 -185.34 -183.60 
2459 -185.21 -185.27 -183.60 
2460 -185.14 -185.27 -183.60 
2461 -185.11 -185.26 -183.60 
2462 -185.11 -185.29 -183.60 
2463 -185.13 -185.29 -183.60 
2464 -185.15 -185.34 -183.60 
2465 -185.22 -185.32 -183.60 
2466 -185.19 -185.30 -183.60 
2467 -185.16 -185.33 -183.60 
2468 -185.19 -185.30 -183.60 
2469 -185.18 -185.26 -183.60 
2470 -185.17 -185.23 -183.60 
2471 -185.14 -185.21 -183.60 
2472 -185.11 -185.11 -183.60 
2473 -185.06 -185.16 -183.60 
2474 -185.10 -185.16 -183.60 
2475 -185.10 -185.17 -183.60 
2476 -185.11 -185.19 -183.60 
2477 -185.11 -185.17 -183.60 
2478 -185.09 -185.13 -183.60 
2479 -185.08 -185.12 -183.60 
2480 -185.06 -185.07 -183.60 
2481 -185.00 -185.10 -183.60 
2482 -185.02 -185.08 -183.60 
2483 -185.02 -185.10 -183.60 
2484 -185.03 -185.17 -183.60 
2485 -185.09 -185.23 -183.60 
2486 -185.13 -185.18 -183.60 
2487 -185.08 -185.17 -183.60 
2488 -185.06 -185.03 -183.60 
2489 -184.96 -185.03 -183.60 
2490 -184.97 -184.95 -183.60 
2491 -184.90 -184.92 -183.60 
2492 -184.89 -184.91 -183.60 
2493 -184.87 -184.92 -183.60 
2494 -184.87 -184.93 -183.60 
2495 -184.88 -184.93 -183.60 
2496 -184.88 -184.90 -183.60 
2497 -184.87 -184.92 -183.60 
2498 -184.88 -184.92 -183.60 
2499 -184.87 -184.92 -183.60 
2500 -184.88 -184.92 -183.60 
2501 -184.87 -184.92 -183.60 
2502 -184.85 -184.91 -183.60 
2503 -184.84 -184.93 -183.60 
2504 -184.86 -184.99 -183.60 
2505 -184.92 -184.98 -183.60 
2506 -184.92 -184.97 -183.60 
2507 -184.89 -184.94 -183.60 
2508 -184.86 -184.91 -183.60 
2509 -184.83 -184.95 -183.60 
2510 -184.86 -184.97 -183.60 
2511 -184.88 -184.94 -183.60 
2512 -184.84 -184.97 -183.60 
2513 -184.86 -185.03 -183.60 
2514 -184.94 -184.97 -183.60 
2515 -184.87 -184.98 -183.60 
2516 -184.87 -184.99 -183.60 
2517 -184.87 -185.01 -183.60 
2518 -184.89 -184.98 -183.60 
2519 -184.87 -184.99 -183.60 
2520 -184.87 -184.99 -183.60 
2521 -184.85 -184.93 -183.60 
2522 -184.80 -184.91 -183.60 
2523 -184.78 -184.92 -183.60 
2524 -184.82 -184.89 -183.60 
2525 -184.80 -184.87 -183.60 
2526 -184.79 -184.85 -183.60 
2527 -184.78 -184.83 -183.60 
2528 -184.76 -184.86 -183.60 
2529 -184.80 -184.84 -183.60 
2530 -184.80 -184.82 -183.60 
2531 -184.78 -184.88 -183.60 
2532 -184.81 -184.83 -183.60 
2533 -184.78 -184.84 -183.60 
2534 -184.77 -184.88 -183.60 
2535 -184.80 -184.86 -183.60 
2536 -184.80 -184.88 -183.60 
2537 -184.84 -184.88 -183.60 
2538 -184.83 -184.93 -183.60 
2539 -184.86 -184.88 -183.60 
2540 -184.81 -184.85 -183.60 
2541 -184.79 -184.87 -183.60 
2542 -184.80 -184.93 -183.60 
2543 -184.85 -184.94 -183.60 
2544 -184.85 -184.90 -183.60 
2545 -184.84 -184.92 -183.60 
2546 -184.85 -184.88 -183.60 
2547 -184.83 -184.82 -183.60 
2548 -184.76 -184.86 -183.60 
2549 -184.79 -184.89 -183.60 
2550 -184.84 -184.94 -183.60 
2551 -184.89 -184.93 -183.60 
2552 -184.87 -184.95 -183.60 
2553 -184.90 -184.96 -183.60 
2554 -184.89 -184.91 -183.60 
2555 -184.86 -184.94 -183.60 
2556 -184.88 -184.86 -183.60 
2557 -184.83 -184.97 -183.60 
2558 -184.91 -184.95 -183.60 
2559 -184.88 -185.06 -183.60 
2560 -184.99 -185.14 -183.60 
2561 -185.04 -185.10 -183.60 
2562 -185.03 -185.10 -183.60 
2563 -185.02 -185.14 -183.60 
2564 -185.06 -185.14 -183.60 
2565 -185.08 -185.08 -183.60 
2566 -185.00 -185.08 -183.60 
2567 -185.03 -185.09 -183.60 
2568 -185.05 -185.05 -183.60 
2569 -185.01 -185.07 -183.60 
2570 -185.03 -185.11 -183.60 
2571 -185.05 -185.18 -183.60 
2572 -185.15 -185.22 -183.60 
2573 -185.15 -185.21 -183.60 
2574 -185.15 -185.20 -183.60 
2575 -185.13 -185.09 -183.60 
2576 -185.03 -185.07 -183.60 
2577 -185.00 -185.11 -183.60 
2578 -185.05 -185.07 -183.60 
2579 -185.00 -185.01 -183.60 
2580 -184.96 -185.04 -183.60 
2581 -184.98 -185.06 -183.60 
2582 -185.00 -185.07 -183.60 
2583 -185.02 -185.06 -183.60 
2584 -184.98 -185.02 -183.60 
2585 -184.96 -185.07 -183.60 
2586 -185.01 -185.07 -183.60 
2587 -185.02 -185.03 -183.60 
2588 -184.98 -185.06 -183.60 
2589 -185.00 -184.97 -183.60 
2590 -184.92 -184.94 -183.60 
2591 -184.88 -184.93 -183.60 
2592 -184.89 -184.95 -183.60 
2593 -184.91 -184.95 -183.60 
2594 -184.89 -184.89 -183.60 
2595 -184.86 -184.87 -183.60 
2596 -184.84 -184.86 -183.60 
2597 -184.83 -184.84 -183.60 
2598 -184.81 -184.84 -183.60 
2599 -184.81 -184.85 -183.60 
2600 -184.81 -184.83 -183.60 
2601 -184.80 -184.81 -183.60 
2602 -184.76 -184.78 -183.60 
2603 -184.73 -184.77 -183.60 
2604 -184.73 -184.79 -183.60 
2605 -184.75 -184.79 -183.60 
2606 -184.76 -184.82 -183.60 
2607 -184.77 -184.87 -183.60 
2608 -184.83 -184.82 -183.60 
2609 -184.79 -184.87 -183.60 
2610 -184.84 -184.90 -183.60 
2611 -184.87 -184.89 -183.60 
2612 -184.85 -184.96 -183.60 
2613 -184.92 -184.89 -183.60 
2614 -184.84 -184.93 -183.60 
2615 -184.88 -184.95 -183.60 
2616 -184.91 -184.94 -183.60 
2617 -184.89 -184.99 -183.60 
2618 -184.94 -184.98 -183.60 
2619 -184.93 -185.01 -183.60 
2620 -184.95 -184.98 -183.60 
2621 -184.94 -184.95 -183.60 
2622 -184.91 -184.93 -183.60 
2623 -184.89 -184.96 -183.60 
2624 -184.92 -184.96 -183.60 
2625 -184.92 -185.04 -183.60 
2626 -184.99 -185.04 -183.60 
2627 -184.97 -185.01 -183.60 
2628 -184.94 -185.07 -183.60 
2629 -185.02 -185.10 -183.60 
2630 -185.05 -185.17 -183.60 
2631 -185.10 -185.13 -183.60 
2632 -185.08 -185.17 -183.60 
2633 -185.12 -185.10 -183.60 
2634 -185.06 -185.08 -183.60 
2635 -185.04 -185.08 -183.60 
2636 -185.04 -185.07 -183.60 
2637 -185.02 -185.02 -183.60 
2638 -184.97 -185.10 -183.60 
2639 -185.05 -185.09 -183.60 
2640 -185.03 -185.08 -183.60 
2641 -185.02 -185.04 -183.60 
2642 -184.99 -184.97 -183.60 
2643 -184.92 -184.96 -183.60 
2644 -184.91 -184.91 -183.60 
2645 -184.87 -184.95 -183.60 
2646 -184.90 -184.94 -183.60 
2647 -184.90 -185.00 -183.60 
2648 -184.95 -185.04 -183.60 
2649 -185.00 -185.02 -183.60 
2650 -184.98 -184.95 -183.60 
2651 -184.90 -184.90 -183.60 
2652 -184.85 -184.87 -183.60 
2653 -184.83 -184.79 -183.60 
2654 -184.75 -184.77 -183.60 
2655 -184.73 -184.76 -183.60 
2656 -184.73 -184.73 -183.60 
2657 -184.70 -184.77 -183.60 
2658 -184.74 -184.75 -183.60 
2659 -184.71 -184.73 -183.60 
2660 -184.71 -184.71 -183.60 
2661 -184.69 -184.69 -183.60 
2662 -184.67 -184.65 -183.60 
2663 -184.62 -184.66 -183.60 
2664 -184.62 -184.67 -183.60 
2665 -184.63 -184.67 -183.60 
2666 -184.62 -184.72 -183.60 
2667 -184.68 -184.76 -183.60 
2668 -184.72 -184.80 -183.60 
2669 -184.75 -184.79 -183.60 
2670 -184.74 -184.78 -183.60 
2671 -184.73 -184.82 -183.60 
2672 -184.76 -184.84 -183.60 
2673 -184.78 -184.87 -183.60 
2674 -184.81 -184.90 -183.60 
2675 -184.84 -184.89 -183.60 
2676 -184.82 -184.82 -183.60 
2677 -184.76 -184.79 -183.60 
2678 -184.71 -184.81 -183.60 
2679 -184.71 -184.80 -183.60 
2680 -184.73 -184.80 -183.60 
2681 -184.71 -184.76 -183.60 
2682 -184.66 -184.76 -183.60 
2683 -184.66 -184.74 -183.60 
2684 -184.63 -184.74 -183.60 
2685 -184.67 -184.75 -183.60 
2686 -184.69 -184.75 -183.60 
2687 -184.70 -184.78 -183.60 
2688 -184.73 -184.78 -183.60 
2689 -184.72 -184.78 -183.60 
2690 -184.72 -184.78 -183.60 
2691 -184.72 -184.78 -183.60 
2692 -184.71 -184.77 -183.60 
2693 -184.71 -184.76 -183.60 
2694 -184.67 -184.77 -183.60 
2695 -184.66 -184.78 -183.60 
2696 -184.68 -184.79 -183.60 
2697 -184.66 -184.71 -183.60 
2698 -184.57 -184.72 -183.60 
2699 -184.59 -184.71 -183.60 
2700 -184.58 -184.73 -183.60 
2701 -184.56 -184.73 -183.60 
2702 -184.57 -184.71 -183.60 
2703 -184.53 -184.69 -183.60 
2704 -184.51 -184.70 -183.60 
2705 -184.55 -184.68 -183.60 
2706 -184.53 -184.68 -183.60 
2707 -184.53 -184.66 -183.60 
2708 -184.52 -184.63 -183.60 
2709 -184.49 -184.68 -183.60 
2710 -184.53 -184.67 -183.60 
2711 -184.50 -184.68 -183.60 
2712 -184.51 -184.69 -183.60 
2713 -184.54 -184.71 -183.60 
2714 -184.56 -184.72 -183.60 
2715 -184.57 -184.70 -183.60 
2716 -184.54 -184.67 -183.60 
2717 -184.52 -184.66 -183.60 
2718 -184.52 -184.67 -183.60 
2719 -184.48 -184.70 -183.60 
2720 -184.53 -184.69 -183.60 
2721 -184.52 -184.72 -183.60 
2722 -184.56 -184.74 -183.60 
2723 -184.58 -184.75 -183.60 
2724 -184.57 -184.76 -183.60 
2725 -184.61 -184.80 -183.60 
2726 -184.66 -184.79 -183.60 
2727 -184.65 -184.81 -183.60 
2728 -184.69 -184.81 -183.60 
2729 -184.70 -184.81 -183.60 
2730 -184.73 -184.82 -183.60 
2731 -184.71 -184.84 -183.60 
2732 -184.74 -184.86 -183.60 
2733 -184.77 -184.88 -183.60 
2734 -184.79 -184.85 -183.60 
2735 -184.75 -184.83 -183.60 
2736 -184.73 -184.84 -183.60 
2737 -184.76 -184.86 -183.60 
2738 -184.76 -184.88 -183.60 
2739 -184.78 -184.88 -183.60 
2740 -184.80 -184.87 -183.60 
2741 -184.80 -184.89 -183.60 
2742 -184.80 -184.88 -183.60 
2743 -184.82 -184.84 -183.60 
2744 -184.80 -184.84 -183.60 
2745 -184.78 -184.85 -183.60 
2746 -184.79 -184.88 -183.60 
2747 -184.80 -184.89 -183.60 
2748 -184.82 -184.87 -183.60 
2749 -184.81 -184.87 -183.60 
2750 -184.79 -184.86 -183.60 
2751 -184.79 -184.85 -183.60 
2752 -184.76 -184.85 -183.60 
2753 -184.77 -184.84 -183.60 
2754 -184.76 -184.82 -183.60 
2755 -184.77 -184.86 -183.60 
2756 -184.79 -184.88 -183.60 
2757 -184.82 -184.89 -183.60 
2758 -184.81 -184.87 -183.60 
2759 -184.82 -184.86 -183.60 
2760 -184.82 -184.83 -183.60 
2761 -184.80 -184.85 -183.60 
2762 -184.78 -184.84 -183.60 
2763 -184.76 -184.86 -183.60 
2764 -184.77 -184.89 -183.60 
2765 -184.79 -184.88 -183.60 
2766 -184.77 -184.86 -183.60 
2767 -184.75 -184.85 -183.60 
2768 -184.74 -184.88 -183.60 
2769 -184.76 -184.86 -183.60 
2770 -184.76 -184.89 -183.60 
2771 -184.78 -184.89 -183.60 
2772 -184.77 -184.91 -183.60 
2773 -184.79 -184.90 -183.60 
2774 -184.77 -184.87 -183.60 
2775 -184.76 -184.87 -183.60 
2776 -184.75 -184.84 -183.60 
2777 -184.72 -184.82 -183.60 
2778 -184.68 -184.83 -183.60 
2779 -184.69 -184.83 -183.60 
2780 -184.69 -184.86 -183.60 
2781 -184.73 -184.86 -183.60 
2782 -184.71 -184.86 -183.60 
2783 -184.72 -184.89 -183.60 
2784 -184.73 -184.88 -183.60 
2785 -184.72 -184.90 -183.60 
2786 -184.75 -184.87 -183.60 
2787 -184.76 -184.85 -183.60 
2788 -184.74 -184.83 -183.60 
2789 -184.72 -184.84 -183.60 
2790 -184.71 -184.85 -183.60 
2791 -184.67 -184.85 -183.60 
2792 -184.70 -184.85 -183.60 
2793 -184.71 -184.86 -183.60 
2794 -184.71 -184.85 -183.60 
2795 -184.69 -184.84 -183.60 
2796 -184.68 -184.88 -183.60 
2797 -184.70 -184.89 -183.60 
2798 -184.73 -184.90 -183.60 
2799 -184.74 -184.94 -183.60 
2800 -184.77 -184.92 -183.60 
2801 -184.76 -184.91 -183.60 
2802 -184.77 -184.92 -183.60 
2803 -184.77 -184.92 -183.60 
2804 -184.77 -184.93 -183.60 
2805 -184.76 -184.96 -183.60 
2806 -184.79 -184.94 -183.60 
2807 -184.78 -184.98 -183.60 
2808 -184.83 -184.95 -183.60 
2809 -184.80 -184.96 -183.60 
2810 -184.81 -184.96 -183.60 
2811 -184.77 -184.97 -183.60 
2812 -184.81 -185.00 -183.60 
2813 -184.84 -185.05 -183.60 
2814 -184.86 -185.06 -183.60 
2815 -184.87 -185.06 -183.60 
2816 -184.85 -185.02 -183.60 
2817 -184.80 -185.03 -183.60 
2818 -184.79 -185.01 -183.60 
2819 -184.80 -184.99 -183.60 
2820 -184.77 -184.98 -183.60 
2821 -184.80 -184.96 -183.60 
2822 -184.76 -184.97 -183.60 
2823 -184.78 -184.97 -183.60 
2824 -184.80 -184.96 -183.60 
2825 -184.76 -184.99 -183.60 
2826 -184.79 -185.01 -183.60 
2827 -184.78 -185.05 -183.60 
2828 -184.80 -185.05 -183.60 
2829 -184.76 -185.04 -183.60 
2830 -184.77 -185.08 -183.60 
2831 -184.78 -185.06 -183.60 
2832 -184.73 -185.02 -183.60 
2833 -184.71 -184.96 -183.60 
2834 -184.63 -184.97 -183.60 
2835 -184.61 -184.98 -183.60 
2836 -184.59 -184.93 -183.60 
2837 -184.55 -184.94 -183.60 
2838 -184.54 -185.02 -183.60 
2839 -184.59 -184.96 -183.60 
2840 -184.53 -184.96 -183.60 
2841 -184.56 -184.97 -183.60 
2842 -184.58 -185.00 -183.60 
2843 -184.57 -185.01 -183.60 
2844 -184.57 -184.95 -183.60 
2845 -184.54 -184.97 -183.60 
2846 -184.57 -184.96 -183.60 
2847 -184.59 -184.95 -183.60 
2848 -184.50 -185.01 -183.60 
2849 -184.57 -184.97 -183.60 
2850 -184.56 -184.93 -183.60 
2851 -184.52 -184.95 -183.60 
2852 -184.51 -184.89 -183.60 
2853 -184.48 -184.93 -183.60 
2854 -184.51 -184.92 -183.60 
2855 -184.53 -184.88 -183.60 
2856 -184.46 -184.91 -183.60 
2857 -184.50 -184.92 -183.60 
2858 -184.50 -184.91 -183.60 
2859 -184.47 -184.94 -183.60 
2860 -184.46 -184.92 -183.60 
2861 -184.42 -184.94 -183.60 
2862 -184.41 -184.97 -183.60 
2863 -184.39 -184.93 -183.60 
2864 -184.38 -184.88 -183.60 
2865 -184.36 -184.91 -183.60 
2866 -184.39 -184.92 -183.60 
2867 -184.38 -184.91 -183.60 
2868 -184.36 -184.88 -183.60 
2869 -184.36 -184.79 -183.60 
2870 -184.33 -184.77 -183.60 
2871 -184.30 -184.73 -183.60 
2872 -184.32 -184.79 -183.60 
2873 -184.38 -184.80 -183.60 
2874 -184.36 -184.80 -183.60 
2875 -184.38 -184.81 -183.60 
2876 -184.36 -184.79 -183.60 
2877 -184.30 -184.82 -183.60 
2878 -184.31 -184.80 -183.60 
2879 -184.34 -184.86 -183.60 
2880 -184.39 -184.86 -183.60 
2881 -184.35 -184.81 -183.60 
2882 -184.29 -184.75 -183.60 
2883 -184.24 -184.80 -183.60 
2884 -184.30 -184.92 -183.60 
2885 -184.34 -184.98 -183.60 
2886 -184.41 -184.92 -183.60 
2887 -184.40 -184.88 -183.60 
2888 -184.37 -184.81 -183.60 
2889 -184.31 -184.75 -183.60 
2890 -184.27 -184.79 -183.60 
2891 -184.26 -184.92 -183.60 
2892 -184.37 -184.97 -183.60 
2893 -184.42 -184.80 -183.60 
2894 -184.25 -184.83 -183.60 
2895 -184.25 -184.73 -183.60 
2896 -184.19 -184.81 -183.60 
2897 -184.21 -184.80 -183.60 
2898 -184.24 -184.88 -183.60 
2899 -184.32 -184.88 -183.60 
2900 -184.33 -184.98 -183.60 
2901 -184.37 -185.01 -183.60 
2902 -184.42 -185.05 -183.60 
2903 -184.51 -185.05 -183.60 
2904 -184.53 -185.01 -183.60 
2905 -184.44 -185.09 -183.60 
2906 -184.54 -185.11 -183.60 
2907 -184.56 -185.03 -183.60 
2908 -184.46 -185.03 -183.60 
2909 -184.49 -185.05 -183.60 
2910 -184.51 -185.06 -183.60 
2911 -184.58 -185.13 -183.60 
2912 -184.69 -185.07 -183.60 
2913 -184.59 -185.13 -183.60 
2914 -184.67 -185.13 -183.60 
2915 -184.60 -185.10 -183.60 
2916 -184.56 -185.10 -183.60 
2917 -184.59 -184.98 -183.60 
2918 -184.50 -184.97 -183.60 
2919 -184.49 -184.95 -183.60 
2920 -184.47 -184.94 -183.60 
2921 -184.46 -184.96 -183.60 
2922 -184.49 -184.92 -183.60 
2923 -184.49 -184.97 -183.60 
2924 -184.50 -185.05 -183.60 
2925 -184.60 -185.00 -183.60 
2926 -184.55 -184.98 -183.60 
2927 -184.54 -185.05 -183.60 
2928 -184.60 -185.13 -183.60 
2929 -184.70 -185.12 -183.60 
2930 -184.65 -185.12 -183.60 
2931 -184.63 -185.08 -183.60 
2932 -184.57 -185.03 -183.60 
2933 -184.53 -185.01 -183.60 
2934 -184.52 -184.98 -183.60 
2935 -184.52 -185.03 -183.60 
2936 -184.62 -185.04 -183.60 
2937 -184.63 -184.95 -183.60 
2938 -184.56 -184.93 -183.60 
2939 -184.58 -184.97 -183.60 
2940 -184.62 -184.96 -183.60 
2941 -184.55 -184.98 -183.60 
2942 -184.55 -184.94 -183.60 
2943 -184.53 -184.87 -183.60 
2944 -184.47 -184.88 -183.60 
2945 -184.49 -184.88 -183.60 
2946 -184.49 -184.86 -183.60 
2947 -184.48 -184.95 -183.60 
2948 -184.58 -184.88 -183.60 
2949 -184.51 -184.85 -183.60 
2950 -184.49 -184.91 -183.60 
2951 -184.58 -184.97 -183.60 
2952 -184.67 -185.00 -183.60 
2953 -184.70 -185.09 -183.60 
2954 -184.78 -185.10 -183.60 
2955 -184.77 -185.08 -183.60 
2956 -184.74 -185.15 -183.60 
2957 -184.79 -185.17 -183.60 
2958 -184.79 -185.17 -183.60 
2959 -184.79 -185.12 -183.60 
2960 -184.75 -185.13 -183.60 
2961 -184.78 -185.09 -183.60 
2962 -184.76 -185.13 -183.60 
2963 -184.79 -185.07 -183.60 
2964 -184.77 -185.05 -183.60 
2965 -184.74 -185.09 -183.60 
2966 -184.78 -185.08 -183.60 
2967 -184.78 -185.10 -183.60 
2968 -184.83 -185.04 -183.60 
2969 -184.79 -185.09 -183.60 
2970 -184.83 -185.10 -183.60 
2971 -184.81 -185.07 -183.60 
2972 -184.79 -185.07 -183.60 
2973 -184.75 -185.19 -183.60 
2974 -184.89 -185.21 -183.60 
2975 -184.89 -185.15 -183.60 
2976 -184.84 -185.12 -183.60 
2977 -184.82 -185.06 -183.60 
2978 -184.82 -185.17 -183.60 
2979 -184.92 -185.19 -183.60 
2980 -184.91 -185.18 -183.60 
2981 -184.88 -185.17 -183.60 
2982 -184.85 -185.18 -183.60 
2983 -184.86 -185.10 -183.60 
2984 -184.83 -185.03 -183.60 
2985 -184.76 -185.05 -183.60 
2986 -184.76 -185.04 -183.60 
2987 -184.72 -185.08 -183.60 
2988 -184.73 -185.11 -183.60 
2989 -184.79 -185.05 -183.60 
2990 -184.70 -185.07 -183.60 
2991 -184.71 -185.04 -183.60 
2992 -184.74 -184.95 -183.60 
2993 -184.70 -184.96 -183.60 
2994 -184.70 -185.04 -183.60 
2995 -184.77 -185.08 -183.60 
2996 -184.81 -185.01 -183.60 
2997 -184.75 -185.00 -183.60 
2998 -184.73 -185.01 -183.60 
2999 -184.76 -184.95 -183.60 
3000 -184.73 -184.97 -183.60 
3001 -184.72 -184.92 -183.60 
3002 -184.69 -184.83 -183.60 
3003 -184.61 -184.78 -183.60 
3004 -184.55 -184.83 -183.60 
3005 -184.58 -184.79 -183.60 
3006 -184.59 -184.74 -183.60 
3007 -184.56 -184.69 -183.60 
3008 -184.50 -184.72 -183.60 
3009 -184.51 -184.83 -183.60 
3010 -184.56 -184.76 -183.60 
3011 -184.48 -184.75 -183.60 
3012 -184.50 -184.71 -183.60 
3013 -184.45 -184.76 -183.60 
3014 -184.54 -184.79 -183.60 
3015 -184.53 -184.79 -183.60 
3016 -184.54 -184.74 -183.60 
3017 -184.51 -184.77 -183.60 
3018 -184.51 -184.80 -183.60 
3019 -184.57 -184.78 -183.60 
3020 -184.53 -184.83 -183.60 
3021 -184.55 -184.87 -183.60 
3022 -184.63 -184.83 -183.60 
3023 -184.61 -184.73 -183.60 
3024 -184.56 -184.71 -183.60 
3025 -184.50 -184.67 -183.60 
3026 -184.47 -184.70 -183.60 
3027 -184.46 -184.69 -183.60 
3028 -184.44 -184.75 -183.60 
3029 -184.45 -184.75 -183.60 
3030 -184.42 -184.79 -183.60 
3031 -184.44 -184.82 -183.60 
3032 -184.44 -184.84 -183.60 
3033 -184.47 -184.90 -183.60 
3034 -184.53 -184.95 -183.60 
3035 -184.53 -184.95 -183.60 
3036 -184.55 -184.98 -183.60 
3037 -184.59 -184.93 -183.60 
3038 -184.53 -184.97 -183.60 
3039 -184.62 -184.90 -183.60 
3040 -184.52 -184.90 -183.60 
3041 -184.51 -184.95 -183.60 
3042 -184.58 -184.94 -183.60 
3043 -184.54 -184.92 -183.60 
3044 -184.49 -184.98 -183.60 
3045 -184.53 -185.00 -183.60 
3046 -184.51 -185.05 -183.60 
3047 -184.57 -184.93 -183.60 
3048 -184.45 -185.00 -183.60 
3049 -184.52 -184.99 -183.60 
3050 -184.52 -185.01 -183.60 
3051 -184.54 -185.06 -183.60 
3052 -184.60 -185.00 -183.60 
3053 -184.48 -185.01 -183.60 
3054 -184.48 -185.07 -183.60 
3055 -184.54 -185.10 -183.60 
3056 -184.52 -185.09 -183.60 
3057 -184.43 -184.99 -183.60 
3058 -184.41 -184.90 -183.60 
3059 -184.33 -184.83 -183.60 
3060 -184.19 -184.90 -183.60 
3061 -184.24 -184.76 -183.60 
3062 -184.08 -184.76 -183.60 
3063 -184.06 -184.84 -183.60 
3064 -184.14 -184.78 -183.60 
3065 -184.13 -184.85 -183.60 
3066 -184.17 -184.90 -183.60 
3067 -184.20 -184.94 -183.60 
3068 -184.23 -185.04 -183.60 
3069 -184.28 -185.11 -183.60 
3070 -184.42 -184.98 -183.60 
3071 -184.35 -184.99 -183.60 
3072 -184.37 -184.94 -183.60 
3073 -184.32 -184.99 -183.60 
3074 -184.32 -184.95 -183.60 
3075 -184.27 -184.94 -183.60 
3076 -184.20 -184.99 -183.60 
3077 -184.19 -184.85 -183.60 
3078 -184.14 -184.95 -183.60 
3079 -184.22 -185.02 -183.60 
3080 -184.23 -185.17 -183.60 
3081 -184.34 -185.02 -183.60 
3082 -184.24 -185.00 -183.60 
3083 -184.22 -184.89 -183.60 
3084 -184.17 -184.88 -183.60 
3085 -184.17 -184.91 -183.60 
3086 -184.17 -184.95 -183.60 
3087 -184.26 -184.94 -183.60 
3088 -184.27 -184.88 -183.60 
3089 -184.21 -184.87 -183.60 
3090 -184.24 -184.79 -183.60 
3091 -184.17 -184.97 -183.60 
3092 -184.35 -184.85 -183.60 
3093 -184.23 -184.74 -183.60 
3094 -184.13 -184.76 -183.60 
3095 -184.15 -184.76 -183.60 
3096 -184.20 -184.75 -183.60 
3097 -184.20 -184.67 -183.60 
3098 -184.14 -184.67 -183.60 
3099 -184.18 -184.73 -183.60 
3100 -184.20 -184.73 -183.60 
3101 -184.20 -184.78 -183.60 
3102 -184.28 -184.75 -183.60 
3103 -184.23 -184.80 -183.60 
3104 -184.23 -184.80 -183.60 
3105 -184.30 -184.69 -183.60 
3106 -184.23 -184.80 -183.60 
3107 -184.30 -184.83 -183.60 
3108 -184.33 -184.84 -183.60 
3109 -184.37 -184.89 -183.60 
3110 -184.40 -184.92 -183.60 
3111 -184.39 -184.84 -183.60 
3112 -184.36 -184.91 -183.60 
3113 -184.37 -184.95 -183.60 
3114 -184.40 -184.98 -183.60 
3115 -184.41 -184.99 -183.60 
3116 -184.48 -184.99 -183.60 
3117 -184.48 -184.94 -183.60 
3118 -184.40 -184.95 -183.60 
3119 -184.37 -185.01 -183.60 
3120 -184.47 -185.05 -183.60 
3121 -184.41 -184.96 -183.60 
3122 -184.28 -185.02 -183.60 
3123 -184.33 -185.14 -183.60 
3124 -184.47 -185.15 -183.60 
3125 -184.50 -185.14 -183.60 
3126 -184.52 -185.21 -183.60 
3127 -184.58 -185.26 -183.60 
3128 -184.53 -185.21 -183.60 
3129 -184.48 -185.10 -183.60 
3130 -184.32 -185.15 -183.60 
3131 -184.31 -185.16 -183.60 
3132 -184.34 -185.21 -183.60 
3133 -184.39 -185.02 -183.60 
3134 -184.25 -185.07 -183.60 
3135 -184.24 -185.07 -183.60 
3136 -184.23 -185.07 -183.60 
3137 -184.24 -185.12 -183.60 
3138 -184.27 -185.02 -183.60 
3139 -184.22 -184.91 -183.60 
3140 -184.15 -184.88 -183.60 
3141 -184.07 -184.99 -183.60 
3142 -184.16 -185.04 -183.60 
3143 -184.14 -185.11 -183.60 
3144 -184.16 -185.02 -183.60 
3145 -184.11 -184.87 -183.60 
3146 -184.05 -184.87 -183.60 
3147 -184.11 -184.87 -183.60 
3148 -184.12 -184.91 -183.60 
3149 -184.22 -184.93 -183.60 
3150 -184.25 -184.89 -183.60 
3151 -184.28 -184.92 -183.60 
3152 -184.30 -184.80 -183.60 
3153 -184.27 -184.76 -183.60 
3154 -184.20 -184.74 -183.60 
3155 -184.16 -184.85 -183.60 
3156 -184.27 -184.81 -183.60 
3157 -184.20 -184.78 -183.60 
3158 -184.20 -184.79 -183.60 
3159 -184.22 -184.80 -183.60 
3160 -184.24 -184.83 -183.60 
3161 -184.26 -184.82 -183.60 
3162 -184.27 -184.95 -183.60 
3163 -184.40 -184.94 -183.60 
3164 -184.36 -184.97 -183.60 
3165 -184.41 -184.92 -183.60 
3166 -184.36 -184.95 -183.60 
3167 -184.42 -184.92 -183.60 
3168 -184.40 -184.99 -183.60 
3169 -184.47 -185.09 -183.60 
3170 -184.55 -185.07 -183.60 
3171 -184.51 -185.21 -183.60 
3172 -184.57 -185.13 -183.60 
3173 -184.50 -185.16 -183.60 
3174 -184.58 -185.23 -183.60 
3175 -184.63 -185.20 -183.60 
3176 -184.58 -185.17 -183.60 
3177 -184.55 -185.12 -183.60 
3178 -184.58 -185.25 -183.60 
3179 -184.62 -185.28 -183.60 
3180 -184.56 -185.21 -183.60 
3181 -184.61 -185.19 -183.60 
3182 -184.57 -185.20 -183.60 
3183 -184.55 -185.21 -183.60 
3184 -184.51 -185.27 -183.60 
3185 -184.56 -185.32 -183.60 
3186 -184.57 -185.26 -183.60 
3187 -184.54 -185.20 -183.60 
3188 -184.51 -185.09 -183.60 
3189 -184.45 -185.09 -183.60 
3190 -184.40 -185.13 -183.60 
3191 -184.44 -185.18 -183.60 
3192 -184.47 -185.00 -183.60 
3193 -184.31 -184.93 -183.60 
3194 -184.21 -185.06 -183.60 
3195 -184.30 -184.99 -183.60 
3196 -184.22 -184.90 -183.60 
3197 -184.13 -184.92 -183.60 
3198 -184.18 -184.93 -183.60 
3199 -184.18 -184.86 -183.60 
3200 -184.13 -184.93 -183.60 
3201 -184.15 -184.82 -183.60 
3202 -184.08 -184.63 -183.60 
3203 -183.98 -184.57 -183.60 
3204 -183.93 -184.70 -183.60 
3205 -184.00 -184.55 -183.60 
3206 -183.90 -184.66 -183.60 
3207 -183.99 -184.69 -183.60 
3208 -183.99 -184.49 -183.60 
3209 -183.87 -184.68 -183.60 
3210 -183.96 -184.77 -183.60 
3211 -184.05 -184.74 -183.60 
3212 -184.04 -184.62 -183.60 
3213 -183.94 -184.66 -183.60 
3214 -183.97 -184.51 -183.60 
3215 -183.90 -184.51 -183.60 
3216 -183.89 -184.41 -183.60 
3217 -183.83 -184.38 -183.60 
3218 -183.81 -184.32 -183.60 
3219 -183.76 -184.36 -183.60 
3220 -183.81 -184.45 -183.60 
3221 -183.87 -184.49 -183.60 
3222 -183.91 -184.58 -183.60 
3223 -183.96 -184.56 -183.60 
3224 -183.99 -184.57 -183.60 
3225 -183.95 -184.62 -183.60 
3226 -184.06 -184.57 -183.60 
3227 -183.99 -184.56 -183.60 
3228 -183.96 -184.46 -183.60 
3229 -183.89 -184.55 -183.60 
3230 -183.97 -184.59 -183.60 
3231 -184.02 -184.62 -183.60 
3232 -184.02 -184.56 -183.60 
3233 -183.97 -184.51 -183.60 
3234 -184.02 -184.46 -183.60 
3235 -184.00 -184.50 -183.60 
3236 -184.04 -184.43 -183.60 
3237 -183.99 -184.40 -183.60 
3238 -183.97 -184.46 -183.60 
3239 -184.01 -184.49 -183.60 
3240 -184.08 -184.57 -183.60 
3241 -184.11 -184.66 -183.60 
3242 -184.19 -184.68 -183.60 
3243 -184.24 -184.62 -183.60 
3244 -184.19 -184.61 -183.60 
3245 -184.19 -184.55 -183.60 
3246 -184.18 -184.63 -183.60 
3247 -184.24 -184.66 -183.60 
3248 -184.26 -184.76 -183.60 
3249 -184.34 -184.72 -183.60 
3250 -184.34 -184.75 -183.60 
3251 -184.37 -184.79 -183.60 
3252 -184.39 -184.86 -183.60 
3253 -184.44 -184.91 -183.60 
3254 -184.47 -184.91 -183.60 
3255 -184.45 -184.94 -183.60 
3256 -184.48 -184.93 -183.60 
3257 -184.54 -185.00 -183.60 
3258 -184.62 -185.03 -183.60 
3259 -184.67 -185.03 -183.60 
3260 -184.60 -185.00 -183.60 
3261 -184.59 -184.98 -183.60 
3262 -184.61 -184.96 -183.60 
3263 -184.64 -184.93 -183.60 
3264 -184.61 -184.99 -183.60 
3265 -184.65 -184.96 -183.60 
3266 -184.63 -184.98 -183.60 
3267 -184.68 -184.89 -183.60 
3268 -184.57 -184.86 -183.60 
3269 -184.57 -184.83 -183.60 
3270 -184.56 -184.80 -183.60 
3271 -184.51 -184.83 -183.60 
3272 -184.54 -184.86 -183.60 
3273 -184.54 -184.82 -183.60 
3274 -184.51 -184.95 -183.60 
3275 -184.64 -184.91 -183.60 
3276 -184.62 -184.97 -183.60 
3277 -184.65 -184.99 -183.60 
3278 -184.67 -184.96 -183.60 
3279 -184.67 -184.93 -183.60 
3280 -184.59 -184.99 -183.60 
3281 -184.65 -184.98 -183.60 
3282 -184.64 -185.00 -183.60 
3283 -184.66 -185.00 -183.60 
3284 -184.66 -184.98 -183.60 
3285 -184.65 -184.98 -183.60 
3286 -184.67 -184.98 -183.60 
3287 -184.68 -185.01 -183.60 
3288 -184.69 -184.97 -183.60 
3289 -184.63 -184.92 -183.60 
3290 -184.58 -185.02 -183.60 
3291 -184.70 -184.94 -183.60 
3292 -184.62 -184.95 -183.60 
3293 -184.61 -185.02 -183.60 
3294 -184.67 -185.01 -183.60 
3295 -184.65 -184.93 -183.60 
3296 -184.60 -184.99 -183.60 
3297 -184.62 -184.99 -183.60 
3298 -184.64 -184.97 -183.60 
3299 -184.65 -185.01 -183.60 
3300 -184.66 -185.01 -183.60 
3301 -184.67 -185.00 -183.60 
3302 -184.70 -184.95 -183.60 
3303 -184.63 -184.89 -183.60 
3304 -184.55 -184.87 -183.60 
3305 -184.55 -184.83 -183.60 
3306 -184.54 -184.88 -183.60 
3307 -184.59 -184.89 -183.60 
3308 -184.60 -184.91 -183.60 
3309 -184.62 -184.92 -183.60 
3310 -184.62 -184.98 -183.60 
3311 -184.66 -184.97 -183.60 
3312 -184.65 -184.91 -183.60 
3313 -184.58 -184.99 -183.60 
3314 -184.63 -184.98 -183.60 
3315 -184.62 -184.94 -183.60 
3316 -184.58 -184.91 -183.60 
3317 -184.55 -184.91 -183.60 
3318 -184.60 -184.94 -183.60 
3319 -184.61 -184.84 -183.60 
3320 -184.49 -184.88 -183.60 
3321 -184.54 -184.88 -183.60 
3322 -184.51 -184.86 -183.60 
3323 -184.47 -184.89 -183.60 
3324 -184.52 -184.92 -183.60 
3325 -184.54 -184.85 -183.60 
3326 -184.50 -184.89 -183.60 
3327 -184.56 -184.85 -183.60 
3328 -184.52 -184.81 -183.60 
3329 -184.47 -184.80 -183.60 
3330 -184.49 -184.77 -183.60 
3331 -184.49 -184.74 -183.60 
3332 -184.48 -184.72 -183.60 
3333 -184.48 -184.64 -183.60 
3334 -184.44 -184.59 -183.60 
3335 -184.41 -184.60 -183.60 
3336 -184.40 -184.54 -183.60 
3337 -184.34 -184.45 -183.60 
3338 -184.24 -184.39 -183.60 
3339 -184.19 -184.44 -183.60 
3340 -184.25 -184.43 -183.60 
3341 -184.24 -184.39 -183.60 
3342 -184.22 -184.35 -183.60 
3343 -184.17 -184.33 -183.60 
3344 -184.13 -184.33 -183.60 
3345 -184.11 -184.33 -183.60 
3346 -184.12 -184.37 -183.60 
3347 -184.18 -184.37 -183.60 
3348 -184.18 -184.37 -183.60 
3349 -184.17 -184.35 -183.60 
3350 -184.17 -184.35 -183.60 
3351 -184.16 -184.36 -183.60 
3352 -184.17 -184.38 -183.60 
3353 -184.17 -184.38 -183.60 
3354 -184.17 -184.38 -183.60 
3355 -184.15 -184.32 -183.60 
3356 -184.10 -184.33 -183.60 
3357 -184.12 -184.33 -183.60 
3358 -184.09 -184.33 -183.60 
3359 -184.10 -184.33 -183.60 
3360 -184.09 -184.29 -183.60 
3361 -184.08 -184.28 -183.60 
3362 -184.09 -184.30 -183.60 
3363 -184.12 -184.30 -183.60 
3364 -184.10 -184.30 -183.60 
3365 -184.09 -184.30 -183.60 
3366 -184.11 -184.31 -183.60 
3367 -184.13 -184.34 -183.60 
3368 -184.18 -184.34 -183.60 
3369 -184.15 -184.32 -183.60 
3370 -184.11 -184.31 -183.60 
3371 -184.10 -184.29 -183.60 
3372 -184.12 -184.27 -183.60 
3373 -184.09 -184.25 -183.60 
3374 -184.08 -184.26 -183.60 
3375 -184.10 -184.29 -183.60 
3376 -184.14 -184.28 -183.60 
3377 -184.14 -184.28 -183.60 
3378 -184.13 -184.30 -183.60 
3379 -184.16 -184.29 -183.60 
3380 -184.15 -184.27 -183.60 
3381 -184.13 -184.27 -183.60 
3382 -184.15 -184.27 -183.60 
3383 -184.16 -184.29 -183.60 
3384 -184.16 -184.29 -183.60 
3385 -184.17 -184.28 -183.60 
3386 -184.13 -184.30 -183.60 
3387 -184.15 -184.29 -183.60 
3388 -184.14 -184.24 -183.60 
3389 -184.10 -184.26 -183.60 
3390 -184.13 -184.25 -183.60 
3391 -184.12 -184.25 -183.60 
3392 -184.13 -184.28 -183.60 
3393 -184.14 -184.25 -183.60 
3394 -184.11 -184.26 -183.60 
3395 -184.12 -184.27 -183.60 
3396 -184.13 -184.24 -183.60 
3397 -184.10 -184.26 -183.60 
3398 -184.11 -184.26 -183.60 
3399 -184.11 -184.28 -183.60 
3400 -184.11 -184.29 -183.60 
3401 -184.13 -184.31 -183.60 
3402 -184.16 -184.31 -183.60 
3403 -184.16 -184.33 -183.60 
3404 -184.18 -184.36 -183.60 
3405 -184.19 -184.35 -183.60 
3406 -184.19 -184.33 -183.60 
3407 -184.17 -184.33 -183.60 
3408 -184.16 -184.29 -183.60 
3409 -184.13 -184.33 -183.60 
3410 -184.14 -184.34 -183.60 
3411 -184.15 -184.33 -183.60 
3412 -184.13 -184.36 -183.60 
3413 -184.18 -184.37 -183.60 
3414 -184.17 -184.38 -183.60 
3415 -184.19 -184.38 -183.60 
3416 -184.18 -184.41 -183.60 
3417 -184.21 -184.45 -183.60 
3418 -184.26 -184.44 -183.60 
3419 -184.26 -184.46 -183.60 
3420 -184.27 -184.46 -183.60 
3421 -184.25 -184.44 -183.60 
3422 -184.25 -184.43 -183.60 
3423 -184.23 -184.40 -183.60 
3424 -184.18 -184.40 -183.60 
3425 -184.18 -184.41 -183.60 
3426 -184.17 -184.42 -183.60 
3427 -184.13 -184.38 -183.60 
3428 -184.11 -184.42 -183.60 
3429 -184.10 -184.43 -183.60 
3430 -184.13 -184.44 -183.60 
3431 -184.16 -184.44 -183.60 
3432 -184.17 -184.47 -183.60 
3433 -184.19 -184.49 -183.60 
3434 -184.23 -184.47 -183.60 
3435 -184.18 -184.50 -183.60 
3436 -184.17 -184.47 -183.60 
3437 -184.13 -184.44 -183.60 
3438 -184.16 -184.45 -183.60 
3439 -184.15 -184.43 -183.60 
3440 -184.13 -184.43 -183.60 
3441 -184.15 -184.44 -183.60 
3442 -184.13 -184.44 -183.60 
3443 -184.15 -184.45 -183.60 
3444 -184.17 -184.46 -183.60 
3445 -184.21 -184.45 -183.60 
3446 -184.18 -184.44 -183.60 
3447 -184.16 -184.43 -183.60 
3448 -184.18 -184.45 -183.60 
3449 -184.20 -184.47 -183.60 
3450 -184.18 -184.48 -183.60 
3451 -184.17 -184.51 -183.60 
3452 -184.21 -184.49 -183.60 
3453 -184.18 -184.51 -183.60 
3454 -184.16 -184.52 -183.60 
3455 -184.13 -184.52 -183.60 
3456 -184.12 -184.54 -183.60 
3457 -184.17 -184.56 -183.60 
3458 -184.18 -184.58 -183.60 
3459 -184.23 -184.60 -183.60 
3460 -184.25 -184.60 -183.60 
3461 -184.28 -184.56 -183.60 
3462 -184.26 -184.56 -183.60 
3463 -184.26 -184.61 -183.60 
3464 -184.30 -184.63 -183.60 
3465 -184.30 -184.65 -183.60 
3466 -184.33 -184.64 -183.60 
3467 -184.36 -184.61 -183.60 
3468 -184.32 -184.59 -183.60 
3469 -184.32 -184.60 -183.60 
3470 -184.31 -184.57 -183.60 
3471 -184.32 -184.57 -183.60 
3472 -184.28 -184.62 -183.60 
3473 -184.30 -184.60 -183.60 
3474 -184.32 -184.62 -183.60 
3475 -184.32 -184.62 -183.60 
3476 -184.29 -184.58 -183.60 
3477 -184.27 -184.55 -183.60 
3478 -184.20 -184.52 -183.60 
3479 -184.17 -184.47 -183.60 
3480 -184.20 -184.50 -183.60 
3481 -184.24 -184.53 -183.60 
3482 -184.26 -184.55 -183.60 
3483 -184.27 -184.57 -183.60 
3484 -184.28 -184.60 -183.60 
3485 -184.28 -184.64 -183.60 
3486 -184.36 -184.62 -183.60 
3487 -184.28 -184.59 -183.60 
3488 -184.27 -184.61 -183.60 
3489 -184.32 -184.62 -183.60 
3490 -184.34 -184.62 -183.60 
3491 -184.35 -184.62 -183.60 
3492 -184.35 -184.64 -183.60 
3493 -184.33 -184.67 -183.60 
3494 -184.34 -184.64 -183.60 
3495 -184.32 -184.66 -183.60 
3496 -184.33 -184.67 -183.60 
3497 -184.32 -184.68 -183.60 
3498 -184.30 -184.64 -183.60 
3499 -184.25 -184.67 -183.60 
3500 -184.26 -184.70 -183.60 
3501 -184.35 -184.69 -183.60 
3502 -184.29 -184.66 -183.60 
3503 -184.27 -184.64 -183.60 
3504 -184.25 -184.65 -183.60 
3505 -184.29 -184.66 -183.60 
3506 -184.35 -184.62 -183.60 
3507 -184.29 -184.59 -183.60 
3508 -184.25 -184.63 -183.60 
3509 -184.21 -184.61 -183.60 
3510 -184.22 -184.69 -183.60 
3511 -184.23 -184.67 -183.60 
3512 -184.22 -184.73 -183.60 
3513 -184.23 -184.74 -183.60 
3514 -184.21 -184.74 -183.60 
3515 -184.20 -184.73 -183.60 
3516 -184.18 -184.70 -183.60 
3517 -184.19 -184.70 -183.60 
3518 -184.16 -184.73 -183.60 
3519 -184.18 -184.72 -183.60 
3520 -184.16 -184.72 -183.60 
3521 -184.20 -184.77 -183.60 
3522 -184.20 -184.86 -183.60 
3523 -184.27 -184.83 -183.60 
3524 -184.24 -184.84 -183.60 
3525 -184.18 -184.81 -183.60 
3526 -184.20 -184.71 -183.60 
3527 -184.15 -184.65 -183.60 
3528 -184.15 -184.71 -183.60 
3529 -184.21 -184.67 -183.60 
3530 -184.19 -184.77 -183.60 
3531 -184.28 -184.84 -183.60 
3532 -184.25 -184.94 -183.60 
3533 -184.29 -184.85 -183.60 
3534 -184.17 -184.95 -183.60 
3535 -184.28 -184.88 -183.60 
3536 -184.29 -184.81 -183.60 
3537 -184.28 -184.77 -183.60 
3538 -184.24 -184.69 -183.60 
3539 -184.24 -184.65 -183.60 
3540 -184.20 -184.60 -183.60 
3541 -184.18 -184.60 -183.60 
3542 -184.14 -184.68 -183.60 
3543 -184.20 -184.62 -183.60 
3544 -184.14 -184.57 -183.60 
3545 -184.09 -184.63 -183.60 
3546 -184.16 -184.62 -183.60 
3547 -184.11 -184.63 -183.60 
3548 -184.12 -184.68 -183.60 
3549 -184.15 -184.64 -183.60 
3550 -184.11 -184.60 -183.60 
3551 -184.10 -184.59 -183.60 
3552 -184.10 -184.57 -183.60 
3553 -184.12 -184.54 -183.60 
3554 -184.13 -184.54 -183.60 
3555 -184.06 -184.66 -183.60 
3556 -184.22 -184.72 -183.60 
3557 -184.27 -184.71 -183.60 
3558 -184.25 -184.74 -183.60 
3559 -184.24 -184.65 -183.60 
3560 -184.20 -184.69 -183.60 
3561 -184.24 -184.63 -183.60 
3562 -184.17 -184.61 -183.60 
3563 -184.13 -184.54 -183.60 
3564 -184.08 -184.51 -183.60 
3565 -184.10 -184.51 -183.60 
3566 -184.10 -184.51 -183.60 
3567 -184.14 -184.50 -183.60 
3568 -184.12 -184.53 -183.60 
3569 -184.16 -184.51 -183.60 
3570 -184.17 -184.50 -183.60 
3571 -184.21 -184.45 -183.60 
3572 -184.14 -184.48 -183.60 
3573 -184.18 -184.52 -183.60 
3574 -184.18 -184.49 -183.60 
3575 -184.15 -184.48 -183.60 
3576 -184.14 -184.46 -183.60 
3577 -184.13 -184.45 -183.60 
3578 -184.12 -184.45 -183.60 
3579 -184.09 -184.43 -183.60 
3580 -184.03 -184.48 -183.60 
3581 -184.05 -184.48 -183.60 
3582 -184.03 -184.41 -183.60 
3583 -183.94 -184.40 -183.60 
3584 -183.96 -184.44 -183.60 
3585 -183.97 -184.48 -183.60 
3586 -184.02 -184.51 -183.60 
3587 -184.08 -184.46 -183.60 
3588 -184.07 -184.40 -183.60 
3589 -184.00 -184.40 -183.60 
3590 -184.01 -184.41 -183.60 
3591 -184.05 -184.41 -183.60 
3592 -184.03 -184.37 -183.60 
3593 -184.00 -184.33 -183.60 
3594 -183.93 -184.27 -183.60 
3595 -183.90 -184.29 -183.60 
3596 -183.90 -184.25 -183.60 
3597 -183.84 -184.31 -183.60 
3598 -183.89 -184.35 -183.60 
3599 -183.92 -184.38 -183.60 
3600 -183.97 -184.40 -183.60 
3601 -183.99 -184.32 -183.60 
3602 -183.91 -184.32 -183.60 
3603 -183.93 -184.33 -183.60 
3604 -183.94 -184.33 -183.60 
3605 -183.95 -184.30 -183.60 
3606 -183.94 -184.26 -183.60 
3607 -183.97 -184.27 -183.60 
3608 -183.97 -184.25 -183.60 
3609 -183.95 -184.24 -183.60 
3610 -183.96 -184.28 -183.60 
3611 -183.98 -184.32 -183.60 
3612 -184.01 -184.27 -183.60 
3613 -183.98 -184.34 -183.60 
3614 -184.01 -184.36 -183.60 
3615 -184.04 -184.35 -183.60 
3616 -184.02 -184.36 -183.60 
3617 -183.99 -184.39 -183.60 
3618 -184.03 -184.42 -183.60 
3619 -184.08 -184.44 -183.60 
3620 -184.12 -184.42 -183.60 
3621 -184.08 -184.50 -183.60 
3622 -184.20 -184.47 -183.60 
3623 -184.16 -184.51 -183.60 
3624 -184.19 -184.45 -183.60 
3625 -184.12 -184.40 -183.60 
3626 -184.09 -184.37 -183.60 
3627 -184.07 -184.34 -183.60 
3628 -184.05 -184.37 -183.60 
3629 -184.08 -184.41 -183.60 
3630 -184.10 -184.37 -183.60 
3631 -184.04 -184.40 -183.60 
3632 -184.08 -184.44 -183.60 
3633 -184.12 -184.45 -183.60 
3634 -184.14 -184.39 -183.60 
3635 -184.05 -184.37 -183.60 
3636 -184.04 -184.42 -183.60 
3637 -184.11 -184.43 -183.60 
3638 -184.10 -184.42 -183.60 
3639 -184.06 -184.49 -183.60 
3640 -184.08 -184.45 -183.60 
3641 -184.06 -184.43 -183.60 
3642 -184.10 -184.49 -183.60 
3643 -184.16 -184.41 -183.60 
3644 -184.09 -184.44 -183.60 
3645 -184.12 -184.43 -183.60 
3646 -184.07 -184.43 -183.60 
3647 -184.10 -184.45 -183.60 
3648 -184.10 -184.44 -183.60 
3649 -184.11 -184.48 -183.60 
3650 -184.12 -184.48 -183.60 
3651 -184.16 -184.43 -183.60 
3652 -184.13 -184.42 -183.60 
3653 -184.12 -184.39 -183.60 
3654 -184.08 -184.36 -183.60 
3655 -184.08 -184.34 -183.60 
3656 -184.09 -184.35 -183.60 
3657 -184.06 -184.35 -183.60 
3658 -184.05 -184.33 -183.60 
3659 -184.05 -184.40 -183.60 
3660 -184.10 -184.39 -183.60 
3661 -184.09 -184.35 -183.60 
3662 -184.03 -184.33 -183.60 
3663 -184.04 -184.30 -183.60 
3664 -184.00 -184.33 -183.60 
3665 -184.02 -184.32 -183.60 
3666 -184.04 -184.30 -183.60 
3667 -184.01 -184.36 -183.60 
3668 -184.09 -184.40 -183.60 
3669 -184.14 -184.36 -183.60 
3670 -184.11 -184.37 -183.60 
3671 -184.13 -184.37 -183.60 
3672 -184.15 -184.37 -183.60 
3673 -184.13 -184.37 -183.60 
3674 -184.13 -184.39 -183.60 
3675 -184.16 -184.42 -183.60 
3676 -184.19 -184.43 -183.60 
3677 -184.21 -184.44 -183.60 
3678 -184.19 -184.40 -183.60 
3679 -184.17 -184.42 -183.60 
3680 -184.19 -184.38 -183.60 
3681 -184.15 -184.33 -183.60 
3682 -184.10 -184.34 -183.60 
3683 -184.14 -184.36 -183.60 
3684 -184.11 -184.34 -183.60 
3685 -184.09 -184.34 -183.60 
3686 -184.09 -184.34 -183.60 
3687 -184.11 -184.34 -183.60 
3688 -184.09 -184.37 -183.60 
3689 -184.13 -184.38 -183.60 
3690 -184.18 -184.37 -183.60 
3691 -184.19 -184.35 -183.60 
3692 -184.16 -184.36 -183.60 
3693 -184.16 -184.36 -183.60 
3694 -184.16 -184.36 -183.60 
3695 -184.13 -184.38 -183.60 
3696 -184.11 -184.40 -183.60 
3697 -184.13 -184.42 -183.60 
3698 -184.14 -184.41 -183.60 
3699 -184.10 -184.43 -183.60 
3700 -184.15 -184.45 -183.60 
3701 -184.14 -184.45 -183.60 
3702 -184.16 -184.41 -183.60 
3703 -184.13 -184.42 -183.60 
3704 -184.14 -184.41 -183.60 
3705 -184.14 -184.38 -183.60 
3706 -184.11 -184.41 -183.60 
3707 -184.16 -184.44 -183.60 
3708 -184.17 -184.43 -183.60 
3709 -184.18 -184.44 -183.60 
3710 -184.20 -184.44 -183.60 
3711 -184.22 -184.46 -183.60 
3712 -184.26 -184.50 -183.60 
3713 -184.30 -184.48 -183.60 
3714 -184.29 -184.47 -183.60 
3715 -184.30 -184.47 -183.60 
3716 -184.31 -184.45 -183.60 
3717 -184.31 -184.46 -183.60 
3718 -184.32 -184.44 -183.60 
3719 -184.28 -184.42 -183.60 
3720 -184.27 -184.42 -183.60 
3721 -184.29 -184.40 -183.60 
3722 -184.28 -184.36 -183.60 
3723 -184.22 -184.38 -183.60 
3724 -184.24 -184.36 -183.60 
3725 -184.20 -184.40 -183.60 
3726 -184.23 -184.44 -183.60 
3727 -184.28 -184.45 -183.60 
3728 -184.30 -184.50 -183.60 
3729 -184.37 -184.51 -183.60 
3730 -184.38 -184.47 -183.60 
3731 -184.37 -184.49 -183.60 
3732 -184.39 -184.43 -183.60 
3733 -184.32 -184.47 -183.60 
3734 -184.37 -184.48 -183.60 
3735 -184.38 -184.46 -183.60 
3736 -184.34 -184.47 -183.60 
3737 -184.38 -184.42 -183.60 
3738 -184.34 -184.42 -183.60 
3739 -184.32 -184.45 -183.60 
3740 -184.36 -184.50 -183.60 
3741 -184.41 -184.51 -183.60 
3742 -184.41 -184.50 -183.60 
3743 -184.40 -184.51 -183.60 
3744 -184.41 -184.54 -183.60 
3745 -184.46 -184.58 -183.60 
3746 -184.49 -184.54 -183.60 
3747 -184.46 -184.58 -183.60 
3748 -184.49 -184.54 -183.60 
3749 -184.45 -184.52 -183.60 
3750 -184.42 -184.59 -183.60 
3751 -184.49 -184.62 -183.60 
3752 -184.52 -184.53 -183.60 
3753 -184.43 -184.53 -183.60 
3754 -184.43 -184.57 -183.60 
3755 -184.48 -184.55 -183.60 
3756 -184.44 -184.51 -183.60 
3757 -184.41 -184.44 -183.60 
3758 -184.34 -184.43 -183.60 
3759 -184.33 -184.42 -183.60 
3760 -184.34 -184.50 -183.60 
3761 -184.38 -184.54 -183.60 
3762 -184.39 -184.47 -183.60 
3763 -184.33 -184.53 -183.60 
3764 -184.41 -184.54 -183.60 
3765 -184.39 -184.59 -183.60 
3766 -184.41 -184.59 -183.60 
3767 -184.41 -184.53 -183.60 
3768 -184.34 -184.65 -183.60 
3769 -184.45 -184.73 -183.60 
3770 -184.49 -184.73 -183.60 
3771 -184.49 -184.81 -183.60 
3772 -184.56 -184.74 -183.60 
3773 -184.52 -184.65 -183.60 
3774 -184.46 -184.63 -183.60 
3775 -184.46 -184.59 -183.60 
3776 -184.41 -184.57 -183.60 
3777 -184.42 -184.55 -183.60 
3778 -184.42 -184.52 -183.60 
3779 -184.39 -184.52 -183.60 
3780 -184.36 -184.51 -183.60 
3781 -184.34 -184.52 -183.60 
3782 -184.36 -184.51 -183.60 
3783 -184.34 -184.53 -183.60 
3784 -184.36 -184.52 -183.60 
3785 -184.35 -184.54 -183.60 
3786 -184.39 -184.54 -183.60 
3787 -184.41 -184.52 -183.60 
3788 -184.38 -184.52 -183.60 
3789 -184.38 -184.52 -183.60 
3790 -184.36 -184.52 -183.60 
3791 -184.37 -184.55 -183.60 
3792 -184.36 -184.55 -183.60 
3793 -184.36 -184.53 -183.60 
3794 -184.35 -184.56 -183.60 
3795 -184.40 -184.65 -183.60 
3796 -184.51 -184.58 -183.60 
3797 -184.43 -184.56 -183.60 
3798 -184.44 -184.54 -183.60 
3799 -184.44 -184.48 -183.60 
3800 -184.37 -184.44 -183.60 
3801 -184.33 -184.47 -183.60 
3802 -184.36 -184.43 -183.60 
3803 -184.31 -184.43 -183.60 
3804 -184.31 -184.40 -183.60 
3805 -184.28 -184.45 -183.60 
3806 -184.31 -184.45 -183.60 
3807 -184.29 -184.46 -183.60 
3808 -184.30 -184.48 -183.60 
3809 -184.32 -184.44 -183.60 
3810 -184.24 -184.42 -183.60 
3811 -184.23 -184.41 -183.60 
3812 -184.21 -184.42 -183.60 
3813 -184.25 -184.40 -183.60 
3814 -184.24 -184.38 -183.60 
3815 -184.21 -184.38 -183.60 
3816 -184.20 -184.40 -183.60 
3817 -184.21 -184.43 -183.60 
3818 -184.23 -184.43 -183.60 
3819 -184.26 -184.42 -183.60 
3820 -184.27 -184.44 -183.60 
3821 -184.28 -184.44 -183.60 
3822 -184.32 -184.44 -183.60 
3823 -184.32 -184.45 -183.60 
3824 -184.31 -184.46 -183.60 
3825 -184.32 -184.49 -183.60 
3826 -184.34 -184.50 -183.60 
3827 -184.36 -184.54 -183.60 
3828 -184.40 -184.56 -183.60 
3829 -184.41 -184.55 -183.60 
3830 -184.41 -184.57 -183.60 
3831 -184.43 -184.59 -183.60 
3832 -184.45 -184.65 -183.60 
3833 -184.48 -184.66 -183.60 
3834 -184.50 -184.66 -183.60 
3835 -184.47 -184.65 -183.60 
3836 -184.45 -184.63 -183.60 
3837 -184.45 -184.61 -183.60 
3838 -184.43 -184.59 -183.60 
3839 -184.41 -184.59 -183.60 
3840 -184.40 -184.61 -183.60 
3841 -184.43 -184.58 -183.60 
3842 -184.41 -184.60 -183.60 
3843 -184.45 -184.57 -183.60 
3844 -184.42 -184.55 -183.60 
3845 -184.39 -184.56 -183.60 
3846 -184.40 -184.57 -183.60 
3847 -184.39 -184.53 -183.60 
3848 -184.35 -184.53 -183.60 
3849 -184.36 -184.53 -183.60 
3850 -184.32 -184.56 -183.60 
3851 -184.36 -184.57 -183.60 
3852 -184.37 -184.58 -183.60 
3853 -184.40 -184.52 -183.60 
3854 -184.33 -184.44 -183.60 
3855 -184.28 -184.43 -183.60 
3856 -184.26 -184.42 -183.60 
3857 -184.28 -184.42 -183.60 
3858 -184.29 -184.45 -183.60 
3859 -184.31 -184.47 -183.60 
3860 -184.32 -184.48 -183.60 
3861 -184.33 -184.49 -183.60 
3862 -184.33 -184.48 -183.60 
3863 -184.32 -184.43 -183.60 
3864 -184.27 -184.42 -183.60 
3865 -184.28 -184.43 -183.60 
3866 -184.27 -184.42 -183.60 
3867 -184.25 -184.48 -183.60 
3868 -184.31 -184.46 -183.60 
3869 -184.29 -184.47 -183.60 
3870 -184.27 -184.45 -183.60 
3871 -184.30 -184.51 -183.60 
3872 -184.35 -184.52 -183.60 
3873 -184.35 -184.52 -183.60 
3874 -184.34 -184.48 -183.60 
3875 -184.31 -184.46 -183.60 
3876 -184.30 -184.49 -183.60 
3877 -184.30 -184.46 -183.60 
3878 -184.30 -184.44 -183.60 
3879 -184.32 -184.43 -183.60 
3880 -184.27 -184.40 -183.60 
3881 -184.25 -184.38 -183.60 
3882 -184.23 -184.38 -183.60 
3883 -184.21 -184.42 -183.60 
3884 -184.23 -184.43 -183.60 
3885 -184.22 -184.41 -183.60 
3886 -184.21 -184.41 -183.60 
3887 -184.21 -184.41 -183.60 
3888 -184.19 -184.36 -183.60 
3889 -184.12 -184.33 -183.60 
3890 -184.11 -184.36 -183.60 
3891 -184.13 -184.40 -183.60 
3892 -184.15 -184.42 -183.60 
3893 -184.14 -184.43 -183.60 
3894 -184.15 -184.47 -183.60 
3895 -184.16 -184.46 -183.60 
3896 -184.15 -184.43 -183.60 
3897 -184.15 -184.45 -183.60 
3898 -184.16 -184.43 -183.60 
3899 -184.16 -184.46 -183.60 
3900 -184.16 -184.48 -183.60 
3901 -184.21 -184.49 -183.60 
3902 -184.23 -184.48 -183.60 
3903 -184.18 -184.43 -183.60 
3904 -184.12 -184.42 -183.60 
3905 -184.03 -184.43 -183.60 
3906 -184.01 -184.38 -183.60 
3907 -183.99 -184.33 -183.60 
3908 -183.96 -184.35 -183.60 
3909 -183.99 -184.36 -183.60 
3910 -183.97 -184.43 -183.60 
3911 -184.02 -184.49 -183.60 
3912 -184.07 -184.47 -183.60 
3913 -184.10 -184.49 -183.60 
3914 -184.15 -184.52 -183.60 
3915 -184.14 -184.52 -183.60 
3916 -184.13 -184.51 -183.60 
3917 -184.14 -184.52 -183.60 
3918 -184.19 -184.45 -183.60 
3919 -184.15 -184.44 -183.60 
3920 -184.13 -184.47 -183.60 
3921 -184.17 -184.42 -183.60 
3922 -184.13 -184.42 -183.60 
3923 -184.14 -184.40 -183.60 
3924 -184.12 -184.36 -183.60 
3925 -184.10 -184.38 -183.60 
3926 -184.11 -184.39 -183.60 
3927 -184.11 -184.38 -183.60 
3928 -184.10 -184.34 -183.60 
3929 -184.08 -184.35 -183.60 
3930 -184.13 -184.41 -183.60 
3931 -184.19 -184.44 -183.60 
3932 -184.24 -184.44 -183.60 
3933 -184.24 -184.51 -183.60 
3934 -184.32 -184.44 -183.60 
3935 -184.26 -184.49 -183.60 
3936 -184.27 -184.45 -183.60 
3937 -184.23 -184.41 -183.60 
3938 -184.18 -184.47 -183.60 
3939 -184.26 -184.44 -183.60 
3940 -184.25 -184.45 -183.60 
3941 -184.29 -184.45 -183.60 
3942 -184.27 -184.48 -183.60 
3943 -184.30 -184.48 -183.60 
3944 -184.30 -184.48 -183.60 
3945 -184.34 -184.46 -183.60 
3946 -184.38 -184.40 -183.60 
3947 -184.29 -184.37 -183.60 
3948 -184.23 -184.36 -183.60 
