Iter | Sampling Pol | Evaluation Pol | Best (Sampled) 
   0 -453.96 -461.52 -100000000.00 
   1 -456.74 -466.24 -453.96 
   2 -438.77 -453.83 -453.96 
   3 -447.51 -454.34 -438.77 
   4 -434.80 -443.97 -438.77 
   5 -449.06 -458.00 -434.80 
   6 -444.80 -443.74 -434.80 
   7 -430.39 -432.45 -434.80 
   8 -430.56 -423.99 -430.39 
   9 -413.39 -424.92 -430.39 
  10 -424.54 -437.61 -413.39 
  11 -402.33 -438.16 -413.39 
  12 -416.43 -450.72 -402.33 
  13 -426.00 -443.35 -402.33 
  14 -420.82 -453.79 -402.33 
  15 -410.56 -444.62 -402.33 
  16 -407.10 -450.50 -402.33 
  17 -400.39 -442.07 -402.33 
  18 -411.26 -429.88 -400.39 
  19 -416.63 -414.93 -400.39 
  20 -398.51 -410.11 -400.39 
  21 -407.82 -405.37 -398.51 
  22 -401.63 -407.87 -398.51 
  23 -385.23 -403.27 -398.51 
  24 -388.95 -402.22 -385.23 
  25 -390.98 -400.04 -385.23 
  26 -393.45 -386.02 -385.23 
  27 -375.99 -387.16 -385.23 
  28 -394.71 -375.12 -375.99 
  29 -390.78 -357.32 -375.99 
  30 -385.45 -362.65 -375.99 
  31 -393.06 -363.13 -375.99 
  32 -381.20 -350.33 -375.99 
  33 -393.52 -355.14 -375.99 
  34 -392.38 -354.09 -375.99 
  35 -391.50 -344.76 -375.99 
  36 -391.92 -354.49 -375.99 
  37 -382.10 -361.96 -375.99 
  38 -391.22 -370.27 -375.99 
  39 -384.83 -374.42 -375.99 
  40 -388.34 -376.94 -375.99 
  41 -389.83 -379.94 -375.99 
  42 -388.82 -376.30 -375.99 
  43 -386.83 -379.49 -375.99 
  44 -387.38 -372.20 -375.99 
  45 -389.97 -385.56 -375.99 
  46 -382.77 -394.86 -375.99 
  47 -377.38 -398.69 -375.99 
  48 -377.71 -394.69 -375.99 
  49 -386.18 -391.06 -375.99 
  50 -387.69 -384.75 -375.99 
  51 -373.58 -376.98 -375.99 
  52 -376.30 -375.55 -373.58 
  53 -373.62 -375.72 -373.58 
  54 -375.90 -379.87 -373.58 
  55 -360.67 -386.24 -373.58 
  56 -371.83 -379.98 -360.67 
  57 -368.54 -381.47 -360.67 
  58 -378.56 -381.05 -360.67 
  59 -365.44 -368.29 -360.67 
  60 -368.99 -368.53 -360.67 
  61 -367.46 -371.87 -360.67 
  62 -366.07 -376.00 -360.67 
  63 -368.94 -374.34 -360.67 
  64 -362.38 -371.38 -360.67 
  65 -367.73 -377.11 -360.67 
  66 -365.24 -383.81 -360.67 
  67 -357.76 -362.84 -360.67 
  68 -369.61 -361.68 -357.76 
  69 -360.64 -364.16 -357.76 
  70 -361.84 -368.37 -357.76 
  71 -363.88 -366.02 -357.76 
  72 -356.78 -379.04 -357.76 
  73 -370.46 -379.71 -356.78 
  74 -362.97 -381.72 -356.78 
  75 -365.95 -381.09 -356.78 
  76 -351.42 -376.71 -356.78 
  77 -367.73 -376.43 -351.42 
  78 -356.97 -372.60 -351.42 
  79 -346.04 -367.38 -351.42 
  80 -351.98 -373.35 -346.04 
  81 -350.70 -372.70 -346.04 
  82 -360.28 -381.85 -346.04 
  83 -345.66 -394.64 -346.04 
  84 -337.72 -394.93 -345.66 
  85 -346.29 -392.82 -337.72 
  86 -353.35 -391.83 -337.72 
  87 -345.92 -394.22 -337.72 
  88 -333.87 -395.23 -337.72 
  89 -337.56 -396.97 -333.87 
  90 -324.30 -395.89 -333.87 
  91 -345.66 -395.59 -324.30 
  92 -336.84 -392.59 -324.30 
  93 -331.85 -394.89 -324.30 
  94 -322.80 -391.25 -324.30 
  95 -326.43 -378.74 -322.80 
  96 -327.98 -374.64 -322.80 
  97 -331.47 -377.61 -322.80 
  98 -327.99 -375.47 -322.80 
  99 -324.28 -372.95 -322.80 
 100 -322.77 -356.72 -322.80 
 101 -324.30 -354.66 -322.77 
 102 -313.86 -361.50 -322.77 
 103 -320.35 -362.28 -313.86 
 104 -321.70 -361.23 -313.86 
 105 -313.61 -359.29 -313.86 
 106 -316.26 -361.46 -313.61 
 107 -308.23 -357.34 -313.61 
 108 -308.82 -363.59 -308.23 
 109 -302.94 -364.47 -308.23 
 110 -309.97 -367.68 -302.94 
 111 -304.05 -366.45 -302.94 
 112 -292.19 -367.56 -302.94 
 113 -303.70 -386.41 -292.19 
 114 -295.85 -376.42 -292.19 
 115 -301.46 -388.66 -292.19 
 116 -291.38 -393.37 -292.19 
 117 -286.42 -391.48 -291.38 
 118 -293.12 -394.63 -286.42 
 119 -293.45 -394.66 -286.42 
 120 -284.76 -397.15 -286.42 
 121 -281.62 -391.22 -284.76 
 122 -287.62 -386.59 -281.62 
 123 -286.88 -376.43 -281.62 
 124 -277.22 -377.03 -281.62 
 125 -278.77 -373.62 -277.22 
 126 -282.46 -389.09 -277.22 
 127 -281.06 -384.68 -277.22 
 128 -280.15 -380.65 -277.22 
 129 -284.17 -373.19 -277.22 
 130 -274.04 -379.88 -277.22 
 131 -269.00 -377.02 -274.04 
 132 -270.99 -372.10 -269.00 
 133 -279.56 -359.85 -269.00 
 134 -266.08 -354.32 -269.00 
 135 -271.97 -362.73 -266.08 
 136 -264.58 -359.99 -266.08 
 137 -265.79 -356.88 -264.58 
 138 -272.40 -369.72 -264.58 
 139 -262.47 -366.27 -264.58 
 140 -271.11 -364.74 -262.47 
 141 -270.38 -359.49 -262.47 
 142 -259.64 -366.70 -262.47 
 143 -266.92 -364.45 -259.64 
 144 -264.02 -356.32 -259.64 
 145 -257.12 -354.72 -259.64 
 146 -263.12 -361.81 -257.12 
 147 -260.74 -352.35 -257.12 
 148 -262.23 -344.18 -257.12 
 149 -252.38 -345.24 -257.12 
 150 -256.42 -346.48 -252.38 
 151 -257.25 -354.92 -252.38 
 152 -255.58 -362.53 -252.38 
 153 -252.48 -351.48 -252.38 
 154 -250.55 -350.45 -252.38 
 155 -252.70 -324.15 -250.55 
 156 -254.39 -345.72 -250.55 
 157 -250.94 -328.96 -250.55 
 158 -251.26 -320.31 -250.55 
 159 -248.42 -341.79 -250.55 
 160 -247.62 -329.07 -248.42 
 161 -242.69 -332.56 -247.62 
 162 -244.55 -321.18 -242.69 
 163 -247.77 -317.76 -242.69 
 164 -248.99 -301.12 -242.69 
 165 -251.55 -297.84 -242.69 
 166 -246.15 -298.90 -242.69 
 167 -246.56 -294.00 -242.69 
 168 -243.10 -298.17 -242.69 
 169 -255.70 -293.12 -242.69 
 170 -241.54 -293.24 -242.69 
 171 -243.04 -298.59 -241.54 
 172 -241.68 -298.14 -241.54 
 173 -242.78 -297.03 -241.54 
 174 -240.49 -294.27 -241.54 
 175 -241.12 -290.58 -240.49 
 176 -238.29 -294.29 -240.49 
 177 -237.76 -281.39 -238.29 
 178 -236.96 -284.57 -237.76 
 179 -242.90 -298.16 -236.96 
 180 -238.47 -283.23 -236.96 
 181 -243.07 -279.03 -236.96 
 182 -239.41 -266.38 -236.96 
 183 -236.60 -265.82 -236.96 
 184 -239.73 -256.74 -236.60 
 185 -236.26 -257.40 -236.60 
 186 -239.70 -262.26 -236.26 
 187 -236.13 -261.78 -236.26 
 188 -235.24 -269.65 -236.13 
 189 -239.52 -260.41 -235.24 
 190 -238.05 -261.27 -235.24 
 191 -235.00 -264.14 -235.24 
 192 -234.19 -256.01 -235.00 
 193 -239.60 -252.09 -234.19 
 194 -236.03 -254.21 -234.19 
 195 -239.50 -245.14 -234.19 
 196 -236.87 -241.46 -234.19 
 197 -235.85 -244.48 -234.19 
 198 -231.75 -248.47 -234.19 
 199 -230.68 -244.14 -231.75 
 200 -228.39 -246.84 -230.68 
 201 -234.88 -235.48 -228.39 
 202 -231.84 -241.60 -228.39 
 203 -232.42 -242.37 -228.39 
 204 -227.32 -240.66 -228.39 
 205 -229.50 -238.49 -227.32 
 206 -234.02 -239.04 -227.32 
 207 -234.61 -240.65 -227.32 
 208 -233.64 -241.60 -227.32 
 209 -231.80 -237.60 -227.32 
 210 -226.78 -228.61 -227.32 
 211 -228.34 -225.77 -226.78 
 212 -232.53 -227.57 -226.78 
 213 -231.79 -227.81 -226.78 
 214 -227.08 -227.63 -226.78 
 215 -227.90 -230.47 -226.78 
 216 -231.82 -236.27 -226.78 
 217 -231.15 -233.84 -226.78 
 218 -228.26 -242.34 -226.78 
 219 -233.53 -243.61 -226.78 
 220 -224.80 -247.79 -226.78 
 221 -230.19 -239.75 -224.80 
 222 -225.70 -232.38 -224.80 
 223 -228.71 -229.63 -224.80 
 224 -233.11 -226.17 -224.80 
 225 -228.34 -229.04 -224.80 
 226 -232.47 -227.56 -224.80 
 227 -225.21 -236.20 -224.80 
 228 -224.68 -241.25 -224.80 
 229 -227.61 -233.97 -224.68 
 230 -229.80 -234.63 -224.68 
 231 -225.79 -230.41 -224.68 
 232 -224.86 -229.01 -224.68 
 233 -223.75 -232.58 -224.68 
 234 -225.06 -232.53 -223.75 
 235 -223.99 -233.71 -223.75 
 236 -225.98 -233.28 -223.75 
 237 -225.01 -238.89 -223.75 
 238 -226.25 -236.59 -223.75 
 239 -224.43 -236.79 -223.75 
 240 -223.69 -244.78 -223.75 
 241 -224.50 -241.63 -223.69 
 242 -226.48 -233.83 -223.69 
 243 -221.09 -237.01 -223.69 
 244 -230.44 -239.74 -221.09 
 245 -225.85 -241.80 -221.09 
 246 -224.52 -235.42 -221.09 
 247 -221.22 -232.47 -221.09 
 248 -224.94 -230.28 -221.09 
 249 -228.02 -232.89 -221.09 
 250 -223.95 -226.66 -221.09 
 251 -220.78 -230.06 -221.09 
 252 -223.10 -225.87 -220.78 
 253 -223.62 -227.21 -220.78 
 254 -226.64 -226.65 -220.78 
 255 -227.58 -221.77 -220.78 
 256 -223.77 -222.17 -220.78 
 257 -224.64 -224.54 -220.78 
 258 -227.83 -220.76 -220.78 
 259 -226.00 -221.16 -220.78 
 260 -221.65 -222.58 -220.78 
 261 -222.01 -223.93 -220.78 
 262 -224.60 -222.36 -220.78 
 263 -221.75 -225.03 -220.78 
 264 -228.88 -226.15 -220.78 
 265 -225.24 -229.30 -220.78 
 266 -224.84 -229.72 -220.78 
 267 -221.46 -231.90 -220.78 
 268 -220.78 -238.25 -220.78 
 269 -224.11 -232.85 -220.78 
 270 -223.44 -229.53 -220.78 
 271 -227.11 -239.00 -220.78 
 272 -221.19 -241.10 -220.78 
 273 -224.03 -239.29 -220.78 
 274 -222.11 -241.18 -220.78 
 275 -222.21 -238.64 -220.78 
 276 -221.30 -234.37 -220.78 
 277 -225.65 -233.20 -220.78 
 278 -221.82 -239.07 -220.78 
 279 -219.39 -240.23 -220.78 
 280 -218.86 -252.00 -219.39 
 281 -219.96 -252.65 -218.86 
 282 -224.90 -247.08 -218.86 
 283 -217.06 -238.77 -218.86 
 284 -216.87 -236.28 -217.06 
 285 -219.40 -229.94 -216.87 
 286 -223.47 -230.60 -216.87 
 287 -213.32 -235.91 -216.87 
 288 -223.19 -233.57 -213.32 
 289 -220.90 -227.72 -213.32 
 290 -220.19 -223.62 -213.32 
 291 -218.07 -221.34 -213.32 
 292 -214.84 -221.03 -213.32 
 293 -220.66 -223.38 -213.32 
 294 -215.96 -221.21 -213.32 
 295 -215.06 -218.36 -213.32 
 296 -222.20 -219.96 -213.32 
 297 -217.11 -218.85 -213.32 
 298 -216.42 -220.44 -213.32 
 299 -217.75 -219.29 -213.32 
 300 -218.72 -220.65 -213.32 
 301 -215.28 -220.15 -213.32 
 302 -218.38 -217.63 -213.32 
 303 -218.47 -217.02 -213.32 
 304 -215.76 -221.50 -213.32 
 305 -222.46 -217.41 -213.32 
 306 -216.09 -215.24 -213.32 
 307 -220.63 -214.82 -213.32 
 308 -216.97 -219.09 -213.32 
 309 -220.12 -217.03 -213.32 
 310 -219.46 -217.90 -213.32 
 311 -220.34 -218.90 -213.32 
 312 -213.61 -218.39 -213.32 
 313 -222.20 -221.67 -213.32 
 314 -219.25 -219.14 -213.32 
 315 -219.15 -215.90 -213.32 
 316 -217.27 -217.67 -213.32 
 317 -212.64 -217.88 -213.32 
 318 -222.88 -215.63 -212.64 
 319 -217.08 -215.24 -212.64 
 320 -218.69 -217.83 -212.64 
 321 -214.43 -216.89 -212.64 
 322 -214.27 -218.51 -212.64 
 323 -212.89 -215.37 -212.64 
 324 -215.65 -214.34 -212.64 
 325 -214.20 -216.66 -212.64 
 326 -218.59 -213.78 -212.64 
 327 -214.85 -217.03 -212.64 
 328 -217.69 -217.40 -212.64 
 329 -215.69 -218.84 -212.64 
 330 -214.32 -220.53 -212.64 
 331 -213.26 -218.19 -212.64 
 332 -218.66 -221.03 -212.64 
 333 -214.35 -217.82 -212.64 
 334 -211.42 -216.73 -212.64 
 335 -217.43 -218.20 -211.42 
 336 -215.54 -218.10 -211.42 
 337 -216.03 -222.07 -211.42 
 338 -217.90 -217.81 -211.42 
 339 -218.93 -219.43 -211.42 
 340 -215.61 -220.58 -211.42 
 341 -216.83 -215.19 -211.42 
 342 -214.47 -211.95 -211.42 
 343 -215.07 -211.08 -211.42 
 344 -216.25 -212.86 -211.42 
 345 -215.49 -214.58 -211.42 
 346 -216.05 -209.26 -211.42 
 347 -211.07 -211.83 -211.42 
 348 -215.22 -211.64 -211.07 
 349 -217.47 -210.33 -211.07 
 350 -211.67 -209.15 -211.07 
 351 -217.20 -210.55 -211.07 
 352 -214.86 -210.41 -211.07 
 353 -214.38 -210.20 -211.07 
 354 -212.50 -209.76 -211.07 
 355 -212.18 -211.63 -211.07 
 356 -216.56 -211.74 -211.07 
 357 -213.21 -214.11 -211.07 
 358 -215.55 -211.99 -211.07 
 359 -215.06 -210.69 -211.07 
 360 -217.29 -210.46 -211.07 
 361 -213.87 -213.09 -211.07 
 362 -215.87 -209.74 -211.07 
 363 -216.66 -208.43 -211.07 
 364 -211.29 -205.72 -211.07 
 365 -205.21 -208.71 -211.07 
 366 -215.44 -206.90 -205.21 
 367 -214.67 -208.81 -205.21 
 368 -211.89 -207.02 -205.21 
 369 -215.47 -207.31 -205.21 
 370 -211.82 -209.19 -205.21 
 371 -219.55 -210.73 -205.21 
 372 -213.52 -209.49 -205.21 
 373 -218.56 -208.11 -205.21 
 374 -207.61 -208.01 -205.21 
 375 -215.43 -207.02 -205.21 
 376 -212.66 -206.89 -205.21 
 377 -211.67 -208.15 -205.21 
 378 -215.67 -208.27 -205.21 
 379 -212.90 -206.70 -205.21 
 380 -210.90 -207.17 -205.21 
 381 -209.96 -203.88 -205.21 
 382 -210.20 -209.73 -205.21 
 383 -211.57 -209.45 -205.21 
 384 -213.51 -206.87 -205.21 
 385 -213.72 -207.59 -205.21 
 386 -214.49 -207.90 -205.21 
 387 -217.40 -208.23 -205.21 
 388 -213.49 -210.76 -205.21 
 389 -210.49 -210.30 -205.21 
 390 -209.68 -208.57 -205.21 
 391 -217.50 -209.16 -205.21 
 392 -214.12 -209.08 -205.21 
 393 -212.62 -205.98 -205.21 
 394 -211.67 -206.67 -205.21 
 395 -214.63 -206.85 -205.21 
 396 -214.75 -206.76 -205.21 
 397 -205.55 -205.96 -205.21 
 398 -215.67 -204.34 -205.21 
 399 -209.76 -203.06 -205.21 
 400 -218.04 -207.47 -205.21 
 401 -210.45 -204.18 -205.21 
 402 -215.60 -204.06 -205.21 
 403 -209.07 -202.63 -205.21 
 404 -211.85 -203.57 -205.21 
 405 -210.28 -203.76 -205.21 
 406 -216.17 -204.52 -205.21 
 407 -211.71 -207.24 -205.21 
 408 -210.16 -204.10 -205.21 
 409 -208.95 -203.14 -205.21 
 410 -206.81 -206.19 -205.21 
 411 -207.60 -205.64 -205.21 
 412 -214.73 -206.13 -205.21 
 413 -211.18 -206.68 -205.21 
 414 -209.30 -208.80 -205.21 
 415 -210.14 -207.58 -205.21 
 416 -214.20 -207.80 -205.21 
 417 -209.61 -208.72 -205.21 
 418 -210.02 -209.10 -205.21 
 419 -212.86 -209.41 -205.21 
 420 -213.07 -208.12 -205.21 
 421 -210.48 -207.88 -205.21 
 422 -212.14 -209.43 -205.21 
 423 -209.75 -207.75 -205.21 
 424 -205.64 -209.48 -205.21 
 425 -209.59 -208.02 -205.21 
 426 -211.10 -206.74 -205.21 
 427 -212.69 -206.99 -205.21 
 428 -209.17 -207.42 -205.21 
 429 -209.23 -205.02 -205.21 
 430 -210.66 -207.59 -205.21 
 431 -211.30 -206.19 -205.21 
 432 -209.03 -204.09 -205.21 
 433 -209.31 -204.14 -205.21 
 434 -207.70 -208.53 -205.21 
 435 -208.66 -205.17 -205.21 
 436 -211.64 -207.80 -205.21 
 437 -211.07 -207.63 -205.21 
 438 -209.08 -208.05 -205.21 
 439 -208.99 -206.88 -205.21 
 440 -207.45 -204.27 -205.21 
 441 -207.76 -201.83 -205.21 
 442 -211.59 -203.63 -205.21 
 443 -206.62 -202.60 -205.21 
 444 -207.92 -204.11 -205.21 
 445 -207.82 -201.76 -205.21 
 446 -208.85 -201.86 -205.21 
 447 -211.85 -203.65 -205.21 
 448 -208.65 -202.41 -205.21 
 449 -208.93 -202.11 -205.21 
 450 -206.46 -202.03 -205.21 
 451 -205.75 -200.04 -205.21 
 452 -211.54 -202.97 -205.21 
 453 -209.69 -201.03 -205.21 
 454 -207.90 -201.21 -205.21 
 455 -205.25 -204.02 -205.21 
 456 -211.84 -206.73 -205.21 
 457 -208.62 -204.15 -205.21 
 458 -207.59 -204.37 -205.21 
 459 -208.11 -203.63 -205.21 
 460 -210.14 -199.54 -205.21 
 461 -211.00 -203.45 -205.21 
 462 -203.98 -201.69 -205.21 
 463 -204.28 -199.86 -203.98 
 464 -214.97 -201.59 -203.98 
 465 -210.80 -201.51 -203.98 
 466 -208.08 -200.70 -203.98 
 467 -204.53 -201.25 -203.98 
 468 -210.14 -200.65 -203.98 
 469 -209.98 -204.01 -203.98 
 470 -207.77 -204.09 -203.98 
 471 -205.56 -202.54 -203.98 
 472 -210.85 -204.05 -203.98 
 473 -206.57 -201.55 -203.98 
 474 -210.11 -205.52 -203.98 
 475 -204.30 -205.25 -203.98 
 476 -202.84 -205.02 -203.98 
 477 -210.00 -203.87 -202.84 
 478 -206.28 -205.30 -202.84 
 479 -208.58 -203.41 -202.84 
 480 -210.63 -203.41 -202.84 
 481 -209.15 -202.65 -202.84 
 482 -205.19 -205.98 -202.84 
 483 -208.51 -203.43 -202.84 
 484 -206.77 -203.15 -202.84 
 485 -203.81 -204.60 -202.84 
 486 -207.72 -204.16 -202.84 
 487 -207.60 -204.94 -202.84 
 488 -206.16 -204.87 -202.84 
 489 -205.56 -203.50 -202.84 
 490 -209.57 -204.63 -202.84 
 491 -202.11 -205.49 -202.84 
 492 -205.42 -206.58 -202.11 
 493 -204.92 -206.07 -202.11 
 494 -205.26 -206.36 -202.11 
 495 -206.23 -205.65 -202.11 
 496 -201.03 -205.76 -202.11 
 497 -207.42 -204.03 -201.03 
 498 -205.22 -203.71 -201.03 
 499 -209.89 -203.85 -201.03 
 500 -205.36 -204.93 -201.03 
 501 -210.29 -204.20 -201.03 
 502 -205.10 -207.01 -201.03 
 503 -206.69 -206.36 -201.03 
 504 -204.49 -206.18 -201.03 
 505 -204.66 -205.09 -201.03 
 506 -207.50 -205.54 -201.03 
 507 -208.77 -205.67 -201.03 
 508 -205.49 -205.53 -201.03 
 509 -199.72 -206.34 -201.03 
 510 -202.84 -203.75 -199.72 
 511 -209.58 -204.32 -199.72 
 512 -207.26 -206.66 -199.72 
 513 -206.97 -204.10 -199.72 
 514 -204.71 -204.41 -199.72 
 515 -204.72 -204.65 -199.72 
 516 -210.04 -203.86 -199.72 
 517 -203.48 -205.10 -199.72 
 518 -203.45 -203.61 -199.72 
 519 -202.11 -203.54 -199.72 
 520 -206.50 -201.24 -199.72 
 521 -207.86 -201.67 -199.72 
 522 -203.78 -201.82 -199.72 
 523 -202.42 -201.60 -199.72 
 524 -202.50 -201.05 -199.72 
 525 -204.34 -200.70 -199.72 
 526 -205.33 -203.03 -199.72 
 527 -204.44 -201.85 -199.72 
 528 -207.59 -202.47 -199.72 
 529 -208.58 -203.80 -199.72 
 530 -204.60 -203.28 -199.72 
 531 -199.25 -202.13 -199.72 
 532 -204.01 -201.29 -199.25 
 533 -202.60 -201.90 -199.25 
 534 -202.42 -201.17 -199.25 
 535 -206.91 -201.27 -199.25 
 536 -205.38 -201.28 -199.25 
 537 -199.87 -201.34 -199.25 
 538 -207.99 -200.91 -199.25 
 539 -203.02 -200.30 -199.25 
 540 -202.61 -199.91 -199.25 
 541 -204.44 -201.58 -199.25 
 542 -209.01 -201.58 -199.25 
 543 -204.20 -199.59 -199.25 
 544 -205.68 -201.95 -199.25 
 545 -201.90 -198.88 -199.25 
 546 -205.11 -200.37 -199.25 
 547 -205.29 -199.66 -199.25 
 548 -203.77 -199.49 -199.25 
 549 -206.94 -199.99 -199.25 
 550 -203.94 -201.04 -199.25 
 551 -209.87 -199.72 -199.25 
 552 -202.55 -199.54 -199.25 
 553 -206.83 -199.48 -199.25 
 554 -206.43 -199.65 -199.25 
 555 -205.06 -200.21 -199.25 
 556 -204.91 -200.27 -199.25 
 557 -202.21 -200.38 -199.25 
 558 -199.67 -200.10 -199.25 
 559 -202.94 -200.63 -199.25 
 560 -203.43 -200.63 -199.25 
 561 -204.28 -199.38 -199.25 
 562 -199.40 -197.51 -199.25 
 563 -205.08 -195.78 -199.25 
 564 -201.90 -197.85 -199.25 
 565 -200.39 -197.82 -199.25 
 566 -207.79 -195.86 -199.25 
 567 -199.75 -199.52 -199.25 
 568 -201.22 -198.64 -199.25 
 569 -199.67 -196.91 -199.25 
 570 -202.05 -196.81 -199.25 
 571 -203.25 -196.97 -199.25 
 572 -204.09 -196.77 -199.25 
 573 -205.62 -198.15 -199.25 
 574 -203.64 -198.31 -199.25 
 575 -199.51 -198.54 -199.25 
 576 -200.51 -198.41 -199.25 
 577 -201.66 -198.35 -199.25 
 578 -204.69 -198.15 -199.25 
 579 -199.02 -197.72 -199.25 
 580 -200.39 -198.04 -199.02 
 581 -201.58 -197.27 -199.02 
 582 -200.68 -199.30 -199.02 
 583 -204.03 -196.47 -199.02 
 584 -205.50 -196.50 -199.02 
 585 -204.79 -196.78 -199.02 
 586 -201.61 -196.80 -199.02 
 587 -205.94 -198.07 -199.02 
 588 -200.20 -198.21 -199.02 
 589 -202.78 -197.50 -199.02 
 590 -200.45 -198.50 -199.02 
 591 -204.24 -198.55 -199.02 
 592 -198.33 -198.40 -199.02 
 593 -201.73 -198.49 -198.33 
 594 -200.58 -198.35 -198.33 
 595 -200.96 -197.21 -198.33 
 596 -202.44 -198.00 -198.33 
 597 -204.03 -198.36 -198.33 
 598 -203.94 -198.04 -198.33 
 599 -198.69 -198.11 -198.33 
 600 -201.53 -195.04 -198.33 
 601 -203.30 -196.94 -198.33 
 602 -198.79 -197.34 -198.33 
 603 -201.90 -195.91 -198.33 
 604 -199.59 -196.29 -198.33 
 605 -200.31 -196.76 -198.33 
 606 -200.36 -196.95 -198.33 
 607 -202.76 -196.72 -198.33 
 608 -198.42 -197.96 -198.33 
 609 -199.16 -198.04 -198.33 
 610 -199.19 -196.54 -198.33 
 611 -199.31 -196.68 -198.33 
 612 -196.90 -196.89 -198.33 
 613 -198.08 -196.63 -196.90 
 614 -197.40 -195.36 -196.90 
 615 -197.78 -196.77 -196.90 
 616 -203.20 -196.77 -196.90 
 617 -203.40 -196.67 -196.90 
 618 -200.78 -196.86 -196.90 
 619 -197.15 -196.70 -196.90 
 620 -202.16 -194.73 -196.90 
 621 -200.71 -196.00 -196.90 
 622 -197.66 -196.21 -196.90 
 623 -198.82 -196.64 -196.90 
 624 -198.04 -196.37 -196.90 
 625 -200.54 -196.73 -196.90 
 626 -200.30 -197.11 -196.90 
 627 -201.46 -196.96 -196.90 
 628 -198.69 -196.18 -196.90 
 629 -199.79 -195.93 -196.90 
 630 -201.08 -197.08 -196.90 
 631 -199.23 -198.12 -196.90 
 632 -199.66 -195.30 -196.90 
 633 -195.21 -195.80 -196.90 
 634 -198.08 -195.81 -195.21 
 635 -198.47 -196.38 -195.21 
 636 -198.88 -194.93 -195.21 
 637 -197.47 -195.08 -195.21 
 638 -197.86 -196.64 -195.21 
 639 -200.59 -194.74 -195.21 
 640 -199.77 -195.24 -195.21 
 641 -193.64 -195.91 -195.21 
 642 -198.77 -196.21 -193.64 
 643 -197.66 -195.83 -193.64 
 644 -194.45 -199.43 -193.64 
 645 -198.22 -195.04 -193.64 
 646 -196.70 -193.91 -193.64 
 647 -200.62 -196.99 -193.64 
 648 -195.24 -194.17 -193.64 
 649 -196.37 -195.80 -193.64 
 650 -197.73 -195.26 -193.64 
 651 -200.12 -194.07 -193.64 
 652 -200.10 -194.36 -193.64 
 653 -196.28 -195.25 -193.64 
 654 -198.12 -197.77 -193.64 
 655 -196.07 -197.56 -193.64 
 656 -197.99 -196.72 -193.64 
 657 -199.46 -196.92 -193.64 
 658 -197.87 -198.64 -193.64 
 659 -200.37 -194.44 -193.64 
 660 -198.72 -193.85 -193.64 
 661 -198.78 -195.07 -193.64 
 662 -198.90 -196.62 -193.64 
 663 -199.66 -194.08 -193.64 
 664 -199.65 -194.19 -193.64 
 665 -199.61 -194.40 -193.64 
 666 -200.42 -195.66 -193.64 
 667 -199.50 -195.38 -193.64 
 668 -196.10 -195.86 -193.64 
 669 -197.06 -193.08 -193.64 
 670 -202.15 -193.93 -193.64 
 671 -193.55 -193.74 -193.64 
 672 -197.91 -195.12 -193.55 
 673 -201.88 -193.72 -193.55 
 674 -197.17 -193.43 -193.55 
 675 -197.84 -194.78 -193.55 
 676 -194.09 -194.36 -193.55 
 677 -198.42 -193.78 -193.55 
 678 -197.25 -195.22 -193.55 
 679 -197.69 -193.65 -193.55 
 680 -192.45 -193.69 -193.55 
 681 -200.89 -195.10 -192.45 
 682 -202.35 -195.22 -192.45 
 683 -200.57 -193.92 -192.45 
 684 -197.95 -194.09 -192.45 
 685 -195.99 -195.29 -192.45 
 686 -200.72 -193.48 -192.45 
 687 -199.98 -193.93 -192.45 
 688 -196.51 -193.85 -192.45 
 689 -197.80 -193.99 -192.45 
 690 -197.84 -193.96 -192.45 
 691 -197.18 -194.56 -192.45 
 692 -193.05 -193.79 -192.45 
 693 -198.40 -193.76 -192.45 
 694 -197.09 -193.57 -192.45 
 695 -195.21 -194.13 -192.45 
 696 -197.27 -194.20 -192.45 
 697 -194.47 -192.09 -192.45 
 698 -201.44 -192.57 -192.45 
 699 -194.90 -192.38 -192.45 
 700 -196.66 -194.73 -192.45 
 701 -197.81 -193.73 -192.45 
 702 -195.54 -194.90 -192.45 
 703 -194.14 -193.71 -192.45 
 704 -197.34 -193.71 -192.45 
 705 -197.62 -192.78 -192.45 
 706 -195.88 -194.34 -192.45 
 707 -193.56 -194.48 -192.45 
 708 -196.27 -196.02 -192.45 
 709 -198.37 -195.58 -192.45 
 710 -198.96 -194.73 -192.45 
 711 -195.08 -197.04 -192.45 
 712 -194.44 -196.78 -192.45 
 713 -197.32 -196.95 -192.45 
 714 -196.73 -197.13 -192.45 
 715 -198.86 -197.34 -192.45 
 716 -196.35 -194.53 -192.45 
 717 -196.28 -194.39 -192.45 
 718 -199.08 -194.18 -192.45 
 719 -195.82 -196.47 -192.45 
 720 -198.19 -193.58 -192.45 
 721 -197.31 -196.21 -192.45 
 722 -201.41 -195.74 -192.45 
 723 -198.58 -195.21 -192.45 
 724 -197.93 -195.04 -192.45 
 725 -196.70 -195.08 -192.45 
 726 -195.92 -193.02 -192.45 
 727 -196.79 -192.99 -192.45 
 728 -197.88 -194.61 -192.45 
 729 -194.72 -193.52 -192.45 
 730 -194.95 -193.44 -192.45 
 731 -200.52 -194.74 -192.45 
 732 -196.46 -191.65 -192.45 
 733 -194.94 -193.27 -192.45 
 734 -200.14 -192.00 -192.45 
 735 -198.25 -192.08 -192.45 
 736 -196.54 -193.19 -192.45 
 737 -195.28 -192.22 -192.45 
 738 -196.83 -191.20 -192.45 
 739 -194.88 -193.41 -192.45 
 740 -194.38 -192.01 -192.45 
 741 -197.84 -192.92 -192.45 
 742 -196.06 -192.60 -192.45 
 743 -198.88 -189.92 -192.45 
 744 -196.19 -192.90 -192.45 
 745 -200.60 -192.61 -192.45 
 746 -197.34 -191.07 -192.45 
 747 -195.49 -192.73 -192.45 
 748 -192.70 -191.62 -192.45 
 749 -198.42 -188.86 -192.45 
 750 -198.62 -188.84 -192.45 
 751 -197.67 -190.49 -192.45 
 752 -198.60 -190.27 -192.45 
 753 -201.44 -190.17 -192.45 
 754 -198.43 -190.41 -192.45 
 755 -198.88 -190.11 -192.45 
 756 -198.14 -189.91 -192.45 
 757 -194.64 -190.50 -192.45 
 758 -193.43 -190.72 -192.45 
 759 -194.15 -192.53 -192.45 
 760 -196.08 -191.98 -192.45 
 761 -192.91 -191.90 -192.45 
 762 -193.00 -189.78 -192.45 
 763 -195.39 -190.32 -192.45 
 764 -196.53 -191.76 -192.45 
 765 -195.20 -192.44 -192.45 
 766 -194.55 -191.05 -192.45 
 767 -195.74 -190.20 -192.45 
 768 -196.98 -191.19 -192.45 
 769 -193.97 -190.75 -192.45 
 770 -197.59 -190.40 -192.45 
 771 -196.81 -191.54 -192.45 
 772 -196.09 -191.98 -192.45 
 773 -196.52 -190.72 -192.45 
 774 -194.43 -192.20 -192.45 
 775 -198.67 -192.55 -192.45 
 776 -190.69 -192.73 -192.45 
 777 -197.02 -190.45 -190.69 
 778 -194.57 -194.35 -190.69 
 779 -193.26 -192.20 -190.69 
 780 -194.42 -191.32 -190.69 
 781 -198.17 -191.17 -190.69 
 782 -191.45 -191.37 -190.69 
 783 -195.10 -191.81 -190.69 
 784 -192.58 -191.76 -190.69 
 785 -192.65 -192.02 -190.69 
 786 -197.95 -192.70 -190.69 
 787 -193.46 -191.39 -190.69 
 788 -190.98 -193.31 -190.69 
 789 -194.71 -193.45 -190.69 
 790 -195.38 -190.43 -190.69 
 791 -194.07 -190.75 -190.69 
 792 -194.56 -191.62 -190.69 
 793 -196.37 -192.61 -190.69 
 794 -191.31 -191.80 -190.69 
 795 -194.43 -191.73 -190.69 
 796 -192.29 -192.24 -190.69 
 797 -196.54 -192.18 -190.69 
 798 -196.74 -191.75 -190.69 
 799 -192.73 -192.14 -190.69 
 800 -193.52 -191.78 -190.69 
 801 -194.76 -191.55 -190.69 
 802 -195.44 -190.96 -190.69 
 803 -192.06 -191.60 -190.69 
 804 -193.77 -190.58 -190.69 
 805 -194.88 -190.07 -190.69 
 806 -192.46 -191.60 -190.69 
 807 -191.21 -192.46 -190.69 
 808 -193.40 -191.27 -190.69 
 809 -192.71 -192.27 -190.69 
 810 -194.77 -192.89 -190.69 
 811 -194.27 -191.79 -190.69 
 812 -191.39 -190.39 -190.69 
 813 -191.69 -190.49 -190.69 
 814 -195.12 -190.42 -190.69 
 815 -196.05 -189.57 -190.69 
 816 -194.15 -190.29 -190.69 
 817 -194.49 -190.20 -190.69 
 818 -194.32 -189.69 -190.69 
 819 -195.24 -189.40 -190.69 
 820 -189.41 -189.36 -190.69 
 821 -192.97 -190.08 -189.41 
 822 -195.76 -189.40 -189.41 
 823 -194.88 -189.71 -189.41 
 824 -195.61 -190.73 -189.41 
 825 -191.41 -189.84 -189.41 
 826 -196.86 -190.33 -189.41 
 827 -193.95 -189.69 -189.41 
 828 -196.76 -189.96 -189.41 
 829 -192.14 -189.03 -189.41 
 830 -193.24 -190.31 -189.41 
 831 -193.65 -190.60 -189.41 
 832 -194.68 -190.70 -189.41 
 833 -191.46 -190.99 -189.41 
 834 -195.01 -191.25 -189.41 
 835 -192.45 -189.63 -189.41 
 836 -192.28 -189.90 -189.41 
 837 -193.93 -190.82 -189.41 
 838 -192.36 -190.57 -189.41 
 839 -191.35 -188.01 -189.41 
 840 -194.61 -187.91 -189.41 
 841 -192.79 -189.68 -189.41 
 842 -192.08 -188.03 -189.41 
 843 -191.03 -188.34 -189.41 
 844 -190.21 -186.81 -189.41 
 845 -193.18 -188.10 -189.41 
 846 -193.73 -188.58 -189.41 
 847 -190.94 -188.29 -189.41 
 848 -191.62 -187.84 -189.41 
 849 -191.24 -187.44 -189.41 
 850 -191.17 -188.01 -189.41 
 851 -193.78 -187.41 -189.41 
 852 -189.61 -187.96 -189.41 
 853 -192.20 -187.43 -189.41 
 854 -194.14 -187.96 -189.41 
 855 -192.93 -189.44 -189.41 
 856 -190.00 -187.70 -189.41 
 857 -189.84 -187.85 -189.41 
 858 -194.78 -189.05 -189.41 
 859 -192.04 -187.77 -189.41 
 860 -192.37 -188.14 -189.41 
 861 -197.17 -188.06 -189.41 
 862 -189.59 -187.76 -189.41 
 863 -191.47 -188.21 -189.41 
 864 -194.30 -188.66 -189.41 
 865 -190.85 -188.63 -189.41 
 866 -191.39 -188.28 -189.41 
 867 -193.60 -188.11 -189.41 
 868 -194.77 -187.67 -189.41 
 869 -191.74 -186.90 -189.41 
 870 -192.10 -189.62 -189.41 
 871 -190.64 -186.81 -189.41 
 872 -196.57 -189.31 -189.41 
 873 -196.68 -188.08 -189.41 
 874 -191.39 -188.20 -189.41 
 875 -192.18 -188.01 -189.41 
 876 -190.10 -188.09 -189.41 
 877 -196.62 -186.34 -189.41 
 878 -190.83 -190.49 -189.41 
 879 -194.75 -185.82 -189.41 
 880 -193.56 -188.56 -189.41 
 881 -192.47 -188.48 -189.41 
 882 -189.45 -188.42 -189.41 
 883 -191.90 -190.22 -189.41 
 884 -191.02 -189.80 -189.41 
 885 -191.16 -190.75 -189.41 
 886 -191.98 -190.22 -189.41 
 887 -194.47 -190.50 -189.41 
 888 -192.60 -189.77 -189.41 
 889 -192.43 -190.09 -189.41 
 890 -194.01 -188.96 -189.41 
 891 -189.49 -190.16 -189.41 
 892 -190.90 -190.80 -189.41 
 893 -195.66 -190.92 -189.41 
 894 -190.22 -189.91 -189.41 
 895 -191.77 -189.79 -189.41 
 896 -193.98 -188.67 -189.41 
 897 -191.94 -189.88 -189.41 
 898 -190.48 -188.39 -189.41 
 899 -188.89 -190.50 -189.41 
 900 -193.16 -189.06 -188.89 
 901 -189.21 -190.34 -188.89 
 902 -190.73 -186.39 -188.89 
 903 -192.41 -186.46 -188.89 
 904 -191.30 -187.75 -188.89 
 905 -193.01 -189.87 -188.89 
 906 -192.50 -188.97 -188.89 
 907 -194.05 -187.67 -188.89 
 908 -186.32 -187.33 -188.89 
 909 -191.22 -186.92 -186.32 
 910 -194.12 -187.22 -186.32 
 911 -191.43 -187.78 -186.32 
 912 -189.44 -187.84 -186.32 
 913 -189.81 -186.73 -186.32 
 914 -193.84 -186.90 -186.32 
 915 -190.01 -186.60 -186.32 
 916 -194.43 -187.23 -186.32 
 917 -194.02 -185.21 -186.32 
 918 -190.86 -188.45 -186.32 
 919 -190.00 -184.46 -186.32 
 920 -194.05 -186.83 -186.32 
 921 -185.87 -185.63 -186.32 
 922 -187.45 -185.55 -185.87 
 923 -190.37 -188.79 -185.87 
 924 -190.12 -186.83 -185.87 
 925 -194.72 -185.29 -185.87 
 926 -188.66 -185.05 -185.87 
 927 -188.69 -188.24 -185.87 
 928 -191.95 -188.73 -185.87 
 929 -198.26 -187.91 -185.87 
 930 -189.75 -186.76 -185.87 
 931 -193.41 -186.52 -185.87 
 932 -188.34 -186.71 -185.87 
 933 -190.13 -187.60 -185.87 
 934 -190.34 -187.75 -185.87 
 935 -189.40 -188.09 -185.87 
 936 -190.05 -187.37 -185.87 
 937 -190.80 -186.72 -185.87 
 938 -192.26 -186.79 -185.87 
 939 -188.28 -186.90 -185.87 
 940 -187.77 -187.74 -185.87 
 941 -191.37 -189.00 -185.87 
 942 -195.47 -189.30 -185.87 
 943 -191.92 -187.28 -185.87 
 944 -190.65 -188.77 -185.87 
 945 -191.81 -189.17 -185.87 
 946 -191.61 -187.39 -185.87 
 947 -189.01 -186.42 -185.87 
 948 -190.30 -189.15 -185.87 
 949 -189.95 -189.61 -185.87 
 950 -191.50 -188.73 -185.87 
 951 -192.68 -187.26 -185.87 
 952 -189.50 -189.23 -185.87 
 953 -191.52 -189.38 -185.87 
 954 -192.27 -190.26 -185.87 
 955 -194.27 -188.97 -185.87 
 956 -194.02 -190.12 -185.87 
 957 -190.09 -190.14 -185.87 
 958 -193.34 -191.17 -185.87 
 959 -190.51 -191.04 -185.87 
 960 -190.92 -189.68 -185.87 
 961 -194.57 -190.58 -185.87 
 962 -190.54 -189.09 -185.87 
 963 -188.44 -189.18 -185.87 
 964 -186.03 -189.74 -185.87 
 965 -189.56 -189.90 -185.87 
 966 -187.47 -189.87 -185.87 
 967 -193.18 -191.04 -185.87 
 968 -188.37 -189.29 -185.87 
 969 -188.13 -189.16 -185.87 
 970 -189.56 -191.09 -185.87 
 971 -191.89 -189.30 -185.87 
 972 -191.66 -190.68 -185.87 
 973 -189.27 -187.76 -185.87 
 974 -190.57 -186.35 -185.87 
 975 -189.99 -190.44 -185.87 
 976 -188.67 -190.04 -185.87 
 977 -189.55 -191.50 -185.87 
 978 -192.40 -191.12 -185.87 
 979 -191.71 -189.72 -185.87 
 980 -190.61 -189.65 -185.87 
 981 -189.46 -191.21 -185.87 
 982 -191.07 -189.66 -185.87 
 983 -192.92 -190.75 -185.87 
 984 -185.97 -189.24 -185.87 
 985 -192.89 -190.15 -185.87 
 986 -191.91 -189.43 -185.87 
 987 -189.39 -189.19 -185.87 
 988 -190.53 -190.32 -185.87 
 989 -190.19 -190.22 -185.87 
 990 -189.82 -190.66 -185.87 
 991 -193.50 -190.25 -185.87 
 992 -194.17 -190.10 -185.87 
 993 -189.48 -189.09 -185.87 
 994 -189.32 -188.97 -185.87 
 995 -190.56 -188.91 -185.87 
 996 -189.61 -189.15 -185.87 
 997 -192.77 -187.72 -185.87 
 998 -188.66 -189.38 -185.87 
 999 -191.70 -190.02 -185.87 
1000 -185.74 -188.46 -185.87 
1001 -190.42 -188.15 -185.74 
1002 -193.14 -188.09 -185.74 
1003 -188.76 -188.22 -185.74 
1004 -191.56 -188.54 -185.74 
1005 -193.32 -187.87 -185.74 
1006 -190.80 -188.26 -185.74 
1007 -188.31 -188.52 -185.74 
1008 -185.81 -188.66 -185.74 
1009 -190.83 -190.14 -185.74 
1010 -192.69 -188.97 -185.74 
1011 -190.91 -190.66 -185.74 
1012 -189.61 -189.24 -185.74 
1013 -191.36 -189.59 -185.74 
1014 -186.45 -190.85 -185.74 
1015 -191.33 -190.84 -185.74 
1016 -187.49 -190.99 -185.74 
1017 -188.55 -189.45 -185.74 
1018 -191.15 -189.29 -185.74 
1019 -191.69 -189.24 -185.74 
1020 -189.49 -189.22 -185.74 
1021 -191.31 -188.04 -185.74 
1022 -189.68 -187.95 -185.74 
1023 -189.97 -188.06 -185.74 
1024 -187.84 -186.69 -185.74 
1025 -186.79 -189.13 -185.74 
1026 -191.54 -189.50 -185.74 
1027 -192.32 -189.32 -185.74 
1028 -191.70 -186.51 -185.74 
1029 -189.22 -187.59 -185.74 
1030 -190.69 -187.45 -185.74 
1031 -190.54 -187.26 -185.74 
1032 -190.61 -188.94 -185.74 
1033 -192.87 -187.18 -185.74 
1034 -187.44 -186.70 -185.74 
1035 -188.01 -188.49 -185.74 
1036 -190.15 -185.56 -185.74 
1037 -188.35 -188.35 -185.74 
1038 -185.06 -186.63 -185.74 
1039 -186.11 -188.45 -185.06 
1040 -189.67 -187.55 -185.06 
1041 -188.31 -187.68 -185.06 
1042 -186.91 -186.31 -185.06 
1043 -190.20 -186.61 -185.06 
1044 -189.76 -188.09 -185.06 
1045 -190.03 -188.54 -185.06 
1046 -183.58 -186.72 -185.06 
1047 -187.92 -188.81 -183.58 
1048 -190.83 -188.40 -183.58 
1049 -186.96 -189.45 -183.58 
1050 -188.75 -187.90 -183.58 
1051 -191.60 -187.80 -183.58 
1052 -186.48 -189.02 -183.58 
1053 -185.45 -186.92 -183.58 
1054 -189.57 -188.64 -183.58 
1055 -190.05 -188.83 -183.58 
1056 -191.62 -190.07 -183.58 
1057 -188.43 -190.13 -183.58 
1058 -188.11 -189.22 -183.58 
1059 -188.60 -187.62 -183.58 
1060 -184.71 -189.90 -183.58 
1061 -191.09 -188.24 -183.58 
1062 -188.11 -187.09 -183.58 
1063 -188.63 -188.94 -183.58 
1064 -185.77 -189.44 -183.58 
1065 -192.01 -189.19 -183.58 
1066 -190.10 -189.58 -183.58 
1067 -185.74 -189.84 -183.58 
1068 -189.92 -190.77 -183.58 
1069 -192.67 -189.61 -183.58 
1070 -188.48 -189.02 -183.58 
1071 -189.08 -189.49 -183.58 
1072 -191.86 -189.25 -183.58 
1073 -188.89 -189.43 -183.58 
1074 -190.15 -189.37 -183.58 
1075 -188.01 -189.06 -183.58 
1076 -190.46 -188.85 -183.58 
1077 -190.48 -188.61 -183.58 
1078 -191.02 -188.72 -183.58 
1079 -187.20 -190.33 -183.58 
1080 -188.83 -188.55 -183.58 
1081 -184.97 -188.23 -183.58 
1082 -185.48 -186.77 -183.58 
1083 -189.13 -186.87 -183.58 
1084 -187.97 -188.17 -183.58 
1085 -187.77 -186.35 -183.58 
1086 -188.35 -187.49 -183.58 
1087 -189.84 -188.68 -183.58 
1088 -194.02 -188.99 -183.58 
1089 -191.30 -188.49 -183.58 
1090 -184.44 -187.56 -183.58 
1091 -186.12 -188.92 -183.58 
1092 -185.73 -189.25 -183.58 
1093 -189.32 -188.88 -183.58 
1094 -186.73 -188.77 -183.58 
1095 -189.32 -187.35 -183.58 
1096 -185.48 -187.55 -183.58 
1097 -189.11 -186.82 -183.58 
1098 -187.27 -185.68 -183.58 
1099 -189.86 -187.52 -183.58 
1100 -188.74 -185.56 -183.58 
1101 -187.75 -186.78 -183.58 
1102 -189.12 -185.24 -183.58 
1103 -191.73 -186.91 -183.58 
1104 -187.95 -186.59 -183.58 
1105 -189.99 -188.34 -183.58 
1106 -188.63 -187.14 -183.58 
1107 -185.62 -187.47 -183.58 
1108 -190.25 -189.18 -183.58 
1109 -191.19 -188.83 -183.58 
1110 -184.20 -187.77 -183.58 
1111 -183.47 -187.50 -183.58 
1112 -189.11 -187.06 -183.47 
1113 -187.31 -187.22 -183.47 
1114 -188.10 -187.39 -183.47 
1115 -185.61 -186.40 -183.47 
1116 -187.32 -187.92 -183.47 
1117 -185.95 -189.66 -183.47 
1118 -188.46 -186.98 -183.47 
1119 -188.41 -186.87 -183.47 
1120 -187.28 -187.00 -183.47 
1121 -189.98 -187.33 -183.47 
1122 -189.54 -187.57 -183.47 
1123 -186.96 -189.44 -183.47 
1124 -192.35 -189.29 -183.47 
1125 -184.88 -186.26 -183.47 
1126 -190.59 -186.45 -183.47 
1127 -189.03 -186.54 -183.47 
1128 -189.02 -186.50 -183.47 
1129 -187.68 -186.50 -183.47 
1130 -190.54 -187.76 -183.47 
1131 -189.32 -187.60 -183.47 
1132 -184.27 -188.84 -183.47 
1133 -189.15 -187.78 -183.47 
1134 -185.88 -186.43 -183.47 
1135 -190.06 -186.65 -183.47 
1136 -185.66 -187.02 -183.47 
1137 -187.79 -187.27 -183.47 
1138 -188.60 -187.03 -183.47 
1139 -185.79 -188.81 -183.47 
1140 -189.97 -190.00 -183.47 
1141 -190.40 -187.17 -183.47 
1142 -188.93 -188.86 -183.47 
1143 -192.25 -189.07 -183.47 
1144 -186.92 -186.01 -183.47 
1145 -185.49 -186.40 -183.47 
1146 -187.21 -186.18 -183.47 
1147 -188.08 -187.41 -183.47 
1148 -189.21 -186.27 -183.47 
1149 -185.06 -187.32 -183.47 
1150 -187.72 -186.05 -183.47 
1151 -183.25 -186.29 -183.47 
1152 -190.50 -186.47 -183.25 
1153 -185.98 -185.31 -183.25 
1154 -184.51 -185.05 -183.25 
1155 -187.31 -186.17 -183.25 
1156 -190.52 -185.14 -183.25 
1157 -191.53 -187.62 -183.25 
1158 -185.82 -186.68 -183.25 
1159 -189.06 -185.39 -183.25 
1160 -183.55 -187.03 -183.25 
1161 -186.81 -186.55 -183.25 
1162 -184.87 -185.33 -183.25 
1163 -193.25 -186.48 -183.25 
1164 -188.19 -186.32 -183.25 
1165 -189.90 -186.22 -183.25 
1166 -185.96 -187.58 -183.25 
1167 -190.26 -187.92 -183.25 
1168 -188.41 -189.26 -183.25 
1169 -192.23 -189.14 -183.25 
1170 -185.85 -188.96 -183.25 
1171 -186.85 -188.10 -183.25 
1172 -187.41 -187.99 -183.25 
1173 -189.31 -187.76 -183.25 
1174 -188.84 -187.33 -183.25 
1175 -192.51 -187.38 -183.25 
1176 -185.45 -187.54 -183.25 
1177 -188.58 -185.89 -183.25 
1178 -187.52 -185.88 -183.25 
1179 -188.57 -187.60 -183.25 
1180 -189.68 -187.25 -183.25 
1181 -190.82 -188.59 -183.25 
1182 -185.35 -187.40 -183.25 
1183 -187.81 -189.29 -183.25 
1184 -188.16 -189.58 -183.25 
1185 -186.01 -188.38 -183.25 
1186 -190.15 -189.67 -183.25 
1187 -186.46 -188.62 -183.25 
1188 -188.12 -189.78 -183.25 
1189 -190.10 -189.76 -183.25 
1190 -191.31 -189.02 -183.25 
1191 -189.76 -187.65 -183.25 
1192 -187.75 -188.91 -183.25 
1193 -186.19 -189.15 -183.25 
1194 -187.33 -189.33 -183.25 
1195 -186.28 -186.35 -183.25 
1196 -187.27 -190.65 -183.25 
1197 -186.58 -187.71 -183.25 
1198 -189.95 -189.21 -183.25 
1199 -183.27 -189.47 -183.25 
1200 -189.73 -187.63 -183.25 
1201 -188.94 -186.59 -183.25 
1202 -190.36 -187.96 -183.25 
1203 -187.86 -187.63 -183.25 
1204 -186.88 -188.14 -183.25 
1205 -186.44 -188.29 -183.25 
1206 -182.20 -185.84 -183.25 
1207 -188.26 -185.69 -182.20 
1208 -184.60 -185.82 -182.20 
1209 -188.12 -187.07 -182.20 
1210 -190.45 -187.14 -182.20 
1211 -189.02 -185.60 -182.20 
1212 -190.28 -184.12 -182.20 
1213 -187.62 -185.61 -182.20 
1214 -190.28 -186.10 -182.20 
1215 -187.50 -187.59 -182.20 
1216 -188.41 -186.14 -182.20 
1217 -184.09 -184.34 -182.20 
1218 -189.10 -188.84 -182.20 
1219 -187.26 -188.29 -182.20 
1220 -185.77 -186.95 -182.20 
1221 -186.14 -186.94 -182.20 
1222 -187.68 -188.37 -182.20 
1223 -187.30 -186.81 -182.20 
1224 -187.20 -188.05 -182.20 
1225 -186.97 -189.35 -182.20 
1226 -186.38 -187.99 -182.20 
1227 -183.82 -188.99 -182.20 
1228 -187.18 -188.97 -182.20 
1229 -191.00 -189.24 -182.20 
1230 -188.18 -187.64 -182.20 
1231 -190.21 -187.70 -182.20 
1232 -185.18 -187.70 -182.20 
1233 -183.25 -188.45 -182.20 
1234 -189.55 -186.93 -182.20 
1235 -188.58 -187.22 -182.20 
1236 -184.51 -187.11 -182.20 
1237 -186.84 -187.12 -182.20 
1238 -186.87 -187.19 -182.20 
1239 -189.05 -187.23 -182.20 
1240 -194.93 -187.29 -182.20 
1241 -190.06 -187.25 -182.20 
1242 -185.38 -186.79 -182.20 
1243 -186.01 -187.01 -182.20 
1244 -182.84 -186.74 -182.20 
1245 -187.25 -186.46 -182.20 
1246 -186.48 -188.12 -182.20 
1247 -189.38 -186.60 -182.20 
1248 -189.95 -186.44 -182.20 
1249 -187.17 -188.48 -182.20 
1250 -187.12 -188.13 -182.20 
1251 -186.11 -188.11 -182.20 
1252 -188.18 -188.09 -182.20 
1253 -186.72 -187.81 -182.20 
1254 -188.37 -188.02 -182.20 
1255 -184.02 -185.95 -182.20 
1256 -186.88 -186.94 -182.20 
1257 -186.46 -185.55 -182.20 
1258 -189.48 -186.96 -182.20 
1259 -187.88 -186.56 -182.20 
1260 -190.64 -186.41 -182.20 
1261 -186.11 -186.77 -182.20 
1262 -188.71 -186.99 -182.20 
1263 -186.10 -185.46 -182.20 
1264 -188.33 -185.60 -182.20 
1265 -188.18 -187.04 -182.20 
1266 -187.22 -186.05 -182.20 
1267 -185.92 -187.31 -182.20 
1268 -186.80 -187.27 -182.20 
1269 -184.61 -187.06 -182.20 
1270 -185.77 -185.74 -182.20 
1271 -185.77 -185.49 -182.20 
1272 -188.13 -185.53 -182.20 
1273 -189.61 -186.94 -182.20 
1274 -185.13 -186.78 -182.20 
1275 -186.56 -186.92 -182.20 
1276 -187.64 -187.37 -182.20 
1277 -190.67 -187.25 -182.20 
1278 -187.73 -187.49 -182.20 
1279 -186.11 -187.62 -182.20 
1280 -186.01 -187.71 -182.20 
1281 -190.20 -186.07 -182.20 
1282 -188.78 -185.78 -182.20 
1283 -189.15 -185.65 -182.20 
1284 -190.08 -186.05 -182.20 
1285 -189.07 -186.53 -182.20 
1286 -185.44 -186.43 -182.20 
1287 -190.07 -186.83 -182.20 
1288 -189.38 -186.29 -182.20 
1289 -181.59 -186.45 -182.20 
1290 -187.56 -186.65 -181.59 
1291 -188.77 -186.53 -181.59 
1292 -186.08 -186.93 -181.59 
1293 -186.59 -187.13 -181.59 
1294 -185.17 -187.30 -181.59 
1295 -188.51 -187.57 -181.59 
1296 -188.44 -187.55 -181.59 
1297 -185.33 -187.71 -181.59 
1298 -184.02 -189.43 -181.59 
1299 -189.50 -187.98 -181.59 
1300 -184.76 -188.21 -181.59 
1301 -186.16 -187.94 -181.59 
1302 -189.39 -186.73 -181.59 
1303 -184.41 -188.05 -181.59 
1304 -186.45 -186.88 -181.59 
1305 -187.33 -186.84 -181.59 
1306 -187.66 -186.54 -181.59 
1307 -186.68 -186.64 -181.59 
1308 -188.72 -188.45 -181.59 
1309 -186.81 -188.24 -181.59 
1310 -186.99 -186.29 -181.59 
1311 -184.11 -185.95 -181.59 
1312 -187.29 -186.19 -181.59 
1313 -183.99 -188.96 -181.59 
1314 -185.51 -187.40 -181.59 
1315 -185.14 -187.73 -181.59 
1316 -187.68 -185.96 -181.59 
1317 -188.21 -187.56 -181.59 
1318 -188.81 -187.75 -181.59 
1319 -185.57 -187.70 -181.59 
1320 -187.03 -187.33 -181.59 
1321 -187.48 -187.70 -181.59 
1322 -187.58 -186.03 -181.59 
1323 -186.14 -185.61 -181.59 
1324 -186.26 -185.86 -181.59 
1325 -182.77 -187.19 -181.59 
1326 -186.40 -185.49 -181.59 
1327 -183.95 -187.02 -181.59 
1328 -188.47 -186.90 -181.59 
1329 -186.53 -185.61 -181.59 
1330 -187.54 -185.23 -181.59 
1331 -186.08 -185.65 -181.59 
1332 -187.28 -184.97 -181.59 
1333 -188.41 -185.15 -181.59 
1334 -186.81 -186.75 -181.59 
1335 -189.44 -186.60 -181.59 
1336 -183.79 -186.72 -181.59 
1337 -187.95 -186.92 -181.59 
1338 -184.84 -187.10 -181.59 
1339 -186.18 -186.09 -181.59 
1340 -183.12 -187.47 -181.59 
1341 -185.67 -187.29 -181.59 
1342 -183.08 -187.07 -181.59 
1343 -187.23 -187.31 -181.59 
1344 -188.28 -187.20 -181.59 
1345 -187.44 -187.12 -181.59 
1346 -186.00 -187.33 -181.59 
1347 -189.06 -187.50 -181.59 
1348 -188.93 -187.39 -181.59 
1349 -186.32 -187.82 -181.59 
1350 -185.56 -187.71 -181.59 
1351 -186.06 -186.28 -181.59 
1352 -182.16 -187.57 -181.59 
1353 -190.80 -187.62 -181.59 
1354 -189.09 -187.40 -181.59 
1355 -186.99 -186.26 -181.59 
1356 -185.77 -186.28 -181.59 
1357 -189.61 -183.61 -181.59 
1358 -184.21 -183.68 -181.59 
1359 -187.57 -182.25 -181.59 
1360 -185.78 -182.52 -181.59 
1361 -187.48 -183.82 -181.59 
1362 -182.86 -186.73 -181.59 
1363 -188.59 -185.42 -181.59 
1364 -186.71 -185.60 -181.59 
1365 -186.65 -185.72 -181.59 
1366 -185.59 -187.04 -181.59 
1367 -188.85 -185.67 -181.59 
1368 -185.95 -184.24 -181.59 
1369 -188.33 -182.88 -181.59 
1370 -187.13 -182.84 -181.59 
1371 -186.10 -182.75 -181.59 
1372 -185.90 -181.20 -181.59 
1373 -184.82 -181.50 -181.59 
1374 -181.98 -181.33 -181.59 
1375 -184.54 -181.21 -181.59 
1376 -182.06 -181.54 -181.59 
1377 -185.05 -184.15 -181.59 
1378 -183.71 -185.50 -181.59 
1379 -187.07 -184.25 -181.59 
1380 -183.82 -187.16 -181.59 
1381 -182.99 -184.46 -181.59 
1382 -184.57 -182.93 -181.59 
1383 -187.13 -185.82 -181.59 
1384 -187.55 -184.76 -181.59 
1385 -184.12 -186.10 -181.59 
1386 -182.23 -184.82 -181.59 
1387 -188.64 -183.41 -181.59 
1388 -184.45 -183.40 -181.59 
1389 -186.09 -184.87 -181.59 
1390 -187.06 -186.21 -181.59 
1391 -188.31 -183.36 -181.59 
1392 -189.59 -182.32 -181.59 
1393 -183.54 -183.98 -181.59 
1394 -186.63 -182.40 -181.59 
1395 -187.20 -182.58 -181.59 
1396 -185.12 -182.76 -181.59 
1397 -185.48 -182.84 -181.59 
1398 -186.32 -183.09 -181.59 
1399 -184.30 -183.14 -181.59 
1400 -187.12 -182.97 -181.59 
1401 -186.53 -183.07 -181.59 
1402 -184.90 -183.17 -181.59 
1403 -182.91 -183.27 -181.59 
1404 -185.80 -183.48 -181.59 
1405 -183.19 -183.21 -181.59 
1406 -185.28 -183.39 -181.59 
1407 -191.36 -183.25 -181.59 
1408 -186.84 -184.84 -181.59 
1409 -185.06 -184.77 -181.59 
1410 -188.19 -184.55 -181.59 
1411 -185.92 -185.63 -181.59 
1412 -187.27 -185.54 -181.59 
1413 -189.24 -185.62 -181.59 
1414 -188.51 -185.27 -181.59 
1415 -186.30 -185.26 -181.59 
1416 -184.35 -185.14 -181.59 
1417 -187.25 -185.77 -181.59 
1418 -186.86 -184.17 -181.59 
1419 -185.94 -185.43 -181.59 
1420 -186.01 -184.19 -181.59 
1421 -185.32 -184.06 -181.59 
1422 -185.80 -185.31 -181.59 
1423 -187.80 -184.01 -181.59 
1424 -187.52 -184.37 -181.59 
1425 -182.37 -184.33 -181.59 
1426 -178.52 -184.03 -181.59 
1427 -186.34 -184.08 -178.52 
1428 -186.25 -184.05 -178.52 
1429 -181.78 -184.24 -178.52 
1430 -184.39 -184.21 -178.52 
1431 -187.95 -184.12 -178.52 
1432 -183.79 -184.11 -178.52 
1433 -189.16 -183.92 -178.52 
1434 -185.04 -184.52 -178.52 
1435 -188.70 -184.24 -178.52 
1436 -183.57 -182.80 -178.52 
1437 -185.41 -184.17 -178.52 
1438 -187.13 -183.69 -178.52 
1439 -188.58 -182.52 -178.52 
1440 -188.28 -182.30 -178.52 
1441 -186.79 -182.18 -178.52 
1442 -185.39 -183.82 -178.52 
1443 -184.56 -183.89 -178.52 
1444 -183.60 -183.75 -178.52 
1445 -185.56 -185.16 -178.52 
1446 -185.64 -185.43 -178.52 
1447 -188.64 -185.84 -178.52 
1448 -183.60 -183.14 -178.52 
1449 -189.00 -182.92 -178.52 
1450 -188.98 -184.36 -178.52 
1451 -186.29 -182.73 -178.52 
1452 -185.90 -182.72 -178.52 
1453 -187.55 -182.67 -178.52 
1454 -189.23 -183.93 -178.52 
1455 -186.32 -182.73 -178.52 
1456 -191.57 -182.51 -178.52 
1457 -186.11 -183.65 -178.52 
1458 -183.90 -182.25 -178.52 
1459 -186.98 -182.68 -178.52 
1460 -187.95 -182.70 -178.52 
1461 -188.58 -182.95 -178.52 
1462 -184.81 -182.59 -178.52 
1463 -186.09 -183.74 -178.52 
1464 -189.17 -185.36 -178.52 
1465 -185.92 -185.49 -178.52 
1466 -186.83 -185.02 -178.52 
1467 -183.13 -185.09 -178.52 
1468 -186.85 -185.06 -178.52 
1469 -184.09 -185.20 -178.52 
1470 -186.26 -185.16 -178.52 
1471 -187.97 -184.88 -178.52 
1472 -185.47 -183.03 -178.52 
1473 -186.14 -184.82 -178.52 
1474 -185.37 -183.19 -178.52 
1475 -183.94 -184.57 -178.52 
1476 -186.24 -182.67 -178.52 
1477 -188.94 -182.54 -178.52 
1478 -189.10 -182.68 -178.52 
1479 -189.35 -182.67 -178.52 
1480 -182.88 -182.42 -178.52 
1481 -189.22 -184.20 -178.52 
1482 -185.70 -184.17 -178.52 
1483 -188.74 -183.89 -178.52 
1484 -188.50 -184.05 -178.52 
1485 -184.89 -184.01 -178.52 
1486 -186.94 -182.59 -178.52 
1487 -185.65 -182.45 -178.52 
1488 -184.45 -182.60 -178.52 
1489 -184.10 -182.35 -178.52 
1490 -188.21 -182.57 -178.52 
1491 -185.48 -181.58 -178.52 
1492 -187.15 -183.12 -178.52 
1493 -186.92 -181.95 -178.52 
1494 -185.87 -181.46 -178.52 
1495 -184.72 -181.36 -178.52 
1496 -185.96 -182.07 -178.52 
1497 -187.13 -182.50 -178.52 
1498 -186.09 -182.98 -178.52 
1499 -186.62 -182.91 -178.52 
1500 -186.77 -182.89 -178.52 
1501 -185.31 -184.56 -178.52 
1502 -184.82 -184.82 -178.52 
1503 -186.08 -184.41 -178.52 
1504 -185.47 -186.05 -178.52 
1505 -186.87 -184.23 -178.52 
1506 -184.48 -186.71 -178.52 
1507 -181.50 -184.82 -178.52 
1508 -183.85 -186.60 -178.52 
1509 -184.54 -185.61 -178.52 
1510 -185.80 -185.83 -178.52 
1511 -182.83 -185.93 -178.52 
1512 -187.59 -184.27 -178.52 
1513 -185.90 -184.28 -178.52 
1514 -184.33 -184.61 -178.52 
1515 -181.28 -186.12 -178.52 
1516 -185.46 -185.54 -178.52 
1517 -183.66 -185.32 -178.52 
1518 -183.71 -185.40 -178.52 
1519 -183.36 -184.28 -178.52 
1520 -188.36 -182.95 -178.52 
1521 -187.81 -185.84 -178.52 
1522 -188.99 -185.79 -178.52 
1523 -185.58 -186.90 -178.52 
1524 -183.17 -187.30 -178.52 
1525 -185.44 -185.82 -178.52 
1526 -187.36 -185.48 -178.52 
1527 -186.31 -184.00 -178.52 
1528 -186.52 -187.23 -178.52 
1529 -183.13 -185.52 -178.52 
1530 -186.89 -185.57 -178.52 
1531 -185.27 -184.43 -178.52 
1532 -185.87 -185.67 -178.52 
1533 -187.95 -185.51 -178.52 
1534 -188.10 -186.94 -178.52 
1535 -187.98 -185.36 -178.52 
1536 -188.28 -184.63 -178.52 
1537 -188.59 -185.38 -178.52 
1538 -184.46 -186.94 -178.52 
1539 -183.02 -187.02 -178.52 
1540 -185.71 -184.30 -178.52 
1541 -185.37 -185.74 -178.52 
1542 -189.01 -186.52 -178.52 
1543 -189.80 -184.91 -178.52 
1544 -188.37 -184.92 -178.52 
1545 -183.43 -186.56 -178.52 
1546 -181.76 -185.07 -178.52 
1547 -185.63 -183.61 -178.52 
1548 -185.20 -184.74 -178.52 
1549 -184.25 -182.85 -178.52 
1550 -183.42 -182.63 -178.52 
1551 -185.57 -182.80 -178.52 
1552 -186.86 -182.77 -178.52 
1553 -181.22 -183.19 -178.52 
1554 -189.73 -182.99 -178.52 
1555 -184.06 -182.96 -178.52 
1556 -185.55 -183.61 -178.52 
1557 -188.22 -183.72 -178.52 
1558 -184.19 -184.90 -178.52 
1559 -184.91 -183.39 -178.52 
1560 -184.71 -184.92 -178.52 
1561 -182.67 -183.57 -178.52 
1562 -188.23 -185.02 -178.52 
1563 -185.19 -183.65 -178.52 
1564 -188.42 -183.81 -178.52 
1565 -187.74 -185.45 -178.52 
1566 -185.63 -186.98 -178.52 
1567 -187.65 -188.69 -178.52 
1568 -183.59 -186.87 -178.52 
1569 -186.80 -188.24 -178.52 
1570 -185.34 -185.26 -178.52 
1571 -187.75 -186.94 -178.52 
1572 -187.57 -186.43 -178.52 
1573 -185.90 -188.08 -178.52 
1574 -182.91 -186.63 -178.52 
1575 -186.50 -183.63 -178.52 
1576 -182.43 -184.80 -178.52 
1577 -186.40 -184.80 -178.52 
1578 -186.28 -184.73 -178.52 
1579 -184.72 -184.68 -178.52 
1580 -188.80 -187.27 -178.52 
1581 -185.46 -187.34 -178.52 
1582 -183.88 -187.27 -178.52 
1583 -187.15 -187.27 -178.52 
1584 -186.67 -187.83 -178.52 
1585 -185.55 -186.40 -178.52 
1586 -185.82 -187.78 -178.52 
1587 -186.81 -187.66 -178.52 
1588 -185.28 -187.56 -178.52 
1589 -187.81 -186.15 -178.52 
1590 -185.63 -186.20 -178.52 
1591 -185.01 -187.34 -178.52 
1592 -183.72 -185.53 -178.52 
1593 -187.99 -185.86 -178.52 
1594 -185.74 -186.08 -178.52 
1595 -184.85 -187.39 -178.52 
1596 -182.26 -186.16 -178.52 
1597 -184.44 -187.61 -178.52 
1598 -186.32 -187.75 -178.52 
1599 -186.18 -187.87 -178.52 
1600 -187.93 -187.57 -178.52 
1601 -184.16 -184.92 -178.52 
1602 -183.21 -184.95 -178.52 
1603 -186.79 -186.13 -178.52 
1604 -183.93 -183.37 -178.52 
1605 -185.56 -184.78 -178.52 
1606 -185.70 -186.16 -178.52 
1607 -187.76 -184.86 -178.52 
1608 -184.93 -186.37 -178.52 
1609 -188.33 -186.19 -178.52 
1610 -184.23 -186.19 -178.52 
1611 -183.47 -186.41 -178.52 
1612 -182.29 -185.83 -178.52 
1613 -184.23 -185.91 -178.52 
1614 -187.65 -184.72 -178.52 
1615 -185.78 -186.24 -178.52 
1616 -185.70 -184.77 -178.52 
1617 -189.59 -189.14 -178.52 
1618 -185.43 -187.19 -178.52 
1619 -183.88 -187.23 -178.52 
1620 -182.89 -186.81 -178.52 
1621 -186.59 -186.92 -178.52 
1622 -185.71 -186.91 -178.52 
1623 -186.02 -186.73 -178.52 
1624 -185.73 -186.63 -178.52 
1625 -182.89 -186.48 -178.52 
1626 -184.77 -186.78 -178.52 
1627 -187.63 -186.84 -178.52 
1628 -183.58 -186.52 -178.52 
1629 -183.59 -186.35 -178.52 
1630 -185.99 -186.33 -178.52 
1631 -185.69 -186.55 -178.52 
1632 -186.29 -186.72 -178.52 
1633 -184.46 -185.15 -178.52 
1634 -185.14 -186.55 -178.52 
1635 -183.27 -188.08 -178.52 
1636 -183.23 -184.99 -178.52 
1637 -183.12 -185.38 -178.52 
1638 -189.79 -186.68 -178.52 
1639 -185.72 -185.30 -178.52 
1640 -185.70 -185.40 -178.52 
1641 -187.35 -185.50 -178.52 
1642 -184.00 -185.64 -178.52 
1643 -182.79 -186.86 -178.52 
1644 -185.00 -187.03 -178.52 
1645 -182.37 -185.44 -178.52 
1646 -180.31 -186.40 -178.52 
1647 -183.82 -186.22 -178.52 
1648 -184.44 -186.37 -178.52 
1649 -180.59 -186.36 -178.52 
1650 -185.54 -186.29 -178.52 
1651 -182.06 -186.10 -178.52 
1652 -184.71 -186.11 -178.52 
1653 -185.69 -184.79 -178.52 
1654 -188.26 -186.35 -178.52 
1655 -185.76 -186.52 -178.52 
1656 -188.01 -185.17 -178.52 
1657 -186.41 -184.94 -178.52 
1658 -184.71 -186.03 -178.52 
1659 -187.26 -186.08 -178.52 
1660 -184.81 -184.69 -178.52 
1661 -184.96 -184.58 -178.52 
1662 -185.00 -185.93 -178.52 
1663 -187.56 -184.59 -178.52 
1664 -186.69 -183.30 -178.52 
1665 -189.69 -183.65 -178.52 
1666 -186.55 -186.73 -178.52 
1667 -183.40 -183.88 -178.52 
1668 -183.98 -182.46 -178.52 
1669 -184.78 -183.03 -178.52 
1670 -186.25 -182.64 -178.52 
1671 -187.04 -184.36 -178.52 
1672 -180.96 -182.90 -178.52 
1673 -186.01 -184.46 -178.52 
1674 -186.93 -182.87 -178.52 
1675 -182.93 -182.78 -178.52 
1676 -182.78 -183.04 -178.52 
1677 -183.10 -183.18 -178.52 
1678 -182.73 -184.76 -178.52 
1679 -186.36 -183.26 -178.52 
1680 -185.61 -184.39 -178.52 
1681 -187.05 -184.26 -178.52 
1682 -184.92 -183.96 -178.52 
1683 -185.32 -183.89 -178.52 
1684 -182.57 -183.98 -178.52 
1685 -185.15 -183.96 -178.52 
1686 -185.60 -184.03 -178.52 
1687 -186.97 -182.88 -178.52 
1688 -186.74 -182.90 -178.52 
1689 -183.38 -183.05 -178.52 
1690 -182.26 -183.26 -178.52 
1691 -185.07 -183.24 -178.52 
1692 -185.44 -183.24 -178.52 
1693 -187.58 -183.20 -178.52 
1694 -182.46 -182.97 -178.52 
1695 -186.73 -183.17 -178.52 
1696 -184.72 -183.01 -178.52 
1697 -182.75 -183.09 -178.52 
1698 -183.82 -182.76 -178.52 
1699 -186.67 -183.07 -178.52 
1700 -185.72 -181.75 -178.52 
1701 -186.46 -183.37 -178.52 
1702 -183.58 -183.52 -178.52 
1703 -183.00 -183.28 -178.52 
1704 -185.08 -183.51 -178.52 
1705 -183.82 -183.64 -178.52 
1706 -186.34 -183.59 -178.52 
1707 -187.24 -185.15 -178.52 
1708 -184.93 -183.75 -178.52 
1709 -187.97 -182.30 -178.52 
1710 -185.64 -183.66 -178.52 
1711 -181.99 -184.10 -178.52 
1712 -184.85 -184.08 -178.52 
1713 -187.37 -184.00 -178.52 
1714 -181.38 -182.78 -178.52 
1715 -186.94 -181.74 -178.52 
1716 -182.93 -181.81 -178.52 
1717 -185.15 -181.73 -178.52 
1718 -183.49 -182.73 -178.52 
1719 -183.76 -182.83 -178.52 
1720 -184.52 -182.73 -178.52 
1721 -185.17 -181.41 -178.52 
1722 -185.48 -182.87 -178.52 
1723 -185.31 -182.54 -178.52 
1724 -185.75 -182.89 -178.52 
1725 -185.44 -182.85 -178.52 
1726 -187.61 -182.90 -178.52 
1727 -183.28 -181.54 -178.52 
1728 -186.62 -181.61 -178.52 
1729 -185.68 -181.68 -178.52 
1730 -181.26 -181.71 -178.52 
1731 -184.14 -181.75 -178.52 
1732 -181.41 -181.88 -178.52 
1733 -181.87 -180.10 -178.52 
1734 -184.23 -181.44 -178.52 
1735 -185.39 -183.23 -178.52 
1736 -181.61 -181.22 -178.52 
1737 -185.73 -181.42 -178.52 
1738 -183.08 -182.73 -178.52 
1739 -184.08 -182.82 -178.52 
1740 -182.72 -179.78 -178.52 
1741 -185.97 -181.50 -178.52 
1742 -181.60 -182.78 -178.52 
1743 -185.23 -182.64 -178.52 
1744 -182.25 -181.15 -178.52 
1745 -185.76 -182.71 -178.52 
1746 -188.20 -182.55 -178.52 
1747 -188.14 -182.51 -178.52 
1748 -184.91 -182.19 -178.52 
1749 -183.38 -183.49 -178.52 
1750 -185.90 -184.70 -178.52 
1751 -185.39 -184.57 -178.52 
1752 -186.86 -183.29 -178.52 
1753 -185.15 -181.79 -178.52 
1754 -185.59 -183.87 -178.52 
1755 -184.64 -183.77 -178.52 
1756 -188.57 -184.98 -178.52 
1757 -185.03 -184.69 -178.52 
1758 -184.95 -183.18 -178.52 
1759 -185.81 -182.87 -178.52 
1760 -183.43 -182.89 -178.52 
1761 -184.42 -182.85 -178.52 
1762 -186.88 -181.28 -178.52 
1763 -187.25 -182.72 -178.52 
1764 -187.35 -182.93 -178.52 
1765 -185.97 -182.96 -178.52 
1766 -185.13 -183.14 -178.52 
1767 -186.98 -183.26 -178.52 
1768 -184.72 -183.07 -178.52 
1769 -183.87 -183.13 -178.52 
1770 -183.60 -183.18 -178.52 
1771 -184.90 -183.23 -178.52 
1772 -184.85 -183.32 -178.52 
1773 -183.85 -181.86 -178.52 
1774 -182.76 -181.95 -178.52 
1775 -189.31 -182.16 -178.52 
1776 -179.78 -182.32 -178.52 
1777 -185.16 -182.49 -178.52 
1778 -181.31 -182.45 -178.52 
1779 -184.26 -182.56 -178.52 
1780 -183.78 -181.16 -178.52 
1781 -188.25 -182.57 -178.52 
1782 -182.18 -182.76 -178.52 
1783 -184.89 -182.69 -178.52 
1784 -183.49 -183.74 -178.52 
1785 -187.22 -184.11 -178.52 
1786 -185.67 -183.91 -178.52 
1787 -186.94 -184.13 -178.52 
1788 -185.00 -180.97 -178.52 
1789 -183.96 -183.62 -178.52 
1790 -183.97 -183.31 -178.52 
1791 -184.09 -183.32 -178.52 
1792 -186.90 -183.43 -178.52 
1793 -180.02 -183.62 -178.52 
1794 -182.85 -183.28 -178.52 
1795 -185.14 -183.51 -178.52 
1796 -185.14 -181.75 -178.52 
1797 -184.14 -183.01 -178.52 
1798 -182.20 -182.81 -178.52 
1799 -185.20 -182.91 -178.52 
1800 -183.05 -184.24 -178.52 
1801 -185.82 -184.16 -178.52 
1802 -181.29 -182.58 -178.52 
1803 -186.10 -184.31 -178.52 
1804 -180.77 -184.57 -178.52 
1805 -186.06 -182.87 -178.52 
1806 -187.23 -183.31 -178.52 
1807 -184.44 -184.82 -178.52 
1808 -183.57 -183.49 -178.52 
1809 -186.84 -183.20 -178.52 
1810 -184.73 -184.62 -178.52 
1811 -184.75 -183.13 -178.52 
1812 -183.97 -184.90 -178.52 
1813 -183.18 -182.98 -178.52 
1814 -182.70 -182.94 -178.52 
1815 -183.38 -184.04 -178.52 
1816 -182.90 -182.47 -178.52 
1817 -184.17 -182.30 -178.52 
1818 -181.65 -182.70 -178.52 
1819 -184.09 -182.67 -178.52 
1820 -182.96 -182.78 -178.52 
1821 -187.93 -181.17 -178.52 
1822 -185.42 -182.82 -178.52 
1823 -186.99 -181.54 -178.52 
1824 -182.93 -181.27 -178.52 
1825 -183.70 -179.74 -178.52 
1826 -183.92 -179.49 -178.52 
1827 -187.81 -179.38 -178.52 
1828 -187.32 -181.10 -178.52 
1829 -189.48 -179.48 -178.52 
1830 -184.83 -179.41 -178.52 
1831 -184.07 -182.33 -178.52 
1832 -182.85 -182.31 -178.52 
1833 -186.95 -182.42 -178.52 
1834 -183.11 -182.40 -178.52 
1835 -183.96 -182.11 -178.52 
1836 -184.89 -184.97 -178.52 
1837 -185.22 -183.25 -178.52 
1838 -185.64 -183.51 -178.52 
1839 -185.25 -183.20 -178.52 
1840 -187.64 -183.17 -178.52 
1841 -184.92 -181.92 -178.52 
1842 -187.86 -183.32 -178.52 
1843 -185.21 -183.13 -178.52 
1844 -184.29 -184.31 -178.52 
1845 -186.73 -184.38 -178.52 
1846 -184.54 -183.28 -178.52 
1847 -183.51 -182.99 -178.52 
1848 -186.55 -182.84 -178.52 
1849 -182.38 -182.94 -178.52 
1850 -184.57 -183.48 -178.52 
1851 -185.55 -180.58 -178.52 
1852 -184.02 -184.98 -178.52 
1853 -185.23 -181.79 -178.52 
1854 -186.02 -181.38 -178.52 
1855 -182.11 -181.20 -178.52 
1856 -191.05 -184.27 -178.52 
1857 -183.44 -184.08 -178.52 
1858 -185.57 -184.45 -178.52 
1859 -186.42 -184.60 -178.52 
1860 -184.21 -182.90 -178.52 
1861 -188.36 -183.23 -178.52 
1862 -187.18 -184.94 -178.52 
1863 -183.95 -184.96 -178.52 
1864 -186.93 -183.07 -178.52 
1865 -191.45 -184.57 -178.52 
1866 -187.29 -184.38 -178.52 
1867 -188.52 -184.60 -178.52 
1868 -186.90 -186.26 -178.52 
1869 -183.64 -186.34 -178.52 
1870 -182.85 -185.88 -178.52 
1871 -186.28 -184.69 -178.52 
1872 -182.89 -184.74 -178.52 
1873 -188.11 -184.84 -178.52 
1874 -187.93 -183.51 -178.52 
1875 -186.95 -186.34 -178.52 
1876 -183.22 -186.22 -178.52 
1877 -186.50 -186.64 -178.52 
1878 -187.42 -186.56 -178.52 
1879 -183.38 -186.77 -178.52 
1880 -189.24 -185.05 -178.52 
1881 -187.55 -183.75 -178.52 
1882 -190.15 -183.77 -178.52 
1883 -182.34 -186.79 -178.52 
1884 -182.50 -186.46 -178.52 
1885 -185.37 -187.72 -178.52 
1886 -186.74 -186.36 -178.52 
1887 -186.67 -185.05 -178.52 
1888 -183.68 -186.58 -178.52 
1889 -185.22 -187.61 -178.52 
1890 -184.33 -187.44 -178.52 
1891 -186.82 -186.47 -178.52 
1892 -186.28 -186.41 -178.52 
1893 -181.76 -187.05 -178.52 
1894 -182.64 -187.11 -178.52 
1895 -192.23 -185.60 -178.52 
1896 -185.56 -187.21 -178.52 
1897 -185.70 -187.40 -178.52 
1898 -185.00 -185.67 -178.52 
1899 -185.60 -185.93 -178.52 
1900 -187.72 -185.77 -178.52 
1901 -185.91 -184.38 -178.52 
1902 -186.24 -185.59 -178.52 
1903 -184.62 -183.89 -178.52 
1904 -182.98 -184.16 -178.52 
1905 -183.23 -185.54 -178.52 
1906 -188.23 -185.54 -178.52 
1907 -183.85 -184.01 -178.52 
1908 -181.43 -185.08 -178.52 
1909 -185.27 -185.31 -178.52 
1910 -185.42 -183.85 -178.52 
1911 -184.18 -184.01 -178.52 
1912 -182.65 -183.69 -178.52 
1913 -183.16 -182.61 -178.52 
1914 -183.79 -183.81 -178.52 
1915 -183.22 -183.99 -178.52 
1916 -185.14 -182.61 -178.52 
1917 -185.54 -182.69 -178.52 
1918 -187.04 -183.07 -178.52 
1919 -185.90 -182.99 -178.52 
1920 -184.24 -182.90 -178.52 
1921 -185.95 -182.79 -178.52 
1922 -184.35 -184.20 -178.52 
1923 -184.88 -182.68 -178.52 
1924 -186.07 -182.45 -178.52 
1925 -184.61 -184.11 -178.52 
1926 -182.19 -185.57 -178.52 
1927 -180.79 -183.77 -178.52 
1928 -180.91 -183.81 -178.52 
1929 -185.78 -183.63 -178.52 
1930 -183.82 -185.06 -178.52 
1931 -181.01 -183.85 -178.52 
1932 -186.04 -180.84 -178.52 
1933 -183.26 -182.49 -178.52 
1934 -186.01 -184.04 -178.52 
1935 -184.96 -183.84 -178.52 
1936 -186.46 -182.81 -178.52 
1937 -185.44 -185.60 -178.52 
1938 -183.01 -184.51 -178.52 
1939 -180.85 -183.09 -178.52 
1940 -181.84 -184.63 -178.52 
1941 -182.93 -184.43 -178.52 
1942 -186.00 -184.14 -178.52 
1943 -184.47 -182.64 -178.52 
1944 -179.93 -184.66 -178.52 
1945 -184.18 -184.07 -178.52 
1946 -182.08 -185.52 -178.52 
1947 -185.38 -185.34 -178.52 
1948 -186.25 -185.14 -178.52 
1949 -183.97 -185.55 -178.52 
1950 -185.31 -185.58 -178.52 
1951 -183.87 -185.39 -178.52 
1952 -182.25 -185.04 -178.52 
1953 -180.93 -184.06 -178.52 
1954 -186.15 -184.04 -178.52 
1955 -181.83 -184.23 -178.52 
1956 -183.73 -184.56 -178.52 
1957 -184.71 -184.71 -178.52 
1958 -184.27 -184.63 -178.52 
1959 -182.76 -184.80 -178.52 
1960 -184.69 -185.04 -178.52 
1961 -186.03 -185.43 -178.52 
1962 -182.01 -185.30 -178.52 
1963 -181.92 -185.35 -178.52 
1964 -183.61 -186.46 -178.52 
1965 -184.33 -185.22 -178.52 
1966 -181.04 -183.60 -178.52 
1967 -180.66 -183.63 -178.52 
1968 -181.49 -185.11 -178.52 
1969 -182.90 -185.04 -178.52 
1970 -188.06 -183.82 -178.52 
1971 -180.87 -185.24 -178.52 
1972 -183.44 -185.41 -178.52 
1973 -183.21 -185.49 -178.52 
1974 -183.37 -185.35 -178.52 
1975 -187.48 -185.67 -178.52 
1976 -185.41 -185.66 -178.52 
1977 -183.62 -185.48 -178.52 
1978 -184.84 -185.44 -178.52 
1979 -181.62 -185.56 -178.52 
1980 -186.67 -184.11 -178.52 
1981 -184.28 -185.41 -178.52 
1982 -179.75 -185.35 -178.52 
1983 -180.66 -184.08 -178.52 
1984 -184.45 -185.37 -178.52 
1985 -183.32 -185.69 -178.52 
1986 -183.87 -183.85 -178.52 
1987 -187.82 -183.98 -178.52 
1988 -183.89 -185.70 -178.52 
1989 -183.64 -184.04 -178.52 
1990 -183.34 -180.85 -178.52 
1991 -182.86 -183.85 -178.52 
1992 -183.08 -182.53 -178.52 
1993 -181.80 -184.07 -178.52 
1994 -184.74 -184.37 -178.52 
1995 -183.25 -185.99 -178.52 
1996 -180.95 -185.87 -178.52 
1997 -183.36 -185.89 -178.52 
1998 -184.51 -185.58 -178.52 
1999 -185.79 -185.97 -178.52 
2000 -184.74 -185.83 -178.52 
2001 -182.13 -185.88 -178.52 
2002 -184.43 -185.86 -178.52 
2003 -183.88 -185.43 -178.52 
2004 -182.10 -185.41 -178.52 
2005 -184.29 -185.74 -178.52 
2006 -180.85 -184.12 -178.52 
2007 -182.16 -185.50 -178.52 
2008 -187.05 -185.93 -178.52 
2009 -186.72 -184.43 -178.52 
2010 -186.31 -186.38 -178.52 
2011 -186.04 -186.22 -178.52 
2012 -183.41 -186.58 -178.52 
2013 -184.03 -186.65 -178.52 
2014 -179.91 -185.36 -178.52 
2015 -183.96 -183.86 -178.52 
2016 -183.18 -183.92 -178.52 
2017 -186.20 -183.95 -178.52 
2018 -182.80 -184.21 -178.52 
2019 -182.18 -184.38 -178.52 
2020 -184.96 -184.43 -178.52 
2021 -183.93 -184.66 -178.52 
2022 -185.43 -186.36 -178.52 
2023 -189.72 -186.16 -178.52 
2024 -185.85 -186.06 -178.52 
2025 -182.13 -184.75 -178.52 
2026 -183.72 -184.76 -178.52 
2027 -184.22 -184.40 -178.52 
2028 -185.74 -183.00 -178.52 
2029 -184.60 -182.66 -178.52 
2030 -186.06 -182.58 -178.52 
2031 -182.44 -182.40 -178.52 
2032 -187.48 -184.15 -178.52 
2033 -184.55 -184.07 -178.52 
2034 -183.69 -184.09 -178.52 
2035 -186.33 -184.35 -178.52 
2036 -186.11 -184.15 -178.52 
2037 -187.34 -184.30 -178.52 
2038 -183.88 -184.21 -178.52 
2039 -183.06 -186.00 -178.52 
2040 -186.83 -184.61 -178.52 
2041 -187.01 -186.03 -178.52 
2042 -184.27 -186.05 -178.52 
2043 -184.85 -185.84 -178.52 
2044 -183.40 -186.05 -178.52 
2045 -183.32 -186.27 -178.52 
2046 -186.90 -186.48 -178.52 
2047 -184.55 -186.37 -178.52 
2048 -185.47 -186.26 -178.52 
2049 -190.61 -186.09 -178.52 
2050 -182.29 -186.26 -178.52 
2051 -183.44 -186.29 -178.52 
2052 -185.36 -186.43 -178.52 
2053 -185.61 -186.61 -178.52 
2054 -183.53 -185.02 -178.52 
2055 -181.94 -185.16 -178.52 
2056 -184.07 -186.71 -178.52 
2057 -186.29 -185.16 -178.52 
2058 -184.77 -187.02 -178.52 
2059 -182.02 -185.49 -178.52 
2060 -184.92 -185.88 -178.52 
2061 -182.25 -187.15 -178.52 
2062 -181.12 -187.01 -178.52 
2063 -182.95 -186.60 -178.52 
2064 -183.02 -186.76 -178.52 
2065 -185.12 -187.16 -178.52 
2066 -183.42 -187.19 -178.52 
2067 -188.96 -187.22 -178.52 
2068 -182.22 -184.19 -178.52 
2069 -183.53 -183.99 -178.52 
2070 -185.32 -188.23 -178.52 
2071 -187.67 -185.67 -178.52 
2072 -181.57 -187.49 -178.52 
2073 -185.80 -187.53 -178.52 
2074 -183.65 -187.55 -178.52 
2075 -183.96 -187.38 -178.52 
2076 -188.49 -186.74 -178.52 
2077 -187.13 -186.80 -178.52 
2078 -183.31 -186.94 -178.52 
2079 -181.68 -186.98 -178.52 
2080 -179.43 -186.89 -178.52 
2081 -188.00 -187.03 -178.52 
2082 -186.84 -185.70 -178.52 
2083 -180.72 -185.52 -178.52 
2084 -190.81 -185.51 -178.52 
2085 -185.12 -185.21 -178.52 
2086 -183.89 -185.27 -178.52 
2087 -182.26 -185.34 -178.52 
2088 -183.42 -185.03 -178.52 
2089 -182.04 -184.87 -178.52 
2090 -181.81 -186.34 -178.52 
2091 -181.94 -186.12 -178.52 
2092 -184.29 -185.93 -178.52 
2093 -182.32 -185.97 -178.52 
2094 -181.50 -185.90 -178.52 
2095 -185.93 -185.93 -178.52 
2096 -183.81 -186.16 -178.52 
2097 -182.83 -185.96 -178.52 
2098 -185.48 -187.42 -178.52 
2099 -186.04 -186.13 -178.52 
2100 -182.07 -186.47 -178.52 
2101 -188.25 -185.98 -178.52 
2102 -184.89 -186.21 -178.52 
2103 -183.46 -186.07 -178.52 
2104 -185.78 -186.17 -178.52 
2105 -186.67 -186.47 -178.52 
2106 -184.07 -185.24 -178.52 
2107 -184.33 -186.71 -178.52 
2108 -182.94 -185.32 -178.52 
2109 -185.34 -185.44 -178.52 
2110 -184.08 -186.42 -178.52 
2111 -185.27 -186.70 -178.52 
2112 -187.77 -186.84 -178.52 
2113 -187.00 -186.64 -178.52 
2114 -181.52 -187.74 -178.52 
2115 -184.06 -186.37 -178.52 
2116 -187.90 -186.87 -178.52 
2117 -185.62 -186.11 -178.52 
2118 -184.48 -186.38 -178.52 
2119 -187.91 -186.72 -178.52 
2120 -187.97 -187.12 -178.52 
2121 -182.23 -186.83 -178.52 
2122 -181.02 -186.77 -178.52 
2123 -186.00 -186.31 -178.52 
2124 -183.00 -186.36 -178.52 
2125 -183.08 -186.39 -178.52 
2126 -183.90 -186.36 -178.52 
2127 -186.54 -186.34 -178.52 
2128 -183.88 -186.30 -178.52 
2129 -186.11 -184.84 -178.52 
2130 -183.34 -185.21 -178.52 
2131 -181.12 -185.13 -178.52 
2132 -186.38 -184.77 -178.52 
2133 -183.24 -184.33 -178.52 
2134 -182.44 -184.37 -178.52 
2135 -184.30 -184.22 -178.52 
2136 -183.10 -184.71 -178.52 
2137 -184.97 -186.08 -178.52 
2138 -186.13 -183.41 -178.52 
2139 -184.13 -184.49 -178.52 
2140 -185.79 -184.59 -178.52 
2141 -187.57 -184.65 -178.52 
2142 -184.66 -185.62 -178.52 
2143 -184.84 -185.42 -178.52 
2144 -188.26 -186.01 -178.52 
2145 -182.01 -183.39 -178.52 
2146 -185.92 -184.86 -178.52 
2147 -185.23 -183.29 -178.52 
2148 -184.39 -184.89 -178.52 
2149 -185.18 -183.71 -178.52 
2150 -189.09 -186.24 -178.52 
2151 -181.92 -186.20 -178.52 
2152 -184.71 -186.06 -178.52 
2153 -183.44 -185.70 -178.52 
2154 -183.84 -185.63 -178.52 
2155 -187.60 -185.32 -178.52 
2156 -183.16 -185.43 -178.52 
2157 -185.19 -185.11 -178.52 
2158 -186.54 -185.07 -178.52 
2159 -184.47 -185.39 -178.52 
2160 -184.75 -185.26 -178.52 
2161 -185.39 -185.30 -178.52 
2162 -184.06 -185.05 -178.52 
2163 -184.12 -184.74 -178.52 
2164 -184.38 -185.09 -178.52 
2165 -185.70 -185.31 -178.52 
2166 -184.95 -183.69 -178.52 
2167 -186.46 -184.86 -178.52 
2168 -184.82 -184.61 -178.52 
2169 -183.17 -184.60 -178.52 
2170 -182.99 -184.92 -178.52 
2171 -186.55 -185.10 -178.52 
2172 -186.22 -183.76 -178.52 
2173 -180.66 -185.30 -178.52 
2174 -188.02 -185.46 -178.52 
2175 -186.50 -185.50 -178.52 
2176 -184.80 -183.76 -178.52 
2177 -182.63 -185.22 -178.52 
2178 -186.03 -185.22 -178.52 
2179 -185.41 -185.17 -178.52 
2180 -182.21 -185.25 -178.52 
2181 -183.77 -185.52 -178.52 
2182 -186.36 -185.67 -178.52 
2183 -182.19 -185.70 -178.52 
2184 -188.82 -184.06 -178.52 
2185 -184.66 -184.17 -178.52 
2186 -184.67 -183.95 -178.52 
2187 -187.56 -185.39 -178.52 
2188 -184.18 -184.05 -178.52 
2189 -183.27 -184.49 -178.52 
2190 -186.56 -184.41 -178.52 
2191 -183.99 -184.65 -178.52 
2192 -182.26 -184.63 -178.52 
2193 -184.03 -184.62 -178.52 
2194 -186.15 -184.50 -178.52 
2195 -183.91 -184.06 -178.52 
2196 -185.42 -184.05 -178.52 
2197 -183.87 -183.75 -178.52 
2198 -186.40 -183.85 -178.52 
2199 -183.52 -183.78 -178.52 
2200 -186.12 -183.47 -178.52 
2201 -184.83 -184.88 -178.52 
2202 -189.49 -183.69 -178.52 
2203 -184.15 -184.92 -178.52 
2204 -187.94 -184.73 -178.52 
2205 -184.63 -185.09 -178.52 
2206 -183.61 -185.02 -178.52 
2207 -185.75 -185.13 -178.52 
2208 -183.80 -183.71 -178.52 
2209 -186.40 -185.02 -178.52 
2210 -181.24 -185.37 -178.52 
2211 -186.22 -185.31 -178.52 
2212 -186.31 -185.61 -178.52 
2213 -183.36 -185.37 -178.52 
2214 -185.87 -185.20 -178.52 
2215 -183.63 -185.02 -178.52 
2216 -185.81 -184.90 -178.52 
2217 -180.41 -183.96 -178.52 
2218 -188.54 -185.37 -178.52 
2219 -189.97 -185.54 -178.52 
2220 -187.15 -183.70 -178.52 
2221 -187.02 -182.44 -178.52 
2222 -183.55 -182.47 -178.52 
2223 -186.02 -182.65 -178.52 
2224 -185.90 -185.50 -178.52 
2225 -181.20 -183.68 -178.52 
2226 -183.71 -185.32 -178.52 
2227 -183.09 -184.25 -178.52 
2228 -182.45 -184.13 -178.52 
2229 -185.47 -182.59 -178.52 
2230 -184.13 -184.31 -178.52 
2231 -183.72 -182.95 -178.52 
2232 -184.60 -182.09 -178.52 
2233 -187.74 -182.46 -178.52 
2234 -187.89 -183.61 -178.52 
2235 -186.53 -183.68 -178.52 
2236 -183.68 -182.03 -178.52 
2237 -185.52 -183.87 -178.52 
2238 -182.58 -183.47 -178.52 
2239 -187.04 -183.44 -178.52 
2240 -183.08 -183.37 -178.52 
2241 -184.55 -183.48 -178.52 
2242 -185.04 -184.79 -178.52 
2243 -186.63 -182.23 -178.52 
2244 -188.33 -185.00 -178.52 
2245 -185.14 -184.95 -178.52 
2246 -183.96 -183.14 -178.52 
2247 -186.82 -181.46 -178.52 
2248 -183.35 -184.61 -178.52 
2249 -188.63 -182.75 -178.52 
2250 -180.41 -183.06 -178.52 
2251 -187.02 -181.47 -178.52 
2252 -184.92 -181.87 -178.52 
2253 -182.92 -183.21 -178.52 
2254 -184.45 -184.54 -178.52 
2255 -183.68 -184.05 -178.52 
2256 -187.16 -183.99 -178.52 
2257 -187.23 -185.61 -178.52 
2258 -184.62 -185.49 -178.52 
2259 -184.48 -184.46 -178.52 
2260 -185.68 -186.07 -178.52 
2261 -184.43 -185.91 -178.52 
2262 -185.71 -185.82 -178.52 
2263 -184.71 -185.77 -178.52 
2264 -182.84 -185.22 -178.52 
2265 -184.00 -185.35 -178.52 
2266 -188.30 -183.99 -178.52 
2267 -187.65 -186.35 -178.52 
2268 -182.92 -186.52 -178.52 
2269 -187.19 -186.36 -178.52 
2270 -186.80 -186.55 -178.52 
2271 -184.39 -186.42 -178.52 
2272 -185.43 -186.46 -178.52 
2273 -185.71 -186.38 -178.52 
2274 -184.01 -185.73 -178.52 
2275 -187.92 -186.06 -178.52 
2276 -185.95 -186.02 -178.52 
2277 -190.28 -185.91 -178.52 
2278 -186.90 -185.75 -178.52 
2279 -186.18 -185.47 -178.52 
2280 -183.63 -185.71 -178.52 
2281 -184.78 -185.74 -178.52 
2282 -182.30 -185.45 -178.52 
2283 -187.63 -185.43 -178.52 
2284 -185.77 -185.43 -178.52 
2285 -186.57 -185.03 -178.52 
2286 -181.76 -185.32 -178.52 
2287 -182.54 -185.17 -178.52 
2288 -187.74 -184.92 -178.52 
2289 -184.60 -184.84 -178.52 
2290 -188.16 -184.73 -178.52 
2291 -186.41 -184.93 -178.52 
2292 -182.95 -184.78 -178.52 
2293 -185.42 -183.42 -178.52 
2294 -186.42 -183.92 -178.52 
2295 -183.76 -185.65 -178.52 
2296 -185.18 -182.71 -178.52 
2297 -183.31 -184.25 -178.52 
2298 -182.09 -185.82 -178.52 
2299 -184.09 -185.98 -178.52 
2300 -186.12 -186.19 -178.52 
2301 -185.72 -183.10 -178.52 
2302 -192.71 -183.12 -178.52 
2303 -186.44 -184.48 -178.52 
2304 -180.81 -184.81 -178.52 
2305 -187.17 -184.49 -178.52 
2306 -184.93 -185.97 -178.52 
2307 -185.71 -185.43 -178.52 
2308 -183.44 -185.57 -178.52 
2309 -183.97 -185.68 -178.52 
2310 -183.12 -185.91 -178.52 
2311 -183.98 -185.49 -178.52 
2312 -186.07 -185.90 -178.52 
2313 -186.58 -185.90 -178.52 
2314 -186.17 -186.03 -178.52 
2315 -187.20 -185.59 -178.52 
2316 -184.52 -185.18 -178.52 
2317 -186.58 -185.15 -178.52 
2318 -186.15 -185.64 -178.52 
2319 -185.93 -185.76 -178.52 
2320 -185.61 -185.71 -178.52 
2321 -184.49 -185.61 -178.52 
2322 -183.38 -185.88 -178.52 
2323 -185.62 -183.63 -178.52 
2324 -183.36 -185.25 -178.52 
2325 -185.56 -185.49 -178.52 
2326 -184.27 -184.99 -178.52 
2327 -186.69 -185.22 -178.52 
2328 -182.51 -184.45 -178.52 
2329 -183.33 -183.85 -178.52 
2330 -184.65 -183.58 -178.52 
2331 -182.26 -183.46 -178.52 
2332 -186.24 -183.43 -178.52 
2333 -183.67 -183.78 -178.52 
2334 -186.03 -183.43 -178.52 
2335 -183.15 -181.66 -178.52 
2336 -184.54 -184.88 -178.52 
2337 -186.08 -183.16 -178.52 
2338 -187.46 -186.44 -178.52 
2339 -182.92 -183.44 -178.52 
2340 -183.94 -185.00 -178.52 
2341 -184.90 -183.50 -178.52 
2342 -185.63 -186.42 -178.52 
2343 -187.11 -183.30 -178.52 
2344 -183.13 -183.39 -178.52 
2345 -182.96 -181.96 -178.52 
2346 -182.57 -183.61 -178.52 
2347 -180.98 -182.36 -178.52 
2348 -185.70 -181.94 -178.52 
2349 -184.46 -182.25 -178.52 
2350 -184.77 -182.80 -178.52 
2351 -181.51 -184.21 -178.52 
2352 -184.04 -185.63 -178.52 
2353 -182.33 -185.83 -178.52 
2354 -183.13 -185.53 -178.52 
2355 -184.29 -185.51 -178.52 
2356 -185.38 -187.07 -178.52 
2357 -187.69 -187.16 -178.52 
2358 -185.98 -186.76 -178.52 
2359 -185.66 -184.04 -178.52 
2360 -185.26 -186.72 -178.52 
2361 -185.93 -186.74 -178.52 
2362 -190.37 -184.86 -178.52 
2363 -184.37 -184.97 -178.52 
2364 -185.65 -185.01 -178.52 
2365 -183.35 -186.74 -178.52 
2366 -183.57 -185.51 -178.52 
2367 -181.29 -185.69 -178.52 
2368 -185.83 -186.05 -178.52 
2369 -185.29 -186.12 -178.52 
2370 -180.07 -186.31 -178.52 
2371 -186.04 -185.25 -178.52 
2372 -186.10 -186.65 -178.52 
2373 -185.80 -186.76 -178.52 
2374 -184.84 -186.73 -178.52 
2375 -182.31 -184.61 -178.52 
2376 -186.11 -186.52 -178.52 
2377 -186.40 -186.65 -178.52 
2378 -181.89 -185.37 -178.52 
2379 -185.81 -185.55 -178.52 
2380 -181.58 -183.97 -178.52 
2381 -186.65 -185.76 -178.52 
2382 -186.50 -184.44 -178.52 
2383 -184.96 -186.20 -178.52 
2384 -187.54 -186.33 -178.52 
2385 -181.93 -186.58 -178.52 
2386 -185.21 -186.45 -178.52 
2387 -182.61 -188.29 -178.52 
2388 -183.46 -187.11 -178.52 
2389 -186.47 -187.23 -178.52 
2390 -186.18 -187.57 -178.52 
2391 -183.59 -187.05 -178.52 
2392 -182.37 -186.62 -178.52 
2393 -184.95 -184.71 -178.52 
2394 -186.26 -184.74 -178.52 
2395 -184.47 -185.00 -178.52 
2396 -180.65 -184.82 -178.52 
2397 -183.35 -183.31 -178.52 
2398 -189.55 -182.95 -178.52 
2399 -183.88 -181.68 -178.52 
2400 -184.92 -183.17 -178.52 
2401 -183.82 -182.93 -178.52 
2402 -184.21 -182.67 -178.52 
2403 -185.66 -184.06 -178.52 
2404 -183.91 -185.56 -178.52 
2405 -185.19 -184.02 -178.52 
2406 -185.30 -183.77 -178.52 
2407 -183.86 -185.29 -178.52 
2408 -183.71 -183.76 -178.52 
2409 -181.98 -183.72 -178.52 
2410 -187.25 -183.84 -178.52 
2411 -183.53 -185.54 -178.52 
2412 -183.12 -183.84 -178.52 
2413 -187.47 -185.25 -178.52 
2414 -185.02 -185.14 -178.52 
2415 -190.48 -184.85 -178.52 
2416 -187.64 -186.21 -178.52 
2417 -185.09 -187.60 -178.52 
2418 -186.69 -185.57 -178.52 
2419 -184.30 -186.83 -178.52 
2420 -184.63 -186.78 -178.52 
2421 -188.39 -186.70 -178.52 
2422 -184.97 -186.78 -178.52 
2423 -181.19 -185.40 -178.52 
2424 -185.23 -185.28 -178.52 
2425 -183.97 -183.77 -178.52 
2426 -183.72 -185.26 -178.52 
2427 -185.44 -186.63 -178.52 
2428 -183.77 -183.95 -178.52 
2429 -182.47 -183.78 -178.52 
2430 -184.99 -185.96 -178.52 
2431 -181.96 -186.18 -178.52 
2432 -187.93 -186.27 -178.52 
2433 -187.14 -186.24 -178.52 
2434 -186.58 -186.23 -178.52 
2435 -183.81 -184.80 -178.52 
2436 -186.82 -185.11 -178.52 
2437 -182.73 -185.60 -178.52 
2438 -188.31 -186.05 -178.52 
2439 -185.34 -185.84 -178.52 
2440 -183.71 -185.74 -178.52 
2441 -187.62 -185.73 -178.52 
2442 -183.48 -184.04 -178.52 
2443 -185.07 -187.03 -178.52 
2444 -185.50 -187.07 -178.52 
2445 -185.17 -186.91 -178.52 
2446 -183.90 -186.77 -178.52 
2447 -186.58 -185.24 -178.52 
2448 -182.23 -184.17 -178.52 
2449 -185.15 -184.18 -178.52 
2450 -180.60 -185.81 -178.52 
2451 -186.21 -185.98 -178.52 
2452 -183.02 -185.92 -178.52 
2453 -186.58 -185.96 -178.52 
2454 -185.41 -186.18 -178.52 
2455 -184.42 -186.38 -178.52 
2456 -182.78 -184.72 -178.52 
2457 -184.59 -184.73 -178.52 
2458 -181.23 -186.38 -178.52 
2459 -188.41 -187.96 -178.52 
2460 -182.17 -188.41 -178.52 
2461 -182.74 -188.42 -178.52 
2462 -184.05 -186.65 -178.52 
2463 -180.76 -186.77 -178.52 
2464 -182.30 -188.66 -178.52 
2465 -184.14 -187.13 -178.52 
2466 -184.81 -187.17 -178.52 
2467 -187.55 -188.54 -178.52 
2468 -185.51 -187.14 -178.52 
2469 -185.44 -187.27 -178.52 
2470 -184.49 -187.13 -178.52 
2471 -186.31 -187.12 -178.52 
2472 -183.29 -187.45 -178.52 
2473 -181.73 -187.26 -178.52 
2474 -183.67 -185.61 -178.52 
2475 -184.41 -185.77 -178.52 
2476 -183.13 -187.27 -178.52 
2477 -182.54 -187.79 -178.52 
2478 -183.23 -187.45 -178.52 
2479 -184.25 -185.79 -178.52 
2480 -180.21 -184.12 -178.52 
2481 -182.49 -184.11 -178.52 
2482 -188.76 -185.74 -178.52 
2483 -183.65 -188.84 -178.52 
2484 -187.11 -186.08 -178.52 
2485 -184.69 -187.34 -178.52 
2486 -185.94 -187.66 -178.52 
2487 -182.23 -187.63 -178.52 
2488 -185.97 -185.68 -178.52 
2489 -182.18 -187.33 -178.52 
2490 -184.33 -187.62 -178.52 
2491 -188.57 -189.45 -178.52 
2492 -184.58 -189.42 -178.52 
2493 -184.31 -187.71 -178.52 
2494 -180.98 -189.53 -178.52 
2495 -187.40 -187.72 -178.52 
2496 -183.96 -188.04 -178.52 
2497 -186.49 -188.10 -178.52 
2498 -183.77 -188.13 -178.52 
2499 -184.73 -188.11 -178.52 
2500 -186.73 -187.98 -178.52 
2501 -184.05 -188.06 -178.52 
2502 -183.36 -188.35 -178.52 
2503 -178.42 -186.25 -178.52 
2504 -180.09 -186.23 -178.42 
2505 -184.35 -186.26 -178.42 
2506 -187.40 -186.14 -178.42 
2507 -180.34 -186.18 -178.42 
2508 -185.23 -186.46 -178.42 
2509 -183.62 -186.05 -178.42 
2510 -182.90 -187.52 -178.42 
2511 -182.54 -187.49 -178.42 
2512 -182.93 -186.12 -178.42 
2513 -186.03 -184.52 -178.42 
2514 -183.65 -184.34 -178.42 
2515 -186.72 -184.44 -178.42 
2516 -181.44 -184.69 -178.42 
2517 -185.79 -185.66 -178.42 
2518 -182.06 -184.06 -178.42 
2519 -182.83 -185.56 -178.42 
2520 -189.03 -182.94 -178.42 
2521 -186.72 -184.35 -178.42 
2522 -184.07 -186.18 -178.42 
2523 -184.83 -184.92 -178.42 
2524 -181.94 -184.93 -178.42 
2525 -184.95 -185.08 -178.42 
2526 -179.67 -185.18 -178.42 
2527 -183.63 -185.22 -178.42 
2528 -181.79 -185.24 -178.42 
2529 -185.58 -185.43 -178.42 
2530 -183.16 -185.23 -178.42 
2531 -181.98 -184.96 -178.42 
2532 -186.98 -185.00 -178.42 
2533 -182.38 -184.95 -178.42 
2534 -181.48 -184.80 -178.42 
2535 -184.79 -183.37 -178.42 
2536 -184.98 -183.07 -178.42 
2537 -184.17 -183.27 -178.42 
2538 -184.05 -183.54 -178.42 
2539 -187.60 -185.52 -178.42 
2540 -187.71 -183.92 -178.42 
2541 -181.88 -182.22 -178.42 
2542 -180.96 -182.33 -178.42 
2543 -187.64 -182.54 -178.42 
2544 -181.13 -182.50 -178.42 
2545 -183.23 -180.63 -178.42 
2546 -185.23 -180.75 -178.42 
2547 -181.55 -180.68 -178.42 
2548 -184.09 -182.00 -178.42 
2549 -188.42 -182.02 -178.42 
2550 -182.48 -181.74 -178.42 
2551 -185.69 -181.58 -178.42 
2552 -184.65 -183.07 -178.42 
2553 -182.61 -183.05 -178.42 
2554 -187.37 -183.23 -178.42 
2555 -183.41 -181.93 -178.42 
2556 -183.25 -183.44 -178.42 
2557 -183.17 -180.28 -178.42 
2558 -187.90 -182.15 -178.42 
2559 -184.46 -182.31 -178.42 
2560 -179.97 -183.74 -178.42 
2561 -184.39 -182.21 -178.42 
2562 -181.88 -183.58 -178.42 
2563 -180.26 -182.56 -178.42 
2564 -183.02 -182.51 -178.42 
2565 -185.50 -182.50 -178.42 
2566 -185.36 -182.05 -178.42 
2567 -187.79 -183.91 -178.42 
2568 -187.20 -183.68 -178.42 
2569 -184.97 -183.87 -178.42 
2570 -183.38 -183.49 -178.42 
2571 -185.33 -183.33 -178.42 
2572 -181.89 -185.04 -178.42 
2573 -180.03 -185.17 -178.42 
2574 -186.54 -184.80 -178.42 
2575 -184.37 -185.27 -178.42 
2576 -183.48 -185.19 -178.42 
2577 -181.00 -185.23 -178.42 
2578 -183.56 -186.15 -178.42 
2579 -182.31 -184.72 -178.42 
2580 -181.42 -189.23 -178.42 
2581 -183.28 -186.43 -178.42 
2582 -181.73 -186.18 -178.42 
2583 -181.71 -184.68 -178.42 
2584 -185.90 -186.59 -178.42 
2585 -185.26 -184.96 -178.42 
2586 -182.71 -184.89 -178.42 
2587 -182.71 -186.83 -178.42 
2588 -181.88 -185.23 -178.42 
2589 -182.54 -185.10 -178.42 
2590 -182.13 -185.01 -178.42 
2591 -182.86 -184.98 -178.42 
2592 -178.92 -187.92 -178.42 
2593 -183.93 -188.01 -178.42 
2594 -186.33 -185.28 -178.42 
2595 -186.83 -185.23 -178.42 
2596 -182.99 -185.63 -178.42 
2597 -183.05 -185.60 -178.42 
2598 -184.06 -185.35 -178.42 
2599 -181.80 -185.57 -178.42 
2600 -184.72 -187.03 -178.42 
2601 -186.46 -185.56 -178.42 
2602 -188.44 -185.52 -178.42 
2603 -180.86 -187.12 -178.42 
2604 -181.17 -186.76 -178.42 
2605 -183.22 -188.52 -178.42 
2606 -187.89 -185.44 -178.42 
2607 -180.96 -188.22 -178.42 
2608 -182.52 -188.36 -178.42 
2609 -189.70 -188.14 -178.42 
2610 -181.88 -187.66 -178.42 
2611 -185.62 -186.39 -178.42 
2612 -186.20 -186.63 -178.42 
2613 -189.81 -186.69 -178.42 
2614 -185.65 -184.98 -178.42 
2615 -182.34 -186.47 -178.42 
2616 -185.10 -184.91 -178.42 
2617 -186.97 -184.75 -178.42 
2618 -184.68 -185.04 -178.42 
2619 -184.53 -185.13 -178.42 
2620 -182.95 -185.04 -178.42 
2621 -180.65 -184.88 -178.42 
2622 -178.39 -184.88 -178.42 
2623 -181.96 -183.43 -178.39 
2624 -180.83 -182.27 -178.39 
2625 -182.77 -185.44 -178.39 
2626 -183.43 -186.97 -178.39 
2627 -184.57 -185.56 -178.39 
2628 -184.64 -185.45 -178.39 
2629 -183.52 -185.57 -178.39 
2630 -183.13 -187.03 -178.39 
2631 -185.31 -187.20 -178.39 
2632 -184.82 -187.51 -178.39 
2633 -186.71 -187.22 -178.39 
2634 -185.64 -187.22 -178.39 
2635 -181.45 -187.30 -178.39 
2636 -185.38 -187.48 -178.39 
2637 -187.11 -187.19 -178.39 
2638 -180.84 -187.33 -178.39 
2639 -182.80 -187.12 -178.39 
2640 -179.45 -187.06 -178.39 
2641 -183.38 -187.37 -178.39 
2642 -184.11 -187.70 -178.39 
2643 -187.67 -184.60 -178.39 
2644 -183.49 -186.06 -178.39 
2645 -182.34 -185.68 -178.39 
2646 -182.60 -186.21 -178.39 
2647 -186.84 -185.98 -178.39 
2648 -182.02 -184.47 -178.39 
2649 -180.91 -184.55 -178.39 
2650 -181.27 -183.93 -178.39 
2651 -185.42 -184.48 -178.39 
2652 -181.95 -184.33 -178.39 
2653 -185.62 -185.93 -178.39 
2654 -186.95 -184.41 -178.39 
2655 -185.44 -185.96 -178.39 
2656 -183.60 -186.29 -178.39 
2657 -180.71 -186.24 -178.39 
2658 -188.30 -186.07 -178.39 
2659 -183.15 -186.16 -178.39 
2660 -184.51 -184.67 -178.39 
2661 -184.67 -184.79 -178.39 
2662 -182.26 -185.03 -178.39 
2663 -186.04 -185.19 -178.39 
2664 -182.26 -186.39 -178.39 
2665 -181.01 -184.66 -178.39 
2666 -185.03 -184.94 -178.39 
2667 -181.92 -186.29 -178.39 
2668 -183.74 -184.76 -178.39 
2669 -186.20 -184.97 -178.39 
2670 -186.11 -186.52 -178.39 
2671 -183.35 -184.86 -178.39 
2672 -181.18 -183.65 -178.39 
2673 -185.15 -186.21 -178.39 
2674 -183.39 -184.71 -178.39 
2675 -184.42 -184.39 -178.39 
2676 -182.71 -185.90 -178.39 
2677 -182.53 -184.66 -178.39 
2678 -179.74 -184.99 -178.39 
2679 -187.57 -184.85 -178.39 
2680 -183.40 -184.95 -178.39 
2681 -186.64 -185.12 -178.39 
2682 -181.24 -185.12 -178.39 
2683 -183.18 -186.66 -178.39 
2684 -185.70 -186.45 -178.39 
2685 -182.89 -183.61 -178.39 
2686 -182.98 -183.54 -178.39 
2687 -182.91 -183.63 -178.39 
2688 -184.78 -183.76 -178.39 
2689 -181.53 -183.71 -178.39 
2690 -182.78 -183.87 -178.39 
2691 -183.25 -183.34 -178.39 
2692 -183.01 -183.37 -178.39 
2693 -183.14 -183.59 -178.39 
2694 -185.50 -183.49 -178.39 
2695 -182.85 -183.37 -178.39 
2696 -184.70 -184.93 -178.39 
2697 -182.78 -183.36 -178.39 
2698 -181.62 -183.40 -178.39 
2699 -180.30 -184.42 -178.39 
2700 -180.58 -182.90 -178.39 
2701 -184.43 -182.72 -178.39 
2702 -186.13 -182.73 -178.39 
2703 -181.56 -182.82 -178.39 
2704 -182.13 -184.36 -178.39 
2705 -180.60 -184.51 -178.39 
2706 -186.33 -184.37 -178.39 
2707 -184.33 -184.49 -178.39 
2708 -184.32 -184.38 -178.39 
2709 -182.61 -184.57 -178.39 
2710 -181.52 -184.92 -178.39 
2711 -182.29 -184.80 -178.39 
2712 -186.58 -184.86 -178.39 
2713 -185.59 -185.12 -178.39 
2714 -185.22 -185.23 -178.39 
2715 -180.94 -184.06 -178.39 
2716 -184.63 -184.09 -178.39 
2717 -185.24 -183.86 -178.39 
2718 -183.66 -182.55 -178.39 
2719 -184.43 -184.13 -178.39 
2720 -182.07 -183.67 -178.39 
2721 -182.12 -183.71 -178.39 
2722 -183.87 -183.28 -178.39 
2723 -184.03 -183.81 -178.39 
2724 -180.72 -183.76 -178.39 
2725 -184.74 -183.79 -178.39 
2726 -183.26 -184.05 -178.39 
2727 -181.75 -184.06 -178.39 
2728 -180.59 -184.16 -178.39 
2729 -182.36 -183.84 -178.39 
2730 -182.35 -183.82 -178.39 
2731 -182.86 -183.75 -178.39 
2732 -184.15 -182.17 -178.39 
2733 -185.63 -182.29 -178.39 
2734 -183.23 -180.51 -178.39 
2735 -183.79 -183.58 -178.39 
2736 -184.29 -182.17 -178.39 
2737 -184.24 -184.02 -178.39 
2738 -182.63 -182.38 -178.39 
2739 -184.01 -183.67 -178.39 
2740 -182.21 -183.76 -178.39 
2741 -183.75 -183.71 -178.39 
2742 -183.00 -182.16 -178.39 
2743 -184.92 -182.58 -178.39 
2744 -181.27 -182.47 -178.39 
2745 -182.55 -182.45 -178.39 
2746 -182.50 -182.70 -178.39 
2747 -180.86 -181.30 -178.39 
2748 -185.00 -181.41 -178.39 
2749 -186.89 -181.52 -178.39 
2750 -180.95 -181.53 -178.39 
2751 -185.47 -181.61 -178.39 
2752 -183.03 -181.72 -178.39 
2753 -182.02 -180.03 -178.39 
2754 -182.59 -180.25 -178.39 
2755 -184.38 -180.42 -178.39 
2756 -184.61 -181.96 -178.39 
2757 -180.15 -183.11 -178.39 
2758 -183.27 -183.11 -178.39 
2759 -183.34 -183.03 -178.39 
2760 -186.79 -181.92 -178.39 
2761 -187.71 -180.49 -178.39 
2762 -182.93 -182.03 -178.39 
2763 -184.56 -183.51 -178.39 
2764 -183.32 -180.87 -178.39 
2765 -180.78 -180.72 -178.39 
2766 -181.87 -180.83 -178.39 
2767 -181.00 -180.63 -178.39 
2768 -184.14 -180.40 -178.39 
2769 -182.57 -180.51 -178.39 
2770 -184.19 -181.94 -178.39 
2771 -181.26 -180.54 -178.39 
2772 -185.27 -183.09 -178.39 
2773 -183.40 -181.70 -178.39 
2774 -187.24 -181.86 -178.39 
2775 -185.36 -181.67 -178.39 
2776 -179.94 -180.60 -178.39 
2777 -185.73 -180.49 -178.39 
2778 -184.18 -180.77 -178.39 
2779 -182.66 -182.41 -178.39 
2780 -185.04 -182.33 -178.39 
2781 -187.47 -181.20 -178.39 
2782 -184.56 -179.79 -178.39 
2783 -177.50 -181.29 -178.39 
2784 -182.01 -181.54 -177.50 
2785 -182.95 -181.33 -177.50 
2786 -185.10 -178.49 -177.50 
2787 -181.96 -180.10 -177.50 
2788 -181.23 -180.15 -177.50 
2789 -184.69 -178.49 -177.50 
2790 -183.47 -179.08 -177.50 
2791 -182.78 -180.12 -177.50 
2792 -180.01 -178.90 -177.50 
2793 -183.68 -179.40 -177.50 
2794 -184.84 -180.37 -177.50 
2795 -183.13 -180.55 -177.50 
2796 -184.87 -180.54 -177.50 
2797 -182.40 -180.66 -177.50 
2798 -185.08 -180.53 -177.50 
2799 -183.34 -180.63 -177.50 
2800 -180.75 -180.74 -177.50 
2801 -186.90 -179.15 -177.50 
2802 -182.46 -180.70 -177.50 
2803 -182.43 -181.10 -177.50 
2804 -183.86 -181.11 -177.50 
2805 -182.94 -181.01 -177.50 
2806 -181.99 -181.10 -177.50 
2807 -184.57 -179.76 -177.50 
2808 -186.10 -180.98 -177.50 
2809 -184.19 -181.20 -177.50 
2810 -185.87 -179.70 -177.50 
2811 -182.47 -181.18 -177.50 
2812 -181.40 -181.10 -177.50 
2813 -182.53 -181.07 -177.50 
2814 -181.95 -179.53 -177.50 
2815 -183.55 -179.48 -177.50 
2816 -180.47 -179.48 -177.50 
2817 -182.66 -179.54 -177.50 
2818 -187.48 -179.75 -177.50 
2819 -181.93 -179.48 -177.50 
2820 -183.68 -179.40 -177.50 
2821 -185.42 -179.52 -177.50 
2822 -187.82 -181.25 -177.50 
2823 -184.51 -179.84 -177.50 
2824 -180.44 -181.49 -177.50 
2825 -185.84 -179.95 -177.50 
2826 -181.60 -179.77 -177.50 
2827 -181.56 -179.65 -177.50 
2828 -179.14 -179.35 -177.50 
2829 -184.63 -179.20 -177.50 
2830 -184.66 -180.77 -177.50 
2831 -183.34 -181.24 -177.50 
2832 -185.69 -181.14 -177.50 
2833 -177.98 -179.70 -177.50 
2834 -186.14 -179.72 -177.50 
2835 -182.18 -178.28 -177.50 
2836 -189.53 -179.74 -177.50 
2837 -183.23 -181.16 -177.50 
2838 -187.43 -182.87 -177.50 
2839 -184.53 -181.30 -177.50 
2840 -184.76 -179.74 -177.50 
2841 -181.86 -181.25 -177.50 
2842 -183.74 -179.73 -177.50 
2843 -185.20 -179.95 -177.50 
2844 -184.26 -179.98 -177.50 
2845 -181.64 -181.16 -177.50 
2846 -183.77 -180.99 -177.50 
2847 -183.83 -181.15 -177.50 
2848 -182.92 -180.93 -177.50 
2849 -182.05 -182.47 -177.50 
2850 -182.67 -182.07 -177.50 
2851 -183.25 -183.64 -177.50 
2852 -186.24 -183.69 -177.50 
2853 -180.37 -182.35 -177.50 
2854 -180.72 -183.86 -177.50 
2855 -181.28 -182.34 -177.50 
2856 -182.22 -183.71 -177.50 
2857 -182.83 -183.87 -177.50 
2858 -185.10 -182.67 -177.50 
2859 -187.48 -182.72 -177.50 
2860 -179.95 -181.09 -177.50 
2861 -184.89 -182.67 -177.50 
2862 -186.36 -182.85 -177.50 
2863 -182.57 -180.06 -177.50 
2864 -183.43 -181.45 -177.50 
2865 -181.44 -179.93 -177.50 
2866 -182.42 -181.31 -177.50 
2867 -181.82 -181.34 -177.50 
2868 -183.31 -179.91 -177.50 
2869 -188.20 -179.86 -177.50 
2870 -182.46 -179.91 -177.50 
2871 -182.95 -179.81 -177.50 
2872 -181.63 -179.76 -177.50 
2873 -184.86 -179.71 -177.50 
2874 -186.92 -181.00 -177.50 
2875 -181.42 -179.45 -177.50 
2876 -180.87 -179.38 -177.50 
2877 -182.29 -180.85 -177.50 
2878 -181.66 -180.92 -177.50 
2879 -180.61 -180.48 -177.50 
2880 -184.77 -181.95 -177.50 
2881 -183.90 -181.74 -177.50 
2882 -181.70 -181.82 -177.50 
2883 -182.85 -181.52 -177.50 
2884 -181.82 -180.18 -177.50 
2885 -185.83 -181.42 -177.50 
2886 -182.50 -181.67 -177.50 
2887 -179.42 -183.28 -177.50 
2888 -184.33 -181.89 -177.50 
2889 -184.51 -181.59 -177.50 
2890 -184.33 -181.65 -177.50 
2891 -184.73 -181.58 -177.50 
2892 -179.97 -180.06 -177.50 
2893 -180.93 -181.95 -177.50 
2894 -183.09 -180.65 -177.50 
2895 -182.49 -180.60 -177.50 
2896 -185.15 -180.40 -177.50 
2897 -185.65 -180.44 -177.50 
2898 -183.04 -180.35 -177.50 
2899 -181.20 -181.56 -177.50 
2900 -181.47 -181.97 -177.50 
2901 -178.57 -181.85 -177.50 
2902 -184.32 -180.73 -177.50 
2903 -185.33 -182.17 -177.50 
2904 -187.74 -180.76 -177.50 
2905 -182.58 -182.31 -177.50 
2906 -182.81 -181.06 -177.50 
2907 -185.04 -182.46 -177.50 
2908 -184.27 -181.19 -177.50 
2909 -182.70 -182.49 -177.50 
2910 -181.96 -182.63 -177.50 
2911 -180.40 -180.98 -177.50 
2912 -182.39 -182.45 -177.50 
2913 -179.20 -184.93 -177.50 
2914 -187.42 -182.19 -177.50 
2915 -179.22 -182.08 -177.50 
2916 -185.28 -182.29 -177.50 
2917 -183.19 -182.26 -177.50 
2918 -181.17 -180.67 -177.50 
2919 -183.91 -183.84 -177.50 
2920 -180.35 -182.14 -177.50 
2921 -184.47 -182.40 -177.50 
2922 -181.73 -182.33 -177.50 
2923 -182.25 -181.08 -177.50 
2924 -181.95 -181.37 -177.50 
2925 -181.76 -183.21 -177.50 
2926 -185.97 -181.80 -177.50 
2927 -183.59 -181.74 -177.50 
2928 -182.43 -183.51 -177.50 
2929 -187.03 -181.79 -177.50 
2930 -183.41 -182.06 -177.50 
2931 -179.51 -182.26 -177.50 
2932 -186.49 -180.68 -177.50 
2933 -182.41 -180.59 -177.50 
2934 -185.33 -181.73 -177.50 
2935 -189.41 -181.92 -177.50 
2936 -183.66 -180.49 -177.50 
2937 -183.96 -180.36 -177.50 
2938 -182.61 -181.76 -177.50 
2939 -184.94 -183.43 -177.50 
2940 -182.42 -181.79 -177.50 
2941 -187.29 -181.49 -177.50 
2942 -187.94 -181.39 -177.50 
2943 -184.92 -181.95 -177.50 
2944 -187.79 -185.03 -177.50 
2945 -179.76 -183.52 -177.50 
2946 -185.19 -183.35 -177.50 
2947 -184.68 -181.89 -177.50 
2948 -182.12 -182.05 -177.50 
2949 -187.59 -183.39 -177.50 
2950 -181.90 -183.40 -177.50 
2951 -183.51 -183.35 -177.50 
2952 -182.43 -183.25 -177.50 
2953 -181.67 -183.33 -177.50 
2954 -184.73 -183.22 -177.50 
2955 -183.59 -183.48 -177.50 
2956 -183.50 -183.48 -177.50 
2957 -184.68 -183.44 -177.50 
2958 -181.72 -184.91 -177.50 
2959 -183.49 -181.94 -177.50 
2960 -183.29 -181.81 -177.50 
2961 -185.24 -184.84 -177.50 
2962 -184.17 -181.76 -177.50 
2963 -183.32 -181.67 -177.50 
2964 -179.98 -183.37 -177.50 
2965 -184.39 -184.76 -177.50 
2966 -180.57 -183.10 -177.50 
2967 -187.93 -183.46 -177.50 
2968 -181.86 -183.30 -177.50 
2969 -181.67 -186.07 -177.50 
2970 -182.64 -186.16 -177.50 
2971 -185.07 -183.09 -177.50 
2972 -182.97 -184.63 -177.50 
2973 -182.74 -183.13 -177.50 
2974 -182.10 -183.18 -177.50 
2975 -181.52 -184.50 -177.50 
2976 -185.15 -184.39 -177.50 
2977 -184.47 -184.66 -177.50 
2978 -183.99 -184.41 -177.50 
2979 -182.68 -183.33 -177.50 
2980 -186.30 -184.70 -177.50 
2981 -184.39 -183.33 -177.50 
2982 -184.28 -184.68 -177.50 
2983 -181.81 -184.80 -177.50 
2984 -180.50 -183.23 -177.50 
2985 -184.80 -183.21 -177.50 
2986 -182.72 -183.39 -177.50 
2987 -181.60 -183.33 -177.50 
2988 -179.20 -181.78 -177.50 
2989 -187.67 -183.27 -177.50 
2990 -183.84 -183.40 -177.50 
2991 -185.04 -181.86 -177.50 
2992 -184.92 -184.77 -177.50 
2993 -180.92 -181.76 -177.50 
2994 -182.04 -183.32 -177.50 
2995 -181.71 -181.86 -177.50 
2996 -182.34 -182.03 -177.50 
2997 -185.56 -183.55 -177.50 
2998 -181.66 -183.56 -177.50 
2999 -185.14 -182.06 -177.50 
3000 -184.21 -184.95 -177.50 
3001 -185.57 -183.53 -177.50 
3002 -185.31 -182.01 -177.50 
3003 -187.14 -182.08 -177.50 
3004 -182.68 -183.57 -177.50 
3005 -182.16 -183.65 -177.50 
3006 -178.88 -183.79 -177.50 
3007 -183.39 -183.94 -177.50 
3008 -184.72 -182.05 -177.50 
3009 -182.68 -183.74 -177.50 
3010 -182.85 -182.15 -177.50 
3011 -180.67 -182.07 -177.50 
3012 -180.54 -183.53 -177.50 
3013 -184.85 -183.34 -177.50 
3014 -182.25 -183.41 -177.50 
3015 -184.57 -183.44 -177.50 
3016 -182.02 -183.40 -177.50 
3017 -183.73 -181.75 -177.50 
3018 -183.52 -183.34 -177.50 
3019 -179.69 -183.41 -177.50 
3020 -185.55 -181.94 -177.50 
3021 -183.96 -181.89 -177.50 
3022 -183.04 -182.01 -177.50 
3023 -184.93 -182.04 -177.50 
3024 -183.20 -183.45 -177.50 
3025 -181.16 -183.49 -177.50 
3026 -183.33 -181.78 -177.50 
3027 -183.69 -181.58 -177.50 
3028 -182.23 -184.61 -177.50 
3029 -185.36 -181.33 -177.50 
3030 -184.61 -181.17 -177.50 
3031 -182.41 -184.19 -177.50 
3032 -179.85 -181.20 -177.50 
3033 -182.05 -181.03 -177.50 
3034 -182.29 -181.18 -177.50 
3035 -183.49 -182.55 -177.50 
3036 -179.28 -184.02 -177.50 
3037 -185.66 -182.63 -177.50 
3038 -183.45 -182.59 -177.50 
3039 -184.84 -182.55 -177.50 
3040 -186.28 -182.24 -177.50 
3041 -181.82 -182.46 -177.50 
3042 -183.24 -182.32 -177.50 
3043 -183.58 -182.34 -177.50 
3044 -185.15 -183.80 -177.50 
3045 -183.79 -183.99 -177.50 
3046 -183.36 -183.95 -177.50 
3047 -179.33 -183.94 -177.50 
3048 -181.95 -184.04 -177.50 
3049 -184.69 -183.96 -177.50 
3050 -183.93 -182.55 -177.50 
3051 -183.58 -182.46 -177.50 
3052 -180.92 -181.16 -177.50 
3053 -179.50 -181.18 -177.50 
3054 -182.69 -182.52 -177.50 
3055 -181.16 -182.61 -177.50 
3056 -180.68 -182.35 -177.50 
3057 -182.60 -183.99 -177.50 
3058 -184.72 -183.99 -177.50 
3059 -182.05 -184.05 -177.50 
3060 -185.55 -185.25 -177.50 
3061 -182.89 -184.95 -177.50 
3062 -185.64 -183.31 -177.50 
3063 -185.16 -183.22 -177.50 
3064 -186.40 -181.60 -177.50 
3065 -180.44 -183.14 -177.50 
3066 -181.69 -183.26 -177.50 
3067 -183.17 -181.97 -177.50 
3068 -181.75 -182.02 -177.50 
3069 -180.45 -181.89 -177.50 
3070 -184.98 -183.64 -177.50 
3071 -184.10 -179.11 -177.50 
3072 -185.51 -183.62 -177.50 
3073 -185.95 -180.61 -177.50 
3074 -185.69 -180.69 -177.50 
3075 -183.37 -182.30 -177.50 
3076 -183.31 -180.81 -177.50 
3077 -181.63 -180.95 -177.50 
3078 -180.25 -180.99 -177.50 
3079 -180.84 -180.99 -177.50 
3080 -185.06 -182.47 -177.50 
3081 -186.29 -184.07 -177.50 
3082 -181.16 -181.17 -177.50 
3083 -180.80 -182.62 -177.50 
3084 -183.34 -182.62 -177.50 
3085 -185.35 -181.18 -177.50 
3086 -183.57 -182.52 -177.50 
3087 -184.97 -182.43 -177.50 
3088 -183.03 -182.78 -177.50 
3089 -182.78 -182.70 -177.50 
3090 -183.22 -179.68 -177.50 
3091 -182.11 -182.69 -177.50 
3092 -183.17 -181.19 -177.50 
3093 -183.09 -182.52 -177.50 
3094 -183.09 -181.07 -177.50 
3095 -180.12 -181.12 -177.50 
3096 -182.41 -182.60 -177.50 
3097 -183.81 -182.66 -177.50 
3098 -182.83 -182.42 -177.50 
3099 -184.09 -180.96 -177.50 
3100 -181.54 -182.45 -177.50 
3101 -182.41 -182.55 -177.50 
3102 -187.59 -182.50 -177.50 
3103 -184.06 -182.65 -177.50 
3104 -182.13 -182.62 -177.50 
3105 -183.74 -182.52 -177.50 
3106 -187.35 -182.64 -177.50 
3107 -181.82 -182.05 -177.50 
3108 -180.79 -182.36 -177.50 
3109 -179.53 -182.28 -177.50 
3110 -178.96 -182.59 -177.50 
3111 -186.49 -182.56 -177.50 
3112 -181.98 -181.20 -177.50 
3113 -183.70 -182.60 -177.50 
3114 -183.69 -181.18 -177.50 
3115 -182.27 -181.15 -177.50 
3116 -184.29 -179.82 -177.50 
3117 -180.28 -182.36 -177.50 
3118 -179.88 -182.73 -177.50 
3119 -183.60 -179.88 -177.50 
3120 -182.60 -184.10 -177.50 
3121 -183.03 -184.18 -177.50 
3122 -182.81 -184.20 -177.50 
3123 -181.17 -181.41 -177.50 
3124 -182.81 -181.42 -177.50 
3125 -179.79 -181.12 -177.50 
3126 -184.59 -181.15 -177.50 
3127 -180.82 -182.94 -177.50 
3128 -178.63 -181.32 -177.50 
3129 -183.67 -182.85 -177.50 
3130 -180.82 -183.02 -177.50 
3131 -181.43 -184.45 -177.50 
3132 -184.03 -181.59 -177.50 
3133 -185.02 -181.57 -177.50 
3134 -185.64 -181.68 -177.50 
3135 -180.76 -181.61 -177.50 
3136 -180.24 -183.11 -177.50 
3137 -182.60 -181.43 -177.50 
3138 -188.78 -181.50 -177.50 
3139 -187.16 -181.49 -177.50 
3140 -183.30 -181.52 -177.50 
3141 -185.01 -181.57 -177.50 
3142 -182.22 -181.25 -177.50 
3143 -182.36 -181.60 -177.50 
3144 -183.06 -183.01 -177.50 
3145 -185.20 -183.00 -177.50 
3146 -186.40 -182.99 -177.50 
3147 -185.27 -183.01 -177.50 
3148 -183.25 -183.08 -177.50 
3149 -178.72 -184.37 -177.50 
3150 -186.91 -182.85 -177.50 
3151 -184.01 -184.27 -177.50 
3152 -182.56 -182.86 -177.50 
3153 -181.30 -182.89 -177.50 
3154 -186.66 -182.87 -177.50 
3155 -185.05 -182.94 -177.50 
3156 -179.52 -181.75 -177.50 
3157 -180.60 -181.68 -177.50 
3158 -183.71 -184.51 -177.50 
3159 -184.76 -182.95 -177.50 
3160 -183.80 -181.70 -177.50 
3161 -181.60 -183.16 -177.50 
3162 -179.45 -184.81 -177.50 
3163 -184.18 -181.70 -177.50 
3164 -181.86 -181.70 -177.50 
3165 -182.42 -181.41 -177.50 
3166 -181.99 -181.39 -177.50 
3167 -185.40 -182.59 -177.50 
3168 -182.69 -181.29 -177.50 
3169 -182.64 -181.42 -177.50 
3170 -185.42 -183.11 -177.50 
3171 -185.68 -183.03 -177.50 
3172 -183.52 -183.01 -177.50 
3173 -181.75 -183.16 -177.50 
3174 -187.00 -183.16 -177.50 
3175 -181.89 -183.39 -177.50 
3176 -187.26 -183.25 -177.50 
3177 -180.50 -183.24 -177.50 
3178 -185.24 -183.17 -177.50 
3179 -181.73 -181.51 -177.50 
3180 -184.75 -181.60 -177.50 
3181 -182.47 -181.53 -177.50 
3182 -184.16 -183.05 -177.50 
3183 -179.49 -181.69 -177.50 
3184 -180.54 -181.75 -177.50 
3185 -184.60 -183.47 -177.50 
3186 -180.72 -183.33 -177.50 
3187 -183.69 -183.16 -177.50 
3188 -179.14 -181.76 -177.50 
3189 -178.74 -181.65 -177.50 
3190 -180.68 -181.59 -177.50 
3191 -178.84 -181.54 -177.50 
3192 -178.78 -181.47 -177.50 
3193 -183.73 -180.12 -177.50 
3194 -185.25 -180.14 -177.50 
3195 -182.35 -180.30 -177.50 
3196 -181.03 -178.93 -177.50 
3197 -182.22 -178.88 -177.50 
3198 -178.62 -178.86 -177.50 
3199 -182.94 -180.46 -177.50 
3200 -181.27 -180.35 -177.50 
3201 -178.87 -180.55 -177.50 
3202 -183.00 -180.55 -177.50 
3203 -182.97 -179.02 -177.50 
3204 -182.27 -180.34 -177.50 
3205 -183.70 -181.67 -177.50 
3206 -181.62 -182.01 -177.50 
3207 -181.89 -180.45 -177.50 
3208 -181.74 -180.44 -177.50 
3209 -184.41 -180.31 -177.50 
3210 -179.93 -181.74 -177.50 
3211 -181.02 -181.32 -177.50 
3212 -183.85 -181.54 -177.50 
3213 -183.37 -181.77 -177.50 
3214 -181.66 -182.03 -177.50 
3215 -183.20 -181.66 -177.50 
3216 -184.80 -181.88 -177.50 
3217 -182.67 -181.42 -177.50 
3218 -181.87 -181.95 -177.50 
3219 -182.13 -181.34 -177.50 
3220 -180.59 -181.46 -177.50 
3221 -180.64 -181.53 -177.50 
3222 -184.51 -181.62 -177.50 
3223 -182.61 -181.69 -177.50 
3224 -182.87 -180.19 -177.50 
3225 -179.18 -180.36 -177.50 
3226 -182.71 -181.78 -177.50 
3227 -179.78 -180.00 -177.50 
3228 -181.75 -180.07 -177.50 
3229 -184.05 -180.14 -177.50 
3230 -182.09 -180.12 -177.50 
3231 -180.05 -180.03 -177.50 
3232 -180.14 -181.47 -177.50 
3233 -180.92 -181.69 -177.50 
3234 -181.50 -181.46 -177.50 
3235 -183.80 -181.52 -177.50 
3236 -182.47 -182.81 -177.50 
3237 -181.12 -180.00 -177.50 
3238 -184.24 -181.47 -177.50 
3239 -180.66 -181.45 -177.50 
3240 -181.43 -181.51 -177.50 
3241 -188.08 -181.54 -177.50 
3242 -181.88 -183.11 -177.50 
3243 -182.65 -181.70 -177.50 
3244 -182.74 -181.58 -177.50 
3245 -184.73 -181.61 -177.50 
3246 -180.80 -183.24 -177.50 
3247 -179.45 -183.40 -177.50 
3248 -179.70 -183.38 -177.50 
3249 -181.03 -181.60 -177.50 
3250 -180.85 -181.67 -177.50 
3251 -180.84 -181.55 -177.50 
3252 -182.93 -181.41 -177.50 
3253 -180.72 -181.46 -177.50 
3254 -182.32 -181.42 -177.50 
3255 -182.75 -179.95 -177.50 
3256 -179.79 -179.92 -177.50 
3257 -178.35 -179.81 -177.50 
3258 -185.08 -179.82 -177.50 
3259 -180.51 -181.22 -177.50 
3260 -184.28 -182.80 -177.50 
3261 -180.46 -182.91 -177.50 
3262 -183.38 -184.22 -177.50 
3263 -178.03 -181.30 -177.50 
3264 -183.40 -184.09 -177.50 
3265 -182.74 -182.67 -177.50 
3266 -180.08 -182.70 -177.50 
3267 -179.98 -182.66 -177.50 
3268 -179.61 -182.65 -177.50 
3269 -185.62 -182.69 -177.50 
3270 -182.13 -184.19 -177.50 
3271 -182.58 -182.74 -177.50 
3272 -182.69 -182.96 -177.50 
3273 -180.98 -182.83 -177.50 
3274 -185.02 -184.23 -177.50 
3275 -181.41 -182.58 -177.50 
3276 -183.68 -182.73 -177.50 
3277 -179.24 -184.29 -177.50 
3278 -183.64 -182.72 -177.50 
3279 -181.49 -182.90 -177.50 
3280 -183.07 -184.33 -177.50 
3281 -183.64 -184.21 -177.50 
3282 -181.69 -184.15 -177.50 
3283 -180.22 -185.63 -177.50 
3284 -179.55 -185.43 -177.50 
3285 -179.09 -184.23 -177.50 
3286 -181.45 -182.59 -177.50 
3287 -181.95 -182.68 -177.50 
3288 -181.67 -182.85 -177.50 
3289 -182.80 -182.65 -177.50 
3290 -181.13 -182.90 -177.50 
3291 -182.08 -182.88 -177.50 
3292 -181.44 -181.44 -177.50 
3293 -182.77 -182.78 -177.50 
3294 -181.88 -182.82 -177.50 
3295 -180.86 -182.90 -177.50 
3296 -184.00 -182.71 -177.50 
3297 -180.64 -181.21 -177.50 
3298 -184.83 -182.70 -177.50 
3299 -181.93 -181.21 -177.50 
3300 -184.42 -183.91 -177.50 
3301 -182.62 -183.92 -177.50 
3302 -185.48 -183.83 -177.50 
3303 -182.07 -182.60 -177.50 
3304 -180.88 -182.64 -177.50 
3305 -185.50 -182.91 -177.50 
3306 -181.30 -183.03 -177.50 
3307 -182.21 -183.05 -177.50 
3308 -182.89 -183.14 -177.50 
3309 -183.62 -183.14 -177.50 
3310 -181.56 -182.98 -177.50 
3311 -182.10 -183.27 -177.50 
3312 -179.66 -183.40 -177.50 
3313 -180.35 -183.41 -177.50 
3314 -179.82 -183.40 -177.50 
3315 -181.81 -183.08 -177.50 
3316 -182.72 -183.46 -177.50 
3317 -181.94 -182.98 -177.50 
3318 -183.49 -183.19 -177.50 
3319 -180.35 -181.89 -177.50 
3320 -181.54 -183.59 -177.50 
3321 -183.75 -183.72 -177.50 
3322 -179.85 -183.70 -177.50 
3323 -179.17 -183.79 -177.50 
3324 -181.00 -182.33 -177.50 
3325 -184.06 -182.54 -177.50 
3326 -180.74 -182.49 -177.50 
3327 -179.46 -182.61 -177.50 
3328 -182.59 -182.71 -177.50 
3329 -182.04 -182.62 -177.50 
3330 -180.87 -182.61 -177.50 
3331 -181.25 -182.65 -177.50 
3332 -180.64 -182.70 -177.50 
3333 -182.33 -179.74 -177.50 
3334 -180.67 -182.74 -177.50 
3335 -183.03 -181.10 -177.50 
3336 -180.75 -179.66 -177.50 
3337 -181.03 -181.07 -177.50 
3338 -181.11 -179.58 -177.50 
3339 -180.12 -178.06 -177.50 
3340 -181.15 -179.71 -177.50 
3341 -179.70 -179.80 -177.50 
3342 -181.03 -179.73 -177.50 
3343 -181.15 -179.62 -177.50 
3344 -183.49 -181.10 -177.50 
3345 -177.59 -179.60 -177.50 
3346 -183.19 -181.41 -177.50 
3347 -180.88 -182.78 -177.50 
3348 -184.46 -181.01 -177.50 
3349 -181.23 -184.18 -177.50 
3350 -184.45 -181.09 -177.50 
3351 -183.03 -181.23 -177.50 
3352 -182.48 -179.74 -177.50 
3353 -181.40 -182.72 -177.50 
3354 -180.09 -179.83 -177.50 
3355 -183.07 -179.75 -177.50 
3356 -183.46 -179.74 -177.50 
3357 -181.24 -178.43 -177.50 
3358 -182.80 -181.47 -177.50 
3359 -183.20 -180.00 -177.50 
3360 -179.45 -179.77 -177.50 
3361 -180.26 -178.21 -177.50 
3362 -181.04 -181.05 -177.50 
3363 -179.53 -181.22 -177.50 
3364 -186.81 -179.69 -177.50 
3365 -185.25 -181.14 -177.50 
3366 -180.47 -179.98 -177.50 
3367 -182.66 -181.42 -177.50 
3368 -181.80 -181.65 -177.50 
3369 -182.32 -180.05 -177.50 
3370 -178.61 -181.56 -177.50 
3371 -186.77 -181.57 -177.50 
3372 -182.37 -179.99 -177.50 
3373 -180.76 -181.48 -177.50 
3374 -183.47 -181.27 -177.50 
3375 -183.81 -181.07 -177.50 
3376 -181.74 -181.12 -177.50 
3377 -179.21 -181.10 -177.50 
3378 -177.38 -181.09 -177.50 
3379 -181.27 -179.57 -177.38 
3380 -179.76 -179.09 -177.38 
3381 -181.98 -180.19 -177.38 
3382 -179.13 -180.67 -177.38 
3383 -184.75 -179.01 -177.38 
3384 -180.64 -179.94 -177.38 
3385 -181.52 -179.82 -177.38 
3386 -181.67 -179.89 -177.38 
3387 -183.74 -183.00 -177.38 
3388 -180.19 -181.43 -177.38 
3389 -179.72 -180.08 -177.38 
3390 -180.89 -180.04 -177.38 
3391 -180.82 -180.04 -177.38 
3392 -182.77 -179.99 -177.38 
3393 -182.35 -178.73 -177.38 
3394 -182.61 -178.82 -177.38 
3395 -178.65 -178.92 -177.38 
3396 -179.05 -181.10 -177.38 
3397 -181.74 -179.69 -177.38 
3398 -178.34 -181.75 -177.38 
3399 -183.32 -180.32 -177.38 
3400 -185.16 -178.52 -177.38 
3401 -182.47 -179.21 -177.38 
3402 -182.00 -179.01 -177.38 
3403 -182.80 -179.09 -177.38 
3404 -182.95 -180.53 -177.38 
3405 -181.34 -180.53 -177.38 
3406 -179.81 -180.34 -177.38 
3407 -182.24 -180.29 -177.38 
3408 -184.89 -181.73 -177.38 
3409 -181.41 -180.25 -177.38 
3410 -178.80 -178.65 -177.38 
3411 -179.40 -180.12 -177.38 
3412 -180.57 -178.59 -177.38 
3413 -179.52 -177.17 -177.38 
3414 -178.15 -178.63 -177.38 
3415 -179.62 -178.55 -177.38 
3416 -180.62 -178.62 -177.38 
3417 -183.27 -180.03 -177.38 
3418 -182.66 -180.19 -177.38 
3419 -180.78 -178.63 -177.38 
3420 -182.39 -178.58 -177.38 
3421 -182.52 -178.55 -177.38 
3422 -181.81 -178.58 -177.38 
3423 -182.49 -178.73 -177.38 
3424 -184.29 -178.74 -177.38 
3425 -180.06 -178.71 -177.38 
3426 -180.29 -180.36 -177.38 
3427 -180.82 -178.60 -177.38 
3428 -180.86 -178.68 -177.38 
3429 -181.44 -178.65 -177.38 
3430 -180.66 -178.67 -177.38 
3431 -178.66 -178.80 -177.38 
3432 -178.82 -180.39 -177.38 
3433 -181.38 -178.88 -177.38 
3434 -180.86 -179.07 -177.38 
3435 -183.49 -179.05 -177.38 
3436 -182.88 -178.91 -177.38 
3437 -180.55 -178.92 -177.38 
3438 -181.11 -178.83 -177.38 
3439 -177.80 -180.16 -177.38 
3440 -182.82 -180.51 -177.38 
3441 -180.69 -180.43 -177.38 
3442 -176.86 -178.90 -177.38 
3443 -182.00 -178.51 -176.86 
3444 -180.89 -178.69 -176.86 
3445 -181.61 -178.82 -176.86 
3446 -181.81 -178.82 -176.86 
3447 -183.31 -180.09 -176.86 
3448 -182.71 -179.78 -176.86 
3449 -182.50 -180.21 -176.86 
3450 -178.25 -178.94 -176.86 
3451 -184.18 -179.08 -176.86 
3452 -185.03 -179.13 -176.86 
3453 -182.03 -178.85 -176.86 
3454 -183.18 -180.60 -176.86 
3455 -180.64 -180.12 -176.86 
3456 -180.46 -178.85 -176.86 
3457 -181.27 -178.60 -176.86 
3458 -181.25 -178.68 -176.86 
3459 -179.91 -178.84 -176.86 
3460 -182.04 -178.78 -176.86 
3461 -181.86 -177.61 -176.86 
3462 -183.28 -177.63 -176.86 
3463 -178.16 -179.11 -176.86 
3464 -182.73 -180.59 -176.86 
3465 -178.33 -179.21 -176.86 
3466 -180.55 -179.07 -176.86 
3467 -181.69 -179.08 -176.86 
3468 -179.04 -179.03 -176.86 
3469 -182.86 -178.93 -176.86 
3470 -182.44 -178.88 -176.86 
3471 -180.76 -178.99 -176.86 
3472 -179.10 -179.12 -176.86 
3473 -183.04 -179.22 -176.86 
3474 -178.49 -179.19 -176.86 
3475 -182.00 -179.31 -176.86 
3476 -180.52 -179.40 -176.86 
3477 -179.65 -178.12 -176.86 
3478 -183.79 -179.58 -176.86 
3479 -182.11 -178.13 -176.86 
3480 -181.52 -178.04 -176.86 
3481 -182.04 -178.15 -176.86 
3482 -181.12 -179.59 -176.86 
3483 -180.72 -179.54 -176.86 
3484 -183.65 -181.09 -176.86 
3485 -185.05 -178.17 -176.86 
3486 -179.80 -178.24 -176.86 
3487 -180.53 -181.23 -176.86 
3488 -181.69 -179.65 -176.86 
3489 -183.10 -181.20 -176.86 
3490 -184.09 -181.26 -176.86 
3491 -180.75 -181.24 -176.86 
3492 -182.93 -181.25 -176.86 
3493 -180.19 -181.29 -176.86 
3494 -185.82 -181.32 -176.86 
3495 -183.76 -179.93 -176.86 
3496 -180.29 -181.27 -176.86 
3497 -175.51 -182.97 -176.86 
3498 -184.12 -182.91 -175.51 
3499 -183.50 -181.21 -175.51 
3500 -180.23 -179.63 -175.51 
3501 -181.62 -179.81 -175.51 
3502 -187.33 -179.72 -175.51 
3503 -182.28 -181.35 -175.51 
3504 -180.50 -181.30 -175.51 
3505 -180.74 -181.39 -175.51 
3506 -179.17 -179.77 -175.51 
3507 -185.28 -179.66 -175.51 
3508 -186.05 -181.34 -175.51 
3509 -181.15 -179.70 -175.51 
3510 -178.62 -181.13 -175.51 
3511 -181.08 -179.57 -175.51 
3512 -182.05 -179.45 -175.51 
3513 -180.49 -180.89 -175.51 
3514 -180.94 -180.85 -175.51 
3515 -182.99 -182.26 -175.51 
3516 -181.55 -182.15 -175.51 
3517 -180.04 -180.83 -175.51 
3518 -179.37 -180.90 -175.51 
3519 -181.34 -179.33 -175.51 
3520 -182.85 -179.43 -175.51 
3521 -182.06 -179.39 -175.51 
3522 -179.60 -180.84 -175.51 
3523 -181.61 -180.31 -175.51 
3524 -177.66 -180.43 -175.51 
3525 -181.55 -180.53 -175.51 
3526 -180.65 -182.13 -175.51 
3527 -182.55 -180.74 -175.51 
3528 -179.46 -180.96 -175.51 
3529 -180.08 -180.77 -175.51 
3530 -181.11 -180.72 -175.51 
3531 -183.31 -180.93 -175.51 
3532 -180.30 -180.95 -175.51 
3533 -183.87 -180.65 -175.51 
3534 -182.27 -181.87 -175.51 
3535 -183.08 -181.86 -175.51 
3536 -182.02 -181.39 -175.51 
3537 -177.70 -181.83 -175.51 
3538 -181.22 -181.05 -175.51 
3539 -181.75 -180.75 -175.51 
3540 -180.24 -180.70 -175.51 
3541 -183.62 -180.85 -175.51 
3542 -177.48 -180.77 -175.51 
3543 -182.97 -180.69 -175.51 
3544 -182.11 -181.34 -175.51 
3545 -179.79 -181.42 -175.51 
3546 -182.38 -181.71 -175.51 
3547 -181.01 -180.34 -175.51 
3548 -182.85 -180.29 -175.51 
3549 -181.08 -180.49 -175.51 
3550 -180.50 -180.56 -175.51 
3551 -181.03 -180.53 -175.51 
3552 -177.33 -180.43 -175.51 
3553 -181.20 -180.39 -175.51 
3554 -177.11 -180.59 -175.51 
3555 -180.00 -180.68 -175.51 
3556 -178.01 -182.21 -175.51 
3557 -180.08 -180.86 -175.51 
3558 -184.46 -182.32 -175.51 
3559 -179.20 -180.95 -175.51 
3560 -182.90 -180.87 -175.51 
3561 -183.57 -180.83 -175.51 
3562 -180.20 -180.78 -175.51 
3563 -181.34 -182.17 -175.51 
3564 -176.23 -182.26 -175.51 
3565 -180.71 -180.82 -175.51 
3566 -182.73 -182.03 -175.51 
3567 -180.25 -180.70 -175.51 
3568 -179.46 -180.74 -175.51 
3569 -179.02 -180.74 -175.51 
3570 -182.48 -180.80 -175.51 
3571 -178.19 -180.58 -175.51 
3572 -179.64 -180.67 -175.51 
3573 -180.49 -180.56 -175.51 
3574 -181.36 -180.53 -175.51 
3575 -178.03 -180.55 -175.51 
3576 -181.49 -180.47 -175.51 
3577 -179.71 -180.02 -175.51 
3578 -181.62 -179.96 -175.51 
3579 -180.87 -179.79 -175.51 
3580 -180.21 -181.35 -175.51 
3581 -180.09 -181.69 -175.51 
3582 -178.78 -181.84 -175.51 
3583 -182.26 -181.74 -175.51 
3584 -180.90 -181.65 -175.51 
3585 -180.78 -181.80 -175.51 
3586 -182.38 -181.71 -175.51 
3587 -180.95 -181.62 -175.51 
3588 -181.35 -181.79 -175.51 
3589 -182.13 -181.59 -175.51 
3590 -182.45 -181.78 -175.51 
3591 -186.17 -181.76 -175.51 
3592 -180.09 -181.50 -175.51 
3593 -179.02 -181.69 -175.51 
3594 -183.30 -181.69 -175.51 
3595 -178.61 -181.71 -175.51 
3596 -182.03 -181.89 -175.51 
3597 -178.90 -182.00 -175.51 
3598 -179.30 -182.02 -175.51 
3599 -181.81 -181.99 -175.51 
3600 -181.21 -180.47 -175.51 
3601 -179.78 -182.03 -175.51 
3602 -177.84 -180.56 -175.51 
3603 -183.98 -182.01 -175.51 
3604 -180.79 -180.53 -175.51 
3605 -183.39 -180.07 -175.51 
3606 -180.06 -181.08 -175.51 
3607 -178.97 -180.98 -175.51 
3608 -181.84 -180.74 -175.51 
3609 -179.43 -181.01 -175.51 
3610 -176.60 -181.09 -175.51 
3611 -184.35 -181.19 -175.51 
3612 -179.75 -181.20 -175.51 
3613 -182.06 -179.98 -175.51 
3614 -179.53 -179.98 -175.51 
3615 -185.48 -179.96 -175.51 
3616 -178.62 -180.29 -175.51 
3617 -175.12 -180.44 -175.51 
3618 -178.85 -179.15 -175.12 
3619 -181.73 -179.28 -175.12 
3620 -182.23 -179.29 -175.12 
3621 -177.90 -179.42 -175.12 
3622 -180.33 -179.49 -175.12 
3623 -177.46 -181.33 -175.12 
3624 -179.37 -179.80 -175.12 
3625 -179.22 -179.45 -175.12 
3626 -182.33 -179.59 -175.12 
3627 -183.37 -179.57 -175.12 
3628 -181.35 -180.89 -175.12 
3629 -181.25 -180.93 -175.12 
3630 -183.13 -179.30 -175.12 
3631 -183.43 -180.85 -175.12 
3632 -179.29 -180.82 -175.12 
3633 -181.82 -180.77 -175.12 
3634 -176.97 -180.86 -175.12 
3635 -182.17 -180.75 -175.12 
3636 -180.87 -181.33 -175.12 
3637 -178.34 -181.03 -175.12 
3638 -179.35 -180.98 -175.12 
3639 -180.55 -181.17 -175.12 
3640 -180.38 -180.49 -175.12 
3641 -180.33 -180.89 -175.12 
3642 -182.03 -179.58 -175.12 
3643 -181.44 -180.86 -175.12 
3644 -179.49 -180.58 -175.12 
3645 -179.70 -180.57 -175.12 
3646 -185.70 -181.74 -175.12 
3647 -181.38 -180.49 -175.12 
3648 -179.39 -182.11 -175.12 
3649 -181.56 -181.96 -175.12 
3650 -182.42 -182.11 -175.12 
3651 -177.69 -182.21 -175.12 
3652 -183.65 -182.15 -175.12 
3653 -180.46 -180.96 -175.12 
3654 -178.95 -181.29 -175.12 
3655 -182.48 -181.23 -175.12 
3656 -178.98 -179.65 -175.12 
3657 -180.11 -178.22 -175.12 
3658 -178.53 -181.25 -175.12 
3659 -180.11 -180.81 -175.12 
3660 -180.93 -181.94 -175.12 
3661 -181.37 -181.63 -175.12 
3662 -180.00 -181.75 -175.12 
3663 -181.05 -181.84 -175.12 
3664 -183.44 -180.40 -175.12 
3665 -180.66 -180.76 -175.12 
3666 -181.66 -181.13 -175.12 
3667 -179.02 -179.26 -175.12 
3668 -183.47 -181.50 -175.12 
3669 -179.30 -181.39 -175.12 
3670 -181.25 -182.17 -175.12 
3671 -182.23 -179.41 -175.12 
3672 -183.44 -181.89 -175.12 
3673 -178.44 -184.10 -175.12 
3674 -180.04 -182.50 -175.12 
3675 -180.85 -182.20 -175.12 
3676 -179.89 -180.34 -175.12 
3677 -178.74 -183.73 -175.12 
3678 -178.30 -181.75 -175.12 
3679 -182.29 -183.18 -175.12 
3680 -180.27 -181.64 -175.12 
3681 -178.93 -181.12 -175.12 
3682 -179.47 -182.76 -175.12 
3683 -178.57 -182.52 -175.12 
3684 -182.69 -182.55 -175.12 
3685 -181.86 -180.99 -175.12 
3686 -181.71 -180.42 -175.12 
3687 -180.93 -180.48 -175.12 
3688 -179.62 -180.94 -175.12 
3689 -180.07 -180.53 -175.12 
3690 -178.45 -182.29 -175.12 
3691 -182.18 -181.99 -175.12 
3692 -178.30 -182.07 -175.12 
3693 -184.99 -182.48 -175.12 
3694 -180.19 -182.44 -175.12 
3695 -181.52 -182.52 -175.12 
3696 -177.50 -183.34 -175.12 
3697 -175.76 -183.41 -175.12 
3698 -181.50 -183.29 -175.12 
3699 -177.94 -183.17 -175.12 
3700 -178.68 -183.12 -175.12 
3701 -179.61 -182.35 -175.12 
3702 -181.58 -182.30 -175.12 
3703 -180.52 -181.77 -175.12 
3704 -180.52 -182.28 -175.12 
3705 -175.76 -180.86 -175.12 
3706 -183.22 -182.60 -175.12 
3707 -182.36 -181.14 -175.12 
3708 -179.72 -181.15 -175.12 
3709 -179.86 -182.62 -175.12 
3710 -182.21 -182.23 -175.12 
3711 -178.22 -182.16 -175.12 
3712 -179.48 -181.91 -175.12 
3713 -175.05 -182.18 -175.12 
3714 -181.18 -181.84 -175.05 
3715 -178.90 -181.84 -175.05 
3716 -178.84 -181.87 -175.05 
3717 -179.69 -181.96 -175.05 
3718 -180.67 -180.94 -175.05 
3719 -181.04 -182.02 -175.05 
3720 -182.49 -182.07 -175.05 
3721 -180.86 -182.38 -175.05 
3722 -181.12 -182.44 -175.05 
3723 -178.43 -182.50 -175.05 
3724 -182.62 -182.97 -175.05 
3725 -181.06 -183.08 -175.05 
3726 -182.55 -182.90 -175.05 
3727 -179.91 -181.52 -175.05 
3728 -177.52 -181.42 -175.05 
3729 -182.40 -181.19 -175.05 
3730 -181.97 -181.45 -175.05 
3731 -179.77 -181.51 -175.05 
3732 -179.98 -181.46 -175.05 
3733 -182.01 -181.05 -175.05 
3734 -179.79 -182.71 -175.05 
3735 -181.30 -182.79 -175.05 
3736 -181.96 -181.31 -175.05 
3737 -180.70 -182.21 -175.05 
3738 -182.98 -182.50 -175.05 
3739 -182.66 -182.40 -175.05 
3740 -180.44 -182.46 -175.05 
3741 -183.55 -182.53 -175.05 
3742 -180.60 -182.56 -175.05 
3743 -179.57 -182.60 -175.05 
3744 -180.75 -182.51 -175.05 
3745 -176.55 -180.73 -175.05 
3746 -182.34 -180.71 -175.05 
3747 -177.57 -180.81 -175.05 
3748 -178.26 -180.80 -175.05 
3749 -181.41 -180.91 -175.05 
3750 -178.66 -180.65 -175.05 
3751 -183.72 -180.60 -175.05 
3752 -180.74 -181.83 -175.05 
3753 -179.63 -181.82 -175.05 
3754 -177.20 -180.56 -175.05 
3755 -180.40 -180.49 -175.05 
3756 -182.00 -180.43 -175.05 
3757 -179.79 -180.48 -175.05 
3758 -179.82 -180.60 -175.05 
3759 -177.39 -180.69 -175.05 
3760 -178.83 -180.68 -175.05 
3761 -179.03 -180.65 -175.05 
3762 -181.10 -180.66 -175.05 
3763 -180.51 -180.73 -175.05 
3764 -181.63 -180.92 -175.05 
3765 -180.04 -180.93 -175.05 
3766 -179.74 -180.84 -175.05 
3767 -183.45 -180.85 -175.05 
3768 -179.58 -180.81 -175.05 
3769 -181.70 -182.39 -175.05 
3770 -177.46 -182.30 -175.05 
3771 -180.89 -180.71 -175.05 
3772 -181.82 -183.50 -175.05 
3773 -182.88 -183.43 -175.05 
3774 -180.60 -183.34 -175.05 
3775 -176.63 -183.49 -175.05 
3776 -180.40 -182.09 -175.05 
3777 -179.74 -180.61 -175.05 
3778 -181.67 -180.67 -175.05 
3779 -179.55 -183.87 -175.05 
3780 -181.18 -182.64 -175.05 
3781 -179.77 -181.09 -175.05 
3782 -183.22 -181.14 -175.05 
3783 -180.74 -181.07 -175.05 
3784 -180.96 -181.23 -175.05 
3785 -180.37 -183.93 -175.05 
3786 -182.53 -183.63 -175.05 
3787 -179.25 -183.68 -175.05 
3788 -181.74 -183.77 -175.05 
3789 -182.35 -183.60 -175.05 
3790 -182.31 -183.50 -175.05 
3791 -181.08 -183.58 -175.05 
3792 -182.51 -183.33 -175.05 
3793 -178.21 -183.54 -175.05 
3794 -178.98 -183.72 -175.05 
3795 -175.67 -183.42 -175.05 
3796 -178.39 -183.54 -175.05 
3797 -181.69 -183.51 -175.05 
3798 -184.16 -183.10 -175.05 
3799 -181.19 -183.18 -175.05 
3800 -182.30 -183.22 -175.05 
3801 -180.79 -181.63 -175.05 
3802 -181.05 -181.78 -175.05 
3803 -181.06 -181.89 -175.05 
3804 -180.66 -183.25 -175.05 
3805 -183.45 -181.83 -175.05 
3806 -182.80 -181.90 -175.05 
3807 -178.34 -183.30 -175.05 
3808 -181.43 -180.43 -175.05 
3809 -181.25 -180.58 -175.05 
3810 -181.98 -179.10 -175.05 
3811 -178.10 -181.99 -175.05 
3812 -179.87 -180.55 -175.05 
3813 -181.10 -179.36 -175.05 
3814 -184.18 -180.71 -175.05 
3815 -181.80 -179.39 -175.05 
3816 -180.31 -179.45 -175.05 
3817 -183.82 -179.67 -175.05 
3818 -182.13 -181.02 -175.05 
3819 -180.74 -181.13 -175.05 
3820 -179.28 -181.15 -175.05 
3821 -178.60 -181.09 -175.05 
3822 -179.14 -181.16 -175.05 
3823 -181.54 -179.86 -175.05 
3824 -183.60 -180.05 -175.05 
3825 -181.34 -180.12 -175.05 
3826 -182.03 -180.07 -175.05 
3827 -179.86 -179.87 -175.05 
3828 -180.39 -179.75 -175.05 
3829 -178.15 -179.71 -175.05 
3830 -179.95 -179.66 -175.05 
3831 -183.93 -179.76 -175.05 
3832 -179.01 -179.68 -175.05 
3833 -180.69 -179.87 -175.05 
3834 -177.57 -181.15 -175.05 
3835 -178.22 -181.05 -175.05 
3836 -182.01 -182.43 -175.05 
3837 -179.57 -180.93 -175.05 
3838 -180.23 -181.03 -175.05 
3839 -180.94 -179.58 -175.05 
3840 -180.12 -181.06 -175.05 
3841 -180.25 -181.09 -175.05 
3842 -184.77 -182.40 -175.05 
3843 -181.63 -182.41 -175.05 
3844 -177.97 -182.33 -175.05 
3845 -182.64 -182.32 -175.05 
3846 -180.30 -182.33 -175.05 
3847 -180.51 -182.37 -175.05 
3848 -179.23 -182.19 -175.05 
3849 -181.36 -182.15 -175.05 
3850 -179.87 -183.28 -175.05 
3851 -177.76 -181.99 -175.05 
3852 -178.74 -183.50 -175.05 
3853 -179.88 -183.27 -175.05 
3854 -183.84 -183.14 -175.05 
3855 -184.72 -181.87 -175.05 
3856 -181.75 -181.90 -175.05 
3857 -180.78 -181.69 -175.05 
3858 -179.47 -181.84 -175.05 
3859 -179.03 -183.28 -175.05 
3860 -180.15 -181.84 -175.05 
3861 -183.90 -183.22 -175.05 
3862 -180.28 -181.76 -175.05 
3863 -185.27 -183.32 -175.05 
3864 -180.22 -181.86 -175.05 
3865 -180.82 -181.82 -175.05 
3866 -184.03 -181.73 -175.05 
3867 -180.09 -181.70 -175.05 
3868 -178.64 -181.98 -175.05 
3869 -183.31 -180.68 -175.05 
3870 -181.75 -180.83 -175.05 
3871 -180.22 -179.65 -175.05 
3872 -179.66 -181.17 -175.05 
3873 -184.25 -181.24 -175.05 
3874 -181.55 -181.35 -175.05 
3875 -182.59 -181.31 -175.05 
3876 -180.77 -181.39 -175.05 
3877 -182.16 -181.04 -175.05 
3878 -184.47 -181.24 -175.05 
3879 -181.15 -181.24 -175.05 
3880 -180.46 -179.93 -175.05 
3881 -178.02 -179.96 -175.05 
3882 -180.53 -180.02 -175.05 
3883 -181.22 -180.02 -175.05 
3884 -181.28 -180.09 -175.05 
3885 -181.52 -179.81 -175.05 
3886 -183.70 -178.50 -175.05 
3887 -180.08 -178.55 -175.05 
3888 -183.50 -178.53 -175.05 
3889 -180.62 -178.57 -175.05 
3890 -178.35 -178.30 -175.05 
3891 -181.63 -178.17 -175.05 
3892 -181.97 -178.02 -175.05 
3893 -180.18 -178.06 -175.05 
3894 -181.31 -179.95 -175.05 
3895 -180.62 -179.90 -175.05 
3896 -180.29 -179.88 -175.05 
3897 -181.77 -179.97 -175.05 
3898 -181.50 -178.50 -175.05 
3899 -184.95 -180.23 -175.05 
3900 -181.57 -180.12 -175.05 
3901 -183.57 -179.98 -175.05 
3902 -181.48 -179.66 -175.05 
3903 -182.56 -178.34 -175.05 
3904 -179.94 -178.48 -175.05 
3905 -181.39 -180.05 -175.05 
3906 -180.94 -183.07 -175.05 
3907 -179.15 -181.62 -175.05 
3908 -182.00 -178.26 -175.05 
3909 -181.13 -178.46 -175.05 
3910 -179.45 -178.45 -175.05 
3911 -183.36 -178.43 -175.05 
3912 -180.15 -178.45 -175.05 
3913 -180.55 -177.87 -175.05 
3914 -180.49 -179.36 -175.05 
3915 -182.77 -177.88 -175.05 
3916 -177.23 -177.87 -175.05 
3917 -180.70 -179.56 -175.05 
3918 -180.37 -179.58 -175.05 
3919 -179.72 -179.98 -175.05 
3920 -180.70 -179.45 -175.05 
3921 -181.67 -177.98 -175.05 
3922 -179.82 -177.82 -175.05 
3923 -177.92 -177.82 -175.05 
3924 -181.57 -179.23 -175.05 
3925 -181.39 -179.30 -175.05 
3926 -180.93 -181.18 -175.05 
3927 -181.82 -178.18 -175.05 
3928 -182.56 -179.61 -175.05 
3929 -181.19 -179.64 -175.05 
3930 -182.45 -178.17 -175.05 
3931 -177.66 -179.84 -175.05 
3932 -180.57 -179.82 -175.05 
3933 -180.79 -179.87 -175.05 
3934 -181.10 -180.19 -175.05 
3935 -182.36 -180.13 -175.05 
3936 -179.67 -178.42 -175.05 
3937 -182.61 -178.75 -175.05 
3938 -183.84 -180.53 -175.05 
3939 -179.41 -178.84 -175.05 
3940 -179.54 -178.95 -175.05 
3941 -182.23 -178.75 -175.05 
3942 -184.28 -178.71 -175.05 
3943 -180.01 -178.87 -175.05 
3944 -181.30 -178.78 -175.05 
3945 -180.44 -180.17 -175.05 
3946 -177.28 -178.44 -175.05 
3947 -176.24 -178.21 -175.05 
3948 -182.20 -177.94 -175.05 
3949 -184.93 -177.85 -175.05 
3950 -185.68 -177.95 -175.05 
3951 -182.55 -177.97 -175.05 
3952 -181.35 -179.33 -175.05 
3953 -182.79 -179.46 -175.05 
3954 -180.51 -179.49 -175.05 
3955 -179.30 -179.34 -175.05 
3956 -184.44 -179.21 -175.05 
3957 -183.07 -177.80 -175.05 
3958 -182.72 -179.47 -175.05 
3959 -183.38 -179.76 -175.05 
3960 -179.74 -177.90 -175.05 
3961 -181.69 -179.58 -175.05 
3962 -182.03 -179.79 -175.05 
3963 -177.72 -179.75 -175.05 
3964 -181.63 -180.87 -175.05 
3965 -182.70 -180.90 -175.05 
3966 -182.39 -180.89 -175.05 
3967 -183.23 -180.79 -175.05 
3968 -181.50 -180.90 -175.05 
3969 -181.90 -180.92 -175.05 
3970 -181.20 -179.55 -175.05 
3971 -181.87 -179.41 -175.05 
3972 -184.58 -179.44 -175.05 
3973 -178.95 -177.92 -175.05 
3974 -179.87 -180.59 -175.05 
3975 -182.20 -180.61 -175.05 
3976 -182.86 -182.18 -175.05 
3977 -179.27 -180.58 -175.05 
3978 -178.74 -180.49 -175.05 
3979 -183.99 -182.06 -175.05 
3980 -177.80 -180.21 -175.05 
3981 -176.50 -181.65 -175.05 
3982 -181.58 -181.57 -175.05 
3983 -180.70 -181.55 -175.05 
3984 -180.43 -181.82 -175.05 
3985 -182.31 -181.66 -175.05 
3986 -180.11 -181.58 -175.05 
3987 -179.05 -181.68 -175.05 
3988 -181.85 -181.96 -175.05 
3989 -178.88 -182.09 -175.05 
3990 -179.33 -181.96 -175.05 
3991 -182.75 -180.43 -175.05 
3992 -181.95 -178.80 -175.05 
3993 -182.92 -180.37 -175.05 
3994 -176.52 -181.94 -175.05 
3995 -181.67 -181.56 -175.05 
3996 -178.07 -181.40 -175.05 
