Iter | Sampling Pol | Evaluation Pol | Best (Sampled) 
   0 77.12 66.58 -100000000.00 
   1 208.78 79.53 77.12 
   2 312.36 264.53 208.78 
   3 349.17 375.18 312.36 
   4 428.88 564.77 349.17 
   5 515.52 665.37 428.88 
   6 573.30 712.74 515.52 
   7 658.80 730.28 573.30 
   8 655.11 735.06 658.80 
   9 672.76 739.07 658.80 
  10 687.67 743.29 672.76 
  11 706.37 744.36 687.67 
  12 723.79 746.68 706.37 
  13 723.98 747.29 723.79 
  14 733.91 769.01 723.98 
  15 740.29 771.65 733.91 
  16 736.87 772.10 740.29 
  17 740.43 772.88 740.29 
  18 733.80 772.83 740.43 
  19 745.90 772.59 740.43 
  20 747.85 773.07 745.90 
  21 752.04 773.32 747.85 
  22 744.80 774.43 752.04 
  23 754.33 774.58 752.04 
  24 754.00 773.94 754.33 
  25 756.79 774.58 754.33 
  26 754.77 774.28 756.79 
  27 757.13 774.42 756.79 
  28 758.35 774.24 757.13 
  29 760.76 774.56 758.35 
  30 755.96 774.54 760.76 
  31 760.86 774.10 760.76 
  32 761.81 774.24 760.86 
  33 760.18 774.60 761.81 
  34 758.34 774.71 761.81 
  35 757.30 774.89 761.81 
  36 756.47 774.37 761.81 
  37 762.65 774.74 761.81 
  38 758.10 774.64 762.65 
  39 760.67 775.26 762.65 
  40 762.05 775.78 762.65 
  41 762.02 776.48 762.65 
  42 760.54 776.86 762.65 
  43 762.67 777.12 762.65 
  44 762.93 776.75 762.67 
  45 761.85 776.48 762.93 
  46 761.74 776.72 762.93 
  47 762.61 775.85 762.93 
  48 762.20 775.82 762.93 
  49 762.58 776.23 762.93 
  50 763.90 776.13 762.93 
  51 760.34 776.23 763.90 
  52 762.69 776.27 763.90 
  53 761.58 775.77 763.90 
  54 760.11 775.80 763.90 
  55 763.02 775.00 763.90 
  56 762.73 774.97 763.90 
  57 763.51 775.51 763.90 
  58 764.97 775.12 763.90 
  59 763.48 775.61 764.97 
  60 760.48 775.45 764.97 
  61 765.55 774.91 764.97 
  62 768.21 775.42 765.55 
  63 766.54 775.64 768.21 
  64 765.76 775.68 768.21 
  65 763.67 775.86 768.21 
  66 760.39 774.69 768.21 
  67 764.35 774.49 768.21 
  68 764.98 775.21 768.21 
  69 770.33 775.26 768.21 
  70 766.83 775.19 770.33 
  71 764.03 774.97 770.33 
  72 764.24 775.01 770.33 
  73 763.42 774.97 770.33 
  74 767.94 775.11 770.33 
  75 762.63 774.89 770.33 
  76 764.26 774.74 770.33 
  77 761.82 774.78 770.33 
  78 766.46 774.67 770.33 
  79 767.20 775.17 770.33 
  80 764.09 775.02 770.33 
  81 764.96 774.73 770.33 
  82 767.26 774.82 770.33 
  83 762.54 775.29 770.33 
  84 766.52 775.02 770.33 
  85 765.88 774.03 770.33 
  86 766.50 774.27 770.33 
  87 767.18 773.72 770.33 
  88 765.86 774.54 770.33 
  89 764.12 774.33 770.33 
  90 765.86 774.03 770.33 
  91 766.75 773.56 770.33 
  92 765.88 773.22 770.33 
  93 766.94 774.35 770.33 
  94 766.80 773.95 770.33 
  95 768.02 773.92 770.33 
  96 767.97 774.01 770.33 
  97 763.74 773.73 770.33 
  98 766.60 773.43 770.33 
  99 766.49 773.62 770.33 
 100 765.33 774.24 770.33 
 101 766.97 774.28 770.33 
 102 766.01 774.22 770.33 
 103 769.02 774.33 770.33 
 104 767.40 774.04 770.33 
 105 767.18 773.99 770.33 
 106 769.19 774.68 770.33 
 107 767.31 774.82 770.33 
 108 764.13 775.14 770.33 
 109 768.82 775.06 770.33 
 110 765.18 775.32 770.33 
 111 765.83 774.94 770.33 
 112 768.49 774.91 770.33 
 113 768.23 774.72 770.33 
 114 767.30 774.50 770.33 
 115 769.47 774.40 770.33 
 116 766.07 774.69 770.33 
 117 766.97 774.56 770.33 
 118 768.34 774.52 770.33 
 119 768.68 774.49 770.33 
 120 767.24 774.67 770.33 
 121 768.27 774.87 770.33 
 122 770.12 774.82 770.33 
 123 768.58 775.00 770.33 
 124 767.29 775.02 770.33 
 125 766.53 774.95 770.33 
 126 767.36 775.27 770.33 
 127 769.57 775.00 770.33 
 128 770.51 775.15 770.33 
 129 767.44 774.93 770.51 
 130 770.45 774.94 770.51 
 131 769.43 774.92 770.51 
 132 770.14 774.93 770.51 
 133 769.31 774.98 770.51 
 134 769.97 775.32 770.51 
 135 767.80 775.33 770.51 
 136 770.62 775.36 770.51 
 137 768.87 775.31 770.62 
 138 766.07 775.39 770.62 
 139 767.52 775.23 770.62 
 140 769.91 775.15 770.62 
 141 764.97 775.01 770.62 
 142 767.75 774.97 770.62 
 143 769.86 775.07 770.62 
 144 766.84 775.25 770.62 
 145 768.84 775.19 770.62 
 146 766.57 775.18 770.62 
 147 768.33 775.29 770.62 
 148 771.52 775.42 770.62 
 149 766.55 775.32 771.52 
 150 768.93 775.31 771.52 
 151 769.92 775.27 771.52 
 152 766.97 775.40 771.52 
 153 770.70 775.56 771.52 
 154 768.21 775.40 771.52 
 155 769.40 775.19 771.52 
 156 767.11 775.68 771.52 
 157 769.04 775.52 771.52 
 158 771.64 775.35 771.52 
 159 767.97 775.08 771.64 
 160 764.86 775.06 771.64 
 161 769.27 775.30 771.64 
 162 768.02 775.20 771.64 
 163 766.81 775.31 771.64 
 164 769.87 775.24 771.64 
 165 768.81 775.10 771.64 
 166 764.75 775.35 771.64 
 167 771.37 775.29 771.64 
 168 769.54 775.45 771.64 
 169 767.35 775.16 771.64 
 170 767.96 775.22 771.64 
 171 768.25 775.32 771.64 
 172 765.83 775.35 771.64 
 173 770.20 774.85 771.64 
 174 769.39 774.72 771.64 
 175 771.23 774.64 771.64 
 176 769.15 774.62 771.64 
 177 768.30 774.81 771.64 
 178 766.76 774.80 771.64 
 179 770.74 774.74 771.64 
 180 768.01 774.53 771.64 
 181 766.50 775.12 771.64 
 182 770.84 775.61 771.64 
 183 770.74 775.47 771.64 
 184 767.35 775.24 771.64 
 185 768.90 775.80 771.64 
 186 769.26 775.91 771.64 
 187 768.09 776.23 771.64 
 188 767.00 775.96 771.64 
 189 771.49 776.04 771.64 
 190 769.76 776.20 771.64 
 191 767.67 776.04 771.64 
 192 768.27 775.82 771.64 
 193 767.06 775.28 771.64 
 194 768.88 775.35 771.64 
 195 770.02 775.63 771.64 
 196 765.72 775.38 771.64 
 197 769.39 775.21 771.64 
 198 771.04 775.07 771.64 
 199 769.13 775.44 771.64 
 200 769.22 775.08 771.64 
 201 767.18 775.94 771.64 
 202 767.15 776.00 771.64 
 203 767.68 776.00 771.64 
 204 771.02 775.37 771.64 
 205 767.51 775.37 771.64 
 206 768.39 775.88 771.64 
 207 766.86 775.54 771.64 
 208 769.62 775.34 771.64 
 209 768.82 775.66 771.64 
 210 770.08 775.87 771.64 
 211 769.30 775.39 771.64 
 212 767.73 775.76 771.64 
 213 770.53 775.21 771.64 
 214 766.81 775.64 771.64 
 215 767.48 775.59 771.64 
 216 764.62 775.59 771.64 
 217 769.35 775.53 771.64 
 218 770.04 775.47 771.64 
 219 769.52 775.67 771.64 
 220 766.46 775.72 771.64 
 221 771.30 775.59 771.64 
 222 771.14 775.74 771.64 
 223 768.15 775.75 771.64 
 224 767.58 775.77 771.64 
 225 770.58 775.69 771.64 
 226 771.33 775.53 771.64 
 227 772.27 775.54 771.64 
 228 769.83 775.65 772.27 
 229 767.08 775.54 772.27 
 230 771.56 775.85 772.27 
 231 769.57 775.93 772.27 
 232 770.88 775.96 772.27 
 233 769.25 775.74 772.27 
 234 767.54 775.63 772.27 
 235 770.71 775.75 772.27 
 236 768.76 775.48 772.27 
 237 767.45 775.34 772.27 
 238 772.14 775.31 772.27 
 239 768.97 775.07 772.27 
 240 767.94 774.44 772.27 
 241 768.26 774.87 772.27 
 242 767.60 774.81 772.27 
 243 768.69 775.05 772.27 
 244 768.35 775.07 772.27 
 245 769.64 775.29 772.27 
 246 771.46 774.77 772.27 
 247 768.16 774.59 772.27 
 248 770.44 774.82 772.27 
 249 770.68 774.66 772.27 
 250 769.90 775.17 772.27 
 251 768.96 775.10 772.27 
 252 765.56 775.15 772.27 
 253 769.29 774.89 772.27 
 254 768.46 774.92 772.27 
 255 767.22 774.78 772.27 
 256 769.29 774.59 772.27 
 257 771.70 774.80 772.27 
 258 766.07 774.90 772.27 
 259 768.13 774.72 772.27 
 260 771.29 774.76 772.27 
 261 769.72 774.71 772.27 
 262 772.88 774.66 772.27 
 263 769.32 774.68 772.88 
 264 768.26 774.64 772.88 
 265 766.63 774.66 772.88 
 266 770.52 774.75 772.88 
 267 772.42 774.56 772.88 
 268 771.64 774.28 772.88 
 269 769.74 774.21 772.88 
 270 770.45 774.31 772.88 
 271 771.22 774.91 772.88 
 272 771.27 774.74 772.88 
 273 770.73 775.02 772.88 
 274 771.82 774.90 772.88 
 275 767.01 774.86 772.88 
 276 766.66 774.89 772.88 
 277 768.54 774.72 772.88 
 278 768.17 774.68 772.88 
 279 769.94 775.12 772.88 
 280 770.32 775.10 772.88 
 281 770.26 775.09 772.88 
 282 770.65 774.95 772.88 
 283 768.78 774.68 772.88 
 284 770.59 774.76 772.88 
 285 772.04 774.73 772.88 
 286 768.94 774.80 772.88 
 287 771.03 774.42 772.88 
 288 773.27 774.13 772.88 
 289 767.73 774.31 773.27 
 290 768.03 774.38 773.27 
 291 767.55 774.52 773.27 
 292 768.92 774.65 773.27 
 293 770.23 774.97 773.27 
 294 772.41 774.67 773.27 
 295 770.59 774.77 773.27 
 296 766.40 774.86 773.27 
 297 769.54 774.60 773.27 
 298 767.87 774.68 773.27 
 299 771.04 774.48 773.27 
 300 767.88 774.59 773.27 
 301 769.77 774.53 773.27 
 302 767.63 774.15 773.27 
 303 768.21 774.34 773.27 
 304 769.65 774.13 773.27 
 305 765.81 773.91 773.27 
 306 768.44 774.16 773.27 
 307 768.37 774.50 773.27 
 308 773.70 774.46 773.27 
 309 765.02 774.26 773.70 
 310 766.84 774.50 773.70 
 311 769.11 773.78 773.70 
 312 770.09 773.81 773.70 
 313 768.83 773.83 773.70 
 314 763.68 774.17 773.70 
 315 771.72 773.96 773.70 
 316 769.19 773.87 773.70 
 317 767.38 773.21 773.70 
 318 767.64 773.47 773.70 
 319 770.91 773.58 773.70 
 320 771.07 773.82 773.70 
 321 769.17 773.89 773.70 
 322 768.48 774.15 773.70 
 323 772.85 774.55 773.70 
 324 772.25 774.74 773.70 
 325 767.25 774.68 773.70 
 326 769.84 774.61 773.70 
 327 767.89 774.15 773.70 
 328 769.27 774.22 773.70 
 329 768.29 774.27 773.70 
 330 770.15 774.49 773.70 
 331 769.15 774.54 773.70 
 332 769.69 774.11 773.70 
 333 769.00 774.18 773.70 
 334 767.19 774.50 773.70 
 335 764.83 774.40 773.70 
 336 766.81 773.90 773.70 
 337 769.50 774.18 773.70 
 338 766.78 774.52 773.70 
 339 770.74 774.34 773.70 
 340 768.21 774.54 773.70 
 341 769.78 774.71 773.70 
 342 770.55 774.52 773.70 
 343 772.33 774.60 773.70 
 344 771.20 774.51 773.70 
 345 773.28 774.68 773.70 
 346 771.61 774.72 773.70 
 347 767.57 774.60 773.70 
 348 771.11 774.49 773.70 
 349 768.25 774.65 773.70 
 350 769.77 774.83 773.70 
 351 768.11 774.74 773.70 
 352 769.28 774.31 773.70 
 353 772.91 775.09 773.70 
 354 770.58 774.93 773.70 
 355 767.52 774.72 773.70 
 356 769.18 774.47 773.70 
 357 768.73 774.64 773.70 
 358 771.99 774.55 773.70 
 359 769.17 774.06 773.70 
 360 766.89 773.99 773.70 
 361 769.34 773.65 773.70 
 362 766.68 773.78 773.70 
 363 770.79 773.71 773.70 
 364 768.65 773.95 773.70 
 365 770.73 773.70 773.70 
 366 767.56 773.72 773.70 
 367 770.00 773.99 773.70 
 368 769.91 774.22 773.70 
 369 767.18 774.10 773.70 
 370 769.11 774.08 773.70 
 371 771.36 774.26 773.70 
 372 771.71 774.29 773.70 
 373 769.48 773.79 773.70 
 374 770.82 773.81 773.70 
 375 769.69 773.82 773.70 
 376 769.45 773.56 773.70 
 377 769.17 773.84 773.70 
 378 765.32 773.75 773.70 
 379 766.39 773.65 773.70 
 380 771.95 773.74 773.70 
 381 770.00 773.74 773.70 
 382 769.67 774.16 773.70 
 383 769.79 774.01 773.70 
 384 769.25 773.66 773.70 
 385 771.50 773.87 773.70 
 386 767.66 773.85 773.70 
 387 771.92 773.60 773.70 
 388 766.29 773.72 773.70 
 389 769.99 773.59 773.70 
 390 769.40 773.24 773.70 
 391 769.64 774.01 773.70 
 392 773.69 773.34 773.70 
 393 769.81 773.30 773.70 
 394 769.13 773.60 773.70 
 395 772.89 774.08 773.70 
 396 770.71 774.46 773.70 
 397 768.98 774.25 773.70 
 398 766.98 774.11 773.70 
 399 769.29 774.19 773.70 
 400 766.34 774.11 773.70 
 401 769.43 774.13 773.70 
 402 770.81 773.67 773.70 
 403 768.56 773.59 773.70 
 404 768.16 773.17 773.70 
 405 765.78 773.78 773.70 
 406 765.84 773.91 773.70 
 407 767.51 773.76 773.70 
 408 768.71 773.69 773.70 
 409 771.40 773.83 773.70 
 410 769.70 773.85 773.70 
 411 767.83 773.89 773.70 
 412 769.73 774.10 773.70 
 413 766.86 774.02 773.70 
 414 770.93 774.26 773.70 
 415 769.23 774.15 773.70 
 416 769.13 774.18 773.70 
 417 768.94 773.81 773.70 
 418 772.11 774.05 773.70 
 419 767.08 773.73 773.70 
 420 771.75 773.72 773.70 
 421 771.21 773.60 773.70 
 422 768.70 773.76 773.70 
 423 772.30 773.82 773.70 
 424 771.96 774.20 773.70 
 425 769.37 774.54 773.70 
 426 770.48 774.42 773.70 
 427 770.56 774.58 773.70 
 428 770.75 774.82 773.70 
 429 770.18 774.93 773.70 
 430 770.58 774.71 773.70 
 431 768.49 774.33 773.70 
 432 769.62 774.95 773.70 
 433 768.71 775.11 773.70 
 434 771.05 775.16 773.70 
 435 768.62 774.92 773.70 
 436 769.65 774.90 773.70 
 437 767.87 774.87 773.70 
 438 770.47 774.47 773.70 
 439 772.84 774.10 773.70 
 440 767.08 773.91 773.70 
 441 772.80 774.64 773.70 
 442 766.03 774.46 773.70 
 443 768.96 774.83 773.70 
 444 770.25 774.64 773.70 
 445 773.30 774.42 773.70 
 446 771.61 774.10 773.70 
 447 768.35 774.00 773.70 
 448 770.30 774.36 773.70 
 449 767.79 774.33 773.70 
 450 767.04 774.16 773.70 
 451 769.73 774.13 773.70 
 452 769.81 774.03 773.70 
 453 766.85 774.11 773.70 
 454 767.94 774.08 773.70 
 455 768.96 774.18 773.70 
 456 768.13 773.89 773.70 
 457 769.42 773.92 773.70 
 458 768.04 773.90 773.70 
 459 770.47 773.73 773.70 
 460 765.92 773.77 773.70 
 461 772.78 773.92 773.70 
 462 769.56 773.93 773.70 
 463 770.53 774.60 773.70 
 464 769.93 774.37 773.70 
 465 770.40 774.62 773.70 
 466 769.64 774.70 773.70 
 467 770.19 774.46 773.70 
 468 769.42 774.37 773.70 
 469 769.76 774.28 773.70 
 470 768.27 774.52 773.70 
 471 774.57 774.77 773.70 
 472 769.54 774.72 774.57 
 473 767.03 774.22 774.57 
 474 768.13 773.85 774.57 
 475 769.51 774.06 774.57 
 476 771.16 774.34 774.57 
 477 770.45 774.20 774.57 
 478 768.52 774.22 774.57 
 479 770.29 774.31 774.57 
 480 769.87 774.66 774.57 
 481 769.90 774.03 774.57 
 482 770.06 774.04 774.57 
 483 768.66 774.18 774.57 
 484 771.71 773.99 774.57 
 485 769.45 773.62 774.57 
 486 768.75 773.68 774.57 
 487 772.00 774.06 774.57 
 488 769.69 774.31 774.57 
 489 772.19 774.40 774.57 
 490 766.97 774.71 774.57 
 491 774.12 774.61 774.57 
 492 771.33 774.59 774.57 
 493 770.04 774.62 774.57 
 494 772.35 774.64 774.57 
 495 771.55 774.67 774.57 
 496 772.69 774.63 774.57 
 497 770.94 774.86 774.57 
 498 767.62 774.79 774.57 
 499 768.22 774.75 774.57 
 500 773.07 774.74 774.57 
 501 768.68 774.71 774.57 
 502 770.18 774.63 774.57 
 503 766.87 774.55 774.57 
 504 768.45 774.45 774.57 
 505 769.88 774.59 774.57 
 506 770.23 774.52 774.57 
 507 769.04 774.53 774.57 
 508 771.04 774.27 774.57 
 509 771.22 774.34 774.57 
 510 770.21 774.28 774.57 
 511 769.23 774.27 774.57 
 512 772.42 774.02 774.57 
 513 766.72 773.37 774.57 
 514 770.00 773.22 774.57 
 515 769.11 773.23 774.57 
 516 769.43 773.37 774.57 
 517 770.04 773.72 774.57 
 518 767.47 773.62 774.57 
 519 770.56 773.56 774.57 
 520 766.71 773.15 774.57 
 521 768.07 773.37 774.57 
 522 769.09 773.35 774.57 
 523 768.17 773.39 774.57 
 524 769.25 773.10 774.57 
 525 770.07 773.22 774.57 
 526 768.35 773.41 774.57 
 527 770.17 773.18 774.57 
 528 769.52 773.41 774.57 
 529 771.49 773.30 774.57 
 530 767.21 773.20 774.57 
 531 768.42 773.39 774.57 
 532 770.48 773.28 774.57 
 533 773.31 773.72 774.57 
 534 767.22 774.11 774.57 
 535 766.76 773.97 774.57 
 536 770.51 774.23 774.57 
 537 769.69 773.79 774.57 
 538 768.22 773.64 774.57 
 539 773.86 773.75 774.57 
 540 770.14 773.80 774.57 
 541 771.06 774.42 774.57 
 542 773.36 774.38 774.57 
 543 771.03 774.26 774.57 
 544 769.58 773.66 774.57 
 545 768.77 773.30 774.57 
 546 769.66 773.69 774.57 
 547 768.35 773.55 774.57 
 548 770.86 773.65 774.57 
 549 766.11 773.48 774.57 
 550 771.84 773.39 774.57 
 551 770.04 773.53 774.57 
 552 771.03 774.19 774.57 
 553 769.29 774.14 774.57 
 554 772.27 773.91 774.57 
 555 765.93 774.01 774.57 
 556 766.67 774.06 774.57 
 557 768.36 774.13 774.57 
 558 769.94 774.05 774.57 
 559 768.51 774.10 774.57 
 560 767.77 773.81 774.57 
 561 774.60 773.83 774.57 
 562 770.90 773.92 774.60 
 563 768.10 773.84 774.60 
 564 771.36 773.51 774.60 
 565 770.39 773.70 774.60 
 566 770.15 773.97 774.60 
 567 769.82 774.08 774.60 
 568 769.42 774.08 774.60 
 569 770.42 774.68 774.60 
 570 770.92 774.66 774.60 
 571 768.80 774.73 774.60 
 572 766.69 774.74 774.60 
 573 771.17 774.70 774.60 
 574 769.28 774.98 774.60 
 575 770.38 774.80 774.60 
 576 770.24 774.96 774.60 
 577 770.76 774.82 774.60 
 578 769.59 774.76 774.60 
 579 770.89 774.91 774.60 
 580 771.04 774.80 774.60 
 581 769.26 774.42 774.60 
 582 769.06 774.55 774.60 
 583 769.12 774.50 774.60 
 584 767.55 774.36 774.60 
 585 766.92 774.17 774.60 
 586 770.74 773.98 774.60 
 587 770.30 774.08 774.60 
 588 770.46 774.19 774.60 
 589 770.15 774.00 774.60 
 590 770.46 773.78 774.60 
 591 770.48 773.99 774.60 
 592 769.37 774.35 774.60 
 593 770.51 774.08 774.60 
 594 767.47 774.36 774.60 
 595 769.30 774.27 774.60 
 596 769.67 774.13 774.60 
 597 770.09 774.23 774.60 
 598 770.74 774.07 774.60 
 599 769.22 773.96 774.60 
 600 772.34 774.04 774.60 
 601 765.72 774.33 774.60 
 602 769.99 774.07 774.60 
 603 771.31 774.42 774.60 
 604 771.35 774.43 774.60 
 605 771.18 774.05 774.60 
 606 766.08 774.14 774.60 
 607 766.15 774.09 774.60 
 608 770.17 774.10 774.60 
 609 769.11 774.12 774.60 
 610 771.35 774.32 774.60 
 611 769.55 774.16 774.60 
 612 768.33 774.12 774.60 
 613 771.77 774.39 774.60 
 614 770.04 774.62 774.60 
 615 772.09 774.51 774.60 
 616 765.91 774.35 774.60 
 617 769.37 774.64 774.60 
 618 764.64 774.42 774.60 
 619 769.17 774.36 774.60 
 620 769.67 774.31 774.60 
 621 770.48 774.37 774.60 
 622 766.72 774.66 774.60 
 623 768.86 774.37 774.60 
 624 765.19 774.29 774.60 
 625 770.33 774.12 774.60 
 626 766.63 773.74 774.60 
 627 769.50 773.91 774.60 
 628 770.29 773.71 774.60 
 629 771.16 774.18 774.60 
 630 770.72 774.44 774.60 
 631 769.77 774.34 774.60 
 632 770.15 774.16 774.60 
 633 769.92 774.33 774.60 
 634 770.38 774.50 774.60 
 635 766.52 774.60 774.60 
 636 765.29 774.51 774.60 
 637 766.49 774.26 774.60 
 638 770.40 774.16 774.60 
 639 770.59 774.20 774.60 
 640 766.15 774.19 774.60 
 641 770.20 773.83 774.60 
 642 766.72 773.78 774.60 
 643 766.06 773.86 774.60 
 644 771.08 773.97 774.60 
 645 768.02 773.69 774.60 
 646 769.92 774.07 774.60 
 647 768.49 774.11 774.60 
 648 770.18 774.39 774.60 
 649 768.77 774.63 774.60 
 650 770.71 774.72 774.60 
 651 769.09 774.38 774.60 
 652 769.94 774.19 774.60 
 653 767.42 774.28 774.60 
 654 771.37 774.44 774.60 
 655 770.08 774.48 774.60 
 656 770.64 774.12 774.60 
 657 767.49 774.01 774.60 
 658 765.67 773.99 774.60 
 659 771.74 773.85 774.60 
 660 768.84 773.78 774.60 
 661 772.08 774.45 774.60 
 662 771.66 774.25 774.60 
 663 768.05 774.51 774.60 
 664 769.34 774.51 774.60 
 665 766.81 774.11 774.60 
 666 770.12 773.99 774.60 
 667 772.50 774.11 774.60 
 668 769.84 774.12 774.60 
 669 769.12 774.21 774.60 
 670 766.63 773.91 774.60 
 671 773.76 773.53 774.60 
 672 768.64 773.83 774.60 
 673 769.49 774.96 774.60 
 674 771.65 775.02 774.60 
 675 769.31 774.86 774.60 
 676 769.02 775.09 774.60 
 677 769.92 774.86 774.60 
 678 772.52 775.19 774.60 
 679 770.02 775.23 774.60 
 680 769.72 775.12 774.60 
 681 769.97 774.91 774.60 
 682 768.51 774.38 774.60 
 683 771.54 774.39 774.60 
 684 772.22 774.09 774.60 
 685 769.92 774.43 774.60 
 686 767.26 774.36 774.60 
 687 768.86 774.18 774.60 
 688 768.21 773.80 774.60 
 689 766.37 773.65 774.60 
 690 771.57 773.67 774.60 
 691 767.56 773.91 774.60 
 692 771.30 773.91 774.60 
 693 771.05 773.47 774.60 
 694 771.06 773.98 774.60 
 695 768.98 774.30 774.60 
 696 770.21 774.48 774.60 
 697 768.64 774.66 774.60 
 698 769.29 774.28 774.60 
 699 773.53 774.58 774.60 
 700 767.41 774.58 774.60 
 701 771.76 774.49 774.60 
 702 770.50 774.39 774.60 
 703 767.04 774.44 774.60 
 704 771.75 774.25 774.60 
 705 770.58 774.25 774.60 
 706 768.22 774.14 774.60 
 707 769.11 774.42 774.60 
 708 771.82 774.53 774.60 
 709 768.93 774.72 774.60 
 710 768.79 775.00 774.60 
 711 769.17 774.86 774.60 
 712 771.10 775.16 774.60 
 713 772.06 775.02 774.60 
 714 768.04 774.80 774.60 
 715 770.93 775.10 774.60 
 716 768.13 774.63 774.60 
 717 766.43 775.03 774.60 
 718 772.34 775.24 774.60 
 719 767.67 775.30 774.60 
 720 770.21 775.19 774.60 
 721 769.83 775.06 774.60 
 722 769.90 775.01 774.60 
 723 772.19 774.94 774.60 
 724 767.78 774.90 774.60 
 725 772.27 774.93 774.60 
 726 770.68 774.87 774.60 
 727 767.98 774.67 774.60 
 728 769.41 774.75 774.60 
 729 770.52 774.86 774.60 
 730 769.22 774.65 774.60 
 731 770.23 774.45 774.60 
 732 768.03 774.49 774.60 
 733 766.72 774.50 774.60 
 734 769.23 774.62 774.60 
 735 769.49 774.78 774.60 
 736 769.12 775.10 774.60 
 737 770.63 775.21 774.60 
 738 771.22 775.19 774.60 
 739 768.92 775.15 774.60 
 740 767.16 775.26 774.60 
 741 773.03 775.01 774.60 
 742 768.92 774.63 774.60 
 743 768.59 774.28 774.60 
 744 768.41 774.51 774.60 
 745 768.14 775.06 774.60 
 746 767.84 775.11 774.60 
 747 770.92 774.94 774.60 
 748 770.49 775.15 774.60 
 749 768.73 774.65 774.60 
 750 768.72 774.52 774.60 
 751 767.45 774.72 774.60 
 752 772.46 774.77 774.60 
 753 769.22 774.37 774.60 
 754 768.59 774.38 774.60 
 755 770.91 774.24 774.60 
 756 768.85 774.45 774.60 
 757 768.55 774.65 774.60 
 758 770.45 774.61 774.60 
 759 771.06 774.73 774.60 
 760 766.95 774.56 774.60 
 761 770.87 774.66 774.60 
 762 769.54 774.95 774.60 
 763 769.13 774.88 774.60 
 764 766.99 774.83 774.60 
 765 767.70 775.01 774.60 
 766 769.65 775.24 774.60 
 767 768.98 775.10 774.60 
 768 767.47 775.04 774.60 
 769 769.96 775.03 774.60 
 770 770.65 774.69 774.60 
 771 769.86 774.77 774.60 
 772 769.79 774.71 774.60 
 773 769.26 774.72 774.60 
 774 771.87 774.99 774.60 
 775 770.40 775.17 774.60 
 776 770.29 775.19 774.60 
 777 770.32 775.18 774.60 
 778 771.24 775.12 774.60 
 779 767.13 775.27 774.60 
 780 773.31 775.39 774.60 
 781 769.88 775.22 774.60 
 782 768.03 775.10 774.60 
 783 770.87 775.16 774.60 
 784 770.87 775.01 774.60 
 785 768.55 774.76 774.60 
 786 772.25 774.71 774.60 
 787 770.89 774.85 774.60 
 788 772.03 774.24 774.60 
 789 771.45 774.35 774.60 
 790 770.79 774.39 774.60 
 791 772.15 774.54 774.60 
 792 768.76 774.57 774.60 
 793 768.37 774.57 774.60 
 794 772.10 774.37 774.60 
 795 770.95 774.41 774.60 
 796 769.26 774.43 774.60 
 797 769.42 774.32 774.60 
 798 770.72 774.15 774.60 
 799 770.04 774.57 774.60 
 800 769.27 774.55 774.60 
 801 771.09 774.35 774.60 
 802 767.01 774.62 774.60 
 803 771.30 774.66 774.60 
 804 770.30 774.62 774.60 
 805 770.46 774.84 774.60 
 806 767.76 774.62 774.60 
 807 766.75 774.60 774.60 
 808 771.11 774.44 774.60 
 809 769.92 774.36 774.60 
 810 768.99 774.27 774.60 
 811 770.24 773.86 774.60 
 812 767.77 773.98 774.60 
 813 767.37 773.80 774.60 
 814 770.57 774.06 774.60 
 815 767.13 774.32 774.60 
 816 768.81 774.41 774.60 
 817 771.43 774.36 774.60 
 818 772.61 774.26 774.60 
 819 771.22 774.63 774.60 
 820 772.81 774.60 774.60 
 821 770.81 774.51 774.60 
 822 767.95 774.69 774.60 
 823 768.97 774.72 774.60 
 824 771.56 774.00 774.60 
 825 771.96 774.03 774.60 
 826 768.12 773.45 774.60 
 827 771.03 774.24 774.60 
 828 767.54 774.38 774.60 
 829 770.28 774.22 774.60 
 830 765.74 774.11 774.60 
 831 769.12 774.82 774.60 
 832 769.32 774.50 774.60 
 833 771.45 774.69 774.60 
 834 774.12 774.78 774.60 
 835 766.33 774.75 774.60 
 836 768.38 774.83 774.60 
 837 770.46 774.87 774.60 
 838 770.44 774.93 774.60 
 839 771.81 775.11 774.60 
 840 769.96 775.03 774.60 
 841 770.97 774.86 774.60 
 842 772.87 774.85 774.60 
 843 772.22 775.06 774.60 
 844 768.69 775.15 774.60 
 845 768.32 775.24 774.60 
 846 768.74 775.22 774.60 
 847 771.87 775.13 774.60 
 848 769.84 774.74 774.60 
 849 770.87 774.13 774.60 
 850 773.16 774.71 774.60 
 851 765.85 774.53 774.60 
 852 769.91 774.58 774.60 
 853 766.60 774.39 774.60 
 854 771.01 774.88 774.60 
 855 767.88 774.94 774.60 
 856 767.33 775.15 774.60 
 857 771.25 775.15 774.60 
 858 770.36 774.48 774.60 
 859 770.76 774.79 774.60 
 860 770.17 774.71 774.60 
 861 766.62 774.94 774.60 
 862 768.88 774.94 774.60 
 863 769.93 775.13 774.60 
 864 767.63 775.21 774.60 
 865 769.04 775.02 774.60 
 866 768.96 775.05 774.60 
 867 769.77 775.15 774.60 
 868 768.91 775.12 774.60 
 869 769.69 774.96 774.60 
 870 770.26 775.10 774.60 
 871 771.43 774.70 774.60 
 872 767.74 775.15 774.60 
 873 770.79 775.15 774.60 
 874 770.34 774.79 774.60 
 875 768.79 774.82 774.60 
 876 769.89 775.12 774.60 
 877 766.44 775.25 774.60 
 878 773.57 775.00 774.60 
 879 771.13 775.42 774.60 
 880 766.20 775.37 774.60 
 881 772.99 775.25 774.60 
 882 769.13 775.27 774.60 
 883 766.13 775.42 774.60 
 884 768.03 775.51 774.60 
 885 767.69 775.25 774.60 
 886 770.56 775.50 774.60 
 887 770.39 775.41 774.60 
 888 771.00 775.23 774.60 
 889 767.63 775.57 774.60 
 890 769.43 775.83 774.60 
 891 770.76 775.72 774.60 
 892 772.35 775.88 774.60 
 893 770.90 775.90 774.60 
 894 770.39 775.45 774.60 
 895 769.85 775.56 774.60 
 896 769.96 775.52 774.60 
 897 773.35 775.95 774.60 
 898 766.01 775.58 774.60 
 899 771.04 775.42 774.60 
 900 768.75 775.60 774.60 
 901 767.10 775.77 774.60 
 902 770.96 775.72 774.60 
 903 772.25 775.69 774.60 
 904 770.58 775.69 774.60 
 905 770.70 775.56 774.60 
 906 768.67 775.41 774.60 
 907 767.64 775.45 774.60 
 908 773.62 775.18 774.60 
 909 768.87 775.26 774.60 
 910 771.08 774.95 774.60 
 911 770.90 775.07 774.60 
 912 769.29 774.85 774.60 
 913 771.22 775.30 774.60 
 914 767.45 775.31 774.60 
 915 769.79 775.24 774.60 
 916 766.11 775.22 774.60 
 917 768.54 775.28 774.60 
 918 768.97 775.27 774.60 
 919 770.48 775.26 774.60 
 920 767.90 775.18 774.60 
 921 768.13 775.22 774.60 
 922 769.52 775.02 774.60 
 923 770.22 775.20 774.60 
 924 770.64 775.13 774.60 
 925 767.46 775.08 774.60 
 926 770.20 775.39 774.60 
 927 768.74 775.37 774.60 
 928 766.33 775.41 774.60 
 929 772.18 775.46 774.60 
 930 769.62 775.44 774.60 
 931 769.56 775.30 774.60 
 932 770.31 775.30 774.60 
 933 770.56 775.38 774.60 
 934 769.93 775.42 774.60 
 935 768.39 775.38 774.60 
 936 768.24 775.21 774.60 
 937 770.24 774.97 774.60 
 938 767.91 775.00 774.60 
 939 774.01 774.43 774.60 
 940 768.41 774.80 774.60 
 941 769.76 774.94 774.60 
 942 769.91 774.88 774.60 
 943 768.60 774.88 774.60 
 944 768.48 774.75 774.60 
 945 771.43 774.76 774.60 
 946 773.00 774.58 774.60 
 947 769.04 774.62 774.60 
 948 767.75 774.21 774.60 
 949 771.86 774.38 774.60 
 950 772.87 774.39 774.60 
 951 771.45 774.22 774.60 
 952 769.61 774.60 774.60 
 953 769.84 774.71 774.60 
 954 773.14 774.93 774.60 
 955 771.22 774.82 774.60 
 956 770.77 774.85 774.60 
 957 769.79 774.72 774.60 
 958 769.18 774.48 774.60 
 959 769.80 774.63 774.60 
 960 767.33 774.92 774.60 
 961 768.44 774.93 774.60 
 962 769.65 775.09 774.60 
 963 768.15 774.98 774.60 
 964 773.48 774.72 774.60 
 965 770.39 774.86 774.60 
 966 768.53 774.55 774.60 
 967 772.63 774.68 774.60 
 968 770.30 774.65 774.60 
 969 768.50 774.46 774.60 
 970 770.70 774.63 774.60 
 971 765.74 774.37 774.60 
 972 769.96 774.67 774.60 
 973 769.78 774.58 774.60 
 974 771.54 774.53 774.60 
 975 769.13 774.84 774.60 
 976 768.77 775.23 774.60 
 977 768.50 775.20 774.60 
 978 769.55 774.98 774.60 
 979 767.52 775.16 774.60 
 980 772.01 774.89 774.60 
 981 769.87 774.90 774.60 
 982 773.68 775.34 774.60 
 983 772.68 775.36 774.60 
 984 769.05 775.42 774.60 
 985 768.50 775.22 774.60 
 986 771.83 775.19 774.60 
 987 768.68 775.13 774.60 
 988 770.81 775.18 774.60 
 989 770.94 775.45 774.60 
 990 770.39 775.43 774.60 
 991 767.18 775.74 774.60 
 992 771.44 775.60 774.60 
 993 770.48 775.35 774.60 
 994 767.16 775.43 774.60 
 995 773.54 775.79 774.60 
 996 771.52 775.67 774.60 
 997 771.51 775.96 774.60 
 998 767.74 775.88 774.60 
 999 769.84 775.59 774.60 
1000 769.05 775.53 774.60 
1001 769.47 775.42 774.60 
1002 769.73 775.82 774.60 
1003 768.22 775.79 774.60 
1004 770.13 775.77 774.60 
1005 768.85 775.85 774.60 
1006 766.52 775.40 774.60 
1007 768.50 775.17 774.60 
1008 770.40 774.88 774.60 
1009 769.47 774.96 774.60 
1010 769.96 775.40 774.60 
1011 768.13 775.29 774.60 
1012 768.31 775.40 774.60 
1013 767.89 775.38 774.60 
1014 770.03 775.64 774.60 
1015 771.75 775.51 774.60 
1016 767.49 775.78 774.60 
1017 770.67 775.96 774.60 
1018 771.50 775.97 774.60 
1019 770.26 775.71 774.60 
1020 770.06 775.68 774.60 
1021 769.92 775.71 774.60 
1022 770.67 775.76 774.60 
1023 770.54 775.69 774.60 
1024 768.58 775.64 774.60 
1025 766.40 775.60 774.60 
1026 770.25 775.65 774.60 
1027 774.79 775.21 774.60 
1028 765.76 775.46 774.79 
1029 769.79 775.31 774.79 
1030 770.82 775.39 774.79 
1031 769.06 775.69 774.79 
1032 771.00 775.68 774.79 
1033 766.25 775.61 774.79 
1034 768.08 775.95 774.79 
1035 767.91 776.04 774.79 
1036 764.48 776.11 774.79 
1037 771.43 775.98 774.79 
1038 770.50 775.69 774.79 
1039 770.90 776.10 774.79 
1040 768.00 776.23 774.79 
1041 767.62 776.15 774.79 
1042 771.56 775.88 774.79 
1043 771.62 775.65 774.79 
1044 768.11 775.24 774.79 
1045 769.07 775.29 774.79 
1046 769.68 774.71 774.79 
1047 766.24 775.27 774.79 
1048 769.53 774.94 774.79 
1049 768.79 774.87 774.79 
1050 767.68 775.06 774.79 
1051 770.23 774.71 774.79 
1052 772.17 774.30 774.79 
1053 769.30 774.23 774.79 
1054 767.17 774.44 774.79 
1055 767.99 773.95 774.79 
1056 770.42 773.83 774.79 
1057 770.73 773.95 774.79 
1058 767.89 774.04 774.79 
1059 770.44 774.08 774.79 
1060 768.17 774.22 774.79 
1061 770.43 774.36 774.79 
1062 770.18 774.39 774.79 
1063 767.00 774.39 774.79 
1064 767.79 774.28 774.79 
1065 771.83 774.41 774.79 
1066 768.34 774.68 774.79 
1067 767.75 775.08 774.79 
1068 770.56 775.20 774.79 
1069 766.69 775.40 774.79 
1070 769.11 775.23 774.79 
1071 769.61 775.06 774.79 
1072 767.84 775.33 774.79 
1073 768.43 775.24 774.79 
1074 766.42 775.19 774.79 
1075 773.74 775.46 774.79 
1076 772.71 775.51 774.79 
1077 770.46 775.06 774.79 
1078 769.49 775.20 774.79 
1079 770.28 775.02 774.79 
1080 767.40 774.63 774.79 
1081 769.32 774.90 774.79 
1082 766.69 774.75 774.79 
1083 767.06 774.97 774.79 
1084 768.44 774.97 774.79 
1085 768.98 775.11 774.79 
1086 768.72 775.23 774.79 
1087 769.44 775.11 774.79 
1088 767.89 775.19 774.79 
1089 772.25 775.12 774.79 
1090 766.61 775.11 774.79 
1091 771.84 775.09 774.79 
1092 768.10 774.93 774.79 
1093 770.71 774.81 774.79 
1094 767.81 774.83 774.79 
1095 771.51 775.15 774.79 
1096 766.68 775.23 774.79 
1097 770.20 775.43 774.79 
1098 767.84 775.47 774.79 
1099 769.94 775.50 774.79 
1100 770.98 775.76 774.79 
1101 769.53 775.35 774.79 
1102 766.14 775.89 774.79 
1103 769.10 776.00 774.79 
1104 771.63 775.98 774.79 
1105 766.42 775.62 774.79 
1106 768.42 775.64 774.79 
1107 770.54 775.72 774.79 
1108 768.94 775.89 774.79 
1109 769.22 775.71 774.79 
1110 769.36 775.88 774.79 
1111 770.11 775.74 774.79 
1112 770.98 775.68 774.79 
1113 770.90 775.78 774.79 
1114 768.92 775.77 774.79 
1115 767.94 775.76 774.79 
1116 770.29 775.78 774.79 
1117 772.12 775.91 774.79 
1118 772.80 775.84 774.79 
1119 770.69 775.62 774.79 
1120 768.49 775.62 774.79 
1121 766.99 775.56 774.79 
1122 772.37 775.76 774.79 
1123 766.33 775.81 774.79 
1124 770.85 775.94 774.79 
1125 770.64 775.78 774.79 
1126 770.24 775.74 774.79 
1127 769.40 775.71 774.79 
1128 767.09 775.48 774.79 
1129 769.66 775.47 774.79 
1130 770.39 775.46 774.79 
1131 768.62 775.59 774.79 
1132 769.18 775.56 774.79 
1133 770.87 775.51 774.79 
1134 767.49 775.31 774.79 
1135 772.24 775.58 774.79 
1136 769.86 775.73 774.79 
1137 771.69 775.75 774.79 
1138 769.67 775.66 774.79 
1139 770.15 775.68 774.79 
1140 768.03 775.24 774.79 
1141 768.70 775.24 774.79 
1142 771.07 775.11 774.79 
1143 768.74 774.93 774.79 
1144 769.42 774.79 774.79 
1145 770.06 774.86 774.79 
1146 770.67 774.96 774.79 
1147 769.41 775.01 774.79 
1148 768.16 775.00 774.79 
1149 773.60 775.10 774.79 
1150 770.27 775.26 774.79 
1151 769.17 775.63 774.79 
1152 771.50 775.63 774.79 
1153 774.12 775.71 774.79 
1154 767.50 775.52 774.79 
1155 770.86 775.82 774.79 
1156 770.08 775.88 774.79 
1157 768.86 775.88 774.79 
1158 770.60 776.12 774.79 
1159 766.28 775.82 774.79 
1160 769.76 775.61 774.79 
1161 770.34 775.17 774.79 
1162 771.57 774.76 774.79 
1163 766.64 774.42 774.79 
1164 767.18 774.26 774.79 
1165 769.33 774.59 774.79 
1166 770.13 775.03 774.79 
1167 772.52 775.14 774.79 
1168 770.01 774.95 774.79 
1169 768.22 775.16 774.79 
1170 771.45 775.10 774.79 
1171 766.58 775.07 774.79 
1172 772.97 774.96 774.79 
1173 768.07 774.82 774.79 
1174 772.30 774.33 774.79 
1175 767.65 775.08 774.79 
1176 771.88 774.96 774.79 
1177 769.82 774.78 774.79 
1178 770.10 774.38 774.79 
1179 767.76 774.51 774.79 
1180 772.49 774.75 774.79 
1181 772.50 774.82 774.79 
1182 768.61 774.78 774.79 
1183 770.41 774.89 774.79 
1184 769.36 775.11 774.79 
1185 770.24 775.29 774.79 
1186 771.23 775.34 774.79 
1187 771.47 775.28 774.79 
1188 770.02 775.43 774.79 
1189 770.60 775.24 774.79 
1190 769.96 774.98 774.79 
1191 771.49 774.97 774.79 
1192 769.57 774.61 774.79 
1193 772.37 774.99 774.79 
1194 770.01 774.83 774.79 
1195 769.57 774.99 774.79 
1196 769.11 775.10 774.79 
1197 772.14 775.26 774.79 
1198 772.00 775.18 774.79 
1199 769.32 775.14 774.79 
1200 771.85 774.83 774.79 
1201 772.47 775.02 774.79 
1202 772.57 774.70 774.79 
1203 769.35 775.00 774.79 
1204 770.71 774.97 774.79 
1205 770.96 775.12 774.79 
1206 767.94 775.19 774.79 
1207 772.26 774.96 774.79 
1208 771.03 774.97 774.79 
1209 768.60 774.98 774.79 
1210 768.29 774.95 774.79 
1211 769.84 774.99 774.79 
1212 770.83 775.03 774.79 
1213 770.50 775.01 774.79 
1214 764.84 775.20 774.79 
1215 768.34 775.27 774.79 
1216 774.22 775.28 774.79 
1217 769.63 775.05 774.79 
1218 767.98 774.83 774.79 
1219 771.32 774.69 774.79 
1220 773.70 774.83 774.79 
1221 769.30 774.77 774.79 
1222 768.30 774.84 774.79 
1223 770.00 774.86 774.79 
1224 767.66 774.89 774.79 
1225 770.38 774.79 774.79 
1226 771.69 774.89 774.79 
1227 770.24 774.72 774.79 
1228 769.16 774.86 774.79 
1229 770.53 775.28 774.79 
1230 769.81 775.43 774.79 
1231 772.66 775.32 774.79 
1232 772.52 774.73 774.79 
1233 770.65 774.90 774.79 
1234 767.31 774.84 774.79 
1235 770.24 774.96 774.79 
1236 771.50 775.07 774.79 
1237 768.77 774.82 774.79 
1238 770.11 775.02 774.79 
1239 769.91 775.03 774.79 
1240 770.95 775.09 774.79 
1241 768.23 774.97 774.79 
1242 771.95 774.94 774.79 
1243 770.83 775.08 774.79 
1244 774.75 774.89 774.79 
1245 770.65 774.90 774.79 
1246 769.59 774.79 774.79 
1247 770.50 774.81 774.79 
1248 770.42 774.79 774.79 
1249 768.67 774.69 774.79 
1250 770.50 774.69 774.79 
1251 771.10 774.65 774.79 
1252 771.93 774.74 774.79 
1253 772.48 774.51 774.79 
1254 768.19 774.09 774.79 
1255 769.95 774.71 774.79 
1256 768.90 775.03 774.79 
1257 771.38 774.92 774.79 
1258 769.46 774.99 774.79 
1259 772.05 774.86 774.79 
1260 770.15 774.72 774.79 
1261 765.74 775.06 774.79 
1262 766.90 775.34 774.79 
1263 769.25 775.25 774.79 
1264 770.52 775.24 774.79 
1265 771.24 775.45 774.79 
1266 771.13 775.50 774.79 
1267 772.03 775.59 774.79 
1268 771.32 775.37 774.79 
1269 769.76 775.38 774.79 
1270 769.35 775.34 774.79 
1271 770.34 775.24 774.79 
1272 772.44 775.25 774.79 
1273 767.71 775.37 774.79 
1274 770.08 775.43 774.79 
1275 771.57 775.43 774.79 
1276 771.91 775.51 774.79 
1277 768.31 775.54 774.79 
1278 770.27 775.73 774.79 
1279 769.34 775.76 774.79 
1280 771.39 775.87 774.79 
1281 772.75 775.75 774.79 
1282 769.75 775.63 774.79 
1283 768.54 775.63 774.79 
1284 770.93 775.34 774.79 
1285 769.78 775.40 774.79 
1286 768.61 775.49 774.79 
1287 768.33 775.36 774.79 
1288 768.93 775.19 774.79 
1289 771.61 775.28 774.79 
1290 768.51 775.16 774.79 
1291 772.07 775.15 774.79 
1292 771.45 774.87 774.79 
1293 770.58 774.89 774.79 
1294 769.95 774.99 774.79 
1295 768.93 774.97 774.79 
1296 769.89 775.10 774.79 
1297 769.01 775.22 774.79 
1298 771.43 775.52 774.79 
1299 769.74 775.55 774.79 
1300 769.49 775.69 774.79 
1301 770.04 775.73 774.79 
1302 769.86 775.60 774.79 
1303 767.65 775.34 774.79 
1304 769.23 775.47 774.79 
1305 772.07 775.58 774.79 
1306 772.54 775.70 774.79 
1307 769.43 775.65 774.79 
1308 769.72 775.53 774.79 
1309 768.55 775.78 774.79 
1310 772.93 776.05 774.79 
1311 772.33 776.13 774.79 
1312 771.16 776.26 774.79 
1313 773.59 776.42 774.79 
1314 767.94 776.37 774.79 
1315 770.72 776.41 774.79 
1316 767.47 776.34 774.79 
1317 769.62 776.35 774.79 
1318 769.52 776.29 774.79 
1319 772.19 776.21 774.79 
1320 770.42 776.21 774.79 
1321 769.49 776.30 774.79 
1322 768.23 776.27 774.79 
1323 768.39 776.22 774.79 
1324 774.00 776.34 774.79 
1325 767.67 776.36 774.79 
1326 770.85 776.44 774.79 
1327 773.28 776.49 774.79 
1328 767.93 776.58 774.79 
1329 771.25 776.49 774.79 
1330 768.89 776.44 774.79 
1331 771.85 776.56 774.79 
1332 770.02 776.65 774.79 
1333 771.42 776.59 774.79 
1334 768.88 776.93 774.79 
1335 768.54 776.61 774.79 
1336 768.23 776.59 774.79 
1337 769.89 776.70 774.79 
1338 767.20 776.97 774.79 
1339 771.50 776.62 774.79 
1340 769.11 777.02 774.79 
1341 768.66 777.22 774.79 
1342 769.87 777.05 774.79 
1343 768.88 776.99 774.79 
1344 766.53 776.86 774.79 
1345 772.93 777.00 774.79 
1346 773.23 776.52 774.79 
1347 769.26 776.76 774.79 
1348 771.52 776.40 774.79 
1349 769.77 776.93 774.79 
1350 769.52 776.89 774.79 
1351 773.59 776.70 774.79 
1352 771.04 776.45 774.79 
1353 769.94 776.59 774.79 
1354 769.48 776.53 774.79 
1355 771.10 776.22 774.79 
1356 769.27 776.37 774.79 
1357 768.78 776.16 774.79 
1358 767.17 776.47 774.79 
1359 768.78 776.78 774.79 
1360 768.54 776.58 774.79 
1361 770.55 776.52 774.79 
1362 768.42 776.75 774.79 
1363 769.07 776.38 774.79 
1364 768.02 776.39 774.79 
1365 770.21 776.55 774.79 
1366 770.67 776.38 774.79 
1367 766.97 776.46 774.79 
1368 773.46 776.30 774.79 
1369 771.67 776.23 774.79 
1370 769.97 776.26 774.79 
1371 770.01 776.50 774.79 
1372 767.84 776.54 774.79 
1373 771.53 776.40 774.79 
1374 771.94 776.47 774.79 
1375 771.71 776.33 774.79 
1376 770.86 776.17 774.79 
1377 769.76 776.03 774.79 
1378 769.30 776.17 774.79 
1379 768.95 776.09 774.79 
1380 769.64 776.35 774.79 
1381 770.68 776.43 774.79 
1382 770.96 776.27 774.79 
1383 771.71 776.42 774.79 
1384 769.08 776.36 774.79 
1385 768.84 776.53 774.79 
1386 770.63 776.41 774.79 
1387 771.05 776.29 774.79 
1388 769.08 776.44 774.79 
1389 773.45 776.39 774.79 
1390 771.08 775.99 774.79 
1391 770.94 776.47 774.79 
1392 768.68 776.41 774.79 
1393 771.93 776.64 774.79 
1394 769.73 776.68 774.79 
1395 771.89 776.67 774.79 
1396 771.77 776.66 774.79 
1397 770.28 776.67 774.79 
1398 770.20 776.33 774.79 
1399 772.25 776.68 774.79 
1400 769.93 776.60 774.79 
1401 767.66 776.41 774.79 
1402 772.37 776.49 774.79 
1403 770.28 776.48 774.79 
1404 771.70 776.53 774.79 
1405 769.92 776.62 774.79 
1406 769.98 776.24 774.79 
1407 770.52 776.23 774.79 
1408 770.14 776.55 774.79 
1409 768.14 776.51 774.79 
1410 767.29 776.49 774.79 
1411 768.05 776.59 774.79 
1412 766.96 776.77 774.79 
1413 769.07 776.77 774.79 
1414 769.10 776.85 774.79 
1415 766.84 776.83 774.79 
1416 769.03 776.60 774.79 
1417 770.12 776.86 774.79 
1418 772.68 776.90 774.79 
1419 768.31 776.86 774.79 
1420 768.90 776.64 774.79 
1421 771.29 776.86 774.79 
1422 768.64 776.91 774.79 
1423 767.47 776.90 774.79 
1424 769.78 776.83 774.79 
1425 770.15 776.50 774.79 
1426 770.98 776.77 774.79 
1427 767.43 776.56 774.79 
1428 770.48 776.72 774.79 
1429 769.27 776.79 774.79 
1430 769.87 776.88 774.79 
1431 771.82 776.77 774.79 
1432 772.69 776.72 774.79 
1433 770.71 776.78 774.79 
1434 767.82 776.78 774.79 
1435 770.67 776.65 774.79 
1436 769.63 776.61 774.79 
1437 771.12 776.86 774.79 
1438 768.76 776.66 774.79 
1439 772.60 776.69 774.79 
1440 769.15 776.68 774.79 
1441 770.25 776.57 774.79 
1442 768.70 776.67 774.79 
1443 771.68 776.67 774.79 
1444 767.87 776.53 774.79 
1445 768.66 776.83 774.79 
1446 770.02 776.65 774.79 
1447 769.14 776.76 774.79 
1448 768.51 776.54 774.79 
1449 775.57 776.50 774.79 
1450 767.93 776.46 775.57 
1451 770.14 776.53 775.57 
1452 769.13 776.48 775.57 
1453 770.13 776.35 775.57 
1454 771.86 776.62 775.57 
1455 768.25 776.32 775.57 
1456 773.21 776.20 775.57 
1457 771.35 775.97 775.57 
1458 771.40 775.87 775.57 
1459 769.22 775.95 775.57 
1460 771.02 776.05 775.57 
1461 769.42 775.92 775.57 
1462 770.09 775.98 775.57 
1463 771.10 775.95 775.57 
1464 767.72 775.90 775.57 
1465 769.98 775.87 775.57 
1466 774.75 776.04 775.57 
1467 771.75 776.11 775.57 
1468 770.40 776.04 775.57 
1469 769.82 775.99 775.57 
1470 769.55 776.01 775.57 
1471 769.61 776.15 775.57 
1472 771.02 776.02 775.57 
1473 768.78 775.95 775.57 
1474 768.36 775.97 775.57 
1475 770.00 776.01 775.57 
1476 769.75 776.05 775.57 
1477 770.11 775.98 775.57 
1478 771.57 775.98 775.57 
1479 769.30 775.96 775.57 
1480 768.77 776.00 775.57 
1481 769.32 775.95 775.57 
1482 772.28 775.81 775.57 
1483 770.01 775.96 775.57 
1484 768.80 775.96 775.57 
1485 769.67 775.96 775.57 
1486 771.01 776.11 775.57 
1487 769.88 776.10 775.57 
1488 769.91 775.91 775.57 
1489 771.00 775.69 775.57 
1490 767.85 775.78 775.57 
1491 770.60 776.04 775.57 
1492 769.28 775.88 775.57 
1493 773.92 775.70 775.57 
1494 768.88 776.01 775.57 
1495 769.10 775.95 775.57 
1496 770.44 776.03 775.57 
1497 771.85 776.04 775.57 
1498 771.50 776.32 775.57 
1499 772.00 776.09 775.57 
1500 765.60 776.16 775.57 
1501 769.31 776.14 775.57 
1502 770.12 776.21 775.57 
1503 770.75 776.20 775.57 
1504 769.37 776.11 775.57 
1505 769.30 776.06 775.57 
1506 771.86 776.06 775.57 
1507 770.01 776.20 775.57 
1508 769.19 776.08 775.57 
1509 770.89 776.15 775.57 
1510 767.10 776.20 775.57 
1511 771.63 776.17 775.57 
1512 768.50 776.03 775.57 
1513 768.76 776.04 775.57 
1514 768.84 775.83 775.57 
1515 768.27 775.85 775.57 
1516 772.77 775.47 775.57 
1517 770.03 775.46 775.57 
1518 772.18 775.84 775.57 
1519 768.09 775.62 775.57 
1520 769.02 775.85 775.57 
1521 771.51 776.21 775.57 
1522 766.98 775.81 775.57 
1523 769.01 776.16 775.57 
1524 770.69 775.77 775.57 
1525 771.86 775.84 775.57 
1526 770.03 775.73 775.57 
1527 770.30 775.79 775.57 
1528 769.37 775.77 775.57 
1529 768.10 775.75 775.57 
1530 770.85 775.62 775.57 
1531 767.92 775.64 775.57 
1532 766.80 776.22 775.57 
1533 766.78 775.61 775.57 
1534 772.82 775.71 775.57 
1535 769.21 775.95 775.57 
1536 771.12 775.93 775.57 
1537 770.54 776.02 775.57 
1538 769.63 775.67 775.57 
1539 767.42 775.89 775.57 
1540 768.39 775.90 775.57 
1541 769.55 775.93 775.57 
1542 771.04 775.75 775.57 
1543 768.60 775.96 775.57 
1544 767.30 776.04 775.57 
1545 771.03 775.85 775.57 
1546 769.28 775.92 775.57 
1547 770.79 775.92 775.57 
1548 769.44 775.73 775.57 
1549 768.15 775.74 775.57 
1550 766.86 775.96 775.57 
1551 768.82 775.98 775.57 
1552 768.08 775.88 775.57 
1553 769.88 776.33 775.57 
1554 767.66 775.82 775.57 
1555 767.83 775.87 775.57 
1556 769.04 775.97 775.57 
1557 769.98 775.89 775.57 
1558 771.31 775.69 775.57 
1559 770.15 775.72 775.57 
1560 770.14 775.94 775.57 
1561 770.60 775.75 775.57 
1562 768.71 775.85 775.57 
1563 767.52 775.77 775.57 
1564 769.37 775.64 775.57 
1565 768.77 775.60 775.57 
1566 766.90 775.78 775.57 
1567 767.30 775.89 775.57 
1568 769.63 775.89 775.57 
1569 769.33 775.46 775.57 
1570 770.27 775.63 775.57 
1571 769.55 775.98 775.57 
1572 768.55 775.60 775.57 
1573 767.30 775.86 775.57 
1574 772.92 775.71 775.57 
1575 769.99 775.30 775.57 
1576 767.74 775.61 775.57 
1577 770.63 775.36 775.57 
1578 770.66 775.14 775.57 
1579 770.77 775.11 775.57 
1580 769.69 775.18 775.57 
1581 771.09 774.98 775.57 
1582 770.80 775.20 775.57 
1583 769.35 775.20 775.57 
1584 768.65 775.26 775.57 
1585 768.42 775.20 775.57 
1586 765.35 775.22 775.57 
1587 766.96 775.16 775.57 
1588 771.85 775.23 775.57 
1589 770.16 775.03 775.57 
1590 770.08 775.34 775.57 
1591 774.26 775.31 775.57 
1592 768.56 775.24 775.57 
1593 771.57 775.16 775.57 
1594 768.99 775.34 775.57 
1595 767.70 775.24 775.57 
1596 769.26 775.38 775.57 
1597 767.79 775.31 775.57 
1598 769.84 775.13 775.57 
1599 769.29 774.80 775.57 
1600 770.64 774.89 775.57 
1601 770.58 775.02 775.57 
1602 768.23 774.97 775.57 
1603 766.58 775.13 775.57 
1604 769.91 775.25 775.57 
1605 771.93 775.40 775.57 
1606 771.78 775.49 775.57 
1607 770.33 775.59 775.57 
1608 772.62 775.21 775.57 
1609 766.97 775.44 775.57 
1610 772.87 775.04 775.57 
1611 770.13 775.10 775.57 
1612 769.25 775.36 775.57 
1613 773.54 775.46 775.57 
1614 772.11 775.30 775.57 
1615 771.13 775.13 775.57 
1616 771.49 774.99 775.57 
1617 772.78 775.29 775.57 
1618 770.33 775.11 775.57 
1619 769.75 774.69 775.57 
1620 770.83 774.91 775.57 
1621 769.25 775.04 775.57 
1622 770.31 774.76 775.57 
1623 767.36 774.87 775.57 
1624 773.48 774.86 775.57 
1625 768.07 775.13 775.57 
1626 771.56 775.05 775.57 
1627 766.97 775.25 775.57 
1628 771.39 775.26 775.57 
1629 771.98 775.20 775.57 
1630 770.07 775.05 775.57 
1631 769.48 774.97 775.57 
1632 770.58 775.28 775.57 
1633 768.07 774.93 775.57 
1634 769.43 775.02 775.57 
1635 768.22 774.85 775.57 
1636 769.87 774.88 775.57 
1637 772.13 775.11 775.57 
1638 769.98 775.05 775.57 
1639 772.84 775.13 775.57 
1640 770.01 775.04 775.57 
1641 770.52 775.01 775.57 
1642 769.99 775.46 775.57 
1643 772.03 775.42 775.57 
1644 772.17 775.42 775.57 
1645 767.85 775.17 775.57 
1646 772.23 775.58 775.57 
1647 772.98 775.07 775.57 
1648 771.94 775.17 775.57 
1649 770.56 774.93 775.57 
1650 769.52 775.12 775.57 
1651 768.61 774.87 775.57 
1652 769.81 774.95 775.57 
1653 770.41 775.05 775.57 
1654 771.59 775.23 775.57 
1655 769.20 775.28 775.57 
1656 769.78 775.68 775.57 
1657 770.52 775.32 775.57 
1658 768.15 775.12 775.57 
1659 769.87 774.96 775.57 
1660 769.68 775.07 775.57 
1661 770.84 775.05 775.57 
1662 769.58 775.14 775.57 
1663 769.84 774.72 775.57 
1664 768.92 774.89 775.57 
1665 771.04 775.31 775.57 
1666 770.21 775.47 775.57 
1667 772.17 775.36 775.57 
1668 770.90 775.61 775.57 
1669 766.77 775.44 775.57 
1670 764.81 775.11 775.57 
1671 771.98 775.43 775.57 
1672 768.39 775.07 775.57 
1673 773.15 775.13 775.57 
1674 768.78 775.21 775.57 
1675 769.10 775.22 775.57 
1676 770.47 775.41 775.57 
1677 770.67 775.36 775.57 
1678 769.61 775.41 775.57 
1679 765.98 775.51 775.57 
1680 766.64 775.51 775.57 
1681 768.46 775.32 775.57 
1682 771.48 775.18 775.57 
1683 770.76 774.89 775.57 
1684 769.43 774.82 775.57 
1685 768.91 775.10 775.57 
1686 768.26 775.14 775.57 
1687 771.66 775.23 775.57 
1688 770.40 775.33 775.57 
1689 769.86 775.18 775.57 
1690 770.01 775.27 775.57 
1691 769.15 775.48 775.57 
1692 771.87 775.55 775.57 
1693 769.25 775.41 775.57 
1694 770.22 775.35 775.57 
1695 769.15 775.49 775.57 
1696 770.83 775.58 775.57 
1697 768.58 775.44 775.57 
1698 771.05 775.14 775.57 
1699 769.08 775.03 775.57 
1700 772.43 774.98 775.57 
1701 771.76 774.91 775.57 
1702 772.36 774.68 775.57 
1703 771.67 775.07 775.57 
1704 768.37 774.99 775.57 
1705 772.11 774.85 775.57 
1706 768.46 775.27 775.57 
1707 766.33 775.36 775.57 
1708 772.46 775.33 775.57 
1709 769.75 775.45 775.57 
1710 771.30 775.52 775.57 
1711 769.80 775.47 775.57 
1712 769.94 775.53 775.57 
1713 769.13 775.23 775.57 
1714 769.37 775.01 775.57 
1715 769.63 774.92 775.57 
1716 769.60 774.95 775.57 
1717 769.45 774.93 775.57 
1718 768.49 774.77 775.57 
1719 769.49 774.81 775.57 
1720 772.06 774.79 775.57 
1721 768.50 775.10 775.57 
1722 770.97 775.43 775.57 
1723 770.15 775.04 775.57 
1724 769.90 775.58 775.57 
1725 771.03 775.64 775.57 
1726 768.96 775.53 775.57 
1727 771.39 775.47 775.57 
1728 769.44 775.30 775.57 
1729 768.34 775.12 775.57 
1730 769.15 775.44 775.57 
1731 773.01 775.56 775.57 
1732 770.47 775.30 775.57 
1733 771.01 774.84 775.57 
1734 770.25 774.75 775.57 
1735 771.17 774.75 775.57 
1736 771.07 774.28 775.57 
1737 772.10 774.01 775.57 
1738 769.16 774.12 775.57 
1739 770.64 774.44 775.57 
1740 769.40 774.85 775.57 
1741 766.62 774.56 775.57 
1742 771.68 774.34 775.57 
1743 768.01 774.25 775.57 
1744 771.49 773.97 775.57 
1745 765.53 774.53 775.57 
1746 769.61 774.20 775.57 
1747 770.12 774.28 775.57 
1748 767.49 774.42 775.57 
1749 771.94 774.48 775.57 
1750 770.71 774.73 775.57 
1751 766.05 774.85 775.57 
1752 770.66 774.86 775.57 
1753 773.77 775.22 775.57 
1754 767.93 775.29 775.57 
1755 767.16 775.52 775.57 
1756 770.32 775.58 775.57 
1757 769.84 775.35 775.57 
1758 769.98 775.34 775.57 
1759 768.28 775.28 775.57 
1760 768.22 775.31 775.57 
1761 768.80 775.45 775.57 
1762 773.49 775.67 775.57 
1763 765.65 775.64 775.57 
1764 769.54 775.60 775.57 
1765 769.84 775.52 775.57 
1766 770.39 775.74 775.57 
1767 769.13 775.67 775.57 
1768 770.18 775.63 775.57 
1769 768.31 775.59 775.57 
1770 767.37 775.65 775.57 
1771 768.98 775.89 775.57 
1772 767.71 775.78 775.57 
1773 768.02 775.73 775.57 
1774 771.48 775.62 775.57 
1775 769.41 775.49 775.57 
1776 765.42 775.58 775.57 
1777 769.97 775.47 775.57 
1778 767.34 775.28 775.57 
1779 766.78 775.26 775.57 
1780 770.52 775.25 775.57 
1781 770.43 775.28 775.57 
1782 770.71 775.29 775.57 
1783 770.39 775.19 775.57 
1784 771.14 775.40 775.57 
1785 769.17 775.38 775.57 
1786 769.59 775.30 775.57 
1787 770.70 775.10 775.57 
1788 770.10 774.78 775.57 
1789 769.86 774.95 775.57 
1790 772.26 774.89 775.57 
1791 772.57 774.98 775.57 
1792 771.32 775.08 775.57 
1793 771.94 775.36 775.57 
1794 772.56 775.40 775.57 
1795 769.44 775.36 775.57 
1796 767.72 775.29 775.57 
1797 766.81 775.21 775.57 
1798 771.00 774.87 775.57 
1799 768.45 774.84 775.57 
1800 768.89 774.96 775.57 
1801 769.60 774.79 775.57 
1802 773.52 774.89 775.57 
1803 767.64 775.06 775.57 
1804 767.58 775.06 775.57 
1805 771.93 775.50 775.57 
1806 769.89 775.41 775.57 
1807 769.40 775.36 775.57 
1808 770.02 775.69 775.57 
1809 771.95 775.66 775.57 
1810 769.61 775.63 775.57 
1811 768.86 775.86 775.57 
1812 770.67 775.94 775.57 
1813 770.60 775.87 775.57 
1814 771.22 775.65 775.57 
1815 773.70 776.05 775.57 
1816 770.62 776.02 775.57 
1817 769.72 776.05 775.57 
1818 770.45 776.07 775.57 
1819 770.60 776.06 775.57 
1820 771.72 775.98 775.57 
1821 768.41 776.08 775.57 
1822 770.41 776.31 775.57 
1823 767.01 776.42 775.57 
1824 770.16 776.40 775.57 
1825 768.76 776.34 775.57 
1826 773.65 776.17 775.57 
1827 768.09 776.11 775.57 
1828 771.43 776.09 775.57 
1829 768.97 776.29 775.57 
1830 769.86 776.04 775.57 
1831 766.87 776.10 775.57 
1832 769.23 776.25 775.57 
1833 772.03 776.22 775.57 
1834 768.83 776.32 775.57 
1835 770.00 776.30 775.57 
1836 771.59 775.93 775.57 
1837 772.45 776.06 775.57 
1838 767.87 775.93 775.57 
1839 769.92 776.01 775.57 
1840 773.68 776.03 775.57 
1841 772.32 775.84 775.57 
1842 769.98 775.78 775.57 
1843 767.61 775.75 775.57 
1844 768.95 776.09 775.57 
1845 769.60 776.00 775.57 
1846 770.12 776.01 775.57 
1847 771.24 775.81 775.57 
1848 769.42 775.95 775.57 
1849 767.82 776.22 775.57 
1850 770.25 776.20 775.57 
1851 770.40 776.29 775.57 
1852 767.90 776.20 775.57 
1853 765.28 776.23 775.57 
1854 771.04 776.11 775.57 
1855 770.40 776.13 775.57 
1856 768.85 776.16 775.57 
1857 770.84 776.06 775.57 
1858 769.12 776.18 775.57 
1859 769.23 776.28 775.57 
1860 771.10 776.30 775.57 
1861 768.58 776.37 775.57 
1862 768.86 776.15 775.57 
1863 774.04 776.09 775.57 
1864 771.56 776.12 775.57 
1865 768.75 776.21 775.57 
1866 768.14 776.20 775.57 
1867 770.47 775.96 775.57 
1868 769.62 776.03 775.57 
1869 771.04 776.03 775.57 
1870 770.01 776.06 775.57 
1871 774.67 776.04 775.57 
1872 769.91 775.78 775.57 
1873 771.13 775.94 775.57 
1874 767.06 776.07 775.57 
1875 770.81 775.72 775.57 
1876 768.44 775.55 775.57 
1877 772.01 775.43 775.57 
1878 772.70 775.64 775.57 
1879 770.41 775.34 775.57 
1880 768.54 775.32 775.57 
1881 770.06 775.21 775.57 
1882 773.57 775.37 775.57 
1883 770.01 775.11 775.57 
1884 771.02 775.24 775.57 
1885 770.40 775.31 775.57 
1886 768.32 775.31 775.57 
1887 771.61 775.37 775.57 
1888 768.08 775.56 775.57 
1889 771.57 775.80 775.57 
1890 769.59 775.78 775.57 
1891 769.48 776.06 775.57 
1892 770.11 775.97 775.57 
1893 770.48 775.95 775.57 
1894 772.83 776.18 775.57 
1895 770.25 776.12 775.57 
1896 768.47 776.13 775.57 
1897 771.99 776.17 775.57 
1898 771.05 776.16 775.57 
1899 767.42 776.08 775.57 
1900 768.49 776.03 775.57 
1901 770.05 776.10 775.57 
1902 769.84 775.68 775.57 
1903 769.78 775.98 775.57 
1904 766.66 776.08 775.57 
1905 769.26 776.25 775.57 
1906 770.03 776.09 775.57 
1907 771.54 776.26 775.57 
1908 771.98 776.15 775.57 
1909 771.52 776.25 775.57 
1910 769.96 775.94 775.57 
1911 770.64 776.00 775.57 
1912 769.94 776.13 775.57 
1913 770.80 776.28 775.57 
1914 772.41 776.33 775.57 
1915 771.38 776.47 775.57 
1916 769.07 776.41 775.57 
1917 771.44 776.43 775.57 
1918 770.61 776.48 775.57 
1919 771.60 776.40 775.57 
1920 769.74 776.40 775.57 
1921 770.98 776.16 775.57 
1922 770.36 776.21 775.57 
1923 771.06 776.14 775.57 
1924 771.11 776.19 775.57 
1925 772.55 776.14 775.57 
1926 770.96 776.16 775.57 
1927 770.64 776.31 775.57 
1928 773.56 776.39 775.57 
1929 769.60 776.34 775.57 
1930 766.51 776.30 775.57 
1931 768.23 776.16 775.57 
1932 770.93 776.09 775.57 
1933 770.80 776.23 775.57 
1934 772.08 776.42 775.57 
1935 767.19 776.17 775.57 
1936 764.91 776.12 775.57 
1937 770.86 775.84 775.57 
1938 770.51 775.86 775.57 
1939 769.62 775.96 775.57 
1940 770.37 776.01 775.57 
1941 769.76 775.86 775.57 
1942 770.98 776.08 775.57 
1943 768.27 775.93 775.57 
1944 770.87 775.97 775.57 
1945 768.96 776.12 775.57 
1946 769.90 776.47 775.57 
1947 769.80 776.44 775.57 
1948 766.78 776.46 775.57 
1949 765.39 776.43 775.57 
1950 767.67 776.46 775.57 
1951 769.59 776.44 775.57 
1952 768.61 775.85 775.57 
1953 768.90 775.91 775.57 
1954 769.10 775.94 775.57 
1955 769.83 775.83 775.57 
1956 770.15 775.87 775.57 
1957 769.79 775.83 775.57 
1958 769.08 775.89 775.57 
1959 771.15 775.99 775.57 
1960 770.36 776.08 775.57 
1961 764.93 775.99 775.57 
1962 769.82 775.90 775.57 
1963 767.29 775.83 775.57 
1964 771.38 776.02 775.57 
1965 769.27 775.69 775.57 
1966 770.77 775.53 775.57 
1967 772.25 775.61 775.57 
1968 772.85 775.39 775.57 
1969 771.79 775.58 775.57 
1970 769.89 775.76 775.57 
1971 766.47 775.53 775.57 
1972 768.31 775.61 775.57 
1973 769.26 775.39 775.57 
1974 770.32 775.52 775.57 
1975 772.13 775.67 775.57 
1976 769.60 775.26 775.57 
1977 770.59 775.13 775.57 
1978 766.19 775.40 775.57 
1979 767.72 775.51 775.57 
1980 767.75 775.69 775.57 
1981 768.04 775.43 775.57 
1982 768.22 775.26 775.57 
1983 769.44 775.32 775.57 
1984 768.96 775.38 775.57 
1985 768.56 775.63 775.57 
1986 770.50 775.54 775.57 
1987 771.62 775.56 775.57 
1988 772.31 775.70 775.57 
1989 768.15 775.83 775.57 
1990 769.93 775.66 775.57 
1991 765.13 775.92 775.57 
1992 769.14 775.91 775.57 
1993 772.09 775.93 775.57 
1994 768.46 775.85 775.57 
1995 770.53 775.71 775.57 
1996 768.54 775.73 775.57 
1997 772.28 775.86 775.57 
1998 768.12 775.73 775.57 
1999 770.46 775.60 775.57 
2000 772.38 775.80 775.57 
2001 771.43 775.89 775.57 
2002 771.36 775.96 775.57 
2003 767.92 775.81 775.57 
2004 770.35 775.85 775.57 
2005 767.41 775.91 775.57 
2006 771.66 775.98 775.57 
2007 769.32 775.97 775.57 
2008 768.32 775.97 775.57 
2009 768.51 775.83 775.57 
2010 769.43 775.88 775.57 
2011 768.77 775.87 775.57 
2012 770.97 776.21 775.57 
2013 769.50 776.25 775.57 
2014 770.48 776.27 775.57 
2015 770.28 775.83 775.57 
2016 771.17 775.99 775.57 
2017 766.71 775.78 775.57 
2018 769.22 775.84 775.57 
2019 769.64 775.87 775.57 
2020 769.92 775.83 775.57 
2021 772.23 775.34 775.57 
2022 769.91 775.42 775.57 
2023 771.55 775.81 775.57 
2024 770.90 775.84 775.57 
2025 769.17 775.84 775.57 
2026 770.60 775.94 775.57 
2027 768.53 775.93 775.57 
2028 766.43 775.77 775.57 
2029 768.68 776.00 775.57 
2030 770.88 775.84 775.57 
2031 768.93 775.93 775.57 
2032 767.04 776.01 775.57 
2033 770.83 776.04 775.57 
2034 771.27 776.17 775.57 
2035 768.22 776.18 775.57 
2036 770.23 776.35 775.57 
2037 766.05 776.33 775.57 
2038 767.17 776.48 775.57 
2039 768.46 776.38 775.57 
2040 768.28 776.38 775.57 
2041 770.00 776.31 775.57 
2042 768.97 776.39 775.57 
2043 770.76 776.56 775.57 
2044 768.83 776.69 775.57 
2045 769.78 776.66 775.57 
2046 768.74 776.69 775.57 
2047 773.62 776.98 775.57 
2048 766.80 776.71 775.57 
2049 768.55 776.81 775.57 
2050 766.87 776.78 775.57 
2051 768.12 776.60 775.57 
2052 769.87 776.70 775.57 
2053 770.03 776.39 775.57 
2054 769.42 776.49 775.57 
2055 767.14 776.70 775.57 
2056 769.02 776.53 775.57 
2057 769.64 776.74 775.57 
2058 769.83 776.69 775.57 
2059 771.05 776.52 775.57 
2060 770.07 776.72 775.57 
2061 771.82 776.63 775.57 
2062 769.05 776.42 775.57 
2063 769.15 776.35 775.57 
2064 769.89 776.23 775.57 
2065 766.93 776.12 775.57 
2066 768.96 776.39 775.57 
2067 769.36 776.38 775.57 
2068 771.26 776.21 775.57 
2069 771.92 776.28 775.57 
2070 769.93 776.56 775.57 
2071 771.41 776.56 775.57 
2072 769.15 776.46 775.57 
2073 769.46 776.51 775.57 
2074 771.52 776.13 775.57 
2075 768.64 776.60 775.57 
2076 770.43 776.12 775.57 
2077 771.17 776.20 775.57 
2078 769.24 776.17 775.57 
2079 769.12 776.16 775.57 
2080 770.93 776.18 775.57 
2081 769.30 776.24 775.57 
2082 767.99 776.14 775.57 
2083 771.06 776.55 775.57 
2084 767.67 776.43 775.57 
2085 769.86 776.34 775.57 
2086 768.04 776.37 775.57 
2087 769.47 776.12 775.57 
2088 770.93 776.43 775.57 
2089 768.71 776.47 775.57 
2090 768.74 776.03 775.57 
2091 771.81 776.00 775.57 
2092 770.82 776.04 775.57 
2093 770.34 775.82 775.57 
2094 769.54 775.99 775.57 
2095 770.05 776.01 775.57 
2096 768.38 776.13 775.57 
2097 767.40 775.78 775.57 
2098 769.30 775.66 775.57 
2099 767.96 775.77 775.57 
2100 767.37 775.68 775.57 
2101 769.44 775.60 775.57 
2102 770.19 776.07 775.57 
2103 766.74 776.11 775.57 
2104 769.42 776.03 775.57 
2105 768.25 775.92 775.57 
2106 767.51 775.96 775.57 
2107 767.85 776.11 775.57 
2108 768.04 776.03 775.57 
2109 770.19 775.83 775.57 
2110 773.66 775.95 775.57 
2111 770.54 775.84 775.57 
2112 766.75 775.88 775.57 
2113 767.63 776.00 775.57 
2114 771.86 775.94 775.57 
2115 769.35 776.22 775.57 
2116 766.33 776.37 775.57 
2117 771.13 776.44 775.57 
2118 766.92 776.44 775.57 
2119 768.97 776.46 775.57 
2120 771.64 776.65 775.57 
2121 769.26 776.35 775.57 
2122 771.53 776.12 775.57 
2123 774.77 776.36 775.57 
2124 770.47 776.18 775.57 
2125 767.30 776.43 775.57 
2126 768.02 776.16 775.57 
2127 769.35 776.33 775.57 
2128 772.15 776.21 775.57 
2129 769.20 776.44 775.57 
2130 767.50 776.01 775.57 
2131 769.01 776.18 775.57 
2132 767.99 776.20 775.57 
2133 768.55 776.26 775.57 
2134 771.52 776.08 775.57 
2135 769.60 776.33 775.57 
2136 770.77 776.16 775.57 
2137 770.27 776.24 775.57 
2138 770.48 776.18 775.57 
2139 768.90 776.69 775.57 
2140 765.00 776.47 775.57 
2141 768.91 776.33 775.57 
2142 770.91 776.41 775.57 
2143 770.73 776.54 775.57 
2144 771.05 776.53 775.57 
2145 772.99 776.58 775.57 
2146 766.48 776.64 775.57 
2147 769.27 776.23 775.57 
2148 764.87 776.24 775.57 
2149 772.28 776.66 775.57 
2150 767.32 776.09 775.57 
2151 769.61 776.27 775.57 
2152 769.56 776.19 775.57 
2153 767.87 776.13 775.57 
2154 769.67 775.85 775.57 
2155 768.73 775.88 775.57 
2156 769.74 775.79 775.57 
2157 770.70 775.93 775.57 
2158 769.11 775.96 775.57 
2159 773.16 776.09 775.57 
2160 771.86 776.05 775.57 
2161 769.93 776.08 775.57 
2162 766.88 776.26 775.57 
2163 766.50 776.27 775.57 
2164 769.72 776.49 775.57 
2165 770.72 776.41 775.57 
2166 767.15 776.40 775.57 
2167 771.91 776.42 775.57 
2168 770.77 776.28 775.57 
2169 768.67 776.56 775.57 
2170 768.74 776.33 775.57 
2171 767.89 776.27 775.57 
2172 767.61 776.26 775.57 
2173 773.26 776.39 775.57 
2174 769.09 776.24 775.57 
2175 771.72 776.39 775.57 
2176 766.96 776.53 775.57 
2177 765.90 776.60 775.57 
2178 771.74 776.30 775.57 
2179 770.27 776.65 775.57 
2180 768.60 775.70 775.57 
2181 767.78 776.41 775.57 
2182 770.76 776.29 775.57 
2183 771.52 776.40 775.57 
2184 767.05 776.40 775.57 
2185 772.47 776.32 775.57 
2186 769.02 776.44 775.57 
2187 766.58 776.55 775.57 
2188 772.07 776.36 775.57 
2189 770.00 776.56 775.57 
2190 773.54 776.57 775.57 
2191 765.56 776.39 775.57 
2192 772.90 776.49 775.57 
2193 772.80 776.54 775.57 
2194 767.61 776.45 775.57 
2195 772.70 776.50 775.57 
2196 772.38 776.36 775.57 
2197 770.81 776.46 775.57 
2198 769.59 776.61 775.57 
2199 768.00 776.50 775.57 
2200 768.80 776.35 775.57 
2201 773.02 776.41 775.57 
2202 768.95 776.53 775.57 
2203 768.95 776.31 775.57 
2204 770.25 776.48 775.57 
2205 771.39 776.52 775.57 
2206 768.50 776.69 775.57 
2207 767.94 776.53 775.57 
2208 769.43 776.80 775.57 
2209 771.11 776.83 775.57 
2210 770.58 776.69 775.57 
2211 767.68 776.69 775.57 
2212 769.88 776.72 775.57 
2213 770.47 776.77 775.57 
2214 769.34 776.63 775.57 
2215 769.83 776.55 775.57 
2216 769.75 776.66 775.57 
2217 767.74 776.55 775.57 
2218 769.83 776.37 775.57 
2219 769.95 776.45 775.57 
2220 767.97 776.66 775.57 
2221 768.36 776.71 775.57 
2222 767.22 776.52 775.57 
2223 769.02 776.31 775.57 
2224 770.96 776.36 775.57 
2225 769.28 776.32 775.57 
2226 766.27 776.26 775.57 
2227 769.89 776.62 775.57 
2228 769.88 776.42 775.57 
2229 770.02 776.57 775.57 
2230 767.96 776.45 775.57 
2231 770.39 776.33 775.57 
2232 767.91 776.29 775.57 
2233 770.47 776.48 775.57 
2234 769.19 776.28 775.57 
2235 770.00 776.34 775.57 
2236 768.84 776.34 775.57 
2237 765.47 776.38 775.57 
2238 773.04 776.10 775.57 
2239 768.30 776.28 775.57 
2240 769.14 776.09 775.57 
2241 768.85 776.30 775.57 
2242 770.84 776.27 775.57 
2243 768.94 776.42 775.57 
2244 768.55 776.19 775.57 
2245 770.71 776.32 775.57 
2246 768.07 776.41 775.57 
2247 771.81 776.28 775.57 
2248 767.43 776.36 775.57 
2249 765.80 776.43 775.57 
2250 768.45 776.37 775.57 
2251 767.32 776.30 775.57 
2252 771.60 776.35 775.57 
2253 770.36 776.17 775.57 
2254 771.48 776.37 775.57 
2255 771.64 776.55 775.57 
2256 771.78 776.38 775.57 
2257 769.17 776.52 775.57 
2258 771.02 776.32 775.57 
2259 770.54 776.52 775.57 
2260 767.89 776.45 775.57 
2261 771.80 776.65 775.57 
2262 765.88 776.53 775.57 
2263 770.04 776.60 775.57 
2264 770.13 776.66 775.57 
2265 773.26 776.52 775.57 
2266 769.92 776.63 775.57 
2267 770.55 776.62 775.57 
2268 770.08 776.69 775.57 
2269 768.68 776.87 775.57 
2270 769.80 776.84 775.57 
2271 770.74 776.70 775.57 
2272 768.98 776.85 775.57 
2273 771.87 776.89 775.57 
2274 768.86 776.76 775.57 
2275 769.22 776.82 775.57 
2276 767.13 776.83 775.57 
2277 762.79 776.84 775.57 
2278 772.49 776.83 775.57 
2279 768.38 776.61 775.57 
2280 771.77 776.50 775.57 
2281 772.09 776.58 775.57 
2282 771.56 776.67 775.57 
2283 769.07 776.79 775.57 
2284 769.80 776.80 775.57 
2285 768.61 776.76 775.57 
2286 773.16 776.84 775.57 
2287 769.31 776.49 775.57 
2288 769.50 776.93 775.57 
2289 769.77 776.86 775.57 
2290 768.29 776.80 775.57 
2291 769.99 776.98 775.57 
2292 768.76 776.87 775.57 
2293 769.04 776.83 775.57 
2294 771.44 776.91 775.57 
2295 770.00 777.03 775.57 
2296 772.72 776.97 775.57 
2297 768.74 777.10 775.57 
2298 769.93 777.02 775.57 
2299 768.69 777.10 775.57 
2300 769.04 777.03 775.57 
2301 767.88 777.02 775.57 
2302 770.67 777.07 775.57 
2303 770.98 777.07 775.57 
2304 771.12 776.89 775.57 
2305 770.08 776.86 775.57 
2306 769.08 776.82 775.57 
2307 769.21 776.73 775.57 
2308 769.96 776.83 775.57 
2309 767.08 776.72 775.57 
2310 772.91 776.71 775.57 
2311 768.32 776.84 775.57 
2312 770.18 777.00 775.57 
2313 768.25 776.96 775.57 
2314 766.15 776.77 775.57 
2315 767.23 776.79 775.57 
2316 769.62 776.75 775.57 
2317 770.08 776.71 775.57 
2318 770.38 776.73 775.57 
2319 768.43 776.61 775.57 
2320 770.29 776.69 775.57 
2321 772.17 776.71 775.57 
2322 770.02 776.55 775.57 
2323 770.86 776.71 775.57 
2324 768.37 776.76 775.57 
2325 770.74 776.69 775.57 
2326 770.08 776.79 775.57 
2327 772.62 776.58 775.57 
2328 771.74 776.69 775.57 
2329 771.39 776.82 775.57 
2330 770.97 776.85 775.57 
2331 769.64 776.85 775.57 
2332 770.33 776.77 775.57 
2333 770.21 776.76 775.57 
2334 768.80 776.87 775.57 
2335 771.85 776.80 775.57 
2336 770.24 776.85 775.57 
2337 765.68 776.95 775.57 
2338 768.92 776.86 775.57 
2339 768.58 776.87 775.57 
2340 773.32 776.84 775.57 
2341 767.88 777.13 775.57 
2342 772.09 776.91 775.57 
2343 766.49 776.88 775.57 
2344 771.29 776.91 775.57 
2345 768.77 776.77 775.57 
2346 770.37 776.95 775.57 
2347 766.75 776.97 775.57 
2348 770.43 777.01 775.57 
2349 767.06 776.79 775.57 
2350 768.69 776.88 775.57 
2351 768.23 776.92 775.57 
2352 773.28 776.89 775.57 
2353 767.77 777.07 775.57 
2354 768.94 777.05 775.57 
2355 769.38 776.83 775.57 
2356 764.28 776.79 775.57 
2357 771.81 776.99 775.57 
2358 766.10 777.10 775.57 
2359 767.66 776.89 775.57 
2360 771.59 776.86 775.57 
2361 771.79 776.94 775.57 
2362 770.46 776.90 775.57 
2363 772.28 776.82 775.57 
2364 769.89 776.67 775.57 
2365 767.94 776.59 775.57 
2366 767.80 776.81 775.57 
2367 769.08 776.68 775.57 
2368 767.19 776.76 775.57 
2369 768.97 776.83 775.57 
2370 768.77 776.99 775.57 
2371 769.66 776.96 775.57 
2372 771.80 776.91 775.57 
2373 768.58 776.97 775.57 
2374 767.33 776.92 775.57 
2375 768.78 777.03 775.57 
2376 768.50 776.89 775.57 
2377 768.44 776.88 775.57 
2378 768.77 776.87 775.57 
2379 767.85 776.89 775.57 
2380 770.72 776.82 775.57 
2381 771.68 776.78 775.57 
2382 772.01 776.64 775.57 
2383 770.30 776.62 775.57 
2384 766.85 776.85 775.57 
2385 769.97 776.70 775.57 
2386 771.89 776.86 775.57 
2387 772.52 776.95 775.57 
2388 772.82 776.99 775.57 
2389 768.22 776.80 775.57 
2390 770.92 776.77 775.57 
2391 767.41 776.79 775.57 
2392 771.96 776.84 775.57 
2393 768.20 777.00 775.57 
2394 772.34 776.89 775.57 
2395 774.12 776.95 775.57 
2396 768.59 777.07 775.57 
2397 766.57 777.05 775.57 
2398 766.88 776.98 775.57 
2399 772.57 777.02 775.57 
2400 772.09 777.03 775.57 
2401 770.36 776.97 775.57 
2402 767.65 777.05 775.57 
2403 769.29 777.03 775.57 
2404 770.57 776.75 775.57 
2405 771.43 777.05 775.57 
2406 771.08 776.73 775.57 
2407 770.38 776.53 775.57 
2408 768.84 776.74 775.57 
2409 769.45 776.78 775.57 
2410 770.79 776.65 775.57 
2411 770.17 776.66 775.57 
2412 766.75 776.67 775.57 
2413 768.32 776.78 775.57 
2414 767.38 776.88 775.57 
2415 768.19 776.70 775.57 
2416 773.11 776.71 775.57 
2417 769.86 776.69 775.57 
2418 773.43 776.85 775.57 
2419 770.11 776.67 775.57 
2420 770.47 776.92 775.57 
2421 771.75 776.63 775.57 
2422 771.08 776.51 775.57 
2423 769.90 776.36 775.57 
2424 770.41 776.49 775.57 
2425 769.68 776.34 775.57 
2426 767.91 776.48 775.57 
2427 767.47 776.46 775.57 
2428 768.44 776.50 775.57 
2429 768.85 776.21 775.57 
2430 771.04 776.51 775.57 
2431 771.10 776.56 775.57 
2432 767.17 776.65 775.57 
2433 768.37 776.56 775.57 
2434 767.74 776.45 775.57 
2435 769.46 776.41 775.57 
2436 767.70 776.58 775.57 
2437 768.28 776.59 775.57 
2438 769.00 776.58 775.57 
2439 768.70 776.77 775.57 
2440 769.06 776.75 775.57 
2441 771.25 776.81 775.57 
2442 771.25 776.72 775.57 
2443 769.15 776.69 775.57 
2444 770.64 776.60 775.57 
2445 768.86 776.69 775.57 
2446 773.51 776.93 775.57 
2447 768.01 776.74 775.57 
2448 768.92 776.86 775.57 
2449 768.86 776.68 775.57 
2450 768.09 776.88 775.57 
2451 768.60 776.94 775.57 
2452 767.25 777.06 775.57 
2453 770.90 777.00 775.57 
2454 768.06 777.11 775.57 
2455 768.46 776.98 775.57 
2456 767.72 777.11 775.57 
2457 769.28 777.28 775.57 
2458 769.30 777.15 775.57 
2459 765.77 777.27 775.57 
2460 769.75 777.10 775.57 
2461 768.38 777.03 775.57 
2462 774.14 777.19 775.57 
2463 769.27 776.95 775.57 
2464 766.65 776.89 775.57 
2465 769.00 776.89 775.57 
2466 771.10 776.76 775.57 
2467 770.81 777.07 775.57 
2468 767.15 776.94 775.57 
2469 770.26 777.37 775.57 
2470 770.10 777.04 775.57 
2471 770.29 777.25 775.57 
2472 768.83 777.14 775.57 
2473 770.90 777.33 775.57 
2474 769.62 777.38 775.57 
2475 769.86 777.41 775.57 
2476 768.34 777.51 775.57 
2477 767.73 777.50 775.57 
2478 769.49 777.45 775.57 
2479 769.97 777.39 775.57 
2480 772.72 777.38 775.57 
2481 770.82 777.39 775.57 
2482 768.41 777.37 775.57 
2483 771.75 777.47 775.57 
2484 767.92 777.42 775.57 
2485 772.79 777.41 775.57 
2486 769.39 777.31 775.57 
2487 771.81 777.31 775.57 
2488 768.48 777.32 775.57 
2489 767.74 777.40 775.57 
2490 772.44 777.06 775.57 
2491 772.15 777.04 775.57 
2492 770.52 777.26 775.57 
2493 771.54 777.26 775.57 
2494 768.64 777.34 775.57 
2495 770.96 777.39 775.57 
2496 769.15 777.39 775.57 
2497 770.95 777.36 775.57 
2498 770.71 777.42 775.57 
2499 770.21 777.40 775.57 
2500 771.18 777.44 775.57 
2501 770.71 777.51 775.57 
2502 768.62 777.55 775.57 
2503 770.45 777.49 775.57 
2504 771.97 777.57 775.57 
2505 771.30 777.54 775.57 
2506 770.94 777.51 775.57 
2507 773.45 777.57 775.57 
2508 772.95 777.49 775.57 
2509 768.45 777.60 775.57 
2510 767.99 777.40 775.57 
2511 773.64 777.45 775.57 
2512 771.64 777.43 775.57 
2513 769.81 777.50 775.57 
2514 769.00 777.49 775.57 
2515 773.21 777.44 775.57 
2516 772.88 777.37 775.57 
2517 770.16 777.42 775.57 
2518 770.60 777.39 775.57 
2519 768.24 777.37 775.57 
2520 766.79 777.36 775.57 
2521 773.46 777.39 775.57 
2522 769.37 777.47 775.57 
2523 770.46 777.33 775.57 
2524 770.33 777.26 775.57 
2525 767.83 777.44 775.57 
2526 767.16 777.28 775.57 
2527 770.29 777.24 775.57 
2528 768.69 777.28 775.57 
2529 766.43 777.33 775.57 
2530 771.26 777.14 775.57 
2531 769.94 777.24 775.57 
2532 769.68 777.29 775.57 
2533 770.64 777.51 775.57 
2534 769.43 777.39 775.57 
2535 768.60 777.30 775.57 
2536 769.69 777.39 775.57 
2537 765.21 777.29 775.57 
2538 768.64 777.22 775.57 
2539 768.30 777.19 775.57 
2540 769.05 777.24 775.57 
2541 771.01 777.14 775.57 
2542 773.27 777.18 775.57 
2543 768.55 777.26 775.57 
2544 770.14 777.40 775.57 
2545 770.60 777.28 775.57 
2546 767.90 777.36 775.57 
2547 771.20 777.33 775.57 
2548 768.41 777.28 775.57 
2549 769.81 777.36 775.57 
2550 773.63 777.38 775.57 
2551 769.92 777.23 775.57 
2552 767.81 777.35 775.57 
2553 769.77 777.20 775.57 
2554 771.91 777.05 775.57 
2555 769.16 777.12 775.57 
2556 766.57 777.07 775.57 
2557 772.40 777.26 775.57 
2558 767.49 777.15 775.57 
2559 769.38 777.06 775.57 
2560 765.38 777.16 775.57 
2561 768.60 777.08 775.57 
2562 765.86 777.07 775.57 
2563 766.12 776.98 775.57 
2564 770.54 777.02 775.57 
2565 765.76 777.18 775.57 
2566 766.98 777.11 775.57 
2567 768.85 777.07 775.57 
2568 766.86 777.03 775.57 
2569 770.86 777.22 775.57 
2570 771.21 777.15 775.57 
2571 769.00 777.16 775.57 
2572 772.93 777.25 775.57 
2573 770.44 777.11 775.57 
2574 768.52 777.11 775.57 
2575 767.08 776.97 775.57 
2576 768.28 776.91 775.57 
2577 767.93 776.46 775.57 
2578 770.98 776.54 775.57 
2579 767.69 776.68 775.57 
2580 769.36 777.37 775.57 
2581 771.84 776.91 775.57 
2582 768.56 777.19 775.57 
2583 768.23 776.94 775.57 
2584 768.93 776.79 775.57 
2585 766.97 776.84 775.57 
2586 768.39 776.65 775.57 
2587 767.93 776.56 775.57 
2588 768.22 776.64 775.57 
2589 768.91 776.85 775.57 
2590 771.63 776.93 775.57 
2591 770.99 776.94 775.57 
2592 773.47 776.86 775.57 
2593 766.87 776.76 775.57 
2594 768.42 777.29 775.57 
2595 771.55 777.28 775.57 
2596 765.90 776.90 775.57 
2597 769.00 777.42 775.57 
2598 771.95 777.35 775.57 
2599 772.30 777.40 775.57 
2600 767.84 777.35 775.57 
2601 770.53 777.29 775.57 
2602 769.14 776.91 775.57 
2603 769.73 776.85 775.57 
2604 767.90 776.70 775.57 
2605 772.04 776.79 775.57 
2606 771.97 777.16 775.57 
2607 768.62 776.99 775.57 
2608 769.21 776.91 775.57 
2609 771.81 776.62 775.57 
2610 770.34 777.13 775.57 
2611 768.06 777.38 775.57 
2612 770.17 776.95 775.57 
2613 769.43 777.43 775.57 
2614 771.11 776.86 775.57 
2615 771.50 777.05 775.57 
2616 771.27 776.85 775.57 
2617 770.23 777.24 775.57 
2618 769.69 777.32 775.57 
2619 766.78 777.37 775.57 
2620 769.74 777.40 775.57 
2621 771.08 777.29 775.57 
2622 772.01 777.29 775.57 
2623 770.46 777.33 775.57 
2624 769.56 777.30 775.57 
2625 767.69 777.26 775.57 
2626 769.83 777.40 775.57 
2627 770.96 777.32 775.57 
2628 770.17 777.45 775.57 
2629 767.16 777.21 775.57 
2630 770.53 777.28 775.57 
2631 771.16 777.24 775.57 
2632 765.11 777.20 775.57 
2633 768.19 777.27 775.57 
2634 769.98 777.15 775.57 
2635 770.24 777.20 775.57 
2636 769.49 777.24 775.57 
2637 770.62 777.32 775.57 
2638 770.92 777.10 775.57 
2639 769.65 777.04 775.57 
2640 770.05 777.10 775.57 
2641 770.80 777.12 775.57 
2642 767.17 777.22 775.57 
2643 769.89 777.19 775.57 
2644 770.70 777.26 775.57 
2645 770.57 777.15 775.57 
2646 770.54 777.09 775.57 
2647 770.69 777.29 775.57 
2648 769.75 777.26 775.57 
2649 769.73 777.24 775.57 
2650 771.38 777.23 775.57 
2651 770.14 777.15 775.57 
2652 770.30 777.23 775.57 
2653 769.65 777.01 775.57 
2654 766.88 777.19 775.57 
2655 772.77 776.99 775.57 
2656 768.12 777.06 775.57 
2657 769.88 777.12 775.57 
2658 768.99 777.04 775.57 
2659 768.41 777.14 775.57 
2660 770.46 777.13 775.57 
2661 771.67 777.12 775.57 
2662 768.04 777.02 775.57 
2663 771.71 777.16 775.57 
2664 769.78 777.17 775.57 
2665 770.26 777.03 775.57 
2666 772.41 776.97 775.57 
2667 770.14 777.04 775.57 
2668 767.51 776.57 775.57 
2669 771.84 776.62 775.57 
2670 772.08 776.68 775.57 
2671 770.65 776.98 775.57 
2672 769.12 776.99 775.57 
2673 769.21 776.92 775.57 
2674 769.76 776.77 775.57 
2675 767.91 776.92 775.57 
2676 767.92 777.10 775.57 
2677 770.38 777.15 775.57 
2678 769.24 777.20 775.57 
2679 769.92 776.93 775.57 
2680 769.01 777.08 775.57 
2681 769.27 777.05 775.57 
2682 770.45 777.02 775.57 
2683 771.66 777.04 775.57 
2684 769.30 777.17 775.57 
2685 772.08 777.16 775.57 
2686 769.80 777.17 775.57 
2687 772.23 777.21 775.57 
2688 768.63 777.15 775.57 
2689 769.75 777.21 775.57 
2690 769.96 777.06 775.57 
2691 771.26 777.15 775.57 
2692 769.30 776.90 775.57 
2693 769.99 776.67 775.57 
2694 769.76 776.74 775.57 
2695 771.64 776.88 775.57 
2696 770.74 776.77 775.57 
2697 768.15 776.99 775.57 
2698 768.25 776.94 775.57 
2699 772.74 777.23 775.57 
2700 771.26 776.50 775.57 
2701 769.84 776.51 775.57 
2702 770.89 776.60 775.57 
2703 767.82 776.54 775.57 
2704 771.78 776.68 775.57 
2705 766.29 776.44 775.57 
2706 768.14 776.71 775.57 
2707 768.83 776.75 775.57 
2708 771.89 776.53 775.57 
2709 771.19 776.67 775.57 
2710 768.26 776.79 775.57 
2711 771.47 776.56 775.57 
2712 769.36 776.55 775.57 
2713 769.12 776.45 775.57 
2714 771.76 776.50 775.57 
2715 768.94 776.81 775.57 
2716 768.88 776.72 775.57 
2717 768.62 776.76 775.57 
2718 771.63 776.81 775.57 
2719 771.67 776.93 775.57 
2720 768.53 776.64 775.57 
2721 769.73 776.88 775.57 
2722 767.90 776.82 775.57 
2723 770.84 776.90 775.57 
2724 768.01 776.91 775.57 
2725 769.92 776.93 775.57 
2726 770.14 776.81 775.57 
2727 770.02 776.98 775.57 
2728 769.56 776.84 775.57 
2729 772.57 777.56 775.57 
2730 769.37 777.16 775.57 
2731 768.48 776.96 775.57 
2732 770.59 776.95 775.57 
2733 771.59 776.94 775.57 
2734 772.24 776.87 775.57 
2735 768.82 776.89 775.57 
2736 770.78 777.01 775.57 
2737 767.38 777.44 775.57 
2738 769.20 777.10 775.57 
2739 769.43 777.24 775.57 
2740 771.48 777.18 775.57 
2741 771.06 777.34 775.57 
2742 772.78 777.30 775.57 
2743 768.76 777.33 775.57 
2744 768.51 777.29 775.57 
2745 771.08 777.47 775.57 
2746 770.77 777.39 775.57 
2747 772.56 777.46 775.57 
2748 766.75 777.29 775.57 
2749 773.58 777.55 775.57 
2750 771.24 777.51 775.57 
2751 770.80 777.38 775.57 
2752 767.06 777.43 775.57 
2753 769.46 777.36 775.57 
2754 771.29 777.25 775.57 
2755 769.65 777.59 775.57 
2756 769.37 777.40 775.57 
2757 768.52 777.59 775.57 
2758 772.67 777.55 775.57 
2759 771.65 777.60 775.57 
2760 770.54 777.29 775.57 
2761 771.74 777.42 775.57 
2762 770.69 777.20 775.57 
2763 770.70 777.10 775.57 
2764 767.36 777.24 775.57 
2765 771.83 777.50 775.57 
2766 767.43 777.50 775.57 
2767 769.05 777.35 775.57 
2768 768.37 777.29 775.57 
2769 771.73 777.64 775.57 
2770 771.79 777.46 775.57 
2771 770.13 777.51 775.57 
2772 772.55 777.57 775.57 
2773 771.29 777.51 775.57 
2774 771.98 777.51 775.57 
2775 772.26 777.53 775.57 
2776 772.65 777.44 775.57 
2777 768.08 777.50 775.57 
2778 769.61 777.54 775.57 
2779 768.84 777.58 775.57 
2780 772.22 777.54 775.57 
2781 770.09 777.39 775.57 
2782 771.22 777.62 775.57 
2783 769.19 777.49 775.57 
2784 770.73 777.50 775.57 
2785 769.89 777.46 775.57 
2786 770.93 777.37 775.57 
2787 768.84 777.48 775.57 
2788 770.10 777.59 775.57 
2789 771.55 777.47 775.57 
2790 772.48 777.58 775.57 
2791 772.21 777.61 775.57 
2792 772.33 777.42 775.57 
2793 772.64 777.49 775.57 
2794 770.39 777.25 775.57 
2795 769.37 777.27 775.57 
2796 774.08 777.30 775.57 
2797 770.47 777.20 775.57 
2798 771.51 776.94 775.57 
2799 770.82 776.97 775.57 
2800 770.33 777.26 775.57 
2801 769.23 777.16 775.57 
2802 770.24 777.05 775.57 
2803 766.84 777.15 775.57 
2804 769.56 777.13 775.57 
2805 768.40 777.18 775.57 
2806 771.64 777.03 775.57 
2807 773.36 777.46 775.57 
2808 767.03 777.51 775.57 
2809 771.16 777.49 775.57 
2810 767.93 777.24 775.57 
2811 767.49 777.37 775.57 
2812 771.25 777.25 775.57 
2813 768.29 777.38 775.57 
2814 770.15 777.27 775.57 
2815 770.41 777.24 775.57 
2816 769.81 777.03 775.57 
2817 771.60 777.34 775.57 
2818 769.70 777.13 775.57 
2819 771.51 777.02 775.57 
2820 769.79 777.29 775.57 
2821 768.89 777.28 775.57 
2822 770.07 777.38 775.57 
2823 770.58 777.17 775.57 
2824 769.53 777.21 775.57 
2825 769.35 777.32 775.57 
2826 768.69 777.38 775.57 
2827 769.53 777.28 775.57 
2828 773.12 777.26 775.57 
2829 769.36 777.43 775.57 
2830 770.58 777.40 775.57 
2831 768.55 777.34 775.57 
2832 767.88 777.31 775.57 
2833 772.96 777.40 775.57 
2834 769.98 777.37 775.57 
2835 771.64 777.13 775.57 
2836 772.47 777.22 775.57 
2837 770.74 777.39 775.57 
2838 768.73 777.42 775.57 
2839 772.87 777.31 775.57 
2840 770.81 777.42 775.57 
2841 767.28 777.47 775.57 
2842 771.23 777.30 775.57 
2843 771.36 776.97 775.57 
2844 772.65 777.17 775.57 
2845 770.04 777.20 775.57 
2846 766.11 777.38 775.57 
2847 767.68 777.33 775.57 
2848 771.68 777.31 775.57 
2849 771.75 777.27 775.57 
2850 771.05 777.41 775.57 
2851 770.95 777.42 775.57 
2852 772.11 777.40 775.57 
2853 768.91 777.39 775.57 
2854 771.24 777.33 775.57 
2855 769.22 777.40 775.57 
2856 767.27 777.36 775.57 
2857 771.03 777.40 775.57 
2858 768.04 777.40 775.57 
2859 770.68 777.49 775.57 
2860 771.71 777.38 775.57 
2861 770.45 777.30 775.57 
2862 766.86 777.45 775.57 
2863 769.13 777.43 775.57 
2864 771.25 777.47 775.57 
2865 770.57 777.52 775.57 
2866 770.21 777.34 775.57 
2867 768.48 777.49 775.57 
2868 771.22 777.51 775.57 
2869 769.43 777.46 775.57 
2870 769.34 777.50 775.57 
2871 773.46 777.42 775.57 
2872 772.22 777.45 775.57 
2873 767.44 777.37 775.57 
2874 768.84 777.44 775.57 
2875 771.32 777.52 775.57 
2876 772.59 777.45 775.57 
2877 767.40 777.44 775.57 
2878 768.44 777.45 775.57 
2879 764.10 777.33 775.57 
2880 769.01 777.43 775.57 
2881 764.59 777.55 775.57 
2882 771.93 777.41 775.57 
2883 769.72 777.45 775.57 
2884 774.23 777.35 775.57 
2885 772.25 777.44 775.57 
2886 771.37 777.62 775.57 
2887 768.41 777.59 775.57 
2888 770.61 777.59 775.57 
2889 770.24 777.50 775.57 
2890 768.02 777.49 775.57 
2891 768.86 777.47 775.57 
2892 771.68 777.54 775.57 
2893 767.53 777.53 775.57 
2894 772.07 777.54 775.57 
2895 767.06 777.53 775.57 
2896 767.88 777.44 775.57 
2897 770.54 777.53 775.57 
2898 771.49 777.42 775.57 
2899 767.56 777.41 775.57 
2900 769.94 777.51 775.57 
2901 771.40 777.43 775.57 
2902 769.63 777.62 775.57 
2903 773.31 777.40 775.57 
2904 767.77 777.43 775.57 
2905 771.53 777.45 775.57 
2906 769.74 777.30 775.57 
2907 768.94 777.40 775.57 
2908 771.77 777.45 775.57 
2909 772.66 777.45 775.57 
2910 772.29 777.32 775.57 
2911 770.18 777.25 775.57 
2912 767.90 777.16 775.57 
2913 770.81 777.29 775.57 
2914 768.42 777.05 775.57 
2915 767.99 777.36 775.57 
2916 771.01 777.34 775.57 
2917 767.41 777.24 775.57 
2918 773.15 777.30 775.57 
2919 769.14 777.36 775.57 
2920 767.56 777.33 775.57 
2921 772.24 777.28 775.57 
2922 769.70 777.47 775.57 
2923 773.29 777.52 775.57 
2924 771.20 777.24 775.57 
2925 769.85 777.34 775.57 
2926 767.70 777.33 775.57 
2927 768.23 777.33 775.57 
2928 772.07 777.20 775.57 
2929 768.92 777.33 775.57 
2930 769.96 777.11 775.57 
2931 772.64 777.09 775.57 
2932 765.89 777.31 775.57 
2933 770.75 777.22 775.57 
2934 773.04 777.45 775.57 
2935 772.30 777.37 775.57 
2936 768.28 777.34 775.57 
2937 771.19 777.27 775.57 
2938 771.30 777.22 775.57 
2939 772.39 777.41 775.57 
2940 771.01 777.06 775.57 
2941 770.00 777.38 775.57 
2942 772.84 777.27 775.57 
2943 770.71 777.46 775.57 
2944 772.06 777.34 775.57 
2945 772.77 777.06 775.57 
2946 769.07 777.14 775.57 
2947 767.23 777.33 775.57 
2948 772.68 777.22 775.57 
2949 767.92 777.15 775.57 
2950 771.23 777.27 775.57 
2951 770.66 777.42 775.57 
2952 771.00 777.34 775.57 
2953 772.65 777.04 775.57 
2954 771.13 777.43 775.57 
2955 773.62 777.41 775.57 
2956 768.89 777.33 775.57 
2957 770.07 777.46 775.57 
2958 772.05 777.27 775.57 
2959 768.16 777.42 775.57 
2960 769.20 777.34 775.57 
2961 767.79 777.51 775.57 
2962 771.27 777.53 775.57 
2963 771.13 777.22 775.57 
2964 768.77 777.27 775.57 
2965 767.42 777.15 775.57 
2966 775.36 777.17 775.57 
2967 768.35 777.07 775.57 
2968 765.13 777.04 775.57 
2969 770.49 777.10 775.57 
2970 771.47 777.32 775.57 
2971 772.29 777.35 775.57 
2972 772.41 777.42 775.57 
2973 771.16 777.41 775.57 
2974 773.57 777.42 775.57 
2975 770.58 777.62 775.57 
2976 772.21 777.64 775.57 
2977 768.27 777.39 775.57 
2978 770.47 777.55 775.57 
2979 769.81 777.60 775.57 
2980 769.84 777.50 775.57 
2981 772.23 777.42 775.57 
2982 770.07 777.56 775.57 
2983 769.00 777.35 775.57 
2984 769.91 777.34 775.57 
2985 768.28 777.43 775.57 
2986 768.49 777.52 775.57 
2987 772.94 777.43 775.57 
2988 770.81 777.45 775.57 
2989 768.98 777.46 775.57 
2990 768.94 777.48 775.57 
2991 767.70 777.64 775.57 
2992 770.96 777.61 775.57 
2993 772.22 777.60 775.57 
2994 768.39 777.46 775.57 
2995 773.00 777.59 775.57 
2996 771.24 777.40 775.57 
2997 771.82 777.59 775.57 
2998 769.88 777.50 775.57 
2999 767.08 777.40 775.57 
3000 771.48 777.59 775.57 
3001 767.51 777.52 775.57 
3002 770.87 777.54 775.57 
3003 771.63 777.54 775.57 
3004 768.60 777.47 775.57 
3005 767.03 777.59 775.57 
3006 770.48 777.54 775.57 
3007 771.90 777.52 775.57 
3008 769.57 777.60 775.57 
3009 769.14 777.48 775.57 
3010 770.97 777.58 775.57 
3011 769.35 777.44 775.57 
3012 768.99 777.53 775.57 
3013 767.33 777.58 775.57 
3014 771.90 777.65 775.57 
3015 772.51 777.36 775.57 
3016 769.90 777.32 775.57 
3017 773.25 777.44 775.57 
3018 773.59 777.35 775.57 
3019 769.77 777.46 775.57 
3020 771.15 777.39 775.57 
3021 770.51 777.30 775.57 
3022 770.55 777.34 775.57 
3023 768.29 777.51 775.57 
3024 766.83 777.54 775.57 
3025 771.55 777.47 775.57 
3026 768.50 777.45 775.57 
3027 770.44 777.54 775.57 
3028 770.66 777.58 775.57 
3029 771.77 777.72 775.57 
3030 766.74 777.57 775.57 
3031 772.57 777.36 775.57 
3032 773.77 777.66 775.57 
3033 768.88 777.70 775.57 
3034 770.59 777.65 775.57 
3035 769.36 777.56 775.57 
3036 769.73 777.47 775.57 
3037 769.12 777.62 775.57 
3038 770.95 777.36 775.57 
3039 769.07 777.38 775.57 
3040 772.59 777.46 775.57 
3041 769.74 777.36 775.57 
3042 769.75 777.44 775.57 
3043 773.01 777.47 775.57 
3044 767.65 777.39 775.57 
3045 768.14 777.38 775.57 
3046 768.42 777.40 775.57 
3047 768.62 777.44 775.57 
3048 770.72 777.44 775.57 
3049 766.93 777.33 775.57 
3050 766.63 777.34 775.57 
3051 772.26 777.25 775.57 
3052 771.46 777.53 775.57 
3053 770.60 777.48 775.57 
3054 768.26 777.19 775.57 
3055 768.88 777.38 775.57 
3056 769.90 777.24 775.57 
3057 769.14 777.25 775.57 
3058 774.41 777.24 775.57 
3059 770.35 777.29 775.57 
3060 770.74 777.23 775.57 
3061 770.30 777.36 775.57 
3062 773.41 777.45 775.57 
3063 772.34 777.32 775.57 
3064 772.50 777.34 775.57 
3065 771.52 777.25 775.57 
3066 774.61 777.35 775.57 
3067 768.90 777.19 775.57 
3068 768.34 777.01 775.57 
3069 773.21 776.99 775.57 
3070 770.66 776.78 775.57 
3071 770.08 776.62 775.57 
3072 773.79 776.67 775.57 
3073 769.21 776.24 775.57 
3074 767.92 776.53 775.57 
3075 772.12 776.76 775.57 
3076 769.47 776.46 775.57 
3077 772.50 776.35 775.57 
3078 773.80 776.36 775.57 
3079 769.51 776.43 775.57 
3080 770.08 776.48 775.57 
3081 770.15 777.07 775.57 
3082 772.01 776.70 775.57 
3083 770.70 776.40 775.57 
3084 769.62 776.61 775.57 
3085 767.96 776.65 775.57 
3086 770.50 776.32 775.57 
3087 770.06 776.26 775.57 
3088 773.52 776.59 775.57 
3089 767.08 776.46 775.57 
3090 771.67 776.49 775.57 
3091 769.93 776.81 775.57 
3092 771.08 777.03 775.57 
3093 771.92 777.04 775.57 
3094 769.97 776.76 775.57 
3095 769.96 776.51 775.57 
3096 772.02 776.74 775.57 
3097 766.00 776.74 775.57 
3098 769.38 776.38 775.57 
3099 768.04 776.55 775.57 
3100 768.88 776.53 775.57 
3101 767.65 776.45 775.57 
3102 767.86 776.46 775.57 
3103 769.60 777.05 775.57 
3104 772.60 777.29 775.57 
3105 768.63 777.32 775.57 
3106 768.62 777.39 775.57 
3107 773.68 777.33 775.57 
3108 770.17 777.26 775.57 
3109 771.09 777.35 775.57 
3110 771.76 777.41 775.57 
3111 768.25 777.43 775.57 
3112 770.21 777.15 775.57 
3113 767.52 777.31 775.57 
3114 770.32 777.35 775.57 
3115 767.54 777.37 775.57 
3116 770.46 777.13 775.57 
3117 771.30 777.43 775.57 
3118 770.76 776.87 775.57 
3119 767.08 777.08 775.57 
3120 773.81 777.04 775.57 
3121 768.66 776.83 775.57 
3122 769.51 777.05 775.57 
3123 771.29 776.73 775.57 
3124 772.97 777.02 775.57 
3125 770.30 777.29 775.57 
3126 769.78 777.40 775.57 
3127 769.30 777.35 775.57 
3128 767.88 777.35 775.57 
3129 765.95 777.37 775.57 
3130 772.38 777.41 775.57 
3131 767.52 777.36 775.57 
3132 769.19 777.46 775.57 
3133 769.95 777.48 775.57 
3134 770.76 777.36 775.57 
3135 770.93 777.40 775.57 
3136 769.60 777.28 775.57 
3137 771.02 777.31 775.57 
3138 770.33 777.29 775.57 
3139 770.35 777.17 775.57 
3140 767.68 777.24 775.57 
3141 770.52 777.34 775.57 
3142 771.33 777.27 775.57 
3143 767.89 777.37 775.57 
3144 770.75 777.36 775.57 
3145 768.50 777.25 775.57 
3146 770.24 777.33 775.57 
3147 769.98 777.36 775.57 
3148 771.37 777.29 775.57 
3149 769.87 777.31 775.57 
3150 774.11 777.25 775.57 
3151 769.84 777.16 775.57 
3152 769.90 777.22 775.57 
3153 769.15 777.20 775.57 
3154 766.71 777.13 775.57 
3155 769.37 777.32 775.57 
3156 771.37 777.30 775.57 
3157 772.60 777.29 775.57 
3158 770.70 777.45 775.57 
3159 768.35 777.38 775.57 
3160 768.86 777.42 775.57 
3161 770.02 777.43 775.57 
3162 772.65 777.58 775.57 
3163 772.60 777.53 775.57 
3164 773.75 777.53 775.57 
3165 770.80 777.54 775.57 
3166 770.64 777.64 775.57 
3167 770.41 777.49 775.57 
3168 771.49 777.50 775.57 
3169 771.19 777.57 775.57 
3170 771.11 777.48 775.57 
3171 771.18 777.55 775.57 
3172 772.82 777.40 775.57 
3173 766.95 777.46 775.57 
3174 771.13 777.51 775.57 
3175 770.28 777.57 775.57 
3176 770.51 777.41 775.57 
3177 770.13 777.39 775.57 
3178 771.62 777.41 775.57 
3179 773.35 777.15 775.57 
3180 771.45 776.91 775.57 
3181 770.97 776.84 775.57 
3182 771.94 777.37 775.57 
3183 767.40 777.34 775.57 
3184 769.40 777.53 775.57 
3185 770.76 777.53 775.57 
3186 771.77 777.33 775.57 
3187 771.18 777.57 775.57 
3188 770.69 777.50 775.57 
3189 768.01 777.55 775.57 
3190 772.68 777.54 775.57 
3191 773.33 777.50 775.57 
3192 773.04 777.53 775.57 
3193 770.28 777.53 775.57 
3194 771.37 777.53 775.57 
3195 770.02 777.58 775.57 
3196 773.24 777.51 775.57 
3197 773.68 777.57 775.57 
3198 770.47 777.54 775.57 
3199 771.42 777.56 775.57 
3200 770.33 777.52 775.57 
3201 765.26 777.60 775.57 
3202 768.74 777.55 775.57 
3203 770.71 777.35 775.57 
3204 772.48 777.37 775.57 
3205 767.53 777.33 775.57 
3206 771.55 777.26 775.57 
3207 772.42 777.24 775.57 
3208 770.51 777.41 775.57 
3209 767.72 777.30 775.57 
3210 770.76 777.19 775.57 
3211 767.36 777.28 775.57 
3212 771.56 777.35 775.57 
3213 769.64 777.30 775.57 
3214 771.96 777.28 775.57 
3215 774.27 777.16 775.57 
3216 769.24 777.20 775.57 
3217 768.09 777.09 775.57 
3218 770.81 777.07 775.57 
3219 770.66 777.06 775.57 
3220 770.42 777.34 775.57 
3221 769.28 777.22 775.57 
3222 770.95 777.17 775.57 
3223 769.62 777.05 775.57 
3224 770.82 776.96 775.57 
3225 768.29 776.95 775.57 
3226 772.11 777.04 775.57 
3227 770.57 777.07 775.57 
3228 769.46 777.12 775.57 
3229 771.50 777.01 775.57 
3230 766.65 777.06 775.57 
3231 766.50 777.09 775.57 
3232 768.89 776.88 775.57 
3233 768.96 777.03 775.57 
3234 770.06 777.21 775.57 
3235 772.90 777.15 775.57 
3236 766.87 777.26 775.57 
3237 771.83 777.18 775.57 
3238 771.89 777.17 775.57 
3239 770.81 777.14 775.57 
3240 771.76 777.05 775.57 
3241 769.51 777.16 775.57 
3242 769.34 777.13 775.57 
3243 768.49 777.27 775.57 
3244 770.10 777.26 775.57 
3245 768.68 777.14 775.57 
3246 770.96 777.15 775.57 
3247 771.81 777.26 775.57 
3248 764.83 777.20 775.57 
3249 770.65 777.23 775.57 
3250 767.28 777.22 775.57 
3251 770.03 777.17 775.57 
3252 771.97 777.13 775.57 
3253 770.59 777.20 775.57 
3254 768.51 777.10 775.57 
3255 771.15 777.26 775.57 
3256 772.38 777.15 775.57 
3257 770.88 777.18 775.57 
3258 773.46 777.15 775.57 
3259 769.84 777.16 775.57 
3260 766.66 777.30 775.57 
3261 767.77 777.18 775.57 
3262 767.83 777.20 775.57 
3263 769.35 777.26 775.57 
3264 766.74 777.17 775.57 
3265 769.61 777.22 775.57 
3266 769.83 777.24 775.57 
3267 772.05 777.18 775.57 
3268 769.24 777.20 775.57 
3269 770.74 777.17 775.57 
3270 769.35 777.43 775.57 
3271 769.53 777.10 775.57 
3272 767.52 777.13 775.57 
3273 772.21 777.10 775.57 
3274 768.93 777.21 775.57 
3275 769.52 777.11 775.57 
3276 769.90 776.99 775.57 
3277 771.35 777.08 775.57 
3278 768.22 777.20 775.57 
3279 771.92 777.11 775.57 
3280 769.15 776.97 775.57 
3281 769.99 777.07 775.57 
3282 774.65 777.13 775.57 
3283 771.71 777.09 775.57 
3284 769.85 777.10 775.57 
3285 770.92 777.07 775.57 
3286 769.38 777.10 775.57 
3287 769.85 777.02 775.57 
3288 768.83 776.98 775.57 
3289 771.19 777.16 775.57 
3290 772.89 777.17 775.57 
3291 768.50 777.03 775.57 
3292 769.34 777.04 775.57 
3293 769.29 777.23 775.57 
3294 768.49 777.20 775.57 
3295 771.73 777.16 775.57 
3296 768.94 777.24 775.57 
3297 769.95 777.19 775.57 
3298 770.53 777.31 775.57 
3299 770.13 777.29 775.57 
3300 771.19 777.11 775.57 
3301 770.78 776.91 775.57 
3302 772.15 776.80 775.57 
3303 770.55 777.07 775.57 
3304 767.38 777.05 775.57 
3305 770.95 777.04 775.57 
3306 768.43 776.99 775.57 
3307 769.76 777.07 775.57 
3308 769.95 777.13 775.57 
3309 771.26 777.09 775.57 
3310 770.00 777.17 775.57 
3311 767.82 776.69 775.57 
3312 773.23 776.85 775.57 
3313 770.79 776.75 775.57 
3314 770.67 777.00 775.57 
3315 766.78 776.94 775.57 
3316 770.93 776.52 775.57 
3317 770.30 776.68 775.57 
3318 769.70 776.58 775.57 
3319 766.93 776.59 775.57 
3320 769.67 776.71 775.57 
3321 772.80 776.59 775.57 
3322 772.12 776.70 775.57 
3323 769.14 776.83 775.57 
3324 771.10 776.84 775.57 
3325 767.97 776.85 775.57 
3326 771.54 777.17 775.57 
3327 772.86 777.06 775.57 
3328 767.76 777.16 775.57 
3329 771.12 777.05 775.57 
3330 768.38 777.09 775.57 
3331 768.53 777.14 775.57 
3332 770.54 777.12 775.57 
3333 769.59 777.12 775.57 
3334 767.62 777.18 775.57 
3335 768.37 777.14 775.57 
3336 770.16 777.11 775.57 
3337 770.59 777.16 775.57 
3338 766.91 777.11 775.57 
3339 768.35 777.23 775.57 
3340 768.81 777.11 775.57 
3341 767.30 776.85 775.57 
3342 772.47 776.88 775.57 
3343 769.68 776.90 775.57 
3344 770.99 776.85 775.57 
3345 772.03 776.86 775.57 
3346 766.91 777.14 775.57 
3347 770.98 777.30 775.57 
3348 766.18 777.02 775.57 
3349 771.11 776.77 775.57 
3350 768.10 776.98 775.57 
3351 770.53 776.93 775.57 
3352 771.91 777.03 775.57 
3353 774.68 776.98 775.57 
3354 772.08 776.95 775.57 
3355 771.49 776.90 775.57 
3356 769.29 776.78 775.57 
3357 771.07 776.89 775.57 
3358 767.35 776.85 775.57 
3359 767.81 776.80 775.57 
3360 769.53 776.77 775.57 
3361 769.64 776.81 775.57 
3362 771.45 776.81 775.57 
3363 769.75 776.87 775.57 
3364 769.29 776.91 775.57 
3365 770.81 776.83 775.57 
3366 766.86 776.87 775.57 
3367 773.98 776.84 775.57 
3368 771.28 776.71 775.57 
3369 771.90 776.85 775.57 
3370 769.84 776.68 775.57 
3371 768.82 776.70 775.57 
3372 772.00 776.73 775.57 
3373 771.02 776.73 775.57 
3374 767.86 776.84 775.57 
3375 768.70 776.61 775.57 
3376 767.42 776.66 775.57 
3377 771.08 776.71 775.57 
3378 770.39 776.70 775.57 
3379 770.62 776.70 775.57 
3380 768.97 776.61 775.57 
3381 770.57 776.77 775.57 
3382 770.74 776.69 775.57 
3383 768.76 776.72 775.57 
3384 769.64 776.74 775.57 
3385 770.85 776.69 775.57 
3386 774.64 777.04 775.57 
3387 769.26 776.97 775.57 
3388 769.87 776.83 775.57 
3389 772.60 777.11 775.57 
3390 771.55 777.11 775.57 
3391 770.21 776.71 775.57 
3392 770.30 777.20 775.57 
3393 770.13 777.07 775.57 
3394 771.70 777.01 775.57 
3395 769.02 777.08 775.57 
3396 771.48 777.28 775.57 
3397 771.89 777.21 775.57 
3398 770.91 777.19 775.57 
3399 766.72 777.14 775.57 
3400 771.32 777.20 775.57 
3401 766.86 777.24 775.57 
3402 770.55 777.19 775.57 
3403 768.02 777.13 775.57 
3404 773.66 777.11 775.57 
3405 769.02 777.15 775.57 
3406 772.15 777.08 775.57 
3407 772.25 777.12 775.57 
3408 768.06 777.20 775.57 
3409 770.69 777.20 775.57 
3410 767.28 777.11 775.57 
3411 769.66 777.28 775.57 
3412 768.03 777.26 775.57 
3413 771.91 777.25 775.57 
3414 771.26 777.25 775.57 
3415 771.41 777.19 775.57 
3416 770.83 777.09 775.57 
3417 767.93 777.00 775.57 
3418 771.15 777.07 775.57 
3419 769.07 777.14 775.57 
3420 770.18 777.15 775.57 
3421 772.19 777.19 775.57 
3422 769.41 777.02 775.57 
3423 768.86 777.14 775.57 
3424 772.12 777.03 775.57 
3425 771.95 777.16 775.57 
3426 769.44 777.02 775.57 
3427 771.39 776.90 775.57 
3428 772.07 777.03 775.57 
3429 768.95 776.75 775.57 
3430 771.46 777.02 775.57 
3431 769.57 776.99 775.57 
3432 771.94 777.00 775.57 
3433 770.22 776.91 775.57 
3434 771.25 776.92 775.57 
3435 772.88 776.88 775.57 
3436 767.92 776.88 775.57 
3437 770.05 776.96 775.57 
3438 769.98 776.94 775.57 
3439 774.78 776.97 775.57 
3440 772.24 777.07 775.57 
3441 768.99 777.06 775.57 
3442 773.26 777.09 775.57 
3443 769.93 776.94 775.57 
3444 770.86 776.99 775.57 
3445 771.82 776.87 775.57 
3446 767.13 777.06 775.57 
3447 769.41 777.04 775.57 
3448 768.82 777.00 775.57 
3449 769.02 777.14 775.57 
3450 766.97 776.95 775.57 
3451 768.25 776.93 775.57 
3452 770.25 777.08 775.57 
3453 769.96 777.01 775.57 
3454 766.39 776.91 775.57 
3455 769.26 776.92 775.57 
3456 773.62 776.89 775.57 
3457 768.59 777.08 775.57 
3458 766.78 777.09 775.57 
3459 771.13 777.15 775.57 
3460 769.12 776.88 775.57 
3461 768.12 776.93 775.57 
3462 771.13 776.87 775.57 
3463 769.79 776.77 775.57 
3464 771.62 776.73 775.57 
3465 773.30 776.93 775.57 
3466 769.42 776.77 775.57 
3467 767.92 776.94 775.57 
3468 769.03 776.96 775.57 
3469 768.25 776.87 775.57 
3470 769.47 777.14 775.57 
3471 771.98 777.01 775.57 
3472 767.90 776.94 775.57 
3473 765.75 777.12 775.57 
3474 769.58 776.95 775.57 
3475 768.76 777.04 775.57 
3476 769.56 776.96 775.57 
3477 772.69 777.05 775.57 
3478 769.75 777.09 775.57 
3479 768.78 777.00 775.57 
3480 768.81 776.98 775.57 
3481 769.04 776.94 775.57 
3482 771.20 776.89 775.57 
3483 768.93 777.08 775.57 
3484 769.60 776.99 775.57 
3485 770.64 776.88 775.57 
3486 770.13 776.98 775.57 
3487 772.44 776.89 775.57 
3488 773.41 777.06 775.57 
3489 766.64 776.97 775.57 
3490 770.10 777.11 775.57 
3491 772.17 776.84 775.57 
3492 770.33 776.92 775.57 
3493 769.31 776.96 775.57 
3494 768.38 776.77 775.57 
3495 773.25 777.07 775.57 
3496 771.60 777.12 775.57 
3497 773.13 777.08 775.57 
3498 766.38 777.13 775.57 
3499 770.53 777.20 775.57 
3500 772.08 777.25 775.57 
3501 768.31 777.26 775.57 
3502 768.78 777.31 775.57 
3503 766.58 777.21 775.57 
3504 771.36 777.08 775.57 
3505 772.08 777.17 775.57 
3506 768.43 777.28 775.57 
3507 768.39 777.28 775.57 
3508 768.42 777.35 775.57 
3509 769.01 777.27 775.57 
3510 770.98 777.16 775.57 
3511 767.23 777.12 775.57 
3512 769.42 777.23 775.57 
3513 767.57 777.31 775.57 
3514 769.23 777.11 775.57 
3515 769.56 777.19 775.57 
3516 769.97 777.19 775.57 
3517 772.12 777.34 775.57 
3518 770.17 777.26 775.57 
3519 767.94 777.32 775.57 
3520 770.35 777.22 775.57 
3521 770.60 777.28 775.57 
3522 771.97 777.11 775.57 
3523 770.03 777.38 775.57 
3524 770.45 777.27 775.57 
3525 773.62 777.31 775.57 
3526 769.88 777.34 775.57 
3527 772.16 777.16 775.57 
3528 770.39 777.15 775.57 
3529 772.47 777.03 775.57 
3530 770.40 776.89 775.57 
3531 771.25 776.93 775.57 
3532 768.88 777.19 775.57 
3533 769.72 777.06 775.57 
3534 769.57 777.09 775.57 
3535 771.04 777.24 775.57 
3536 770.61 777.04 775.57 
3537 767.70 777.26 775.57 
3538 770.86 777.00 775.57 
3539 768.15 776.98 775.57 
3540 769.89 776.92 775.57 
3541 769.84 777.27 775.57 
3542 765.45 777.13 775.57 
3543 769.14 777.22 775.57 
3544 771.18 777.06 775.57 
3545 772.72 777.11 775.57 
3546 767.82 776.99 775.57 
3547 773.26 777.02 775.57 
3548 770.32 776.78 775.57 
3549 768.92 776.96 775.57 
3550 771.25 776.74 775.57 
3551 774.30 777.08 775.57 
3552 771.31 776.79 775.57 
3553 770.57 776.62 775.57 
3554 772.29 776.82 775.57 
3555 772.60 776.71 775.57 
3556 770.59 776.19 775.57 
3557 771.59 776.70 775.57 
3558 771.03 776.73 775.57 
3559 772.35 776.10 775.57 
3560 770.70 775.01 775.57 
3561 768.50 776.42 775.57 
3562 768.39 775.14 775.57 
3563 770.72 776.46 775.57 
3564 772.76 776.43 775.57 
3565 770.89 775.74 775.57 
3566 770.92 775.79 775.57 
3567 772.81 776.65 775.57 
3568 770.16 776.67 775.57 
3569 771.42 776.79 775.57 
3570 770.99 776.75 775.57 
3571 770.92 776.63 775.57 
3572 771.55 776.56 775.57 
3573 769.59 776.76 775.57 
3574 767.59 776.81 775.57 
3575 773.67 776.76 775.57 
3576 768.92 776.80 775.57 
3577 770.25 776.63 775.57 
3578 769.56 776.94 775.57 
3579 770.67 776.81 775.57 
3580 772.66 777.16 775.57 
3581 769.17 777.18 775.57 
3582 771.55 777.19 775.57 
3583 770.18 777.01 775.57 
3584 769.68 777.17 775.57 
3585 771.55 777.22 775.57 
3586 769.77 777.14 775.57 
3587 769.35 776.98 775.57 
3588 771.42 777.24 775.57 
3589 767.89 777.25 775.57 
3590 773.74 776.92 775.57 
3591 769.56 776.83 775.57 
3592 769.65 776.58 775.57 
3593 769.24 777.30 775.57 
3594 770.94 777.16 775.57 
3595 771.94 777.08 775.57 
3596 772.34 777.40 775.57 
3597 772.44 776.96 775.57 
3598 767.14 776.73 775.57 
3599 771.43 776.41 775.57 
3600 770.58 776.57 775.57 
3601 766.18 776.62 775.57 
3602 769.61 776.31 775.57 
3603 766.89 776.55 775.57 
3604 767.83 776.68 775.57 
3605 768.33 776.85 775.57 
3606 774.74 776.83 775.57 
3607 771.97 776.69 775.57 
3608 770.42 776.80 775.57 
3609 767.91 776.76 775.57 
3610 772.22 777.21 775.57 
3611 765.82 777.42 775.57 
3612 769.51 777.54 775.57 
3613 769.40 777.48 775.57 
3614 768.47 777.37 775.57 
3615 770.29 777.30 775.57 
3616 770.82 777.58 775.57 
3617 767.71 777.37 775.57 
3618 772.90 777.52 775.57 
3619 770.27 777.46 775.57 
3620 769.42 777.49 775.57 
3621 767.57 777.56 775.57 
3622 774.64 777.58 775.57 
3623 769.91 777.43 775.57 
3624 770.08 777.54 775.57 
3625 769.83 777.61 775.57 
3626 767.55 777.56 775.57 
3627 768.79 777.58 775.57 
3628 770.88 777.56 775.57 
3629 770.57 777.52 775.57 
3630 768.07 777.43 775.57 
3631 767.30 777.47 775.57 
3632 770.55 777.57 775.57 
3633 770.55 777.53 775.57 
3634 769.03 777.52 775.57 
3635 770.99 777.66 775.57 
3636 770.81 777.70 775.57 
3637 773.01 777.70 775.57 
3638 771.00 777.70 775.57 
3639 769.56 777.86 775.57 
3640 770.32 777.65 775.57 
3641 773.27 777.60 775.57 
3642 768.36 777.70 775.57 
3643 771.04 777.70 775.57 
3644 770.64 777.75 775.57 
3645 770.12 777.65 775.57 
3646 769.48 777.76 775.57 
3647 771.56 777.80 775.57 
3648 769.11 777.68 775.57 
3649 769.86 777.65 775.57 
3650 770.18 777.79 775.57 
3651 768.36 777.71 775.57 
3652 772.82 777.63 775.57 
3653 766.39 777.53 775.57 
3654 771.56 777.63 775.57 
3655 771.83 777.73 775.57 
3656 772.14 777.70 775.57 
3657 774.01 777.61 775.57 
3658 768.12 777.67 775.57 
3659 770.56 777.73 775.57 
3660 773.43 777.71 775.57 
3661 767.68 777.66 775.57 
3662 769.27 777.57 775.57 
3663 771.83 777.79 775.57 
3664 768.30 777.80 775.57 
3665 771.44 777.70 775.57 
3666 769.14 777.74 775.57 
3667 770.27 777.70 775.57 
3668 768.07 777.66 775.57 
3669 770.36 777.69 775.57 
3670 769.06 777.63 775.57 
3671 774.20 777.47 775.57 
3672 768.30 777.61 775.57 
3673 770.12 777.54 775.57 
3674 770.46 777.38 775.57 
3675 770.79 777.53 775.57 
3676 772.21 777.56 775.57 
3677 769.48 777.50 775.57 
3678 770.75 777.43 775.57 
3679 769.08 777.45 775.57 
3680 770.50 777.46 775.57 
3681 767.83 777.59 775.57 
3682 770.93 777.59 775.57 
3683 772.21 777.40 775.57 
3684 771.05 777.36 775.57 
3685 767.85 777.49 775.57 
3686 770.38 777.61 775.57 
3687 772.96 777.52 775.57 
3688 768.38 777.60 775.57 
3689 769.93 777.53 775.57 
3690 770.42 777.51 775.57 
3691 770.04 777.47 775.57 
3692 765.90 777.41 775.57 
3693 768.16 777.51 775.57 
3694 768.99 777.22 775.57 
3695 769.12 777.30 775.57 
3696 770.95 777.36 775.57 
3697 769.90 777.04 775.57 
3698 772.46 777.32 775.57 
3699 771.21 777.52 775.57 
3700 772.24 777.57 775.57 
3701 770.64 777.44 775.57 
3702 772.02 777.62 775.57 
3703 770.87 777.66 775.57 
3704 771.59 777.69 775.57 
3705 771.15 777.64 775.57 
3706 774.41 777.64 775.57 
3707 771.47 777.70 775.57 
3708 770.38 777.75 775.57 
3709 772.05 777.81 775.57 
3710 770.29 777.82 775.57 
3711 772.88 777.76 775.57 
3712 770.13 777.80 775.57 
3713 769.90 777.85 775.57 
3714 772.30 777.70 775.57 
3715 770.04 777.78 775.57 
3716 770.70 777.82 775.57 
3717 769.29 777.91 775.57 
3718 770.08 777.85 775.57 
3719 767.86 777.81 775.57 
3720 772.49 777.65 775.57 
3721 773.23 777.54 775.57 
3722 770.97 777.81 775.57 
3723 767.54 777.80 775.57 
3724 772.93 777.85 775.57 
3725 770.99 777.76 775.57 
3726 770.80 777.82 775.57 
3727 768.95 777.83 775.57 
3728 770.62 777.92 775.57 
3729 768.59 777.96 775.57 
3730 768.02 777.92 775.57 
3731 770.68 777.93 775.57 
3732 767.84 777.90 775.57 
3733 769.78 777.88 775.57 
3734 770.61 777.81 775.57 
3735 769.40 777.92 775.57 
3736 768.94 777.81 775.57 
3737 769.86 777.70 775.57 
3738 773.22 777.70 775.57 
3739 771.58 777.69 775.57 
3740 771.97 777.62 775.57 
3741 771.51 777.59 775.57 
3742 768.95 777.75 775.57 
3743 767.92 777.71 775.57 
3744 770.53 777.91 775.57 
3745 769.54 777.83 775.57 
3746 771.70 777.79 775.57 
3747 771.81 777.76 775.57 
3748 770.55 777.69 775.57 
3749 770.16 777.78 775.57 
3750 773.06 777.76 775.57 
3751 768.28 777.69 775.57 
3752 769.34 777.65 775.57 
3753 771.82 777.63 775.57 
3754 769.15 777.65 775.57 
3755 770.52 777.64 775.57 
3756 769.64 777.66 775.57 
3757 770.08 777.62 775.57 
3758 770.57 777.62 775.57 
3759 770.43 777.71 775.57 
3760 770.32 777.55 775.57 
3761 770.54 777.74 775.57 
3762 771.38 777.57 775.57 
3763 770.87 777.65 775.57 
3764 770.58 777.55 775.57 
3765 769.56 777.55 775.57 
3766 770.89 777.37 775.57 
3767 771.56 777.51 775.57 
3768 769.61 777.53 775.57 
3769 771.17 777.55 775.57 
3770 769.98 777.55 775.57 
3771 771.17 777.52 775.57 
3772 772.55 777.51 775.57 
3773 768.29 777.56 775.57 
3774 766.72 777.50 775.57 
3775 771.81 777.67 775.57 
3776 769.38 777.60 775.57 
3777 769.26 777.58 775.57 
3778 767.79 777.63 775.57 
3779 772.29 777.72 775.57 
3780 771.67 777.62 775.57 
3781 770.29 777.61 775.57 
3782 771.74 777.71 775.57 
3783 768.43 777.64 775.57 
3784 769.31 777.60 775.57 
3785 771.67 777.59 775.57 
3786 773.85 777.63 775.57 
3787 770.69 777.45 775.57 
3788 772.24 777.45 775.57 
3789 769.67 777.59 775.57 
3790 768.61 777.49 775.57 
3791 769.58 777.55 775.57 
3792 769.82 777.66 775.57 
3793 768.00 777.71 775.57 
3794 768.97 777.72 775.57 
3795 771.78 777.54 775.57 
3796 768.62 777.49 775.57 
3797 770.28 777.55 775.57 
3798 769.16 777.60 775.57 
3799 773.16 777.45 775.57 
3800 772.95 777.59 775.57 
3801 772.56 777.50 775.57 
3802 772.22 777.44 775.57 
3803 768.88 777.31 775.57 
3804 771.28 777.59 775.57 
3805 770.92 777.56 775.57 
3806 769.95 777.57 775.57 
3807 767.60 777.53 775.57 
3808 774.32 777.59 775.57 
3809 767.94 777.40 775.57 
3810 769.55 777.72 775.57 
3811 769.37 777.67 775.57 
3812 769.48 777.48 775.57 
3813 771.74 777.36 775.57 
3814 768.31 777.19 775.57 
3815 770.56 777.14 775.57 
3816 768.71 777.41 775.57 
3817 772.79 777.12 775.57 
3818 772.70 777.25 775.57 
3819 771.59 777.15 775.57 
3820 771.38 777.35 775.57 
3821 769.38 777.30 775.57 
3822 770.42 777.32 775.57 
3823 771.72 777.20 775.57 
3824 764.11 777.17 775.57 
3825 770.08 777.46 775.57 
3826 771.98 777.33 775.57 
3827 771.52 777.04 775.57 
3828 768.96 777.20 775.57 
3829 769.62 776.92 775.57 
3830 773.06 777.04 775.57 
3831 772.68 777.17 775.57 
3832 769.86 777.02 775.57 
3833 772.78 777.18 775.57 
3834 771.34 776.89 775.57 
3835 771.01 777.09 775.57 
3836 772.23 777.00 775.57 
3837 769.41 776.94 775.57 
3838 768.59 776.83 775.57 
3839 771.87 776.89 775.57 
3840 771.62 777.12 775.57 
3841 770.71 777.21 775.57 
3842 765.77 777.16 775.57 
3843 769.09 777.19 775.57 
3844 770.60 777.11 775.57 
3845 768.90 777.47 775.57 
3846 770.75 777.29 775.57 
3847 771.41 777.35 775.57 
3848 769.75 777.25 775.57 
3849 769.29 777.24 775.57 
3850 770.56 777.32 775.57 
3851 769.25 777.33 775.57 
3852 768.67 777.37 775.57 
3853 771.65 777.42 775.57 
3854 770.40 777.41 775.57 
3855 768.43 777.56 775.57 
3856 769.17 777.40 775.57 
3857 771.32 777.33 775.57 
3858 771.92 777.52 775.57 
3859 772.55 777.17 775.57 
3860 769.73 777.39 775.57 
3861 771.16 777.45 775.57 
3862 770.98 777.48 775.57 
3863 769.21 777.19 775.57 
3864 774.87 777.30 775.57 
3865 768.11 777.40 775.57 
3866 770.69 777.43 775.57 
3867 769.83 777.26 775.57 
3868 772.35 777.37 775.57 
3869 769.48 777.35 775.57 
3870 771.30 777.36 775.57 
3871 767.41 777.21 775.57 
3872 771.25 777.30 775.57 
3873 770.13 777.19 775.57 
3874 770.65 777.42 775.57 
3875 767.40 777.38 775.57 
3876 770.77 777.18 775.57 
3877 769.47 777.34 775.57 
3878 769.50 777.35 775.57 
3879 771.66 777.31 775.57 
3880 771.55 777.29 775.57 
3881 767.82 777.29 775.57 
3882 770.38 777.27 775.57 
3883 769.58 777.17 775.57 
3884 770.45 777.35 775.57 
3885 770.24 777.37 775.57 
3886 773.88 777.22 775.57 
3887 769.16 777.25 775.57 
3888 774.73 777.21 775.57 
3889 772.96 777.16 775.57 
3890 771.74 777.38 775.57 
3891 765.88 777.25 775.57 
3892 768.58 777.12 775.57 
3893 772.61 777.14 775.57 
3894 768.71 777.28 775.57 
3895 770.50 777.17 775.57 
3896 774.47 777.29 775.57 
3897 770.77 777.31 775.57 
3898 771.83 777.28 775.57 
3899 770.93 777.29 775.57 
3900 771.09 777.31 775.57 
3901 767.20 777.13 775.57 
3902 772.45 777.21 775.57 
3903 768.27 777.39 775.57 
3904 771.14 777.03 775.57 
3905 766.85 777.13 775.57 
3906 769.77 777.25 775.57 
3907 769.61 777.19 775.57 
3908 769.95 777.12 775.57 
3909 769.50 776.74 775.57 
3910 771.54 776.88 775.57 
3911 770.47 776.96 775.57 
3912 769.90 776.61 775.57 
3913 772.54 776.66 775.57 
3914 768.28 776.52 775.57 
3915 771.29 776.82 775.57 
3916 772.66 776.81 775.57 
3917 771.21 776.93 775.57 
3918 769.31 776.73 775.57 
3919 771.44 776.76 775.57 
3920 767.82 776.67 775.57 
3921 771.44 776.80 775.57 
3922 769.49 776.71 775.57 
3923 771.63 776.89 775.57 
3924 769.89 776.89 775.57 
3925 768.77 777.11 775.57 
3926 770.16 777.32 775.57 
3927 770.35 777.04 775.57 
3928 771.83 777.21 775.57 
3929 772.22 777.08 775.57 
3930 770.90 777.14 775.57 
3931 771.86 776.82 775.57 
3932 771.39 777.00 775.57 
3933 770.85 776.75 775.57 
3934 769.18 776.67 775.57 
3935 772.67 776.95 775.57 
3936 768.65 777.25 775.57 
3937 772.20 777.00 775.57 
3938 768.54 777.26 775.57 
3939 771.74 777.15 775.57 
3940 767.80 777.10 775.57 
3941 768.64 777.11 775.57 
3942 771.56 777.19 775.57 
3943 773.20 777.02 775.57 
3944 769.33 777.10 775.57 
3945 770.31 777.20 775.57 
3946 771.43 777.24 775.57 
3947 768.89 776.94 775.57 
3948 770.38 777.03 775.57 
3949 772.25 777.12 775.57 
3950 767.93 777.10 775.57 
3951 771.70 777.15 775.57 
3952 771.32 776.88 775.57 
3953 770.04 776.98 775.57 
3954 768.68 777.09 775.57 
3955 774.76 777.08 775.57 
3956 772.29 777.25 775.57 
3957 771.14 777.05 775.57 
3958 770.11 777.07 775.57 
3959 770.78 777.23 775.57 
3960 770.29 777.26 775.57 
3961 769.33 777.15 775.57 
3962 771.37 777.16 775.57 
3963 768.50 777.18 775.57 
3964 772.50 777.22 775.57 
3965 772.71 777.22 775.57 
3966 770.54 777.18 775.57 
3967 766.63 777.39 775.57 
3968 769.23 777.25 775.57 
3969 770.74 777.28 775.57 
3970 770.75 777.38 775.57 
3971 772.27 777.22 775.57 
3972 771.42 777.34 775.57 
3973 772.17 777.49 775.57 
3974 769.50 777.44 775.57 
3975 769.42 777.51 775.57 
3976 773.89 777.64 775.57 
3977 771.62 777.60 775.57 
3978 773.37 777.56 775.57 
3979 770.03 777.57 775.57 
3980 773.08 777.41 775.57 
3981 768.32 777.57 775.57 
3982 769.30 777.54 775.57 
3983 772.69 777.34 775.57 
3984 767.68 777.33 775.57 
3985 772.62 777.36 775.57 
3986 768.87 777.20 775.57 
3987 767.73 777.35 775.57 
3988 770.47 777.38 775.57 
3989 770.92 777.30 775.57 
3990 768.77 777.28 775.57 
3991 772.94 777.27 775.57 
3992 771.28 777.46 775.57 
3993 767.97 777.28 775.57 
3994 772.65 777.37 775.57 
3995 768.82 777.21 775.57 
3996 769.93 777.35 775.57 
3997 771.71 777.37 775.57 
3998 772.64 777.30 775.57 
3999 767.26 776.94 775.57 
4000 769.94 777.08 775.57 
4001 770.59 777.19 775.57 
4002 770.56 777.08 775.57 
4003 773.04 777.23 775.57 
4004 768.94 777.49 775.57 
4005 770.69 777.36 775.57 
4006 771.46 777.30 775.57 
4007 770.06 777.11 775.57 
4008 770.57 777.12 775.57 
4009 768.03 777.17 775.57 
4010 772.19 777.14 775.57 
4011 769.89 777.30 775.57 
4012 772.07 777.56 775.57 
4013 769.17 777.25 775.57 
4014 770.89 777.25 775.57 
4015 766.93 777.16 775.57 
4016 771.96 777.18 775.57 
4017 772.01 777.02 775.57 
4018 769.90 777.18 775.57 
4019 769.55 777.07 775.57 
4020 767.00 776.87 775.57 
4021 768.30 777.18 775.57 
4022 771.22 777.06 775.57 
4023 771.45 777.05 775.57 
4024 771.44 776.88 775.57 
4025 769.50 777.14 775.57 
4026 770.49 776.99 775.57 
4027 768.88 777.19 775.57 
4028 771.34 776.99 775.57 
4029 771.55 776.90 775.57 
4030 769.80 776.93 775.57 
4031 770.09 777.20 775.57 
4032 770.14 776.99 775.57 
4033 771.86 776.76 775.57 
4034 771.30 776.71 775.57 
4035 772.56 776.97 775.57 
4036 768.98 776.97 775.57 
4037 772.75 777.12 775.57 
4038 771.19 776.99 775.57 
4039 768.77 777.01 775.57 
4040 769.85 776.93 775.57 
4041 770.73 776.98 775.57 
4042 771.94 777.18 775.57 
4043 768.11 777.06 775.57 
4044 768.02 777.06 775.57 
4045 769.45 777.01 775.57 
4046 772.86 777.20 775.57 
4047 769.70 777.24 775.57 
4048 768.90 777.12 775.57 
4049 768.04 777.20 775.57 
4050 770.60 777.00 775.57 
4051 769.56 777.11 775.57 
4052 769.86 776.92 775.57 
4053 767.67 777.03 775.57 
4054 772.11 776.94 775.57 
4055 766.82 777.04 775.57 
4056 771.09 776.80 775.57 
4057 770.27 776.99 775.57 
4058 769.11 777.13 775.57 
4059 767.90 777.15 775.57 
4060 775.60 776.93 775.57 
4061 767.56 777.15 775.60 
4062 769.34 777.03 775.60 
4063 772.47 777.20 775.60 
4064 769.69 777.19 775.60 
4065 770.77 777.18 775.60 
4066 772.97 777.14 775.60 
4067 772.88 777.35 775.60 
4068 771.62 777.44 775.60 
4069 769.62 777.40 775.60 
4070 773.82 777.42 775.60 
4071 770.64 777.56 775.60 
4072 773.54 777.52 775.60 
4073 772.30 777.40 775.60 
4074 772.86 777.38 775.60 
4075 770.77 777.40 775.60 
4076 768.67 777.50 775.60 
4077 771.88 777.33 775.60 
4078 769.30 777.39 775.60 
4079 771.69 777.32 775.60 
4080 770.58 777.25 775.60 
4081 771.51 777.43 775.60 
4082 773.40 777.32 775.60 
4083 771.49 777.25 775.60 
4084 772.76 777.35 775.60 
4085 772.21 777.35 775.60 
4086 774.04 777.22 775.60 
4087 769.81 777.31 775.60 
4088 770.14 776.94 775.60 
4089 771.02 776.95 775.60 
4090 773.59 776.98 775.60 
4091 770.10 776.86 775.60 
4092 772.55 776.86 775.60 
4093 769.43 776.91 775.60 
4094 772.16 777.24 775.60 
4095 770.17 777.04 775.60 
4096 770.95 777.14 775.60 
4097 770.70 777.13 775.60 
4098 770.94 777.13 775.60 
4099 770.85 777.29 775.60 
4100 770.77 777.12 775.60 
4101 769.86 776.97 775.60 
4102 769.99 777.48 775.60 
4103 769.34 777.11 775.60 
4104 767.08 777.16 775.60 
4105 769.94 777.06 775.60 
4106 768.50 777.05 775.60 
4107 769.64 777.12 775.60 
4108 767.45 777.08 775.60 
4109 768.55 777.28 775.60 
4110 770.76 777.01 775.60 
4111 769.06 777.07 775.60 
4112 774.69 777.34 775.60 
4113 770.62 777.35 775.60 
4114 769.65 777.13 775.60 
4115 771.03 777.06 775.60 
4116 770.12 777.26 775.60 
4117 768.44 776.98 775.60 
4118 770.13 776.94 775.60 
4119 769.25 777.16 775.60 
4120 770.99 777.01 775.60 
4121 766.42 777.50 775.60 
4122 769.32 777.32 775.60 
4123 769.12 777.09 775.60 
4124 771.37 777.33 775.60 
4125 770.33 777.27 775.60 
4126 770.38 777.38 775.60 
4127 770.21 777.36 775.60 
4128 770.88 777.57 775.60 
4129 772.00 777.46 775.60 
4130 771.57 777.34 775.60 
4131 770.87 777.73 775.60 
4132 769.74 777.30 775.60 
4133 770.63 777.51 775.60 
4134 769.47 777.53 775.60 
4135 769.00 777.52 775.60 
4136 770.39 777.47 775.60 
4137 771.97 777.72 775.60 
4138 771.69 777.49 775.60 
4139 773.06 777.69 775.60 
4140 769.03 777.57 775.60 
4141 771.60 777.43 775.60 
4142 770.85 777.49 775.60 
4143 768.08 777.53 775.60 
4144 770.01 777.35 775.60 
4145 771.12 777.48 775.60 
4146 768.68 777.43 775.60 
4147 771.12 777.33 775.60 
4148 770.51 777.56 775.60 
4149 769.80 777.43 775.60 
4150 772.56 777.38 775.60 
4151 769.25 777.58 775.60 
4152 771.27 777.37 775.60 
4153 768.97 777.54 775.60 
4154 769.53 777.38 775.60 
4155 770.65 777.48 775.60 
4156 771.27 777.33 775.60 
4157 772.56 777.38 775.60 
4158 770.61 777.37 775.60 
4159 767.91 777.40 775.60 
4160 771.11 777.42 775.60 
4161 774.09 777.41 775.60 
4162 770.62 777.45 775.60 
4163 772.37 777.45 775.60 
4164 770.92 777.46 775.60 
4165 771.32 777.35 775.60 
4166 772.15 777.36 775.60 
4167 770.73 777.40 775.60 
4168 770.42 777.36 775.60 
4169 771.14 777.34 775.60 
4170 773.43 777.34 775.60 
4171 768.51 777.44 775.60 
4172 767.76 777.42 775.60 
4173 769.50 777.45 775.60 
4174 771.40 777.32 775.60 
4175 771.77 777.56 775.60 
4176 768.81 777.49 775.60 
4177 769.94 777.24 775.60 
4178 771.09 777.37 775.60 
4179 769.69 777.48 775.60 
4180 773.02 777.36 775.60 
4181 774.59 777.18 775.60 
4182 769.95 777.17 775.60 
4183 768.03 777.14 775.60 
4184 773.14 777.07 775.60 
4185 770.16 777.32 775.60 
4186 770.68 777.16 775.60 
4187 768.92 777.13 775.60 
4188 770.53 777.55 775.60 
4189 771.50 777.43 775.60 
4190 771.69 777.37 775.60 
4191 769.62 777.10 775.60 
4192 770.89 777.38 775.60 
4193 770.46 777.36 775.60 
4194 771.28 777.09 775.60 
4195 770.30 777.23 775.60 
4196 766.88 777.18 775.60 
4197 769.77 777.16 775.60 
4198 773.09 777.23 775.60 
4199 771.65 777.36 775.60 
4200 768.51 777.32 775.60 
4201 770.15 777.14 775.60 
4202 771.67 777.22 775.60 
4203 770.80 777.20 775.60 
4204 770.50 777.19 775.60 
4205 766.63 777.71 775.60 
4206 768.40 777.56 775.60 
4207 771.54 777.42 775.60 
4208 769.02 777.50 775.60 
4209 772.16 777.60 775.60 
4210 765.87 777.35 775.60 
4211 771.87 777.42 775.60 
4212 767.46 777.30 775.60 
4213 769.52 777.30 775.60 
4214 770.10 777.42 775.60 
4215 772.16 777.52 775.60 
4216 769.44 777.34 775.60 
4217 769.10 777.35 775.60 
4218 768.99 777.53 775.60 
4219 770.30 777.39 775.60 
4220 772.96 777.20 775.60 
4221 768.62 777.34 775.60 
4222 771.51 777.26 775.60 
4223 771.72 777.15 775.60 
4224 770.70 777.14 775.60 
4225 770.35 777.06 775.60 
4226 771.68 777.20 775.60 
4227 770.00 777.21 775.60 
4228 771.94 777.36 775.60 
4229 772.58 777.27 775.60 
4230 771.87 777.14 775.60 
4231 771.32 777.18 775.60 
4232 771.01 777.25 775.60 
4233 767.72 777.21 775.60 
4234 770.47 777.00 775.60 
4235 772.11 777.16 775.60 
4236 768.91 777.06 775.60 
4237 769.63 777.13 775.60 
4238 769.18 777.30 775.60 
4239 766.96 777.18 775.60 
4240 770.87 777.07 775.60 
4241 771.49 777.35 775.60 
4242 768.88 777.34 775.60 
4243 769.85 777.08 775.60 
4244 768.49 777.16 775.60 
4245 770.70 776.90 775.60 
4246 769.85 777.24 775.60 
4247 771.66 777.18 775.60 
4248 771.68 777.15 775.60 
4249 769.62 777.03 775.60 
4250 772.07 776.92 775.60 
4251 773.02 776.80 775.60 
4252 768.83 776.89 775.60 
4253 768.20 776.98 775.60 
4254 771.71 777.09 775.60 
4255 771.27 776.85 775.60 
4256 767.82 776.90 775.60 
4257 771.23 776.83 775.60 
4258 769.71 776.74 775.60 
4259 768.85 777.21 775.60 
4260 769.07 776.90 775.60 
4261 769.74 777.16 775.60 
4262 771.02 777.30 775.60 
4263 769.88 777.35 775.60 
4264 769.95 777.18 775.60 
4265 767.84 777.23 775.60 
4266 768.70 777.24 775.60 
4267 767.26 777.28 775.60 
4268 770.39 777.31 775.60 
4269 770.10 777.17 775.60 
4270 768.93 777.25 775.60 
4271 774.07 777.42 775.60 
4272 771.24 777.14 775.60 
4273 768.64 777.44 775.60 
4274 769.81 777.43 775.60 
4275 767.58 777.19 775.60 
4276 769.37 777.29 775.60 
4277 767.84 777.53 775.60 
4278 770.73 777.46 775.60 
4279 770.81 777.49 775.60 
4280 771.31 777.50 775.60 
4281 771.72 777.49 775.60 
4282 771.25 777.70 775.60 
4283 771.78 777.35 775.60 
4284 771.78 777.61 775.60 
4285 771.07 777.55 775.60 
4286 772.86 777.65 775.60 
4287 770.54 777.63 775.60 
4288 772.67 777.56 775.60 
4289 770.82 777.50 775.60 
4290 770.47 777.44 775.60 
4291 770.62 777.43 775.60 
4292 769.63 777.29 775.60 
4293 771.36 776.90 775.60 
4294 769.34 777.21 775.60 
4295 770.84 777.28 775.60 
4296 774.90 777.44 775.60 
4297 772.70 777.42 775.60 
4298 769.00 777.33 775.60 
4299 769.86 777.42 775.60 
4300 770.83 777.60 775.60 
4301 773.99 777.54 775.60 
4302 770.82 777.52 775.60 
4303 767.54 777.52 775.60 
4304 768.62 777.45 775.60 
4305 768.54 777.48 775.60 
4306 773.58 777.40 775.60 
4307 766.16 777.24 775.60 
4308 770.18 777.39 775.60 
4309 770.46 777.40 775.60 
4310 772.03 777.33 775.60 
4311 770.95 777.17 775.60 
4312 769.71 777.34 775.60 
4313 770.52 777.33 775.60 
4314 771.18 777.37 775.60 
4315 768.32 777.30 775.60 
4316 771.08 776.98 775.60 
4317 767.97 776.84 775.60 
4318 771.43 777.21 775.60 
4319 768.15 777.30 775.60 
4320 772.76 777.48 775.60 
4321 770.83 777.49 775.60 
4322 769.24 777.35 775.60 
4323 769.09 777.30 775.60 
4324 767.49 777.42 775.60 
4325 770.90 777.35 775.60 
4326 771.39 777.50 775.60 
4327 771.59 777.48 775.60 
4328 773.40 777.48 775.60 
4329 769.29 777.45 775.60 
4330 771.84 777.53 775.60 
4331 770.00 777.41 775.60 
4332 769.54 777.52 775.60 
4333 770.76 777.52 775.60 
4334 770.02 777.58 775.60 
4335 766.85 777.55 775.60 
4336 772.19 777.51 775.60 
4337 771.22 777.38 775.60 
4338 770.18 777.31 775.60 
4339 772.40 777.28 775.60 
4340 772.81 777.34 775.60 
4341 772.96 777.30 775.60 
4342 769.55 777.34 775.60 
4343 767.77 777.33 775.60 
4344 771.78 777.42 775.60 
4345 770.30 777.27 775.60 
4346 768.90 777.27 775.60 
4347 769.66 777.31 775.60 
4348 768.75 777.29 775.60 
4349 769.62 777.02 775.60 
4350 769.98 777.03 775.60 
4351 771.56 777.11 775.60 
4352 767.38 777.01 775.60 
4353 770.98 776.96 775.60 
4354 768.08 776.90 775.60 
4355 770.48 776.91 775.60 
4356 768.55 776.91 775.60 
4357 769.76 777.21 775.60 
4358 769.26 777.17 775.60 
4359 771.01 777.23 775.60 
4360 768.13 777.15 775.60 
4361 771.26 777.15 775.60 
4362 767.89 777.08 775.60 
4363 770.89 777.14 775.60 
4364 771.74 777.04 775.60 
4365 771.06 777.10 775.60 
4366 773.03 777.35 775.60 
4367 770.52 777.14 775.60 
4368 772.08 777.14 775.60 
4369 772.76 777.01 775.60 
4370 768.55 777.22 775.60 
4371 772.40 776.96 775.60 
4372 771.69 776.98 775.60 
4373 772.35 777.28 775.60 
4374 770.18 777.09 775.60 
4375 770.31 777.15 775.60 
4376 770.72 776.97 775.60 
4377 768.42 777.38 775.60 
4378 772.83 777.34 775.60 
4379 770.16 777.46 775.60 
4380 772.95 777.14 775.60 
4381 768.26 777.45 775.60 
4382 769.37 777.46 775.60 
4383 772.16 777.44 775.60 
4384 770.56 777.38 775.60 
4385 768.33 777.34 775.60 
4386 769.13 777.43 775.60 
4387 769.11 777.26 775.60 
4388 772.43 777.15 775.60 
4389 769.62 777.28 775.60 
4390 770.15 777.45 775.60 
4391 772.91 777.42 775.60 
4392 768.25 777.46 775.60 
4393 768.09 777.17 775.60 
4394 767.94 777.19 775.60 
4395 770.03 777.51 775.60 
4396 769.70 777.58 775.60 
4397 769.30 777.58 775.60 
4398 772.70 777.49 775.60 
4399 766.82 777.42 775.60 
4400 772.37 777.62 775.60 
4401 772.66 777.51 775.60 
4402 770.70 777.31 775.60 
4403 771.49 777.40 775.60 
4404 772.41 777.29 775.60 
4405 769.09 777.47 775.60 
4406 770.43 777.49 775.60 
4407 769.52 777.59 775.60 
4408 771.72 777.57 775.60 
4409 770.27 777.59 775.60 
4410 772.18 777.52 775.60 
4411 767.85 777.60 775.60 
4412 769.56 777.55 775.60 
4413 771.53 777.64 775.60 
4414 768.48 777.67 775.60 
4415 771.18 777.71 775.60 
4416 769.68 777.73 775.60 
4417 770.22 777.61 775.60 
4418 769.21 777.62 775.60 
4419 768.90 777.61 775.60 
4420 774.49 777.52 775.60 
4421 770.64 777.55 775.60 
4422 771.71 777.34 775.60 
4423 769.88 777.47 775.60 
4424 772.84 777.44 775.60 
4425 768.84 777.46 775.60 
4426 769.57 777.57 775.60 
4427 768.72 777.65 775.60 
4428 769.48 777.72 775.60 
4429 772.95 777.70 775.60 
4430 769.98 777.76 775.60 
4431 772.62 777.75 775.60 
4432 772.55 777.64 775.60 
4433 770.29 777.53 775.60 
4434 770.05 777.49 775.60 
4435 768.96 777.62 775.60 
4436 770.93 777.47 775.60 
4437 770.75 777.65 775.60 
4438 771.00 777.60 775.60 
4439 772.19 777.64 775.60 
4440 770.89 777.60 775.60 
4441 770.34 777.55 775.60 
