iteration,time_sampling,stoc_pol_mean,stoc_pol_std,stoc_pol_max,stoc_pol_min,rollout_success,alpha,delta,time_vpg,time_npg,kl_dist,surr_improvement,running_score,rwd_sparse,rwd_dense,success_percentage,num_samples,time_VF,VF_error_before,VF_error_after,eval_score,eval_success
0,2.547848701477051,-348.77829503200047,49.52944185865294,-270.0168373079165,-648.3309745746348,0.0,0.6356883792438025,0.1,0.013804197311401367,0.1519467830657959,0.05037599,0.17876141,-348.77829503200047,-2.6399117308320004,-6.9378398487460915,0.0,3191,0.29382777214050293,0.9996821951969934,0.703278007941405,-422.91072937621027,0.0
1,2.2641761302948,-351.39186434682733,54.97530014270962,-271.1246544627023,-637.7747729880239,0.0,0.7873775942637652,0.1,0.0060155391693115234,0.13145732879638672,0.055944804,0.1549985,-349.0396519634832,-2.646753162101066,-6.9905331580665795,0.0,3171,0.288623571395874,0.7105196839204017,0.21242315157882086,-419.40144666434594,0.0
2,2.4144093990325928,-363.18633851810296,69.43356938632178,-262.64050084037035,-703.2506230751203,0.0,0.9052868852921339,0.1,0.006027698516845703,0.13134169578552246,0.050111946,0.114809856,-350.4543206189452,-2.6705276615720166,-7.226004350115423,0.0,3238,0.2865407466888428,0.23001726310662712,0.18037498141844321,-403.9952304630806,0.0
3,2.3265326023101807,-346.87278160728505,46.29383367064442,-261.6133627837296,-615.3154542888169,0.0,0.8469610307286907,0.1,0.0059931278228759766,0.13161516189575195,0.048420273,0.12001693,-350.09616671777917,-2.6597218301706342,-6.8995695600030915,0.0,3143,0.29242563247680664,0.1609759443739408,0.1080568224041607,-400.30316322106944,0.0
4,2.3239328861236572,-351.0227360771749,72.28845840561708,-248.82433829274086,-725.5165481199306,0.0,0.79738432910741,0.1,0.014420747756958008,0.13095712661743164,0.04894489,0.12333676,-350.18882365371877,-2.686261060290017,-6.982817633816649,0.0,3138,0.28725337982177734,0.14255219966322483,0.09596228356806354,-386.4756273124277,0.0
5,2.477086305618286,-367.1052968160511,81.82453889637264,-265.5405358406933,-677.7761147022621,0.0,0.8993978708654208,0.1,0.005941867828369141,0.1275768280029297,0.052534692,0.11349159,-351.880470969952,-2.724853447994422,-7.3047895014666215,0.0,3244,0.2872283458709717,0.10346701163599537,0.07718437868787659,-387.77462445002044,0.0
6,2.327677011489868,-344.74604602931885,47.55478642558523,-247.3534395234638,-667.2291112560041,0.0,0.7881813563001184,0.1,0.006109952926635742,0.1324300765991211,0.05371298,0.13089523,-351.1670284758887,-2.6745969066611917,-6.858096703033738,0.0,3107,0.284437894821167,0.049628320561590805,0.03946027076648866,-389.59864697400553,0.0
7,2.4792261123657227,-349.6209314488722,51.620685248817836,-268.58431312824905,-541.6394104778775,0.0,0.848880924132675,0.1,0.0057485103607177734,0.13188958168029785,0.051525753,0.14164515,-351.01241877318705,-2.627583979229437,-6.95486710986955,0.0,3165,0.2907445430755615,0.04026956499470248,0.036791419330166476,-390.5592319620795,0.0
8,2.682281732559204,-361.1727061758067,73.96711649874365,-280.9715978888836,-707.1566360972206,0.0,0.7771392950915684,0.1,0.006097316741943359,0.15311789512634277,0.048921432,0.13190877,-352.02844751344907,-2.704452256039152,-7.185464630164705,0.0,3191,0.3016021251678467,0.06477531560972677,0.06112114253398937,-396.9355132579164,0.0
9,2.3316831588745117,-344.4202584526415,43.990881413212556,-277.0624829253143,-574.0398190150418,0.0,0.8001889707436532,0.1,0.005826234817504883,0.1317577362060547,0.048710916,0.122192875,-351.2676286073683,-2.701253032247834,-6.851353944895824,0.0,3119,0.27762293815612793,0.03762578249915924,0.030195107861652592,-389.35503572854793,0.0
10,2.3580470085144043,-346.43543496449365,43.969509192175664,-252.88338615592494,-491.3517028334946,0.0,0.7569689800440397,0.1,0.00603795051574707,0.13617420196533203,0.050729178,0.12940729,-350.7844092430808,-2.641406090649833,-6.891155294789254,0.0,3150,0.2809021472930908,0.03028277143806897,0.02700523260472266,-381.6307417441278,0.0
11,2.3557517528533936,-344.9068527703178,54.79392374176514,-272.2884994534036,-711.3659762531732,0.0,0.73807492883825,0.1,0.005708456039428711,0.12854242324829102,0.050939593,0.1146214,-350.1966535958045,-2.608433752646633,-6.860048189274084,0.0,3141,0.2799406051635742,0.043623665178789316,0.041325836498959,-391.90644704153294,0.0
12,2.5009007453918457,-340.1681277536157,59.53444537736555,-263.59786139364337,-690.6642467807889,0.0,0.7272002445317827,0.1,0.005955696105957031,0.1387035846710205,0.051474553,0.12033727,-349.19380101158566,-2.5702207893595244,-6.766074452356464,0.0,3127,0.28159332275390625,0.05578675088630136,0.04796429930004736,-383.60774622075985,0.0
13,2.4797139167785645,-346.7125182487027,54.43770567056835,-258.0501263866726,-668.7573774103085,0.0,0.7777559071887906,0.1,0.006138324737548828,0.1312854290008545,0.050457038,0.10935055,-348.9456727352974,-2.6215094758759236,-6.897055763112779,0.0,3140,0.2990078926086426,0.04421115717744342,0.03825756486732071,-367.21832355761865,0.0
14,2.4932496547698975,-346.45444417509407,56.62085505179333,-279.1152296216754,-658.0491981996074,0.0,0.7850369199189225,0.1,0.005807161331176758,0.13360309600830078,0.049754947,0.11712961,-348.6965498792771,-2.6804807376193422,-6.891476996635963,0.0,3144,0.3467216491699219,0.03945419267414815,0.03671515988717873,-355.23676554133726,0.0
15,2.5173373222351074,-354.6569695909341,74.76054215803026,-235.9125357770841,-666.7017780851662,0.0,0.8034409580007711,0.1,0.005939006805419922,0.1320629119873047,0.050804175,0.11085791,-349.2925918504428,-2.614867351579902,-7.0554249491575005,0.0,3230,0.3968958854675293,0.0691763750513349,0.060414468489467105,-350.40011707210545,0.0
16,2.4065752029418945,-349.4056705256753,60.93309443216668,-278.2982429408587,-632.443790662736,0.0,0.7981234598889663,0.1,0.0060007572174072266,0.1327526569366455,0.048882294,0.12672037,-349.3038997179661,-2.717436524192794,-6.949944357609522,0.0,3200,0.4305233955383301,0.04422792441806083,0.041092954193492716,-347.764972010114,0.0
17,2.4402778148651123,-331.56277317925617,53.18058215382809,-261.1511216341561,-617.6879024787008,0.0,0.7421866570001053,0.1,0.006273508071899414,0.13573050498962402,0.049389377,0.12003968,-347.5297870640951,-2.5370871601951093,-6.594760037968993,0.0,3137,0.45890069007873535,0.03875313333571773,0.034600276333038436,-315.67206409604864,0.0
18,2.4393186569213867,-340.078678140033,52.542068038731536,-255.838459522229,-606.5224152011835,0.0,0.8221795926140706,0.1,0.0064008235931396484,0.13499188423156738,0.050566476,0.11996387,-346.7846761716889,-2.7063221524322056,-6.763386224666578,0.0,3164,0.488131046295166,0.03320148277168626,0.030548270991075946,-302.06156580006984,0.0
19,2.7280924320220947,-338.44226385665723,53.183773773870215,-250.78077224874275,-683.7830129626813,0.0,0.7317161461855736,0.1,0.006291627883911133,0.14088678359985352,0.049686506,0.13408941,-345.9504349401857,-2.5597406410271923,-6.731245082806897,0.0,3181,0.4817676544189453,0.04100493465837762,0.036988703573057787,-282.24438566143,0.0
20,2.348088502883911,-338.6378170555982,60.86158591709492,-255.2985040557737,-734.2340860506605,0.0,0.7131965090897103,0.1,0.0063762664794921875,0.12987065315246582,0.050438482,0.11346381,-345.2191731517269,-2.6216422593882167,-6.736016916982837,0.0,3160,0.47095799446105957,0.04320581707170328,0.04017454878682528,-266.75557295137855,0.0
21,2.3817248344421387,-337.33858005964515,42.36659145557404,-263.559782715993,-596.9526952253298,0.0,0.7780866639534384,0.1,0.0060956478118896484,0.13454556465148926,0.050413396,0.12051568,-344.43111384251876,-2.6029369870490964,-6.70827636186377,0.0,3133,0.4640350341796875,0.026795490495643687,0.02462024276843653,-237.68238159856296,0.0
22,2.436699390411377,-328.4754028766145,38.36094806556793,-256.09820373742656,-492.6566849038262,0.0,0.836934390093405,0.1,0.006170511245727539,0.1325855255126953,0.051230554,0.11681079,-342.8355427459283,-2.5736240370823853,-6.531692918808062,0.0,3131,0.46272921562194824,0.01936305943096521,0.017138005866590564,-223.66349208542286,0.0
23,2.3855364322662354,-327.1496035189652,39.46635502429932,-253.23920490069926,-494.5391845507235,0.0,0.742297799949924,0.1,0.00642085075378418,0.1313471794128418,0.051231936,0.12537242,-341.26694882323204,-2.6060335667302796,-6.505516646747875,0.0,3107,0.45530271530151367,0.024427686043092197,0.021466047707424094,-206.44280073164566,0.0
24,2.4732143878936768,-331.5314931470245,55.489913366234596,-250.48363835621535,-631.2264357935197,1.0416666666666667,0.7235560061500537,0.1,0.006243705749511719,0.13701224327087402,0.05222114,0.10773497,-340.2934032556113,-2.5374372462872237,-6.593387524378095,1.0416666666666667,3170,0.47229743003845215,0.04147555747653983,0.03560615280531304,-201.98251062233322,0.0
25,2.518954277038574,-331.07074113146973,42.15176999392312,-264.5350186372309,-580.8633305896752,0.0,0.6973067044278092,0.1,0.006060361862182617,0.1352066993713379,0.05106459,0.120772,-339.3711370431971,-2.5444688831006688,-6.584826381948616,0.0,3170,0.4856436252593994,0.025974848528815517,0.02360604352229673,-210.39478111540114,0.0
26,2.3444199562072754,-331.7914544859828,50.869345772558994,-263.67174908331987,-586.0530963302099,0.0,0.7277139136641648,0.1,0.0060956478118896484,0.13698387145996094,0.0507206,0.11103566,-338.6131687874757,-2.6806095425594614,-6.5975597102186185,0.0,3176,0.49448132514953613,0.03685365807457969,0.034263945441062114,-219.71555207761747,0.0
27,2.343048334121704,-326.20043989861637,59.85766862188006,-238.83850488743502,-579.1062539982869,0.0,0.7663488488599736,0.1,0.01348567008972168,0.13039541244506836,0.049599744,0.11629551,-337.37189589858974,-2.465806489214072,-6.485795374384647,0.0,3172,0.47086286544799805,0.04421885823202622,0.0416198135794147,-207.8127092952319,0.0
28,2.4103567600250244,-320.51167729787267,45.86885976547091,-241.02950865241323,-572.5127103816249,0.0,0.756091499278791,0.1,0.0062255859375,0.13160920143127441,0.050842453,0.16505696,-335.685874038518,-2.517623774158072,-6.372922765095621,0.0,3151,0.47497105598449707,0.022874407629894192,0.02075228665671463,-212.1750756320699,0.0
29,2.3819761276245117,-317.6082423232155,36.444087289234,-256.8423928357136,-466.8410498264117,0.0,0.7456963833390189,0.1,0.005932807922363281,0.13007712364196777,0.048498042,0.118199356,-333.8781108669878,-2.5100786176286003,-6.314874863989235,0.0,3131,0.46702003479003906,0.019760342023681165,0.01672149695099752,-211.95118405850465,0.0
30,2.5633020401000977,-317.96152145820093,43.78598539779995,-243.01793804616426,-532.2863242495918,1.0416666666666667,0.786941121442716,0.1,0.006036520004272461,0.13118338584899902,0.050914403,0.119913094,-332.2864519261091,-2.5033221059143433,-6.321967275909899,1.0416666666666667,3145,0.47365665435791016,0.02538586415710824,0.02413784694573063,-215.12164727714128,0.0
31,2.708956480026245,-326.8492551873464,51.084432346002146,-248.0245295405888,-595.1570847028679,1.0416666666666667,0.7582159490581893,0.1,0.005889415740966797,0.13649678230285645,0.04941598,0.124456584,-331.7427322522329,-2.6109485262436065,-6.499503262602591,1.0416666666666667,3184,0.4851846694946289,0.03599959715375166,0.031191379653378606,-213.0864726073347,0.0
32,2.4238033294677734,-327.27036289890503,58.40774653945665,-225.93612656909175,-614.2232736001771,0.0,0.7952074446713059,0.1,0.006331205368041992,0.13492894172668457,0.049416058,0.123755254,-331.29549531690014,-2.6504568549072167,-6.507262359723843,0.0,3149,0.48882126808166504,0.03583641769949704,0.03390916461897605,-217.7595154070654,0.0
33,2.5654525756835938,-318.2342792797428,43.23969447602873,-246.71069064004394,-496.85587587686473,0.0,0.7936394059110844,0.1,0.005793571472167969,0.14604806900024414,0.050300024,0.13173649,-329.98937371318436,-2.5384657886039785,-6.327507671406619,0.0,3133,0.4812583923339844,0.020188399866115755,0.019154104377409206,-215.12939055965862,0.0
34,2.5138983726501465,-329.1226507254609,57.877969891862975,-246.0588617002707,-584.5630733854728,0.0,0.7937351410754017,0.1,0.006051301956176758,0.13778257369995117,0.050502174,0.11642515,-329.90270141441204,-2.545398738153191,-6.544206076610133,0.0,3199,0.4799668788909912,0.035999076427857345,0.033409894307073154,-209.243100206424,0.0
35,2.4384958744049072,-313.59309955369605,38.972227401140955,-248.91937755996898,-525.4942517156828,0.0,0.7456887834947141,0.1,0.00583195686340332,0.13141536712646484,0.049503848,0.111307755,-328.27174122834043,-2.4811557232746804,-6.233650037822261,0.0,3147,0.4810597896575928,0.01778138273451888,0.016086008685164622,-221.415281370806,0.0
36,2.405989646911621,-322.5227161975428,64.3884849049381,-241.637499289639,-657.774066922902,2.0833333333333335,0.7800489835385709,0.1,0.006026029586791992,0.13524413108825684,0.050391495,0.1062131,-327.6968387252607,-2.4979983790078086,-6.413814201906585,2.0833333333333335,3151,0.4845542907714844,0.05237362500881869,0.043330447102452395,-243.80991757039797,0.0
37,2.4565742015838623,-315.60841136132257,56.62393803408187,-243.94817085237963,-589.1654456600542,0.0,0.7054034740607983,0.1,0.00607609748840332,0.1291825771331787,0.049747247,0.11608502,-326.4879959888669,-2.492191480895633,-6.27418523138293,0.0,3168,0.48653078079223633,0.04026890235909442,0.03445507425037423,-244.6911667164203,0.0
38,2.4239068031311035,-320.2911213297261,52.99730778316714,-251.1534584026574,-667.8458451147246,0.0,0.7768085570549635,0.1,0.006303071975708008,0.14272642135620117,0.04833785,0.118809745,-325.8683085229528,-2.5271638392358633,-6.368356252087558,0.0,3184,0.48908162117004395,0.034038603661078616,0.031785960180400974,-250.23107937778937,0.0
39,2.4401755332946777,-318.13502190231446,42.748186681364594,-231.208664115213,-490.22226028077745,0.0,0.7301752984935689,0.1,0.006255626678466797,0.13608956336975098,0.05043652,0.123669915,-325.094979860889,-2.641878885453822,-6.324157137510203,0.0,3179,0.49280381202697754,0.025472640034674393,0.02125214203234173,-260.6379176067808,0.0
40,2.528808116912842,-309.7838792172033,33.884869474462626,-245.82842943300832,-419.0534468289487,0.0,0.7509291513475275,0.1,0.007056713104248047,0.13794589042663574,0.049114134,0.19615772,-323.56386979652046,-2.5654278810356232,-6.156752368562356,0.0,3155,0.5109307765960693,0.015041706972887644,0.01349426699372286,-248.70142665996565,0.0
41,2.378797769546509,-310.17122602864924,46.93871032537753,-243.3852717253011,-518.9321480830309,0.0,0.7523508057545943,0.1,0.005791187286376953,0.13002538681030273,0.050604377,0.11939265,-322.22460541973334,-2.5094817158783385,-6.165005500700512,0.0,3144,0.4779789447784424,0.025049416386219384,0.02353111348657732,-247.59863332270066,0.0
42,2.6083710193634033,-302.45928689204294,34.55871822671077,-239.04171777006684,-413.64191781255875,0.0,0.7890746179104714,0.1,0.005993366241455078,0.13112401962280273,0.05028396,0.13024502,-320.2480735669643,-2.4770408952777356,-6.0112945818249885,0.0,3105,0.4741497039794922,0.014832612250746566,0.012132894697483462,-276.88732698987826,0.0
43,2.4559648036956787,-309.1453314578564,37.3848386678928,-233.01519300019254,-510.321188584439,0.0,0.8584088617061036,0.1,0.0058345794677734375,0.13398098945617676,0.0503997,0.10930073,-319.1377993560535,-2.5428207082433745,-6.145161547085093,0.0,3141,0.4724400043487549,0.018661971362449913,0.016252311325575156,-260.7530098938918,0.0
44,2.5610101222991943,-315.38678993094595,45.004552652124694,-237.12694812033953,-577.5232006839448,1.0416666666666667,0.7637937104797763,0.1,0.0059452056884765625,0.12782740592956543,0.051107954,0.12621035,-318.76269841354275,-2.6051789447131295,-6.27107541280107,1.0416666666666667,3217,0.48134827613830566,0.027391045583032802,0.024284441059765,-269.2046766029239,0.0
45,2.4121344089508057,-312.601362969727,49.15377640088403,-239.48924400860625,-647.6565037910271,0.0,0.7596107231500686,0.1,0.005811929702758789,0.1322629451751709,0.05002517,0.12498064,-318.1465648691612,-2.650321880921283,-6.213864267130131,0.0,3150,0.48149895668029785,0.030910293472147923,0.027188594853394442,-271.9183225184297,0.0
46,2.4297115802764893,-303.09971575929245,38.073055587187625,-235.03346755708253,-449.5391797067507,0.0,0.8156178428401314,0.1,0.0061953067779541016,0.134446382522583,0.04992376,0.11434902,-316.6418799581743,-2.4893173464488503,-6.023672948812514,0.0,3189,0.4875528812408447,0.018744358403463494,0.0179999741294338,-282.27376531975335,0.0
47,2.527921438217163,-304.9301866675022,50.350914193230885,-232.0262433293852,-621.989223120255,0.0,0.7265732949374017,0.1,0.005993843078613281,0.13543438911437988,0.049712867,0.11426563,-315.4707106291071,-2.4646802334843962,-6.060880092620203,0.0,3195,0.49459362030029297,0.033802699291845144,0.029652750379592568,-302.9309527540912,0.0
48,2.398926258087158,-302.59679664694073,47.58836742673668,-239.75219479123723,-525.7403870966723,0.0,0.718008860555751,0.1,0.006014108657836914,0.13792896270751953,0.04920995,0.1324095,-314.1833192308905,-2.513572093351866,-6.013971491645869,0.0,3139,0.48181962966918945,0.026168989359007997,0.02227228117339376,-309.6970932951284,0.0
49,2.428638219833374,-304.92907925094767,53.18483930803064,-233.8235861805483,-539.600007618642,0.0,0.7042493014830903,0.1,0.005865812301635742,0.13209748268127441,0.05090195,0.16840614,-313.2578952328962,-2.527576884082626,-6.062084645910441,0.0,3165,0.47131872177124023,0.039281024406158147,0.03172881749130921,-334.0807909962224,0.0
50,2.4025049209594727,-303.71460275292606,44.49813867951497,-224.3157814248602,-514.608726909264,0.0,0.8254034790001274,0.1,0.005860567092895508,0.12993788719177246,0.05036731,0.12555222,-312.30356598489925,-2.5445006223349105,-6.035687401112614,0.0,3135,0.45394086837768555,0.03205217163779476,0.025916499113448344,-334.74771670141774,0.0
51,2.5759217739105225,-297.2931729105484,38.41841540260245,-225.16814995018342,-466.7565853132202,0.0,0.7892295773059362,0.1,0.02871561050415039,0.13456082344055176,0.05031654,0.11834533,-310.8025266774642,-2.5179809058374456,-5.90801270129928,0.0,3079,0.4681713581085205,0.020060912998964203,0.01740256464755929,-336.44440939703645,0.0
52,2.602339267730713,-290.781403639959,31.70153162559976,-225.00012444954268,-431.5622673438304,0.0,0.7928264591173274,0.1,0.005907535552978516,0.13197112083435059,0.051180236,0.12973236,-308.80041437371364,-2.4909845814572855,-5.7775246949310555,0.0,3062,0.45208096504211426,0.013631564173944925,0.01249903224345687,-330.63300098548467,0.0
53,2.3748373985290527,-291.42330743581863,41.14681085550982,-232.10626522033326,-530.8695607664927,2.0833333333333335,0.7409291219509663,0.1,0.006059885025024414,0.14290666580200195,0.04994542,0.109672666,-307.06270367992414,-2.458375137367177,-5.79089214159545,2.0833333333333335,3069,0.4518427848815918,0.025860561999478098,0.023369705788492606,-329.2098982637741,0.0
54,2.3939478397369385,-293.1895880708242,36.976946575797506,-230.08352724405736,-446.4707972029538,0.0,0.7161356280107858,0.1,0.005806922912597656,0.12976455688476562,0.05046351,0.14820488,-305.67539211901413,-2.5088600862658503,-5.825435010290744,0.0,3114,0.4418041706085205,0.017261148443349486,0.01381787939793293,-338.1190998782005,0.0
55,2.40100359916687,-295.11827133986316,42.800233106696524,-217.32525101685894,-512.7032933276295,0.0,0.7640759876664504,0.1,0.0060825347900390625,0.1328563690185547,0.050012045,0.119704634,-304.61968004109906,-2.5605935377764553,-5.8635015135981545,0.0,3037,0.42838597297668457,0.026490150364930885,0.022790824143417956,-341.00350663815607,0.0
56,2.427128791809082,-293.18789168493305,48.461155350106395,-224.36794851580947,-553.007785825403,0.0,0.7642098947000068,0.1,0.006043910980224609,0.13714361190795898,0.049714725,0.12388929,-303.47650120548246,-2.472011641759017,-5.826038596658588,0.0,3052,0.4314687252044678,0.030031081982408416,0.02756389465867606,-335.8829140797198,0.0
57,2.37280011177063,-288.0557638523073,42.59489931246403,-231.19625266661097,-599.0195399386473,0.0,0.6024582893853169,0.1,0.006207704544067383,0.13718390464782715,0.048413187,0.10830009,-301.93442747016496,-2.481668579757842,-5.723534766385378,0.0,2999,0.43336987495422363,0.03062935547822458,0.026582189234277864,-338.7287646787337,0.0
58,2.3801629543304443,-289.47988006396525,33.10931854861093,-226.6496730606657,-472.7584281721069,0.0,0.6715292823250647,0.1,0.00598454475402832,0.1362752914428711,0.05005314,0.20860384,-300.688972729545,-2.503888442608049,-5.75233563933233,0.0,3023,0.4296748638153076,0.016650584122779994,0.013991018746701054,-345.64136788140615,0.0
59,2.2848360538482666,-282.3505627355693,30.544673360049075,-222.26470610758753,-388.67587703675986,0.0,0.6463649378761572,0.1,0.005827426910400391,0.12485837936401367,0.04854113,0.26024923,-298.8551317301475,-2.474895398285524,-5.609352839054715,0.0,2985,0.42404913902282715,0.013243951947528781,0.011383245711571593,-330.24828694690234,0.0
60,2.36470103263855,-286.4520492466236,43.196631537146274,-227.33234440627433,-469.8073970825281,0.0,0.7728943699171344,0.1,0.005760669708251953,0.13094329833984375,0.04966649,0.11855624,-297.61482348179516,-2.448021995540231,-5.6913814880877185,0.0,3001,0.4204840660095215,0.02660266759255889,0.02423771436210187,-321.050297267761,0.0
61,2.3056387901306152,-279.4898469336383,31.177494932753458,-228.94516415730803,-387.51358031671936,0.0,0.5274758592965713,0.1,0.006035804748535156,0.13217782974243164,0.04940566,1.9734703,-295.8023258269795,-2.4214455458558852,-5.551816633387027,0.0,2973,0.4302694797515869,0.018049539622471217,0.014352540546019822,-331.9248935091616,0.0
62,2.3792495727539062,-281.0825530138076,32.77033080344395,-224.90559137280124,-419.71333582202135,0.0,0.795643151511607,0.1,0.005677700042724609,0.1313948631286621,0.049826853,0.11488344,-294.33034854566233,-2.5125886887291036,-5.583398103298278,0.0,2909,0.41933679580688477,0.01695346171693798,0.0150215988425594,-325.28805856042754,0.0
63,2.3168182373046875,-274.0641785056064,32.091049582026535,-210.05899805894242,-381.94996421767763,0.0,0.785513669305318,0.1,0.005873918533325195,0.12776732444763184,0.049560074,0.13538979,-292.3037315416567,-2.3856111395387085,-5.443512081227634,0.0,2944,0.4335048198699951,0.013217176028061552,0.01154255941366253,-313.5831183570148,0.0
64,2.572491407394409,-280.0459560427855,41.125578574259016,-222.76826113255115,-560.6776732333866,0.0,0.6681878551848243,0.1,0.006093263626098633,0.1313176155090332,0.048442192,0.11985576,-291.0779539917696,-2.4520513724249344,-5.5635519461548535,0.0,2903,0.42442870140075684,0.029841704616823166,0.02474868403654369,-316.4722525504585,0.0
65,2.279686212539673,-270.0129487249936,33.50441226048974,-209.99991356890064,-404.7936398892284,0.0,0.7183050774394888,0.1,0.006262302398681641,0.13012170791625977,0.050009128,0.1823437,-288.97145346509205,-2.4038416955663506,-5.36275498449011,0.0,2835,0.41425323486328125,0.01563095454908637,0.01267828430055055,-311.4320829488504,0.0
66,2.324120044708252,-272.37662230114785,23.819593666675686,-226.5593430835621,-370.0784421091002,0.0,0.6997348982326571,0.1,0.005939960479736328,0.13176846504211426,0.049660366,0.22739434,-287.3119703486976,-2.4638520506901465,-5.41060113189937,0.0,2854,0.42973923683166504,0.010380890507816704,0.00877145115352779,-317.4915969468848,0.0
67,2.284175395965576,-276.4873879773881,52.16409209258213,-218.89148510295425,-660.254652208357,0.0,0.6266927495077038,0.1,0.005841732025146484,0.1292421817779541,0.04923433,0.11951533,-286.2295121115667,-2.3298102652504933,-5.493159251367676,0.0,2863,0.4280126094818115,0.045540702041931294,0.037327801679983605,-309.97151130730003,0.0
68,2.2446095943450928,-277.8104363667272,50.41893340185182,-202.57866388900212,-608.755121254633,0.0,0.5469518454191451,0.1,0.005861759185791016,0.13099884986877441,0.04852916,0.26663986,-285.3876045370828,-2.4786571109274185,-5.518645798462754,0.0,2836,0.4143857955932617,0.04059826220067226,0.03383268888882242,-303.88050878634976,0.0
69,2.3015356063842773,-271.08250798883745,38.40946906044238,-214.20935656536636,-567.8724836042586,1.0416666666666667,0.7307680096231491,0.1,0.0057468414306640625,0.12208676338195801,0.051548824,0.1274169,-283.9570948822583,-2.3778138262965673,-5.3848077730521124,1.0416666666666667,2793,0.39884281158447266,0.023845241506794075,0.02097254534744775,-280.9332728757579,0.0
70,2.240546703338623,-273.66918721923116,45.66746148520925,-217.41005828581308,-650.4833318350186,0.0,0.6482446083163225,0.1,0.005519390106201172,0.12562108039855957,0.052212738,0.10717745,-282.92830411595554,-2.44818572130467,-5.436887256406963,0.0,2794,0.39714837074279785,0.031020533576750293,0.024775086716576886,-292.52023741858557,0.0
71,2.207266330718994,-265.05102237956885,25.806461725938284,-203.0948293597943,-331.46184080225606,0.0,0.828932602992696,0.1,0.00612640380859375,0.14569759368896484,0.049017657,0.118025996,-281.14057594231684,-2.4069901846038273,-5.263430326398825,0.0,2742,0.4051835536956787,0.013410474833841184,0.009475238488919456,-289.1100651836466,0.0
72,2.186319351196289,-270.015590226327,45.79150370113934,-215.80851409276147,-616.8275873350082,0.0,0.6489079389625597,0.1,0.005865573883056641,0.1317765712738037,0.04986773,0.14996539,-280.0280773707179,-2.40257308997247,-5.363860795503616,0.0,2764,0.4116663932800293,0.032374131812282,0.030017567380876985,-297.0265948429452,0.0
73,2.2152912616729736,-267.8518664514459,37.34256180021462,-203.59023316543994,-509.3715878304247,0.0,0.7341151083260358,0.1,0.0060880184173583984,0.13296222686767578,0.050840203,0.11589563,-278.8104562787907,-2.467036141564748,-5.320107509076902,0.0,2749,0.37805604934692383,0.02561273299281611,0.02287905735693743,-285.95449662182693,0.0
74,2.3336474895477295,-263.64584018014574,32.289418824034826,-213.2816863397504,-400.6848303948021,0.0,0.6977045619298091,0.1,0.005593538284301758,0.1269090175628662,0.049562808,0.17414297,-277.2939946689262,-2.414946792064228,-5.235080826875698,0.0,2707,0.38291335105895996,0.015792830811985598,0.014078522422774046,-271.3714742086121,0.0
75,2.3931832313537598,-256.87861876194717,23.949670501954945,-202.59228160178853,-323.909764980849,0.0,0.8194199618405995,0.1,0.00568699836730957,0.12896442413330078,0.050194576,0.11903784,-275.2524570782283,-2.334923182521404,-5.100160523198469,0.0,2708,0.3874025344848633,0.009840977669716798,0.007952681997716333,-272.1076411524306,0.0
76,2.3267109394073486,-259.24823172591294,30.985271306719007,-200.570376927512,-431.4811446703676,0.0,0.7320137627638502,0.1,0.005606174468994141,0.12546372413635254,0.049732752,0.15726213,-273.6520345429968,-2.348095118775395,-5.147614319309612,0.0,2682,0.37837648391723633,0.014534213367804376,0.01248675485208729,-274.297540478662,0.0
77,2.316549062728882,-264.2071445391298,47.317862217341535,-220.22588182468172,-657.9534162648469,0.0,0.5245470334162262,0.1,0.005833148956298828,0.12572622299194336,0.05016211,0.11114132,-272.7075455426101,-2.444948322392344,-5.247629472587676,0.0,2702,0.38309192657470703,0.05597594161093017,0.03859036348054321,-278.5669354810887,0.0
78,2.1882667541503906,-258.9219836507699,45.52053704910823,-207.44225252642573,-657.5837642305538,0.0,0.5812062693395631,0.1,0.0054857730865478516,0.12157464027404785,0.0486885,0.3671055,-271.3289893534261,-2.402994327552984,-5.140465777100404,0.0,2655,0.3735806941986084,0.042505747527744,0.03387144341212694,-264.1810746447786,0.0
79,2.2666611671447754,-259.51046169328225,32.83359693572945,-207.13306994611358,-447.43897364902153,1.0416666666666667,0.5574396478213506,0.1,0.0060880184173583984,0.13202118873596191,0.049440864,1.1441016,-270.1471365874117,-2.3378950081458725,-5.152533275368829,1.0416666666666667,2734,0.37578320503234863,0.02251033455471636,0.02007978043157917,-290.8554683608203,0.0
80,2.1034791469573975,-251.78051519120353,24.839595135614093,-199.53754763554232,-326.74291883383387,0.0,0.5835017146198134,0.1,0.0056874752044677734,0.1304607391357422,0.04964315,0.57188445,-268.3104744477909,-2.446103020673505,-4.997504103695803,0.0,2606,0.3600287437438965,0.011959441966496391,0.009359761430484772,-283.8065336784636,0.0
81,2.1023833751678467,-261.15170541506336,46.73867873858118,-198.08846405806253,-623.4026393580002,0.0,0.6295718915083611,0.1,0.005584001541137695,0.12540268898010254,0.05026997,0.10839583,-267.5945975445182,-2.438078882435404,-5.1856723075195115,0.0,2694,0.37113142013549805,0.038040716854741856,0.03346697686826551,-289.218164368635,0.0
82,2.1916379928588867,-254.4848844444543,22.08343339480125,-204.0327238163625,-302.2750991427049,0.0,0.83309208830161,0.1,0.005662202835083008,0.1257917881011963,0.049965132,0.12024082,-266.2836262345118,-2.360984386466614,-5.0531113484663415,0.0,2671,0.3643951416015625,0.009340954701514284,0.00790670011317655,-303.9688885306274,0.0
83,2.117422342300415,-252.2238731218681,22.46936595416093,-196.16302652916747,-312.5967668022203,0.0,0.7315530930159199,0.1,0.005427360534667969,0.11866021156311035,0.050858226,0.17948318,-264.8776509232474,-2.475942876190907,-5.007406402960576,0.0,2619,0.35242533683776855,0.008605206745846281,0.007896049081361609,-319.36793340852944,0.0
84,2.117176055908203,-252.9527396422553,34.650288991828255,-200.2776324645111,-480.3390266374625,0.0,0.6463374358758157,0.1,0.005839824676513672,0.1280651092529297,0.049635578,0.35020992,-263.6851597951482,-2.404142797154595,-5.0208306305170405,0.0,2637,0.37482619285583496,0.02152709087792636,0.017745578036288262,-327.6086662723403,0.0
85,2.164686918258667,-255.02780467604214,40.72031694973653,-208.3797798688314,-457.00149412078997,0.0,0.6652785481480405,0.1,0.0056073665618896484,0.12587499618530273,0.04984833,0.19440447,-262.8194242832376,-2.386516708725399,-5.064455212740603,0.0,2688,0.38511109352111816,0.029265183408980225,0.022601440895367423,-319.4344238239768,0.0
86,2.154881715774536,-249.502239039322,28.777324747035212,-209.2887165577799,-374.97859665677584,0.0,0.6767216284400477,0.1,0.0055468082427978516,0.12488126754760742,0.050703477,0.24055633,-261.48770575884606,-2.4350880816088805,-4.952711067580373,0.0,2572,0.35638952255249023,0.016105995065867355,0.01217396605771325,-324.645904609317,0.0
87,2.0665760040283203,-248.28604393799893,22.500778612594594,-199.77570657794323,-318.4601461984909,0.0,0.7178039255640271,0.1,0.005418539047241211,0.12186884880065918,0.05032756,0.1498754,-260.1675395767613,-2.4218584572719415,-4.92817257958519,0.0,2573,0.35092806816101074,0.008074638393880257,0.007625866518299113,-331.42040410378445,0.0
88,2.107759475708008,-239.50342178251097,29.157822167967673,-192.70356413387074,-420.55472008558286,1.0416666666666667,0.689839191120034,0.1,0.005812406539916992,0.12490510940551758,0.048692998,0.12707019,-258.1011277973363,-2.3257656123913395,-4.752957341654754,1.0416666666666667,2512,0.3427417278289795,0.015121351381100993,0.012144229710829953,-306.25211103012896,0.0
89,2.0331003665924072,-243.5033145842233,21.99204733642475,-203.57894217276376,-302.43905482824124,0.0,0.7524352815870605,0.1,0.006001472473144531,0.13738608360290527,0.050125904,0.14514157,-256.641346476025,-2.4184525537817176,-4.832570755948054,0.0,2500,0.3451223373413086,0.008472356560814511,0.006837568403363392,-312.88271151142675,0.0
90,2.0581369400024414,-237.83511989310864,19.13750328263586,-198.4677885851724,-301.5249574692538,0.0,0.7602324399988414,0.1,0.005659818649291992,0.12702417373657227,0.050641157,0.12821291,-254.76072381773338,-2.3439072538842622,-4.718963001381083,0.0,2479,0.340726375579834,0.007920737898670722,0.006695063188424221,-311.03876545336976,0.0
91,2.1057331562042236,-245.82997939368587,41.10070160281313,-202.48852314486652,-584.1948037604974,0.0,0.6224965707220483,0.1,0.0056645870208740234,0.1261754035949707,0.049704883,0.11182334,-253.86764937532865,-2.427158643095687,-4.879494860679863,0.0,2487,0.33667492866516113,0.030769216578143698,0.024655200996258436,-315.6512476706255,0.0
92,2.2636899948120117,-241.7431350434666,28.474697381499617,-187.98892414635048,-390.23017356745817,0.0,0.6721488670089254,0.1,0.0066225528717041016,0.13110733032226562,0.050008647,0.15876317,-252.65519794214245,-2.3776671457946743,-4.7971930219459535,0.0,2489,0.3499011993408203,0.014724729929370937,0.012125760138716205,-323.2648763013213,0.0
93,2.039957284927368,-234.9039526077993,17.50917434004569,-184.75484657230578,-282.4619428427599,0.0,0.7633933197425402,0.1,0.005737781524658203,0.12688207626342773,0.04985075,0.13116312,-250.88007340870814,-2.334319932175668,-4.661299480476516,0.0,2436,0.3495640754699707,0.007455952849957375,0.005851358009020421,-320.16716630520074,0.0
94,2.0268025398254395,-235.8003636755851,24.749305482890986,-178.29916370219368,-369.8514540370917,0.0,0.7240143913579938,0.1,0.005908489227294922,0.13494253158569336,0.050953407,0.126313,-249.37210243539585,-2.3508680536727233,-4.6784596839400665,0.0,2468,0.35810184478759766,0.009766665842576872,0.008389620383036934,-321.1868940492742,0.0
95,2.001390218734741,-236.43571197320162,21.221588294420485,-189.06993115398768,-316.55815738301266,0.0,0.7088417672907549,0.1,0.005824089050292969,0.12631964683532715,0.049264196,0.13294952,-248.07846338917645,-2.306836462459638,-4.691591048747078,0.0,2468,0.34158754348754883,0.008675838814047328,0.0075134790760447955,-316.2352225538852,0.0
96,1.9703683853149414,-233.68671362813407,30.59497325114003,-188.57247326562546,-409.3409587062839,0.0,0.5997883748597627,0.1,0.006150484085083008,0.13254880905151367,0.050032075,0.1258212,-246.63928841307222,-2.3474017714468496,-4.636308378014146,0.0,2425,0.33423852920532227,0.018538859400216757,0.015672573509592447,-316.36140861975565,6.25
97,2.0282998085021973,-236.16072144219763,19.816601407212417,-196.83833065893384,-286.3669907562875,0.0,0.7161479967560389,0.1,0.005879878997802734,0.12836980819702148,0.049508817,0.13809954,-245.59143171598478,-2.4599128342665795,-4.68639819837544,0.0,2410,0.3302786350250244,0.009395758317531604,0.006967209190273145,-313.0780014182724,0.0
98,2.0291502475738525,-237.56095437057203,25.04745059087793,-191.4297615801489,-376.34231154703946,0.0,0.7461803474990818,0.1,0.006044864654541016,0.12897658348083496,0.04960657,0.11665234,-244.78838398144353,-2.478168772400257,-4.714316571329821,0.0,2421,0.33657002449035645,0.011325835166585951,0.010148225362126983,-317.71124970260655,0.0
99,2.13073992729187,-229.0735355685739,20.095046821777512,-183.5112587909894,-292.6508523820253,0.0,0.7133119476897556,0.1,0.005615949630737305,0.13228058815002441,0.04983216,0.14199668,-243.21689914015658,-2.3724665112941605,-4.543685226626459,0.0,2362,0.32291483879089355,0.00730785277431691,0.006377955317051767,-312.5721019036173,0.0
100,2.0743823051452637,-227.6187291118639,17.773567918262238,-192.66144436822998,-272.105250605056,0.0,0.7406587336701761,0.1,0.005715131759643555,0.1252429485321045,0.04950466,0.13507894,-241.65708213732734,-2.375947335486894,-4.514581214957389,0.0,2345,0.32187771797180176,0.006908392870601517,0.006563606740888833,-316.6121446768369,0.0
101,1.9515385627746582,-232.5133808159329,19.439666595853716,-185.83589526925064,-296.357821484685,0.0,0.7248303695032495,0.1,0.005739927291870117,0.1256706714630127,0.0497135,0.13318296,-240.7427120051879,-2.4542351450708604,-4.612597430571136,0.0,2345,0.3267695903778076,0.007268385785342046,0.006823055347778965,-317.2547899681344,0.0
102,1.9605286121368408,-229.02618283577212,21.932293010566273,-192.1237246569165,-320.6145842336849,0.0,0.6908043483210478,0.1,0.00579524040222168,0.13115286827087402,0.049402233,0.14008379,-239.57105908824633,-2.3925434084582493,-4.542976740635395,0.0,2359,0.34003615379333496,0.008553265367951965,0.00797856513779269,-305.5022928114804,0.0
103,2.1030290126800537,-236.32291779505965,65.91407423054675,-186.9248880651712,-670.1358305893708,0.0,0.5640034945445306,0.1,0.005810260772705078,0.12704062461853027,0.050832212,0.118186526,-239.2462449589277,-2.4368804419662413,-4.68890788817471,0.0,2388,0.3414952754974365,0.09327354920553432,0.07857035882318314,-314.9704344500168,0.0
104,2.072672128677368,-228.92068666667294,25.051728684747818,-190.70199970707577,-409.9338529169742,0.0,0.6646050389462512,0.1,0.0058100223541259766,0.12538385391235352,0.04998838,0.13794576,-238.2136891297022,-2.4133010711190517,-4.540936839849663,0.0,2349,0.33103513717651367,0.017788822302542247,0.012791495632427074,-311.5737975105983,0.0
105,1.9558179378509521,-223.53780347178306,19.084460447808635,-175.63666522569838,-280.0882145726533,0.0,0.6966170502522447,0.1,0.005804538726806641,0.12737751007080078,0.050118048,0.15739581,-236.7461005639103,-2.397993214736642,-4.433204231837123,0.0,2300,0.3225369453430176,0.008298039518359245,0.006756667502288828,-316.1312938151385,0.0
106,2.2190299034118652,-226.9550771849055,18.273968887941546,-194.24954353519095,-294.80058520809365,0.0,0.7308173849971871,0.1,0.005744218826293945,0.12892365455627441,0.05041181,0.13248718,-235.7669982260098,-2.389070744562271,-4.501430092828104,0.0,2323,0.3379514217376709,0.00900955085620518,0.008081974387262172,-310.44349445813043,0.0
107,2.1182751655578613,-222.381279262034,19.892110213752513,-169.57447928541006,-270.36216675024446,0.0,0.7576758259443045,0.1,0.005673885345458984,0.1267099380493164,0.049958788,0.13175991,-234.42842632961225,-2.370597988903109,-4.409997206003393,0.0,2284,0.3268163204193115,0.007503665358606483,0.006771383638910098,-315.82130493247473,0.0
108,1.959174633026123,-223.78549451043372,17.73864171628429,-179.020633847488,-267.5836880308099,0.0,0.7502919458226812,0.1,0.006048917770385742,0.1297001838684082,0.05013521,0.13426667,-233.3641331476944,-2.360658462440326,-4.437432183278932,0.0,2325,0.3416013717651367,0.006633713329722052,0.006004624425762861,-302.0297709539525,0.0
109,1.888160228729248,-221.76444142000832,19.885314161353673,-181.27040222685378,-273.16041588077286,0.0,0.6940866631480631,0.1,0.005667209625244141,0.12402558326721191,0.050146002,0.14142229,-232.2041639749258,-2.3726581977011683,-4.398409128378015,0.0,2266,0.3191192150115967,0.0075054775670890285,0.007211311634744723,-284.4655135641383,0.0
110,1.9220826625823975,-219.45872763278877,17.298480902578003,-177.49294407625192,-263.62872960764264,0.0,0.709351439155437,0.1,0.005616903305053711,0.12136054039001465,0.04948532,0.14915885,-230.9296203407121,-2.368533488586398,-4.3515465890636165,0.0,2244,0.31859779357910156,0.0061264485679337795,0.005370452788391256,-277.2703004575762,0.0
111,1.9130585193634033,-223.19064897824464,19.028997597967827,-168.3306656955116,-279.97869409455103,0.0,0.7022815979641526,0.1,0.017026901245117188,0.12686896324157715,0.04981434,0.14642437,-230.15572320446535,-2.390640368744377,-4.426673949599141,0.0,2287,0.3230593204498291,0.00630843482264415,0.0057298940718095775,-270.9891083425387,0.0
112,1.8734946250915527,-216.88375718133622,13.66956094587007,-184.23076449431895,-250.0244722187319,0.0,0.7213722261602519,0.1,0.005503416061401367,0.12595772743225098,0.05024681,0.143748,-228.82852660215244,-2.4068224803458538,-4.299568564514766,0.0,2204,0.32160377502441406,0.0053055554008990735,0.00439372808108279,-265.0215167108678,0.0
113,1.8257923126220703,-213.9013258795181,16.808334822133308,-173.27935672464326,-269.34173928480226,0.0,0.6885187967415273,0.1,0.0054492950439453125,0.12333178520202637,0.050664123,0.14197136,-227.335806529889,-2.3377868444679755,-4.240456887974324,0.0,2196,0.3146817684173584,0.005696627536254176,0.0050732386503004115,-255.97055827565853,0.0
114,1.9165477752685547,-217.0862392994217,16.87435179679809,-182.1628879046384,-257.4627224717083,0.0,0.7556634177724494,0.1,0.005634307861328125,0.12545156478881836,0.04992476,0.13541403,-226.31084980684227,-2.352363599979757,-4.304269666158727,0.0,2212,0.31484127044677734,0.00668695893328082,0.005611037172637902,-248.05445401114167,0.0
115,1.8411407470703125,-222.77381008704558,53.56317774398213,-184.82691146312916,-719.5378584956545,0.0,0.5157339941785536,0.1,0.005938053131103516,0.1311328411102295,0.04983941,0.095447496,-225.95714583486262,-2.4888962518128435,-4.419010077461659,0.0,2210,0.32179927825927734,0.08080917024884339,0.058624556298914644,-248.65238931694336,0.0
116,1.8506827354431152,-214.76725806200662,22.071537486925653,-158.31646000252894,-320.15405321535906,0.0,0.6238398342908669,0.1,0.005573749542236328,0.12958431243896484,0.04937301,0.2755294,-224.838157057577,-2.368807875635135,-4.258145501977797,0.0,2163,0.30474090576171875,0.01711313878460061,0.008811632940519709,-250.07905496880124,0.0
117,1.8594818115234375,-215.57692411334315,16.084896029716294,-184.48802930141795,-254.08264505740564,1.0416666666666667,0.6758041769079411,0.1,0.005441188812255859,0.11980009078979492,0.049521368,0.17074108,-223.9120337631536,-2.394577677466136,-4.27418875395423,1.0416666666666667,2184,0.31065821647644043,0.0064729189251997495,0.005807347540791121,-240.31478623939574,0.0
118,1.8322057723999023,-214.4939429268878,18.36712500589231,-164.05619307152188,-262.0290098972101,0.0,0.713980754769281,0.1,0.006280660629272461,0.12656831741333008,0.050357614,0.13310617,-222.970224679527,-2.424659767317432,-4.2523246296037005,0.0,2155,0.3025221824645996,0.007203022151449944,0.006477704300917476,-237.32411121995554,0.0
119,1.9390356540679932,-212.58329451124584,19.098516337702947,-167.41199901339454,-289.3006379558796,0.0,0.7082123199190862,0.1,0.005617856979370117,0.12445378303527832,0.048893232,0.13572904,-221.9315316626989,-2.3277987639183237,-4.214273795290236,0.0,2165,0.3048224449157715,0.007888374395767393,0.00716570177437504,-231.30485842899105,0.0
120,1.949815034866333,-213.27549101675586,34.367957816316704,-162.00691649769968,-506.5038651240107,0.0,0.5259860093527929,0.1,0.005635976791381836,0.1261751651763916,0.048089202,0.18493845,-221.06592759810457,-2.352859732744475,-4.228196735834939,0.0,2158,0.29735517501831055,0.029706515772994338,0.026309347362347163,-224.91701411131118,0.0
121,1.9439923763275146,-212.22825920050528,16.819763287674217,-178.5525451020957,-254.2903201173898,0.0,0.759808924826927,0.1,0.005468606948852539,0.13071441650390625,0.04952374,0.13529581,-220.18216075834465,-2.377801982698655,-4.20755347710453,0.0,2136,0.29541540145874023,0.006943592465675491,0.006337708312096777,-228.26880867294966,0.0
122,1.7948768138885498,-213.21317408303375,18.052866138830964,-179.5104217056551,-268.32934133808885,0.0,0.6870838562976207,0.1,0.005444765090942383,0.1241905689239502,0.04808021,0.17812768,-219.48526209081356,-2.397054260725486,-4.227123345791131,0.0,2116,0.2959878444671631,0.006574171705612067,0.00568660255100403,-225.70500837725552,0.0
123,1.8159832954406738,-212.77168594043766,17.155527341526543,-175.86836426568658,-266.9872913308082,0.0,0.714978216046557,0.1,0.005605936050415039,0.12462449073791504,0.0477223,0.12972952,-218.81390447577596,-2.4749906770752137,-4.218268435813777,0.0,2140,0.3009967803955078,0.00586124767375125,0.0047991177609768764,-228.9121519969322,0.0
124,1.9895360469818115,-210.23057673539847,19.506103119626747,-171.98721847114916,-257.2215819112299,0.0,0.7296869980033912,0.1,0.004310131072998047,0.1061408519744873,0.05001139,0.13475062,-217.95557170173822,-2.3778774647741647,-4.167499615615597,0.0,2118,0.29801154136657715,0.005847551869071552,0.005124387503718369,-226.6749119676997,0.0
125,1.9505891799926758,-209.8722472789528,17.42543281945503,-172.73835068075059,-268.81636883273063,0.0,0.694086812627897,0.1,0.005911111831665039,0.1281750202178955,0.049249493,0.1312473,-217.1472392594597,-2.3920193664983525,-4.159022165816549,0.0,2122,0.3121311664581299,0.0061247414318956325,0.005423092838188017,-211.43902474750345,0.0
126,2.0421745777130127,-210.41835219217498,16.273670852776068,-171.3410262681864,-245.73507436581838,0.0,0.7213793302510104,0.1,0.005497932434082031,0.12569403648376465,0.05097911,0.14636718,-216.4743505527312,-2.465434306302645,-4.170552369935426,0.0,2113,0.30194544792175293,0.005126281230239811,0.004553084129460317,-215.833218122332,0.0
127,1.8678240776062012,-206.4274538167101,16.23655808056265,-175.31899819512574,-258.3037543403075,0.0,0.6231998263064654,0.1,0.005321979522705078,0.11971282958984375,0.05015216,0.15265158,-215.4696608791291,-2.3225499569513315,-4.089941614343853,0.0,2118,0.3010439872741699,0.006218164245875906,0.005127348466041477,-212.41372278489592,0.0
128,1.8931427001953125,-207.38858547627547,16.95611934835086,-170.98313642090682,-246.284892900301,0.0,0.7501364121691212,0.1,0.00584864616394043,0.1252431869506836,0.049697965,0.13194168,-214.66155333884376,-2.358736701414745,-4.110464562239497,0.0,2122,0.29470109939575195,0.005408105079863054,0.004627441919113029,-213.68013561956758,0.0
129,1.7936251163482666,-210.21488651168883,16.18763900342128,-169.5546906505997,-270.1572139703909,0.0,0.7514558809632217,0.1,0.005461215972900391,0.12255573272705078,0.04949489,0.13208906,-214.21688665612828,-2.381070980962988,-4.167118238063462,0.0,2111,0.28750085830688477,0.005177850519258325,0.004906147574279289,-213.92789523605512,0.0
130,1.7576451301574707,-209.2202312793588,16.70470499009392,-169.97325970131294,-244.91028891891185,0.0,0.7085703257283416,0.1,0.005469083786010742,0.11987876892089844,0.049480405,0.13698485,-213.71722111845133,-2.394943778206269,-4.14693039063958,0.0,2091,0.2884535789489746,0.00526499126824286,0.004785664972271671,-215.11324037425686,0.0
131,1.7884578704833984,-210.69589093584364,17.73181426096013,-174.91709362891766,-263.18219999945444,0.0,0.6984065152624211,0.1,0.005408287048339844,0.1188046932220459,0.050131176,0.14645343,-213.4150881001906,-2.468950275285129,-4.175957882302737,0.0,2096,0.28661346435546875,0.0046983377299846096,0.0042373090432548536,-208.7049905483433,0.0
132,1.7988955974578857,-210.06572973040093,16.979797310072165,-175.12446876842358,-267.4562983674018,0.0,0.7385447058948774,0.1,0.005502223968505859,0.12638235092163086,0.0494606,0.1579845,-213.08015226321163,-2.4421540597940785,-4.163101572950073,0.0,2110,0.29859471321105957,0.00587338416567985,0.0052967064617929415,-208.53251313312086,0.0
133,1.7186250686645508,-208.14378242451767,17.56332438225393,-170.9508462112963,-255.72803154767777,0.0,0.7244841314568277,0.1,0.005719661712646484,0.12273120880126953,0.05035378,0.13253923,-212.58651527934225,-2.3933163761667586,-4.124906946872211,0.0,2086,0.29192399978637695,0.0054156463900535716,0.0047788892729579875,-202.700490074126,0.0
134,1.8348283767700195,-204.40821738082704,17.372512145064437,-168.5647139090601,-260.32218886210336,0.0,0.6664742137864036,0.1,0.005434989929199219,0.12362933158874512,0.04847851,0.18068852,-211.76868548949074,-2.2994968170162045,-4.050337025470168,0.0,2087,0.28994011878967285,0.005635376370803215,0.005244737888372636,-207.26785787375212,0.0
135,1.8137743473052979,-204.6128546931791,17.711203542610093,-168.9855529798924,-273.76754332941084,0.0,0.6856753350797947,0.1,0.005803823471069336,0.12444186210632324,0.049871143,0.13824667,-211.05310240985958,-2.389767208248695,-4.054634451423699,0.0,2051,0.2987504005432129,0.005821109088259034,0.004948918691791609,-204.44624729861602,0.0
136,1.7784068584442139,-202.23568439839923,16.155329136311714,-163.6774512191301,-242.95748866066913,1.0416666666666667,0.6762448434086231,0.1,0.005570411682128906,0.11948347091674805,0.050040588,0.15282966,-210.17136060871354,-2.413232313230577,-4.007871795405821,1.0416666666666667,2043,0.27681469917297363,0.005153708057977531,0.004786391450805435,-208.25007425627854,0.0
137,1.7828705310821533,-205.5216645164763,16.224771113767964,-170.07659361270487,-248.5406397781491,0.0,0.6825821786501278,0.1,0.005408048629760742,0.1212921142578125,0.04925175,0.14572805,-209.70639099948983,-2.4196475351375106,-4.073155083958923,0.0,2065,0.28760790824890137,0.005672733764546515,0.0049516846091999306,-207.3216814517288,0.0
138,1.8706996440887451,-205.14851982433933,15.196779743005303,-170.10472907439902,-265.7365548592383,0.0,0.6618616364108387,0.1,0.00571131706237793,0.12224411964416504,0.048699185,0.1538282,-209.25060388197477,-2.4076377668669453,-4.06617216367128,0.0,2059,0.2915043830871582,0.005698346780485933,0.00496852479740019,-209.94751106421327,0.0
139,1.7646472454071045,-203.37007111006562,17.194065218878453,-169.59055353336183,-242.32389019080046,0.0,0.6625464191023833,0.1,0.005716800689697266,0.12281370162963867,0.049079478,0.1410582,-208.66255060478386,-2.3697171690751224,-4.030139044461053,0.0,2051,0.29875874519348145,0.004352319448161686,0.003981679579228007,-207.92452876553907,0.0
140,1.7273077964782715,-206.0988780291514,15.521877211248565,-169.8987716771363,-248.73675518661986,0.0,0.6906043079499962,0.1,0.005370378494262695,0.1220698356628418,0.049920257,0.15814091,-208.40618334722063,-2.4443543790750595,-4.084459170845288,0.0,2061,0.2840561866760254,0.004470599687194537,0.004232637983064638,-205.88458787736602,0.0
141,1.7826802730560303,-206.17808156379067,15.717889210139177,-178.02610145209204,-253.4683771682273,0.0,0.6748001588297219,0.1,0.00543665885925293,0.12145471572875977,0.04957746,0.14780527,-208.18337316887767,-2.4509640330356515,-4.086543278615556,0.0,2037,0.2743673324584961,0.004688161587416328,0.004398327063595612,-208.03553187395528,0.0
142,1.7808032035827637,-200.0486876277403,15.026522353324129,-162.90384151411394,-239.2437957616735,0.0,0.7273279793269143,0.1,0.005742788314819336,0.12376284599304199,0.05029445,0.1396656,-207.36990461476395,-2.3433205366389127,-3.9632818851533442,0.0,2019,0.28254103660583496,0.00452915814463807,0.00435364790033668,-201.72987673912974,0.0
143,1.8509039878845215,-200.56477676631548,14.236335637960167,-161.96832479748142,-234.70856414281099,0.0,0.6927876277162516,0.1,0.0056247711181640625,0.11979556083679199,0.05001585,0.14532584,-206.68939182991912,-2.317510930611036,-3.9739535382114823,0.0,2019,0.2792532444000244,0.004785999007214611,0.004427872812176078,-203.80843764833878,0.0
144,1.782698154449463,-199.3811824708064,15.397276114304528,-167.98689356458397,-234.9978488721315,0.0,0.7170715492708403,0.1,0.006076335906982422,0.1276073455810547,0.049467165,0.13561048,-205.95857089400783,-2.3574847114135253,-3.9503418727402484,0.0,2019,0.2823512554168701,0.004325492138290874,0.003806639198881183,-203.42972807803898,0.0
145,1.9470508098602295,-201.14839507240978,14.222023985196888,-167.13193270070656,-235.6996181576645,0.0,0.7107782153018769,0.1,0.0053501129150390625,0.12009596824645996,0.04979389,0.1365531,-205.47755331184806,-2.397635217308054,-3.9859609057640184,0.0,2038,0.28673291206359863,0.0044285459473917925,0.003955511124119661,-208.5096736407487,0.0
146,1.8706436157226562,-200.49258902740098,14.81148791684224,-163.8772301498626,-254.87735739037169,0.0,0.6504116352500404,0.1,0.005643129348754883,0.12015104293823242,0.04820656,0.13859262,-204.97905688340336,-2.2847334195892506,-3.9725882313537717,0.0,2032,0.28948020935058594,0.006509271794661952,0.005665318131962201,-203.30462047906178,0.0
147,1.959226369857788,-199.78627320919205,16.107919009070503,-156.05317174690452,-249.8844681590788,0.0,0.6995777081756643,0.1,0.00537419319152832,0.11988973617553711,0.04979628,0.13972916,-204.45977851598224,-2.358322215108924,-3.9583785018699955,0.0,2022,0.2793850898742676,0.005290404133493721,0.004228528622120298,-201.022350784963,0.0
148,1.783928632736206,-200.85282946392613,15.149675019624604,-162.09644749275873,-241.2013943483127,0.0,0.7032881607934597,0.1,0.0056858062744140625,0.11877870559692383,0.050286073,0.1438721,-204.09908361077663,-2.3885948789864115,-3.9798290182568223,0.0,2016,0.2829909324645996,0.004388275486047297,0.0038248188688778557,-198.5772325839094,0.0
149,1.7849340438842773,-197.3088452678156,15.722051911846433,-166.69601856045668,-246.53235565116205,0.0,0.771982407944995,0.1,0.005739688873291016,0.12613463401794434,0.0501587,0.12959497,-203.4200597764805,-2.281397302677929,-3.909612615190973,0.0,2024,0.29239416122436523,0.004393136097067873,0.004086332259250936,-199.77813082551984,0.0
150,1.7482593059539795,-199.3080266095186,16.765143831389718,-163.0631505336012,-251.3341273867125,0.0,0.7271465283276359,0.1,0.005563497543334961,0.12285017967224121,0.049970374,0.13401625,-203.0088564597843,-2.3453082621556365,-3.948989296041967,0.0,2021,0.27610063552856445,0.005513995070862644,0.0047074158100364185,-199.77008055172047,0.0
151,1.7054858207702637,-200.18633372304774,15.2664516969823,-156.7391366117869,-233.81058544403015,1.0416666666666667,0.7192404210700226,0.1,0.0056324005126953125,0.11970853805541992,0.0496784,0.14203374,-202.72660418611065,-2.389860763600204,-3.9663734329936786,1.0416666666666667,2004,0.2739589214324951,0.004455998578844674,0.003938980365309694,-201.4439418701963,0.0
152,1.785485029220581,-199.4380097025169,17.369467528711088,-158.3103265867833,-243.25206852047364,0.0,0.6541360163970826,0.1,0.02241206169128418,0.12026000022888184,0.049740575,0.15054819,-202.39774473775128,-2.3080603547169583,-3.951281244942731,0.0,2009,0.27042102813720703,0.0053334693035159775,0.004875021952113327,-196.90758674798911,0.0
153,1.7516632080078125,-200.41058895064404,16.929766985246715,-159.42192302381747,-270.69807832688247,0.0,0.748130942437238,0.1,0.0057485103607177734,0.12310481071472168,0.05052564,0.1320684,-202.19902915904055,-2.376677644810671,-3.970898732791565,0.0,2012,0.28221869468688965,0.005644325066030871,0.005350511736369258,-193.39344200620044,0.0
154,1.7173609733581543,-200.27294273270704,14.957390039938472,-162.85622719319383,-232.52304623745087,1.0416666666666667,0.7041487413446522,0.1,0.0053675174713134766,0.11845207214355469,0.050000925,0.1410564,-202.00642051640722,-2.4255221251248154,-3.9677175521556785,1.0416666666666667,1988,0.2710134983062744,0.0034421309630553133,0.0034019744485831328,-192.7718124147322,0.0
155,1.7607157230377197,-194.62455237187535,14.8738641258408,-159.90815135617862,-238.5449024210664,0.0,0.7352176967738457,0.1,0.01058197021484375,0.12180209159851074,0.049446724,0.13392161,-201.26823370195402,-2.310888039488039,-3.8550567088400656,0.0,1977,0.2668004035949707,0.004717928940090874,0.003923482365209105,-192.83159177021184,0.0
156,1.7699744701385498,-198.5779919666252,16.185809718107024,-167.42005072647478,-241.53598919177514,0.0,0.6988219216590261,0.1,0.00557398796081543,0.1193242073059082,0.050102793,0.1423615,-200.99920952842112,-2.3648171461700187,-3.934023444198784,0.0,2001,0.2721409797668457,0.004539944886240922,0.003618439909228175,-194.49234209751376,0.0
157,1.757094144821167,-198.09041826925588,14.045008680799896,-162.00397917507843,-226.80814803771221,0.0,0.7193403214442375,0.1,0.005632162094116211,0.12288212776184082,0.04920718,0.1397441,-200.7083304025046,-2.3701954899371063,-3.9241423085896714,0.0,1992,0.2831294536590576,0.004107102883707636,0.0035111095477775712,-193.71211330153298,0.0
158,1.7381110191345215,-196.9827537945458,15.587659356389214,-163.97150884122908,-252.38647417473797,0.0,0.6850169769404172,0.1,0.0055332183837890625,0.11958146095275879,0.049622178,0.13952896,-200.33577274170872,-2.382954355788446,-3.9012029417704928,0.0,1992,0.2722201347351074,0.005472669794836865,0.005265873170067532,-190.78801003155797,0.0
159,1.7122101783752441,-195.2689931261099,15.98067202129696,-160.423812581598,-237.33005325879355,0.0,0.733282505988884,0.1,0.005551338195800781,0.1186532974243164,0.049844753,0.13285321,-199.82909478014884,-2.2845061540270626,-3.8680141513102977,0.0,1980,0.26387500762939453,0.005735943890588349,0.005078267595792522,-187.67633781806742,0.0
160,1.720823049545288,-197.29924880440274,14.176994327206486,-164.77152618511707,-236.9561343597451,0.0,0.7641154742788707,0.1,0.016827106475830078,0.1186819076538086,0.049662855,0.12986343,-199.57611018257424,-2.333973024475819,-3.909031990032723,0.0,1972,0.2653985023498535,0.0050100248515423515,0.0040509639715831545,-188.515415365583,0.0
161,1.7183864116668701,-196.07079813586037,14.434124130508213,-169.4326106034299,-228.34652375042,0.0,0.7370043397028678,0.1,0.005657196044921875,0.12276077270507812,0.04986007,0.135388,-199.22557897790287,-2.356568730316945,-3.8846643134536993,0.0,1960,0.27402663230895996,0.004619722262113324,0.004118275701235393,-190.4707638103809,0.0
162,1.720649242401123,-195.41988043666424,13.299423743863425,-168.29400410083832,-224.3186867416516,0.0,0.7062420100810428,0.1,0.005596637725830078,0.12415385246276855,0.04979331,0.16180648,-198.84500912377902,-2.2916565146530607,-3.8716277887945147,0.0,1973,0.2635326385498047,0.0037831006677489128,0.00338048255761519,-191.78168195124738,0.0
163,1.7792794704437256,-194.92060110463345,12.950080898201973,-161.50457693010796,-237.45122565675916,0.0,0.6794590285289932,0.1,0.005529880523681641,0.11808109283447266,0.05029648,0.14642538,-198.45256832186448,-2.3249251488604963,-3.861133838394329,0.0,1970,0.25091028213500977,0.00418059110364046,0.0038438488324363082,-193.32851543620956,0.0
164,1.8824331760406494,-194.7077754107232,14.304783931401493,-157.599208018505,-236.94799418411975,1.0416666666666667,0.689738907784999,0.1,0.005622386932373047,0.12300705909729004,0.049525138,0.14842778,-198.07808903075036,-2.3125555832004374,-3.855950392614647,1.0416666666666667,1962,0.26489901542663574,0.00425768281012016,0.0038049609512166745,-189.01516535911915,0.0
165,1.7217082977294922,-196.8367538549369,14.774669407385636,-158.076317493795,-234.5902840925675,0.0,0.6986086894393623,0.1,0.005410194396972656,0.1184999942779541,0.049915794,0.14866613,-197.95395551316903,-2.3607733682794936,-3.9001844839465263,0.0,1956,0.25504541397094727,0.004894911819312115,0.004194693582627166,-189.56973590564274,0.0
166,1.9493601322174072,-193.42093520417384,14.635073273457946,-159.87704391352054,-227.3979021693207,0.0,0.7675235150505187,0.1,0.005568027496337891,0.12110614776611328,0.0488196,0.12842384,-197.50065348226954,-2.311836814889832,-3.831103904716162,0.0,1959,0.25910186767578125,0.004388456844720391,0.003604291122278277,-187.65453670631413,0.0
167,1.8585498332977295,-195.5570111156892,13.354205660367905,-160.05642462092206,-239.1921664035548,0.0,0.7366326565277788,0.1,0.005523204803466797,0.12297558784484863,0.05008995,0.13471755,-197.30628924561154,-2.3680179427166794,-3.8739037336940796,0.0,1943,0.2618067264556885,0.004490032953240148,0.00417463437222705,-186.36264191041218,0.0
168,1.8907549381256104,-194.96240719229468,15.869118309883744,-159.07482359831863,-226.006390568015,0.0,0.6923185690009196,0.1,0.00576472282409668,0.12421512603759766,0.048949458,0.14372392,-197.07190104027984,-2.374022257229259,-3.8609747069796914,0.0,1967,0.2681758403778076,0.004779537605444646,0.003944814711244193,-185.50894651838996,0.0
169,1.8733248710632324,-197.82933164869144,13.439221524996185,-170.47902680598534,-253.40975806409975,0.0,0.7209391056033593,0.1,0.005297660827636719,0.11807632446289062,0.049936194,0.14518085,-197.14764410112102,-2.4146437599290014,-3.9181986883800484,0.0,1955,0.252840518951416,0.0044673063069632386,0.004028726383703659,-186.00988709667487,0.0
170,1.7366466522216797,-195.05135082279685,14.06307879084289,-157.4802168219976,-243.78443986407137,0.0,0.6645784883873465,0.1,0.005785703659057617,0.12790536880493164,0.05025695,0.14515889,-196.9380147732886,-2.344066017952862,-3.8631798364082464,0.0,1957,0.2518327236175537,0.005101587316157485,0.004272122690511626,-186.13098226682462,0.0
171,1.7822532653808594,-195.77853941952458,14.762660643836533,-155.31384870095275,-239.84559987738953,0.0,0.6804021444221918,0.1,0.0054585933685302734,0.11730575561523438,0.05044359,0.14659585,-196.8220672379122,-2.442526379917616,-3.878238156853834,0.0,1951,0.2519259452819824,0.00431852005666405,0.0035243541438854313,-186.26566032175222,0.0
172,1.658106803894043,-196.64232834103254,16.28844467614913,-155.3392250626169,-250.1966446861821,0.0,0.6830085885640154,0.1,0.005932807922363281,0.12265419960021973,0.05010336,0.15619273,-196.80409334822423,-2.3872725593542694,-3.8944642832214647,0.0,1962,0.2601032257080078,0.0046494563258528835,0.004051880396959239,-186.67057832991156,0.0
173,1.6966054439544678,-194.99239092918432,15.059790203329811,-162.8181759435842,-229.32101779444378,0.0,0.7160601433010392,0.1,0.005574703216552734,0.12252998352050781,0.049727596,0.13922699,-196.62292310632023,-2.4185576874950514,-3.8623363164524043,0.0,1935,0.2581667900085449,0.004133758458986953,0.0033881690969388254,-191.31841455298564,0.0
174,1.7427825927734375,-195.23394003285898,14.793795728646725,-164.84273056217566,-236.1776738650111,0.0,0.6855522974621271,0.1,0.005654573440551758,0.12215399742126465,0.04969973,0.13576229,-196.48402479897413,-2.349399925631863,-3.866233583333328,0.0,1945,0.251600980758667,0.004798779484116686,0.0038004568992327454,-188.6343258499126,0.0
175,1.712510347366333,-193.4648446252545,12.927281897578581,-159.66218077938103,-227.31261496881052,0.0,0.7055869487464008,0.1,0.00554203987121582,0.12118315696716309,0.04979557,0.13551085,-196.18210678160216,-2.3544151744126216,-3.8318991859179423,0.0,1947,0.25637316703796387,0.00392075867951246,0.0034879626252023403,-186.97182270480647,0.0
176,1.6851565837860107,-194.96665557427264,15.609227346725646,-165.4839051187871,-239.5510011210641,0.0,0.7104397486765518,0.1,0.0054950714111328125,0.12377166748046875,0.050186202,0.13962445,-196.0605616608692,-2.3667360974912586,-3.8622287090743512,0.0,1948,0.27112841606140137,0.003619354323102856,0.0033174227941084105,-188.00054500871101,0.0
177,1.731581449508667,-193.6401111605427,13.946160763238167,-160.37284859002872,-236.0519769717665,0.0,0.7392514627899165,0.1,0.005533456802368164,0.12087655067443848,0.049677595,0.13828729,-195.81851661083658,-2.368610693484845,-3.835706544215467,0.0,1931,0.2577779293060303,0.004460293832226581,0.0032619963666010976,-185.0387711842236,0.0
178,1.7138733863830566,-193.11973305833024,15.753878038043437,-165.71996182231592,-237.2300103775756,0.0,0.7129845400664337,0.1,0.005468845367431641,0.12005996704101562,0.050375544,0.14593704,-195.54863825558596,-2.3565997542543387,-3.82470088110059,0.0,1923,0.25607943534851074,0.004332082594239627,0.004050886067367009,-187.91597650426655,0.0
179,1.727806806564331,-195.31336311599838,12.704028621327323,-157.51071549591452,-222.15275455012548,0.0,0.6708342231474994,0.1,0.0054056644439697266,0.12743330001831055,0.049015168,0.15572917,-195.5251107416272,-2.47055468845584,-3.8684555668434464,0.0,1928,0.25966477394104004,0.003596874587928691,0.003103150125539304,-186.79039579628386,0.0
180,1.6862456798553467,-191.99322924966694,14.690028797801876,-162.78074868071383,-232.77708421147491,0.0,0.7202198962676347,0.1,0.004084587097167969,0.10098695755004883,0.048990153,0.13198073,-195.1719225924312,-2.3138095368097527,-3.80233960956539,0.0,1939,0.2693452835083008,0.004090601624107184,0.0037695086821074746,-187.38904684567592,0.0
181,1.6470398902893066,-193.47758759349418,15.054502640132803,-154.1996686809132,-246.53488824222154,0.0,0.6916735975186523,0.1,0.0053865909576416016,0.11864233016967773,0.050243188,0.13701525,-195.00248909253753,-2.381141240657547,-3.8321677335615347,0.0,1932,0.25578927993774414,0.003987793161518438,0.00341208101662071,-185.97352709297604,0.0
182,1.732163906097412,-191.55256244388738,13.083614396366759,-161.81579322640584,-227.70877308890638,0.0,0.7009876730706591,0.1,0.005364656448364258,0.11855173110961914,0.049936973,0.14380702,-194.65749642767253,-2.4161444916627066,-3.7928531489797392,0.0,1933,0.2554130554199219,0.003822001932667463,0.003442581044895629,-188.29790019569742,0.0
183,1.7475152015686035,-188.61016647257648,14.623126401916322,-162.614046456722,-225.6858569654435,0.0,0.7426382724846297,0.1,0.005581378936767578,0.12313580513000488,0.048802473,0.12953727,-194.05276343216295,-2.2673476895201756,-3.7349725229265864,0.0,1919,0.2551734447479248,0.0044292492654749846,0.0037852986251894916,-183.14571732051812,0.0
184,1.7701594829559326,-191.08478946905552,13.673986304700223,-157.2678843950878,-219.85767939259,0.0,0.7070096737815462,0.1,0.005415439605712891,0.12536191940307617,0.04730038,0.13766626,-193.75596603585223,-2.286536894997153,-3.7843739419696045,0.0,1927,0.2634775638580322,0.004289158043660705,0.0037685417552945034,-184.27642315459053,0.0
185,1.7798681259155273,-191.07151825150845,14.053875983320518,-159.7857713509004,-225.7101304730372,0.0,0.7390336951523397,0.1,0.005383014678955078,0.12014555931091309,0.048867594,0.13736616,-193.48752125741785,-2.3374954465431066,-3.7838463800797935,0.0,1914,0.24877047538757324,0.00431521122398401,0.004035103209872804,-185.72716570374217,0.0
186,1.7273170948028564,-192.61591213267306,13.215118742796351,-156.47690048063163,-222.70243228118437,0.0,0.7143376172547867,0.1,0.017089366912841797,0.13001751899719238,0.04912532,0.14134118,-193.40036034494338,-2.422656405089139,-3.8153484595938494,0.0,1921,0.2621476650238037,0.004271962361393096,0.004131899435160601,-185.87859125752593,0.0
187,1.7312452793121338,-189.2213093424441,11.006304150911705,-160.81870425988433,-214.8468423566034,0.0,0.7167674718143141,0.1,0.005552768707275391,0.12103796005249023,0.049757928,0.1480693,-192.98245524469345,-2.3355696418985548,-3.746664750562139,0.0,1905,0.25231409072875977,0.0041183414949400275,0.0035791583795441607,-183.18723118933775,0.0
188,1.692497730255127,-189.79142484220964,15.90111627420116,-155.53733391622956,-233.8104415602866,0.0,0.7293966327966275,0.1,0.005432844161987305,0.11812472343444824,0.049763683,0.13326855,-192.6633522044451,-2.3251060582991276,-3.758560098467511,0.0,1920,0.2574892044067383,0.004459695011937855,0.0036612146373950524,-183.47873427819803,0.0
189,1.7237062454223633,-191.39203932678402,14.226509938592274,-161.5810415922682,-226.51725420995092,0.0,0.683935904294962,0.1,0.0054073333740234375,0.11923503875732422,0.04965131,0.1409393,-192.53622091667899,-2.4720216381907805,-3.790654894390577,0.0,1895,0.25347471237182617,0.0039760039280768,0.0037211992993643624,-183.22488300234437,0.0
190,1.8436591625213623,-190.686799847805,14.663515899376105,-159.712321915668,-252.87603590008723,0.0,0.6598368241833668,0.1,0.0056569576263427734,0.12286639213562012,0.049472325,0.14174783,-192.35127880979158,-2.367781300631997,-3.776865425424442,0.0,1915,0.2593052387237549,0.004561546851796079,0.003869949312052343,-181.68317422417212,0.0
191,1.691171646118164,-191.27393044019814,14.816828675213676,-151.62216737820248,-248.4945536460794,0.0,0.7084931007948565,0.1,0.0053555965423583984,0.1181802749633789,0.04905154,0.14133218,-192.24354397283224,-2.4254340487196986,-3.788023631958533,0.0,1898,0.25161147117614746,0.004291909740973259,0.0037484237024411776,-181.6325434975042,0.0
192,1.7878711223602295,-189.96370660275247,14.616967661721558,-164.58616814526002,-232.86772604853587,1.0416666666666667,0.7140141658732192,0.1,0.005533933639526367,0.12125587463378906,0.047684237,0.13863653,-192.0155602358243,-2.357036183968385,-3.761468070755072,1.0416666666666667,1900,0.25366902351379395,0.004346408607563681,0.003916333649400247,-187.1346475136779,0.0
193,1.8357806205749512,-190.898434536287,15.522148639971384,-162.19866117373903,-234.19897979890285,0.0,0.7178958406618563,0.1,0.005605220794677734,0.12299537658691406,0.048703827,0.14120309,-191.9038476658706,-2.4018009989550926,-3.7804276647078976,0.0,1912,0.25310802459716797,0.004199671820975959,0.0037152484081850435,-186.86990062605648,0.0
194,1.8553030490875244,-188.0401570938486,14.163702926796494,-155.13152484346134,-233.96647811622105,0.0,0.6635026149231089,0.1,0.0055654048919677734,0.12292885780334473,0.04709659,0.1493158,-191.5174786086684,-2.2978979587456103,-3.7236832682001353,0.0,1908,0.25535035133361816,0.004866204457902057,0.0037016241692486816,-185.2125357434349,0.0
195,1.8495450019836426,-191.35096275776706,13.613048583174482,-151.31393530883332,-223.6610030361094,0.0,0.7131746983017594,0.1,0.005693674087524414,0.1328127384185791,0.050827663,0.14808746,-191.50082702357827,-2.3857036686976545,-3.7898187544837043,0.0,1911,0.25894975662231445,0.0037379584944084872,0.00305947068981162,-182.51762469760158,0.0
196,1.8854997158050537,-190.5901146209258,13.887830095678138,-160.29332703319884,-224.29890257342709,0.0,0.7399750143141474,0.1,0.005903720855712891,0.12640070915222168,0.04953128,0.14000994,-191.40975578331302,-2.3939074652477466,-3.774900791166045,0.0,1905,0.26644349098205566,0.003977111731058134,0.003918812323295221,-182.32756300303765,0.0
197,1.6617405414581299,-193.1610664620471,13.08062757042132,-161.12007419859262,-221.15096357134524,0.0,0.6996866837191523,0.1,0.005388736724853516,0.1187441349029541,0.04972219,0.1559386,-191.5848868511864,-2.4540829787770626,-3.8256074360299905,0.0,1915,0.2540314197540283,0.004495820148611845,0.0037203892542243613,-180.45195198321105,0.0
198,1.6934783458709717,-189.30598310161045,14.290944292269,-164.79349510408727,-228.3297989277453,0.0,0.7044188031044496,0.1,0.005322456359863281,0.11701512336730957,0.048617687,0.13804138,-191.3569964762288,-2.406129103231608,-3.7486161025844935,0.0,1896,0.254319429397583,0.00491191999128381,0.003680970786915529,-183.2653688813993,0.0
199,1.725001335144043,-188.7654069104846,14.446769071539384,-161.16221840029783,-222.47523576100483,0.0,0.7346077214665553,0.1,0.005575418472290039,0.12010455131530762,0.04959827,0.13734435,-191.09783751965438,-2.3360969845978516,-3.7390441654903697,0.0,1903,0.25931763648986816,0.00448114401966146,0.00388359228112135,-185.161248722783,0.0
200,1.651177167892456,-189.0496070680367,13.947690790961119,-155.9790167781316,-225.2412324013775,0.0,0.6903116559594348,0.1,0.005342721939086914,0.11960840225219727,0.049151845,0.14176448,-190.89301447449262,-2.324894162174472,-3.7445933238495073,0.0,1896,0.2626187801361084,0.0033764713161815747,0.002814466021396475,-183.27240025955018,0.0
201,1.7048254013061523,-188.79814270889423,12.170258390687199,-156.6003967487836,-222.9161459054754,0.0,0.669388197473644,0.1,0.00543522834777832,0.12068462371826172,0.04946853,0.15726846,-190.68352729793278,-2.408970010085125,-3.738496636659058,0.0,1889,0.25060582160949707,0.0043222948236502886,0.003207971417266848,-183.12403183773876,0.0
202,1.6547791957855225,-186.58314249038452,14.792667718038876,-151.45752841107114,-221.69362607294525,0.0,0.6959406386311193,0.1,0.005255937576293945,0.11788535118103027,0.04990627,0.1434737,-190.27348881717796,-2.26234174370704,-3.694261455985565,0.0,1894,0.24973201751708984,0.004385055242939504,0.003711019924243295,-183.97263022158643,0.0
203,1.7123539447784424,-189.05217634262442,13.847709262019873,-159.147637317515,-223.398427691001,0.0,0.6955209706562355,0.1,0.0054128170013427734,0.1175222396850586,0.05030809,0.14611006,-190.15135756972262,-2.3202527142453087,-3.744012949457513,0.0,1898,0.25064516067504883,0.004170715582303403,0.003561585748836081,-183.98598030460533,0.0
204,1.7347002029418945,-188.49967712403046,13.867850838124662,-162.8029790591596,-226.30873907998148,0.0,0.6667741664598082,0.1,0.005602121353149414,0.1220405101776123,0.05058119,0.13886937,-189.9861895251534,-2.4193508219134117,-3.7313601858760657,0.0,1881,0.2592189311981201,0.004396855019867575,0.003394977744760641,-184.13117735126514,0.0
205,1.644089698791504,-189.5147885751929,13.5763792208183,-158.01643485850119,-227.5071036748108,0.0,0.6987077838296741,0.1,0.005255937576293945,0.11792349815368652,0.049996253,0.14022283,-189.93904943015735,-2.423554057179187,-3.7529264663244706,0.0,1894,0.25015974044799805,0.004258427536879067,0.0038567917770352097,-183.0157361086617,0.0
206,1.704552173614502,-188.54872217670285,13.435979807300429,-153.39442469726455,-220.19330990240925,0.0,0.741255969768321,0.1,0.005234718322753906,0.11525177955627441,0.049568452,0.13334121,-189.8000167048119,-2.354467844368277,-3.733390494597618,0.0,1888,0.2513151168823242,0.003387578345847187,0.003198010104153951,-183.18995987192864,0.0
207,1.715242862701416,-190.33804584529483,15.226515526089289,-149.764050961824,-223.80067847955112,0.0,0.7018729267629336,0.1,0.005673408508300781,0.12010717391967773,0.050101303,0.14971967,-189.8538196188602,-2.441425511947529,-3.7693460224894757,0.0,1900,0.2590155601501465,0.0038583451099136745,0.003300722301628076,-182.97903576259733,0.0
208,1.7365705966949463,-190.50158334591524,12.35380657780832,-164.9941192472306,-215.06500372076633,0.0,0.6890421929479306,0.1,0.0055730342864990234,0.12240242958068848,0.04930059,0.14565888,-189.9185959915657,-2.4533152576936454,-3.7728190917119364,0.0,1888,0.2649421691894531,0.0032523896987683896,0.003011531780151591,-185.6502760743303,0.0
209,1.6594300270080566,-188.41486654775477,14.842843498084289,-158.5258011255798,-224.7029629719877,0.0,0.6904401680581354,0.1,0.005598306655883789,0.1217641830444336,0.050245203,0.14060703,-189.76822304718462,-2.3546706067304126,-3.7311152921320434,0.0,1903,0.2529170513153076,0.003759164538635224,0.003522204589924929,-186.98840217878507,0.0
210,1.6890065670013428,-188.44577256255494,15.438528582039641,-152.90462813935858,-229.62522393832347,0.0,0.7531594425203734,0.1,0.005516529083251953,0.11701011657714844,0.04988475,0.13181868,-189.63597799872164,-2.3416089953323693,-3.7311678428780866,0.0,1900,0.25433349609375,0.0042171753234116005,0.0037785086214825792,-182.48901167489697,0.0
211,1.6691346168518066,-186.21337112074107,13.651785917752251,-155.4595525747593,-219.1841946920631,0.0,0.6563781864061012,0.1,0.005471944808959961,0.11904430389404297,0.049492847,0.15879653,-189.2937173109236,-2.355288440116184,-3.6880509735090876,0.0,1884,0.25598669052124023,0.004280566961798505,0.0038749995983827527,-184.58429588823665,0.0
212,1.7234408855438232,-186.53661173061377,12.341431918765627,-164.65443353742268,-214.09632167477577,0.0,0.7147540988552634,0.1,0.0057566165924072266,0.12388491630554199,0.04931065,0.13845809,-189.01800675289263,-2.3417579138529576,-3.6932055091998612,0.0,1890,0.2648918628692627,0.003849406020335759,0.003253015358820516,-180.88326163433408,0.0
213,1.816481590270996,-188.82220879271662,13.232641732190032,-156.77737821346,-223.0001705437597,0.0,0.6977281979171913,0.1,0.00539851188659668,0.11724066734313965,0.051024,0.14605561,-188.99842695687505,-2.3696477212900255,-3.739185894272777,0.0,1900,0.2492811679840088,0.003562264782151513,0.0034748835051427547,-181.72776500747437,0.0
214,1.6411757469177246,-187.85797150836288,13.8537760624805,-150.86747544450714,-219.81572825659458,0.0,0.6729124667931476,0.1,0.005268573760986328,0.11799907684326172,0.04977646,0.1528522,-188.88438141202383,-2.395904011940025,-3.720460496451912,0.0,1878,0.25064802169799805,0.0043290341983791,0.003787216683404667,-180.31979055441715,0.0
215,1.8014640808105469,-186.43420519347941,13.475862771710448,-146.34016973484324,-218.76670030426706,0.0,0.7395898988118376,0.1,0.005434274673461914,0.11859321594238281,0.04936149,0.13317877,-188.6393637901694,-2.3406793196382067,-3.69153820902064,0.0,1886,0.2497880458831787,0.004569573637349084,0.004039279610890421,-180.4772642214656,0.0
216,1.8207941055297852,-188.18966506789585,12.591763846936743,-166.86872123221502,-220.6927530993812,0.0,0.6767685056170678,0.1,0.0053424835205078125,0.11853671073913574,0.047710296,0.1434463,-188.59439391794206,-2.40848916869367,-3.7265749505264405,0.0,1895,0.25078463554382324,0.004020875072709509,0.0036212381217395756,-178.6632962221429,0.0
217,1.8873608112335205,-185.9875871181794,12.271420052599213,-160.03956938655793,-213.82086536211756,0.0,0.6859235567855785,0.1,0.005575418472290039,0.11968040466308594,0.049600065,0.15183598,-188.33371323796578,-2.2739471545402528,-3.68199445053461,0.0,1897,0.2526683807373047,0.0031930786675058386,0.0028107209905699196,-182.71403219096496,0.0
218,1.6762478351593018,-185.22021392443222,12.678367990807207,-152.48335977402527,-209.88916177602167,0.0,0.6957892036276505,0.1,0.0053863525390625,0.12286520004272461,0.04966575,0.14161378,-188.02236330661242,-2.2653732390128316,-3.6668649269846783,0.0,1899,0.2617182731628418,0.00329190191200743,0.0029872403685414946,-177.2674779942047,0.0
219,1.7010362148284912,-188.83087368538452,13.206867411420918,-160.3237556855614,-228.80145716102047,0.0,0.7370286493888103,0.1,0.005370140075683594,0.11771345138549805,0.050421026,0.13254255,-188.10321434448963,-2.4150707403799143,-3.739527207467242,0.0,1882,0.2509024143218994,0.0032245492726101577,0.0028523618384994186,-179.23276024796354,0.0
220,1.6818444728851318,-187.24000033252628,13.819605450425223,-144.5400266616225,-218.1776684593514,0.0,0.6793439782527562,0.1,0.005398273468017578,0.11775636672973633,0.050235417,0.14779958,-188.0168929432933,-2.345665365289322,-3.707600259822342,0.0,1896,0.25411391258239746,0.004188785482899267,0.0036196106925908576,-180.32717699598936,0.0
221,1.7195570468902588,-187.0921726004858,13.347907660013577,-159.06655909405083,-223.84284663401348,0.0,0.68283720758815,0.1,0.005309104919433594,0.1177816390991211,0.04906818,0.14584379,-187.92442090901255,-2.356607980889687,-3.705004871147682,0.0,1876,0.2603423595428467,0.004352601514062316,0.003602295644424473,-181.703388392147,0.0
222,1.7129385471343994,-186.44543292726667,14.467016745004042,-152.3017721129608,-223.5870840830612,0.0,0.690568923711943,0.1,0.005536079406738281,0.12243032455444336,0.048765846,0.14176126,-187.77652211083796,-2.378770621743771,-3.6911449092121367,0.0,1877,0.2640402317047119,0.005253270145734599,0.0043666990862894495,-179.13504836516518,0.0
223,1.6468422412872314,-185.45259466176296,14.599805598053985,-152.91051811441193,-228.360357561735,0.0,0.6922925861785433,0.1,0.005347728729248047,0.11745357513427734,0.0495948,0.13580072,-187.54412936593047,-2.3560985671290386,-3.6718173320888448,0.0,1873,0.2715156078338623,0.0034518707695748397,0.003156162214278552,-182.7021981823175,0.0
224,1.6606605052947998,-186.20550893242822,14.702602486147342,-147.37029181537847,-223.56644169466034,1.0416666666666667,0.7282518942161514,0.1,0.0055179595947265625,0.12196969985961914,0.049277395,0.14722413,-187.41026732258024,-2.330687666707029,-3.6870734880073397,1.0416666666666667,1863,0.26980113983154297,0.004081004675246817,0.0035565857034078794,-180.9186341976971,0.0
225,1.6893548965454102,-188.98096556029122,13.094323646825277,-153.7173522144484,-221.0560494574584,0.0,0.672134229181475,0.1,0.005309343338012695,0.1185309886932373,0.04853183,0.15668428,-187.56733714635135,-2.4614553435450337,-3.741515631875848,0.0,1883,0.26425790786743164,0.0035758476679209456,0.003323716969710108,-180.78752248848835,0.0
226,1.7377960681915283,-183.90550818608088,11.812266613974023,-145.86181773387852,-205.640244208049,0.0,0.7069490677762585,0.1,0.005425214767456055,0.11704254150390625,0.0490412,0.1459453,-187.20115425032432,-2.2859619487196756,-3.641188508144903,0.0,1885,0.26052427291870117,0.0038038507997235887,0.0032129373469488446,-178.41169220640535,0.0
227,1.6814701557159424,-185.5493782760036,12.308744407732293,-152.75145171880246,-214.3506476219032,0.0,0.6875374569695119,0.1,0.005573749542236328,0.12117671966552734,0.0493106,0.14688517,-187.03597665289226,-2.3961273692512326,-3.674139072171645,0.0,1860,0.275684118270874,0.0037076092003516564,0.0032756282353359916,-176.65229610389605,0.0
228,1.632847547531128,-185.6074648569747,11.953078363088592,-156.63585933759674,-210.06328134268995,0.0,0.6974516504088739,0.1,0.005432844161987305,0.11940264701843262,0.049763173,0.14371416,-186.89312547330053,-2.3727875771788436,-3.674829369556102,0.0,1869,0.26736021041870117,0.0032861825546546966,0.0029663660517398023,-178.7185302980671,0.0
229,1.7008025646209717,-187.89052443620957,13.140040506826656,-158.04531090825844,-213.10087458852522,0.0,0.7169151245291147,0.1,0.005573272705078125,0.12180852890014648,0.04888315,0.1330079,-186.99286536959144,-2.3995423019717927,-3.7193544406850485,0.0,1868,0.2691833972930908,0.0038802443417052124,0.003497175162435127,-177.9009367812827,0.0
230,1.6904449462890625,-185.84103250189514,14.190164394749809,-156.67364253753948,-232.49007146687333,1.0416666666666667,0.6944825749759672,0.1,0.005453824996948242,0.12151384353637695,0.050052624,0.14994207,-186.87768208282182,-2.3086408819177415,-3.6803494812918722,1.0416666666666667,1871,0.26941990852355957,0.003676803127880713,0.003080389158133612,-179.39065862722543,0.0
231,1.71608304977417,-185.5883815915066,14.697395739181259,-148.47747643046785,-232.1511122469616,0.0,0.7170517158890909,0.1,0.005758523941040039,0.12441396713256836,0.049254116,0.14124684,-186.74875203369032,-2.389949072414462,-3.6740102937115453,0.0,1865,0.27747297286987305,0.004326686558405816,0.004087245306374605,-178.17027159943657,0.0
232,1.6936140060424805,-182.92015791137328,13.461819617724895,-155.87457627822607,-216.04496953713772,0.0,0.7390802832867006,0.1,0.005373954772949219,0.12077593803405762,0.04978136,0.13369721,-186.3658926214586,-2.3067817589745494,-3.6217767596460733,0.0,1857,0.26706409454345703,0.004171454623668145,0.0034877339034027344,-180.7658098185119,0.0
233,1.6835136413574219,-183.44264692556894,13.939764355127123,-149.46733963967168,-211.1365105380933,0.0,0.7094020784826404,0.1,0.006263017654418945,0.12436079978942871,0.049056716,0.14206547,-186.07356805186964,-2.3032858163230885,-3.631123395418266,0.0,1861,0.2718958854675293,0.003968022959865318,0.003733283159926134,-180.1873844268514,0.0
234,1.8064966201782227,-186.60794957128954,13.075549543394443,-153.08634684728838,-217.56145616410055,1.0416666666666667,0.661924658123099,0.1,0.005810260772705078,0.1201024055480957,0.049224634,0.1535669,-186.12700620381165,-2.381589065315326,-3.6945052174906596,1.0416666666666667,1872,0.2612032890319824,0.003616116577908311,0.0030104403198310424,-179.1232314737254,0.0
235,1.6616923809051514,-185.13641667040022,13.22728032445734,-159.10257679737046,-213.44216268354168,0.0,0.7345254175387634,0.1,0.005558013916015625,0.12241077423095703,0.047955398,0.1292739,-186.0279472504705,-2.298375372574485,-3.665090594752542,0.0,1881,0.26793360710144043,0.0037438105800354027,0.003145242355660527,-180.09882988963483,0.0
236,1.6762933731079102,-186.21672831269544,13.833662908834489,-152.07957662765634,-222.92827520868565,0.0,0.6812021896788923,0.1,0.005333900451660156,0.1165158748626709,0.047780667,0.14235531,-186.046825356693,-2.4114246197957994,-3.6875303409992077,0.0,1873,0.25282979011535645,0.003363654170944914,0.0028961733613430715,-179.90937122811272,0.0
237,1.690293788909912,-186.77542909664945,12.368551451570184,-151.83271806525818,-225.88133111143793,0.0,0.7067558224216001,0.1,0.005357503890991211,0.11833691596984863,0.050116945,0.14163433,-186.11968573068864,-2.4060882881228225,-3.6976977491787966,0.0,1866,0.25331974029541016,0.0030756572120331943,0.0029620429261081713,-179.5225678362522,0.0
238,1.6529662609100342,-183.8784284358593,12.259395309341857,-144.77584553024616,-219.71419590889025,0.0,0.697058363611024,0.1,0.015546560287475586,0.08844876289367676,0.04784589,0.14547387,-185.89556000120572,-2.3541947921739994,-3.6403889883588882,0.0,1860,0.1932697296142578,0.0053479282677951125,0.003583763602293235,-178.2428863434933,0.0
239,1.8315932750701904,-184.04632894962268,13.461897167666793,-152.3055107775944,-221.36229086215582,0.0,0.6563671463096993,0.1,0.016771554946899414,0.11724328994750977,0.04972999,0.14638327,-185.71063689604742,-2.3055577421214077,-3.6432731907842406,0.0,1860,0.2515294551849365,0.004357144389691695,0.0035778178837496473,-180.01242870738824,0.0
240,1.6545097827911377,-184.44651768453457,13.487209101358514,-152.70607401839388,-219.13318479424515,1.0416666666666667,0.6890339302961059,0.1,0.005919694900512695,0.12538981437683105,0.050052818,0.14657928,-185.58422497489616,-2.3548915236165646,-3.651322642963946,1.0416666666666667,1859,0.2639889717102051,0.0034183503726929023,0.0030750408758695117,-180.95318197334797,0.0
241,1.7464311122894287,-186.81317055126829,11.909522049287217,-156.70390600307206,-219.3967333159222,0.0,0.7041700726251074,0.1,0.005309343338012695,0.11817669868469238,0.049207423,0.14121851,-185.7071195325334,-2.3663252722135866,-3.6990980804986706,0.0,1863,0.25220632553100586,0.0030923346162783838,0.0025507960279643003,-178.95417702558586,0.0
242,1.7824792861938477,-184.53247025806158,12.136338567922138,-158.40378507507518,-213.49060137786057,0.0,0.7248017716067146,0.1,0.00558018684387207,0.11933350563049316,0.05036823,0.13737118,-185.58965460508622,-2.330135991009428,-3.6532563924369903,0.0,1860,0.2500298023223877,0.0038536641565702803,0.003221438840849786,-180.11656026566544,0.0
243,1.8862583637237549,-184.0732483726442,13.578552073263573,-156.35710098456602,-212.78168500009065,0.0,0.6857553546752312,0.1,0.0053136348724365234,0.11641693115234375,0.049713623,0.15194069,-185.438013981842,-2.3769641691185215,-3.6435762219904007,0.0,1846,0.237015962600708,0.003514586147381609,0.003353679771141941,-178.94141392595162,0.0
244,1.6638755798339844,-183.91674080476582,14.08416781431518,-157.15526691324774,-219.24234938717456,1.0416666666666667,0.6791814560580844,0.1,0.016686439514160156,0.11723589897155762,0.05010602,0.15061647,-185.28588666413438,-2.3611431772495393,-3.640125759032611,1.0416666666666667,1841,0.2426297664642334,0.004362254989724517,0.003674244723991921,-177.55774804118846,0.0
245,1.6300725936889648,-184.4390767405091,13.57540324535204,-157.987807156875,-216.0082977047051,0.0,0.7478129908122105,0.1,0.005597352981567383,0.12061119079589844,0.04944068,0.12427906,-185.20120567177185,-2.422149202159309,-3.6509218537882755,0.0,1845,0.24579596519470215,0.0039225399914760905,0.0035302477862083686,-177.88152618735938,0.0
246,1.6432585716247559,-183.76194242244492,12.995693626000467,-150.13550011387503,-217.49837045922092,0.0,0.6602526732267644,0.1,0.005492687225341797,0.11944746971130371,0.048431467,0.14719127,-185.05727934683915,-2.3485379016815315,-3.638383871341167,0.0,1856,0.2549476623535156,0.003602907490197211,0.0032839938967545194,-179.25007653538566,0.0
247,1.6419258117675781,-184.43814669552012,14.304086248219237,-155.85420293308005,-215.61074869688676,0.0,0.6788271374271428,0.1,0.005388736724853516,0.11888575553894043,0.049710866,0.14744191,-184.99536608170726,-2.3874449229139505,-3.651859780210783,0.0,1838,0.2402951717376709,0.004454568524353437,0.003757674475890578,-178.84163680919457,0.0
248,1.7117650508880615,-184.09253773456575,12.8001454829895,-153.79485919911406,-224.43218437060227,0.0,0.7450470650681367,0.1,0.005366086959838867,0.11802291870117188,0.04970943,0.14041951,-184.90508324699312,-2.357875886584749,-3.6449163346358335,0.0,1838,0.23959994316101074,0.003186337059170724,0.0029129108565737047,-178.73741481076087,0.0
249,1.6589303016662598,-186.5041584850663,11.75454451495923,-158.35886744340974,-217.86632208355678,0.0,0.6918812313679402,0.1,0.005263805389404297,0.11660242080688477,0.048031952,0.14842407,-185.06499077080045,-2.4187688703700103,-3.6920145304155767,0.0,1852,0.2412855625152588,0.0034227317449463104,0.002977833746303994,-181.44850557687766,0.0
250,1.6890490055084229,-183.9722612928243,14.300821800825037,-157.2675202382199,-219.24165080729176,0.0,0.6843201091843363,0.1,0.0054378509521484375,0.12180805206298828,0.049709044,0.14617825,-184.95571782300283,-2.383043324894429,-3.6422848791996123,0.0,1851,0.25162672996520996,0.003736734653043728,0.003402564661819377,-177.79662189142388,0.0
251,1.6588976383209229,-186.2680519261083,12.524001719173597,-154.37829630013326,-214.4412933343136,0.0,0.7066782425948503,0.1,0.014104604721069336,0.1188809871673584,0.049250912,0.13942645,-185.08695123331336,-2.447405124437811,-3.68688378172247,0.0,1855,0.24578452110290527,0.003344321818565462,0.003098042070844389,-177.34621940216536,0.0
252,1.6854698657989502,-183.901057333639,14.68695518837388,-146.42360335943778,-220.75576535459106,1.0416666666666667,0.7039600179765979,0.1,0.0053212642669677734,0.12095451354980469,0.049719814,0.14283754,-184.96836184334592,-2.3722956790746594,-3.640592228670382,1.0416666666666667,1838,0.24480915069580078,0.0038225096689897212,0.0033724679168197604,-175.08590212227514,0.0
253,1.726107120513916,-184.71050930735433,14.577549815612015,-154.52561503253847,-219.14452493365522,0.0,0.7187996710052329,0.1,0.005349874496459961,0.1194922924041748,0.049047817,0.1384364,-184.94257658974675,-2.4044112926222505,-3.6555879235763613,0.0,1837,0.25327324867248535,0.0043172194033800505,0.004287500703346993,-172.39172447826388,0.0
254,1.652212381362915,-185.11360140429247,13.616267707766008,-153.45421340504237,-211.74468600442805,0.0,0.7222494598994871,0.1,0.00549769401550293,0.12153410911560059,0.048936207,0.14491709,-184.95967907120132,-2.4024520007495203,-3.664334865787376,0.0,1837,0.25343847274780273,0.003594182272959818,0.003097495500145521,-174.80972374758596,0.0
255,1.6185472011566162,-185.90190385114843,13.277392141904503,-157.38606544053306,-221.9175276610157,0.0,0.6965782406884292,0.1,0.005456209182739258,0.12306880950927734,0.04950633,0.14089018,-185.05390154919604,-2.459574029186434,-3.6805993782059154,0.0,1831,0.2560305595397949,0.004188421360894123,0.003922733779584794,-173.7232078473442,0.0
256,1.7147176265716553,-182.92108870329403,13.464334357566166,-146.05705959080825,-215.03499410271877,0.0,0.7182178631894933,0.1,0.0055484771728515625,0.12257981300354004,0.049127378,0.1403551,-184.84062026460583,-2.3987301431854724,-3.6219930495370343,0.0,1836,0.25264906883239746,0.004117756127402095,0.0036175573292207296,-173.9591395094323,0.0
257,1.729689121246338,-184.32279798399284,14.158575009424746,-152.4062453235397,-217.9744236046494,0.0,0.6832868173504663,0.1,0.005511283874511719,0.11973047256469727,0.049557414,0.14614372,-184.78883803654455,-2.4254392108733636,-3.648500487420501,0.0,1828,0.24914813041687012,0.003905229666201297,0.003309457782401359,-174.7540806077888,0.0
258,1.6575953960418701,-181.8733840025685,12.20108740258548,-152.45770063610303,-212.65209952629544,0.0,0.7062231667437276,0.1,0.00559234619140625,0.11898064613342285,0.0498943,0.14068365,-184.49729263314697,-2.296390380459439,-3.6000361748179572,0.0,1848,0.24442648887634277,0.004551534491889607,0.0036054240833233425,-175.80432361208355,0.0
259,1.64933443069458,-182.01448222632038,12.221832303857774,-149.2344109293817,-207.81548073227572,0.0,0.6894217664651393,0.1,0.005326747894287109,0.11513376235961914,0.05012918,0.14963718,-184.24901159246434,-2.3410777893780694,-3.6031551989244135,0.0,1836,0.23900747299194336,0.004226446373653567,0.0036584075591876465,-173.8124404812865,0.0
260,1.6296899318695068,-184.43714137730015,13.22823053876735,-159.38544545059952,-210.32331709742903,1.0416666666666667,0.6678522987404522,0.1,0.0056722164154052734,0.11818361282348633,0.049787965,0.16180651,-184.26782457094794,-2.422206985498572,-3.6505004232212386,1.0416666666666667,1831,0.24095821380615234,0.004093246983509434,0.003395708071684191,-174.24728395718995,0.0
261,1.849870204925537,-183.59943136266293,13.754082834885015,-152.36082447004898,-212.9835522662672,0.0,0.74263555660997,0.1,0.005430459976196289,0.11867547035217285,0.049824372,0.1298615,-184.20098525011943,-2.4349625782251554,-3.6346916512859053,0.0,1832,0.243941068649292,0.0036047799331138364,0.0033791619441024346,-174.98284162362404,0.0
262,1.7683720588684082,-181.40818162806917,11.95271740923634,-151.76538694686315,-204.02223415039649,0.0,0.6710646639819953,0.1,0.005754947662353516,0.116424560546875,0.050181843,0.14646314,-183.9217048879144,-2.3156922231336226,-3.5910795789506533,0.0,1848,0.23881173133850098,0.004486000242090125,0.0034908599754180794,-174.89128544938498,0.0
263,1.7217326164245605,-182.56008863004692,12.553299511306646,-151.46946303921294,-213.50232469605257,1.0416666666666667,0.7187243089861973,0.1,0.00548553466796875,0.12180662155151367,0.050141223,0.14994743,-183.78554326212765,-2.3399194244384325,-3.6131746142793113,1.0416666666666667,1837,0.2490227222442627,0.0033465787349754245,0.0029611095027728468,-173.9461104511807,0.0
264,1.7990849018096924,-183.81226552517873,10.715291588953006,-152.5408496426553,-212.56431661834526,1.0416666666666667,0.7440605304149119,0.1,0.005340099334716797,0.11539840698242188,0.049839675,0.12783982,-183.78821548843274,-2.381078567964266,-3.63840758388505,1.0416666666666667,1842,0.24325823783874512,0.0036326590813388062,0.0035258968761124137,-174.10075991179332,0.0
265,1.8776698112487793,-182.84403877886788,13.333304514287207,-151.8353010683056,-217.7995983894458,0.0,0.6687676289177887,0.1,0.005518913269042969,0.12423419952392578,0.04978514,0.15440401,-183.69379781747625,-2.384213929420428,-3.6188411643435106,0.0,1838,0.2475895881652832,0.0034072053865187614,0.0031332575631650914,-174.96009406439612,0.0
266,1.6418073177337646,-178.28274123040765,12.530765776846069,-148.21315484109795,-211.06947968515414,0.0,0.6966120129535718,0.1,0.005362987518310547,0.11868929862976074,0.049896516,0.13296118,-183.15269215876938,-2.240672999041187,-3.5285940557106508,0.0,1838,0.24287128448486328,0.0038386811663177534,0.0032509062964251522,-175.16448207207293,0.0
267,1.7132987976074219,-180.58469235515392,14.354349894383247,-146.58860417400447,-215.67548100977464,0.0,0.6694416585218628,0.1,0.005267143249511719,0.11328125,0.049388878,0.14703616,-182.89589217840785,-2.3690973919365375,-3.5742395517178607,0.0,1840,0.2433030605316162,0.0035331613610668088,0.0031586543270869082,-172.40191545581388,0.0
268,1.6568992137908936,-182.2880818119861,11.730968676743961,-158.47636748745504,-210.30626735869723,0.0,0.6994550918572834,0.1,0.005403995513916016,0.11556577682495117,0.048081186,0.14086328,-182.83511114176568,-2.374954191160358,-3.608576959771319,0.0,1834,0.24252796173095703,0.003469604080985345,0.0031580503879657593,-174.84185333606953,0.0
269,1.710796594619751,-180.7696962603076,13.470792918424173,-149.21593533979438,-211.16429479520005,0.0,0.7276512709135536,0.1,0.0054318904876708984,0.12080240249633789,0.049917266,0.14241137,-182.62856965361988,-2.2826442020270696,-3.578568518065625,0.0,1855,0.2538948059082031,0.0036422746654679794,0.003514173154349732,-174.00675344139802,0.0
270,1.6333918571472168,-181.93728874823464,13.182727965410237,-151.1513317690121,-209.04675434945324,0.0,0.6838125378714478,0.1,0.005265951156616211,0.11619067192077637,0.049692925,0.14479645,-182.55944156308135,-2.341019693528422,-3.6013641311102713,0.0,1851,0.24967336654663086,0.0036252623677428,0.0035177429885754744,-173.10375083982095,0.0
271,1.680527687072754,-182.89689012322614,15.028457115778696,-146.82186141837138,-226.1707067023549,0.0,0.7077318248673183,0.1,0.005294322967529297,0.11661219596862793,0.050399467,0.13890767,-182.59318641909584,-2.4132076847767316,-3.620621794606318,0.0,1847,0.2483220100402832,0.00509467174951219,0.004247963169411465,-172.8118106537999,0.0
272,1.6934616565704346,-179.81683782634843,12.920416342687808,-151.0413119465921,-212.95335976867287,0.0,0.7262230419561526,0.1,0.005321025848388672,0.11653256416320801,0.04964212,0.13707784,-182.3155515598211,-2.305649945011847,-3.5589488553893864,0.0,1841,0.24890637397766113,0.004039956468567682,0.003102655230589861,-172.73603724681277,0.0
273,1.6774935722351074,-184.17670834538035,13.477338538282792,-153.59150186353781,-227.24758563641606,0.0,0.6998516089091129,0.1,0.005259513854980469,0.11672115325927734,0.050094247,0.14496225,-182.50166723837702,-2.3758568271881675,-3.646467377540148,0.0,1851,0.2518317699432373,0.00443411146917189,0.003439879349856461,-173.7909829686883,0.0
274,1.6633667945861816,-180.7322802554019,13.608078608256097,-150.04181377323275,-209.8004819529205,0.0,0.7245063447416645,0.1,0.005446195602416992,0.1202998161315918,0.049695343,0.14758785,-182.3247285400795,-2.2724681683526313,-3.5774556190380156,0.0,1839,0.26001524925231934,0.0034703777529767593,0.0031369222419245983,-170.92988350895217,0.0
275,1.6572141647338867,-180.2883986306656,11.52406695969251,-152.9830320912796,-208.3053949183905,0.0,0.6555986183846197,0.1,0.005371570587158203,0.11954283714294434,0.049326234,0.15503065,-182.12109554913812,-2.3659409111455436,-3.5677070628640517,0.0,1836,0.2625296115875244,0.0033083114286248556,0.0030620554170603348,-171.34601606555123,0.0
276,1.6726999282836914,-179.67069965354563,12.540925105179763,-155.4953702223064,-219.17069374406495,1.0416666666666667,0.6925432161432309,0.1,0.005205869674682617,0.11744475364685059,0.049910437,0.14543118,-181.87605595957888,-2.275995099035986,-3.55674973020149,1.0416666666666667,1840,0.2541513442993164,0.0033201896168907155,0.0030219681967803853,-170.67073519677894,0.0
277,1.6419384479522705,-182.06571149059525,12.148042015917417,-156.98255803372749,-211.36403344129326,0.0,0.7141706801361821,0.1,0.0054132938385009766,0.11996889114379883,0.049597993,0.1445026,-181.89502151268053,-2.3858012660322125,-3.603718217082706,0.0,1837,0.25935983657836914,0.003097726040615111,0.0027108184681895724,-171.55849300339764,0.0
278,1.652909755706787,-181.43265473434516,12.705098319892498,-151.13275508507002,-216.84034616673404,0.0,0.6375285113894236,0.1,0.005469083786010742,0.1200861930847168,0.049356945,0.16873984,-181.848784834847,-2.3226017505097865,-3.591879396762908,0.0,1845,0.2603740692138672,0.003079064354094516,0.0027298788104506955,-171.43138086879364,0.0
279,1.660593032836914,-180.33559252599898,13.055875658690093,-147.97181007618576,-206.5200003114607,0.0,0.7276726284939413,0.1,0.005696773529052734,0.12311911582946777,0.05008391,0.13933282,-181.6974656039622,-2.323885692274891,-3.5701307640880913,0.0,1836,0.2696230411529541,0.003002993436167012,0.002567951546436389,-169.29342401330138,0.0
280,1.6674106121063232,-177.7555297375261,13.420562508427775,-142.26344112444093,-217.9872144763221,0.0,0.7163737842092806,0.1,0.005454540252685547,0.12066125869750977,0.049940426,0.14556685,-181.3032720173186,-2.2152900073075505,-3.5180648811916098,0.0,1839,0.2615830898284912,0.003444852995062414,0.0030959178996013354,-170.62553841499118,0.0
281,1.6374714374542236,-180.61587466124897,13.863775743733708,-148.5299368084883,-210.64386846013957,1.0416666666666667,0.6549394019808862,0.1,0.005560159683227539,0.11867213249206543,0.04977455,0.14777336,-181.23453228171164,-2.2894659244914166,-3.575439292029369,1.0416666666666667,1833,0.2574799060821533,0.0038783263803058433,0.0032624495625542395,-171.63871340327296,0.0
282,1.6656417846679688,-182.94125492216392,12.330572431993073,-155.23382952855764,-209.8579709343858,0.0,0.7102030828414566,0.1,0.005435466766357422,0.11869120597839355,0.049773607,0.13744654,-181.40520454575685,-2.367072414808811,-3.621683783611543,0.0,1843,0.25618839263916016,0.003302500107862722,0.0030087520088317873,-171.81658536947154,0.0
283,1.7106146812438965,-179.8632719904374,13.06006590732754,-150.82648509189377,-214.68826061257798,0.0,0.6845721199926669,0.1,0.005364656448364258,0.1219797134399414,0.04879742,0.13738626,-181.25101129022488,-2.3229737833085213,-3.5605043333867346,0.0,1838,0.25339579582214355,0.003486800382166788,0.003058384837627819,-172.22028551880499,0.0
284,1.8343861103057861,-178.80660656773773,12.55698810265753,-152.6480839076939,-209.4230615613209,0.0,0.7073986390484882,0.1,0.005532741546630859,0.11916303634643555,0.049918227,0.14476874,-181.00657081797618,-2.2535518288743357,-3.538462238195495,0.0,1829,0.2532377243041992,0.003855310863840537,0.003077195957678651,-173.57080305511204,0.0
285,1.6681468486785889,-180.90727331341895,11.596959721928123,-154.06068641663606,-207.50727537550628,0.0,0.6872593987651598,0.1,0.00553441047668457,0.12178897857666016,0.048721902,0.14420632,-180.99664106752047,-2.3830383394399512,-3.5804244826991183,0.0,1838,0.2612464427947998,0.003847634461793205,0.0033262901258435383,-172.1019169123537,0.0
286,1.7528274059295654,-181.1798165720176,13.763958595871399,-153.21307922559348,-219.04628761244157,0.0,0.7149966795904519,0.1,0.005364179611206055,0.11744332313537598,0.049782448,0.13511159,-181.0149586179702,-2.3778863273379494,-3.585958635449136,0.0,1839,0.2625598907470703,0.004393938818252387,0.0038514848477307607,-170.4511668072201,0.0
287,1.7588093280792236,-181.4490601210048,13.626690992665258,-148.19906316549145,-209.6040423706998,0.0,0.6992893257460693,0.1,0.005316972732543945,0.11754059791564941,0.049774773,0.1584439,-181.05836876827365,-2.3453727027580946,-3.5912888087506105,0.0,1837,0.25212693214416504,0.0035448240422592827,0.0032657116028831845,-170.49604667273252,0.0
288,1.8005707263946533,-178.05198891624215,10.291889372988948,-152.11191850017818,-201.84496481375027,0.0,0.7404327337898123,0.1,0.0054035186767578125,0.11902880668640137,0.050023608,0.13924749,-180.75773078307049,-2.2730625621264924,-3.5233248876973504,0.0,1830,0.25324058532714844,0.0037913438162202923,0.003138874522434545,-171.05856093421005,0.0
289,1.6919581890106201,-182.72348038144904,14.702699700826242,-155.7115290956528,-217.83134633640398,0.0,0.6834234550981446,0.1,0.005439281463623047,0.11676430702209473,0.04980801,0.14020064,-180.95430574290836,-2.3707041883588738,-3.6165275427902586,0.0,1845,0.2600371837615967,0.004194167017327409,0.0033789883873090094,-170.95789653292564,0.0
290,1.6464893817901611,-181.22802352746876,11.61730573422555,-150.9575287874404,-216.1094409603902,0.0,0.7069376696913316,0.1,0.005365848541259766,0.11716198921203613,0.049895637,0.14482956,-180.9816775213644,-2.361051831506169,-3.586879276367961,0.0,1845,0.2533726692199707,0.0037104859283648693,0.0032229314050682724,-171.33281021638822,0.0
291,1.703869342803955,-181.90435033935447,13.204167309709293,-156.3825419563877,-215.22142242849847,0.0,0.7281656381891207,0.1,0.008850812911987305,0.11696434020996094,0.04971878,0.13737614,-181.07394480316339,-2.3726901620364447,-3.600771982214255,0.0,1844,0.25542140007019043,0.003604317957838346,0.0031486299594646336,-171.2532026248905,0.0
292,1.6933908462524414,-180.10462515076082,12.4784819872095,-153.4072547018144,-207.76653830419852,0.0,0.7532301173864145,0.1,0.012585878372192383,0.1215064525604248,0.04965459,0.13608675,-180.97701283792313,-2.2819545969296637,-3.56496341729502,0.0,1841,0.2651996612548828,0.003029599979616919,0.0028305588494211696,-170.093293387688,0.0
293,1.7062361240386963,-182.2796639053225,12.671428868640662,-150.8564681063654,-213.03298430264326,0.0,0.688098738204959,0.1,0.005422353744506836,0.1188044548034668,0.049907073,0.13876605,-181.10727794466308,-2.3928544092766564,-3.607642911670849,0.0,1848,0.26610589027404785,0.0032985080692328017,0.00316136632299729,-170.2091399067337,0.0
294,1.6139345169067383,-178.843855291007,12.884567523925334,-151.62888351965026,-215.90472510308533,1.0416666666666667,0.712448303197503,0.1,0.005462169647216797,0.1199483871459961,0.04826542,0.13953188,-180.8809356792975,-2.2785867041643297,-3.5392906593948985,1.0416666666666667,1845,0.2613484859466553,0.0037187769502415075,0.0032100181371206146,-171.55149861055168,0.0
295,1.6741540431976318,-179.11554899492998,13.950472529247897,-145.0550123306128,-209.76384067919298,1.0416666666666667,0.7394686698817671,0.1,0.005452871322631836,0.1195826530456543,0.049274884,0.13312948,-180.70439701086076,-2.2832450512436977,-3.5447393882482863,1.0416666666666667,1830,0.27335286140441895,0.0037023663723116827,0.0034253515672710835,-171.33034436136487,0.0
296,1.669301986694336,-180.71107373136815,12.260910875903228,-151.36000664337297,-213.24645453602625,0.0,0.6947189786028403,0.1,0.012830734252929688,0.08763980865478516,0.050150078,0.14401539,-180.7050646829115,-2.3366197157359205,-3.5771505260031176,0.0,1839,0.2651252746582031,0.0035892608313516177,0.0036097810522343547,-172.28080732790463,0.0
297,1.7055575847625732,-181.06296105947834,14.092635908494405,-147.1584204046984,-209.96931877690216,0.0,0.6864794453078663,0.1,0.01542210578918457,0.12218117713928223,0.04996338,0.15289451,-180.7408543205682,-2.372165183722999,-3.5837386070852553,0.0,1838,0.26126980781555176,0.0035657799946039177,0.0027040122369901957,-172.7129234590716,0.0
298,1.6794171333312988,-180.8991871789252,13.74382012465079,-151.29032101681088,-213.61593850106843,0.0,0.7355854322191068,0.1,0.00568079948425293,0.12369704246520996,0.050332695,0.13578506,-180.7566876064039,-2.3636481339032804,-3.580202352096054,0.0,1841,0.2722201347351074,0.0033031255292867013,0.0031880587138307355,-173.53180471549535,0.0
299,1.637399673461914,-180.85925426389267,13.711345124015414,-150.85146910614105,-217.41700658265958,0.0,0.7219750577569698,0.1,0.003977060317993164,0.11392450332641602,0.049829684,0.14017288,-180.76694427215278,-2.3574643003626163,-3.5808234366439238,0.0,1842,0.26298069953918457,0.0036647565869776483,0.0032943699055610213,-173.90079626155685,0.0
300,1.629246473312378,-180.43458746629685,12.843957704120037,-156.77528415378498,-211.72950993439125,0.0,0.7144127486350221,0.1,0.00550532341003418,0.1167609691619873,0.049961656,0.14095479,-180.7337085915672,-2.342068590577935,-3.570629949491032,0.0,1843,0.2597219944000244,0.003838962029042648,0.003649142823840938,-172.87759407101987,0.0
301,1.650935411453247,-178.73242567054817,12.577312294575728,-143.95350233520512,-206.7298424836511,0.0,0.705286839461889,0.1,0.00550389289855957,0.12081742286682129,0.04888098,0.1380435,-180.5335802994653,-2.317328106443359,-3.537272195812765,0.0,1837,0.2645723819732666,0.004331038987512263,0.0032583644048505534,-172.3074392109757,0.0
302,1.6902458667755127,-180.4786020811763,13.798540292114954,-156.24164997174904,-210.38866449346816,0.0,0.6772497788961079,0.1,0.0054473876953125,0.11896300315856934,0.050078988,0.14759113,-180.52808247763642,-2.353142337066238,-3.5714195326214337,0.0,1843,0.26302266120910645,0.004603091892745656,0.0032812928568577756,-174.7719108319924,0.0
303,1.7504463195800781,-177.90742271944916,13.491197686558493,-148.934496602629,-212.20043135420482,0.0,0.6883993994499253,0.1,0.005535602569580078,0.11852526664733887,0.049426425,0.14143689,-180.2660165018177,-2.2865781088135217,-3.5213161661264683,0.0,1830,0.2650904655456543,0.004272608598134638,0.003027931247032214,-172.8141845054667,0.0
304,1.630746841430664,-177.76351601990766,12.011266288034323,-148.12649666330822,-209.48254668124585,0.0,0.7122510526883412,0.1,0.005355358123779297,0.12427020072937012,0.04840209,0.13651453,-180.0157664536267,-2.305134292125956,-3.5184811175366284,0.0,1822,0.27386045455932617,0.00327331799590776,0.0029857846725962534,-172.414173096544,0.0
305,1.5991239547729492,-177.25751942134806,13.370693000165073,-141.95605603561893,-202.2347525249829,0.0,0.7020049642490905,0.1,0.005385398864746094,0.11969757080078125,0.049126457,0.13998665,-179.73994175039883,-2.257578665804987,-3.5072581519283736,0.0,1833,0.26497745513916016,0.0038715712427185834,0.003727515553662021,-172.91664799287497,0.0
306,1.6299335956573486,-179.4377814332838,13.144182468980025,-149.602514541035,-218.82664460218683,0.0,0.6912211166889071,0.1,0.005419731140136719,0.11786985397338867,0.049528364,0.14605755,-179.70972571868734,-2.3961387413906423,-3.5510519659337008,0.0,1822,0.26349949836730957,0.003201099363261257,0.002515196048715961,-172.53019072225158,0.0
307,1.8045992851257324,-181.76107886209488,13.994512571463842,-151.3979727550505,-212.7238974379597,0.0,0.7065465731759364,0.1,0.005426645278930664,0.118499755859375,0.049098764,0.13934019,-179.91486103302807,-2.407980636131372,-3.596806331901926,0.0,1833,0.26711106300354004,0.00368395682275726,0.00332626329714901,-170.0520482832342,0.0
308,1.6431300640106201,-176.305375829263,12.29261290677878,-146.78086073677437,-212.62184793488242,0.0,0.7222805360663003,0.1,0.004003286361694336,0.09063410758972168,0.049935542,0.13487644,-179.55391251265158,-2.2521504544339925,-3.4886831914067478,0.0,1821,0.2695953845977783,0.003511835731860717,0.0030850276277224,-171.54412765595512,0.0
309,1.7628192901611328,-178.48120322524787,12.919581444562152,-146.65856065492557,-212.8163978625256,0.0,0.683625102040298,0.1,0.0054666996002197266,0.12195444107055664,0.04973951,0.14260662,-179.4466415839112,-2.3048696506326896,-3.5331474820746913,0.0,1836,0.27735185623168945,0.003988113609123234,0.0034425909080126687,-171.6453961611818,0.0
310,1.837733268737793,-175.10054549084407,12.674540610602884,-144.32308573559425,-207.09871525243005,0.0,0.6754420508603988,0.1,0.005324602127075195,0.12557387351989746,0.050109245,0.15267858,-179.0120319746045,-2.248929565498928,-3.4642847991316503,0.0,1825,0.2749440670013428,0.0036147058254605404,0.0032846160838982804,-171.02530709700756,0.0
311,1.868638277053833,-179.6591328571586,10.904902437651135,-145.94808130896425,-211.0400188404343,0.0,0.701525795076905,0.1,0.0052950382232666016,0.1128387451171875,0.04973464,0.1495879,-179.07674206285992,-2.3237832290589555,-3.5561619706954524,0.0,1824,0.26882076263427734,0.0032954030822093896,0.0025980616035386726,-168.5190663197714,0.0
312,1.618323802947998,-177.36770984545183,14.200829462762144,-141.77305765459604,-213.89962636526434,0.0,0.6936721536177453,0.1,0.005606174468994141,0.11628842353820801,0.048658382,0.13823499,-178.90583884111913,-2.2859067760142118,-3.5107428128574347,0.0,1825,0.26967835426330566,0.003748379254745305,0.00313373115615625,-171.77975880227353,0.0
313,1.7087633609771729,-178.88868843915267,13.993187364676531,-147.54503841484555,-214.1437639923777,0.0,0.7004545770606365,0.1,0.00537562370300293,0.1194913387298584,0.04990193,0.143923,-178.9041238009225,-2.368640940948027,-3.540060411211614,0.0,1843,0.27106189727783203,0.004445113927567953,0.003771677440469621,-168.79821618911038,0.0
314,1.7215828895568848,-177.67304866327808,13.110571673745254,-149.4007353832684,-211.1562454471553,0.0,0.6920333879139007,0.1,0.005919218063354492,0.12311244010925293,0.049686473,0.15064676,-178.78101628715805,-2.269993575177898,-3.5157226778723776,0.0,1827,0.27274298667907715,0.0029613759069203904,0.002817704602887653,-169.491390781377,0.0
315,1.6849656105041504,-177.45027434455992,12.294339894761995,-150.9320169857971,-215.7365229558602,0.0,0.6712883329978921,0.1,0.0053708553314208984,0.11891388893127441,0.04881294,0.14459457,-178.64794209289823,-2.3615054457080045,-3.512380503986718,0.0,1821,0.2742607593536377,0.003130453837661491,0.002833304904422064,-169.10860908346334,0.0
316,1.6824719905853271,-178.4994433163919,14.422892332975369,-152.0758570027387,-220.26060182529855,0.0,0.6856870083639923,0.1,0.0056645870208740234,0.12386608123779297,0.04914538,0.14039715,-178.63309221524761,-2.340802792225024,-3.532866478325881,0.0,1823,0.28409433364868164,0.004516280962035804,0.003878319140438646,-170.16440438059868,0.0
317,1.6912956237792969,-176.79367608456315,12.123502022635817,-147.70153466785703,-207.0698951671221,0.0,0.7196193089849974,0.1,0.005709409713745117,0.12379980087280273,0.04986713,0.14095885,-178.44915060217917,-2.265140164862332,-3.498743518188378,0.0,1839,0.27520060539245605,0.003423392538053482,0.00303733113793464,-167.97337142542108,0.0
318,1.6128599643707275,-178.7978222469924,12.705395090325638,-152.1092214939306,-214.06847406423265,0.0,0.7089052237604567,0.1,0.005553007125854492,0.12312054634094238,0.049594115,0.14535928,-178.4840177666605,-2.359395696454806,-3.5384333972696864,0.0,1845,0.26906681060791016,0.0036379748856618156,0.003316661845015198,-168.41878025832568,0.0
319,1.6362104415893555,-176.25404428088393,11.508295012646421,-152.5308347760353,-207.752732951893,0.0,0.6917748752100241,0.1,0.005441427230834961,0.1179509162902832,0.049067028,0.15166523,-178.26102041808284,-2.272320237182324,-3.4882281540170106,0.0,1826,0.2687222957611084,0.0033619399859840214,0.002856630946647873,-168.28202531201825,0.0
320,1.6621315479278564,-179.3545201790142,13.53430636672826,-149.64779768363852,-211.05126646731577,0.0,0.6980000325170975,0.1,0.005283832550048828,0.11746716499328613,0.050246336,0.13841029,-178.37037039417598,-2.328534277229577,-3.548925503968737,0.0,1835,0.2665677070617676,0.004362508427794379,0.003627705771545275,-169.58509467853992,0.0
321,1.657686710357666,-178.20048322985943,13.417944507605556,-145.9920791478229,-206.95838380807803,0.0,0.7005753885594908,0.1,0.0053975582122802734,0.11633801460266113,0.049291305,0.13606085,-178.35338167774432,-2.3509872930804296,-3.527604417054364,0.0,1818,0.2642788887023926,0.004107984459586225,0.003686062847300407,-170.55608325998344,0.0
322,1.5888569355010986,-175.71285969489978,13.459284968664027,-144.6465945248654,-209.16851269420297,0.0,0.6974140659503032,0.1,0.005701303482055664,0.11775660514831543,0.05010434,0.14256456,-178.08932947945988,-2.2719791560794427,-3.4772050125675364,0.0,1819,0.2713475227355957,0.0035205599611092893,0.0031348825150030223,-169.5958922296112,0.0
323,1.624387264251709,-176.57355447277982,14.730664244681114,-138.89922892054804,-210.0243069100158,0.0,0.67956733292074,0.1,0.005261659622192383,0.12077450752258301,0.049873002,0.13967495,-177.93775197879188,-2.300433139525842,-3.4930286818688288,0.0,1822,0.2605710029602051,0.004511666429864526,0.0039013547310672685,-170.39182667202414,0.0
324,1.6711816787719727,-175.73848572817852,13.000612079868413,-151.93430600901254,-212.63558337016346,0.0,0.6829827141555226,0.1,0.005255222320556641,0.11648178100585938,0.049770508,0.15034518,-177.71782535373057,-2.2719689844580326,-3.4773391687936357,0.0,1826,0.25213074684143066,0.004468239147113184,0.0036430495078369055,-169.03325171419812,0.0
325,1.6597836017608643,-178.850439064482,12.931933185247395,-149.5208075716251,-205.28967242895382,0.0,0.7251424994588638,0.1,0.0053942203521728516,0.12085151672363281,0.049258485,0.13376923,-177.83108672480571,-2.310019478795238,-3.5400726624506533,0.0,1827,0.2616560459136963,0.004238110259547646,0.0032700398517808596,-170.13138481169085,0.0
326,1.6894140243530273,-177.50891743420235,12.527487149016281,-144.27270616053457,-207.2598206806459,0.0,0.7269402541819674,0.1,0.005404472351074219,0.1198878288269043,0.049209937,0.14338218,-177.79886979574536,-2.3093850176205177,-3.5118160154190536,0.0,1825,0.24901032447814941,0.0034746290248098464,0.0030348132281875716,-170.8817756056885,0.0
327,1.677738904953003,-177.05989639242975,13.851845812973341,-149.08604989067794,-214.10336039608433,1.0416666666666667,0.7288959555223194,0.1,0.005653858184814453,0.12389159202575684,0.049900424,0.13756432,-177.7249724554138,-2.312598537416981,-3.5036967834059145,1.0416666666666667,1822,0.24909639358520508,0.003358030271749805,0.003058056101218949,-168.33208703233703,0.0
328,1.6776158809661865,-178.2651458837894,12.498253316700701,-149.05897223822618,-207.7318277825973,0.0,0.6676121140577832,0.1,0.005832672119140625,0.12395310401916504,0.048866056,0.14716963,-177.77898979825133,-2.3380947585883076,-3.527101958137133,0.0,1822,0.2667860984802246,0.0030223128975085172,0.002770017860613463,-168.0003077808676,0.0
329,1.6403639316558838,-177.91417009759843,12.852060379450807,-149.11576546414707,-206.31399865102372,0.0,0.6883289960823633,0.1,0.005598783493041992,0.11793184280395508,0.049611263,0.14346664,-177.79250782818605,-2.3584800233709866,-3.5210457787580682,0.0,1825,0.24701833724975586,0.0035162103470919135,0.003184258554688511,-168.33788982261427,0.0
330,1.6496670246124268,-176.97269830168065,13.151019203829184,-151.04408652417092,-212.053278924006,0.0,0.6941019853334275,0.1,0.005296468734741211,0.11760067939758301,0.049805157,0.13998397,-177.71052687553552,-2.2813333785179357,-3.502298815514742,0.0,1818,0.24677133560180664,0.003279617627955895,0.0031763348350085934,-169.0536194290538,0.0
331,1.6890392303466797,-177.81020432346,12.326764061758139,-146.58911560354926,-206.42721191506865,0.0,0.7228736320437547,0.1,0.00540471076965332,0.11627340316772461,0.050314076,0.14810221,-177.72049462032797,-2.3194499294263244,-3.5178728841237032,0.0,1834,0.24600625038146973,0.0033630827261934373,0.0033791162571259995,-170.62497868131723,0.0
332,1.7976326942443848,-176.0342871587728,13.421087113818112,-150.31714566358377,-214.6238774677985,0.0,0.7006696070147795,0.1,0.005296945571899414,0.1161959171295166,0.0496742,0.14490938,-177.55187387417246,-2.281006318988834,-3.4838664189184425,0.0,1828,0.24705243110656738,0.0036698111517381453,0.003227131232102675,-169.38481362751958,0.0
333,1.7708971500396729,-175.22019941740686,13.201746143684701,-147.16386939113366,-209.23053704512395,0.0,0.6969764410979523,0.1,0.00568699836730957,0.12195301055908203,0.049083285,0.14434011,-177.31870642849591,-2.204151801722808,-3.467708911921425,0.0,1827,0.2580714225769043,0.003338133754878605,0.0030156048449793966,-165.54611849639667,0.0
334,1.845513105392456,-176.60928001920288,14.9239000921161,-138.21817220815333,-214.3172260454261,0.0,0.7015574364662045,0.1,0.005411624908447266,0.11864876747131348,0.049384896,0.14355442,-177.2477637875666,-2.2887983541172963,-3.4946849300259983,0.0,1822,0.2551898956298828,0.004020409382691027,0.0031693067381733555,-168.5795466200559,0.0
335,1.8954601287841797,-178.90331992372296,13.13480140958918,-153.65332905908969,-205.3218171250768,0.0,0.6881668856106613,0.1,0.0056324005126953125,0.12018442153930664,0.04934309,0.14567956,-177.41331940118226,-2.407258023525649,-3.5398253361318766,0.0,1823,0.2550983428955078,0.0029639377818602482,0.00262416230752612,-167.74606237909043,0.0
336,1.6315364837646484,-175.47092520348886,13.482263177921894,-143.33160691633233,-202.53487800428758,0.0,0.7228996942837985,0.1,0.005829334259033203,0.12116765975952148,0.049428828,0.14151408,-177.21907998141293,-2.224233103233125,-3.472487275688168,0.0,1820,0.24903225898742676,0.0030628478436420595,0.00294158745519808,-169.55617715912743,0.0
337,1.6746070384979248,-177.48396076334134,13.29141834525928,-139.97601089365128,-210.77352889008642,0.0,0.6580162296226288,0.1,0.0053522586822509766,0.12058544158935547,0.05082261,0.1598934,-177.24556805960577,-2.363748574517878,-3.5120183711047743,0.0,1831,0.24870014190673828,0.0041177144109500454,0.003725945568592306,-169.18649014150438,0.0
338,1.694730520248413,-177.45989257777674,12.546989275678136,-151.8910122608208,-208.55167405660254,0.0,0.7046587251094849,0.1,0.00544285774230957,0.11639952659606934,0.048988935,0.14097211,-177.26700051142288,-2.3087525013551944,-3.511634235688978,0.0,1824,0.23805451393127441,0.003302818836753626,0.00268440185348144,-167.91517587668977,0.0
339,1.6673715114593506,-176.5180172996925,12.843600836343315,-149.25617997643175,-209.84600010890063,0.0,0.682381855372872,0.1,0.0055048465728759766,0.11824369430541992,0.049544964,0.14581844,-177.19210219024984,-2.2804245528247997,-3.4929479072186127,0.0,1837,0.23895883560180664,0.003171420307819766,0.0029235040555023136,-168.1215410074446,0.0
340,1.6894068717956543,-177.02672618265038,11.803187236864554,-146.77448539127928,-203.84972828474847,0.0,0.7080010079006259,0.1,0.005900144577026367,0.1263277530670166,0.04962404,0.14588942,-177.1755645894899,-2.312486728330758,-3.503096896180468,0.0,1838,0.24451708793640137,0.0034818460996391344,0.003172739296213464,-165.71074446800313,0.0
341,1.6414058208465576,-177.831065335244,14.825899384920655,-140.9200932221934,-213.69590521976482,0.0,0.6943026625715019,0.1,0.0054547786712646484,0.11961150169372559,0.048991784,0.14132498,-177.24111466406532,-2.3214373886956428,-3.518631343435871,0.0,1836,0.24803972244262695,0.003356593596394077,0.003127472307810992,-168.0261271520484,0.0
342,1.6419084072113037,-174.97606061727393,13.927351451116717,-145.06175529024782,-210.48000688139885,1.0416666666666667,0.6693041875963183,0.1,0.005430698394775391,0.11903262138366699,0.049719214,0.15046525,-177.0146092593862,-2.2038837755649863,-3.4630136335265203,1.0416666666666667,1837,0.23804092407226562,0.004012669165839462,0.004347823568382979,-169.0887631454578,0.0
343,1.671604871749878,-176.56386019156704,12.861795315419345,-145.66554998907523,-207.2050883161049,0.0,0.6645896855991309,0.1,0.005550384521484375,0.12269210815429688,0.049398366,0.15406996,-176.96953435260428,-2.3233324002665863,-3.49431345773365,0.0,1837,0.24251413345336914,0.003749311111345762,0.0029284203651662637,-167.53332562235744,0.0
344,1.7032995223999023,-176.74060842141444,13.452387411900448,-143.7735555006358,-206.3439521411315,0.0,0.7123187683828064,0.1,0.005456686019897461,0.11951184272766113,0.049080398,0.14246427,-176.94664175948532,-2.301315890253299,-3.4973463868996895,0.0,1826,0.24020099639892578,0.0038666348407464294,0.003464402663485415,-168.26304063462328,0.0
