iteration,time_sampling,stoc_pol_mean,stoc_pol_std,stoc_pol_max,stoc_pol_min,rollout_success,alpha,delta,time_vpg,time_npg,kl_dist,surr_improvement,running_score,rwd_sparse,rwd_dense,success_percentage,num_samples,time_VF,VF_error_before,VF_error_after,eval_score,eval_success
0,1.8968210220336914,-244.91355754529118,28.896661364367887,-184.60431323970332,-329.897684688268,0.0,0.46124505891398154,0.1,0.09406542778015137,0.3163285255432129,0.05493854,0.2787559,-244.91355754529118,-0.10959221860398798,-3.2213587713799066,0.0,2084,0.31385374069213867,1.00102506371203,0.9133474526128517,-313.95397575981883,0.0
1,1.6846489906311035,-245.63322447358487,31.29947011656667,-170.33191644386835,-336.79268312259927,0.0,0.5485287349408569,0.1,0.012135744094848633,0.2976720333099365,0.05167846,0.19820948,-244.98552423812055,-0.11112638203392544,-3.2304695327486304,0.0,2060,0.2249584197998047,0.9132109115204766,0.2988476816029395,-335.61193078697625,0.0
2,1.6091151237487793,-247.49231109236462,37.21164414221405,-186.3252096021787,-423.75810177852236,0.0,0.5628248308051916,0.1,0.010806798934936523,0.2786691188812256,0.051449798,0.20125686,-245.23620292354497,-0.10950983709549218,-3.254319378297397,0.0,2098,0.2656068801879883,0.3041021719860059,0.1514362382549211,-310.8390065211438,0.0
3,1.5788211822509766,-246.1144749446977,35.64925275834711,-169.7721010157429,-361.6178466436428,0.0,0.5784614334038668,0.1,0.009728431701660156,0.24364304542541504,0.055762675,0.19223177,-245.32403012566027,-0.10959598848475116,-3.2367983239827947,0.0,2088,0.28534936904907227,0.15067770292406674,0.12539637747193902,-377.26552051457344,0.0
4,1.6041581630706787,-240.84758294018516,29.096390589161185,-180.62292964012076,-311.5038215356433,0.0,0.5813711077270114,0.1,0.024296998977661133,0.26553845405578613,0.05230454,0.1787208,-244.87638540711276,-0.10877629835483082,-3.167391310737557,0.0,2062,0.301891565322876,0.11816727583092185,0.09167014043004172,-398.6785344559452,0.0
5,1.6491999626159668,-243.14012273427784,55.541783496111336,-163.47301959982258,-675.5763085294458,0.0,0.5542358775030615,0.1,0.01581430435180664,0.33397436141967773,0.04921217,0.17443039,-244.70275913982928,-0.10674713548857329,-3.1980230335226625,0.0,2132,0.2678864002227783,0.13142601294314832,0.11215320869937315,-391.81135506610576,6.25
6,1.6170740127563477,-251.3941645876164,62.7874385722773,-162.05589874195107,-748.1994331704362,0.0,0.5968138469822567,0.1,0.03905224800109863,0.35674214363098145,0.05239277,0.15487759,-245.371899684608,-0.10923985381609447,-3.3072701491025094,0.0,2130,0.25770068168640137,0.1349034169946286,0.11951439487624146,-359.414590078771,6.25
7,1.7109565734863281,-243.86655005907787,31.185567827837072,-179.5505998264152,-364.70585201107355,0.0,0.5700858521604867,0.1,0.01159048080444336,0.3758387565612793,0.052667085,0.19020611,-245.22136472205497,-0.10807716167344121,-3.2077149867484187,0.0,2103,0.14773797988891602,0.05341500984995544,0.038155879975878014,-348.63143952200755,6.25
8,1.725254774093628,-248.27593755924218,64.91140359006033,-182.4243248292391,-716.4847191774636,0.0,0.5577793797071419,0.1,0.018680095672607422,0.23990964889526367,0.051299725,0.1629948,-245.5268220057737,-0.10885820092873573,-3.26564338906746,0.0,2126,0.28244781494140625,0.13243024556298527,0.12501960603619236,-317.99132301723404,12.5
9,1.6283657550811768,-243.90491837412512,26.674520703161054,-179.27012415604906,-327.1517206963115,0.0,0.5980378431211275,0.1,0.04779553413391113,0.4082987308502197,0.05095742,0.16927622,-245.36463164260886,-0.10780956563101847,-3.2074807766956503,0.0,2106,0.14394855499267578,0.03800948022825268,0.03057589613755806,-353.87259537686157,12.5
10,1.5833876132965088,-243.8066734813511,27.71065971548676,-174.53113212155515,-325.2752024035475,0.0,0.5829728827864137,0.1,0.0454561710357666,0.3423736095428467,0.050420217,0.18248585,-245.2088358264831,-0.10918216601144097,-3.2061166204072173,0.0,2068,0.27409887313842773,0.028722329178951712,0.025874046637370716,-301.3275642336658,6.25
11,1.5984611511230469,-240.43127775053009,26.84767937621847,-188.45642936548296,-343.96171498537655,0.0,0.5745199946723331,0.1,0.01877880096435547,0.27652812004089355,0.051835,0.18194385,-244.73108001888778,-0.10891553000240417,-3.161266713178222,0.0,2046,0.21891498565673828,0.02459035820320168,0.02310628813969192,-299.652929372264,25.0
12,1.6403334140777588,-240.89679961548254,35.34253445430235,-168.54079499340116,-374.5051050531912,0.0,0.5854851972231245,0.1,0.028638124465942383,0.3455798625946045,0.050210573,0.17984079,-244.34765197854728,-0.10767192556364857,-3.167136444680653,0.0,2084,0.19595909118652344,0.031001406151101897,0.029526846965458216,-318.1623147313833,25.0
13,1.5967001914978027,-238.3735204459501,31.46541621758272,-179.9616242877181,-314.7696675293725,0.0,0.5935642213964051,0.1,0.0621180534362793,0.2662665843963623,0.048657045,0.18370077,-243.75023882528757,-0.10834540433677442,-3.1340899281420285,0.0,2060,0.2765953540802002,0.025963508431258196,0.024658211608099563,-332.02055635966326,25.0
14,1.605531930923462,-239.85620037497873,32.390322515594896,-177.98314341990744,-367.9103809873975,0.0,0.5982750782679782,0.1,0.0107574462890625,0.4922652244567871,0.050088238,0.16205011,-243.3608349802567,-0.10683902124667165,-3.152241203339314,0.0,2092,0.14635753631591797,0.028867418692465393,0.027239085256403544,-372.12600014160665,12.5
15,1.6444010734558105,-238.42764643418437,31.01847597771028,-168.03956057923668,-311.78582660926907,0.0,0.6076546086481918,0.1,0.048047780990600586,0.34723448753356934,0.05207928,0.17756186,-242.86751612564947,-0.10512174122128704,-3.1337114693533046,0.0,2123,0.338747501373291,0.02507030915479502,0.023880141156107395,-383.47537859260456,12.5
16,1.6060192584991455,-233.5478681414072,29.657406951070925,-151.19562511900915,-353.6952568359172,0.0,0.5641596597651874,0.1,0.011786222457885742,0.45345234870910645,0.051711652,0.18721955,-241.93555132722526,-0.10344465031875179,-3.070864086018549,0.0,2101,0.1620023250579834,0.024968688818805467,0.02339815523613672,-324.73894132095694,18.75
17,1.8563833236694336,-239.1424803141762,43.35973614984804,-156.5110156580983,-504.17109453606486,0.0,0.6230388164471515,0.1,0.029634714126586914,0.3216714859008789,0.049846478,0.14842786,-241.65624422592037,-0.10232432984423363,-3.14453502402313,0.0,2192,0.31638073921203613,0.055415043433090186,0.05006065604112699,-277.41579609579753,18.75
18,1.8770716190338135,-241.22265793913914,38.948976461907186,-162.5775736356064,-499.0893270852477,0.0,0.5915908105869796,0.1,0.038802385330200195,0.5078074932098389,0.049893104,0.16546474,-241.61288559724227,-0.10400339362685339,-3.17167688056139,0.0,2162,0.3309504985809326,0.046674006764004426,0.044406308780820754,-284.1121393899285,18.75
19,1.7934341430664062,-241.78022643848786,36.79012235213467,-147.67398888667122,-421.7638312837569,0.0,0.6179903861791763,0.1,0.06872892379760742,0.33702683448791504,0.050715335,0.15377936,-241.62961968136682,-0.10455515204284242,-3.1781142399502786,0.0,2169,0.1554868221282959,0.033833454570736624,0.03269306719729595,-288.80012725312525,18.75
20,1.9171817302703857,-238.49588428571693,58.0023063773365,-170.8859734442677,-712.7020483720698,0.0,0.6330452817718883,0.1,0.010526418685913086,0.33788561820983887,0.05028228,0.13102207,-241.31624614180186,-0.10286627352385425,-3.13517020081934,0.0,2176,0.26793789863586426,0.11248461984011535,0.10547904206082998,-312.32424332724156,18.75
21,1.7823853492736816,-252.43169444829812,89.02156466413332,-180.2096998234512,-965.9318484084326,0.0,0.6135613898504446,0.1,0.011907339096069336,0.3008420467376709,0.047860403,0.12543698,-242.4277909724515,-0.10638638997603674,-3.3211968636820024,0.0,2190,0.3409886360168457,0.18081327294273788,0.1707622150621944,-311.65090757987224,18.75
22,1.821988821029663,-234.65098044397655,30.825190099634636,-156.97697357141476,-318.776418361897,0.0,0.5969221466299421,0.1,0.040869712829589844,0.30234694480895996,0.050650727,0.1899176,-241.650109919604,-0.10303526848359774,-3.0843746505409975,0.0,2124,0.25907468795776367,0.03906041511247778,0.02359384104980822,-299.5474918328041,18.75
23,1.7582509517669678,-235.92085120853463,32.216943266368716,-164.92443110125635,-353.90283072779874,0.0,0.5983339603734809,0.1,0.026866912841796875,0.2581496238708496,0.04909798,0.17923509,-241.07718404849706,-0.10386644283518509,-3.101458116225681,0.0,2130,0.2739138603210449,0.0269905175756416,0.026159191750637863,-287.5090598729136,18.75
24,1.869297981262207,-236.2557388607396,40.172432033612374,-167.79711591167512,-471.8549898627521,0.0,0.60638887848203,0.1,0.029793262481689453,0.3066556453704834,0.05127631,0.15935332,-240.59503952972133,-0.10260318878575053,-3.1056812244135905,0.0,2148,0.4383511543273926,0.03989814433320817,0.03922612342906001,-275.7706928027807,6.25
25,1.7432785034179688,-236.09362663415132,30.347793664452837,-173.93499495897157,-318.8473688235293,0.0,0.6315242459107412,0.1,0.02366042137145996,0.33024168014526367,0.051117204,0.17122333,-240.14489824016434,-0.10329524036427191,-3.103822139970321,0.0,2143,0.48221874237060547,0.023326566202062818,0.02241055560046498,-266.21988661745434,6.25
26,1.7197895050048828,-238.4249152312498,46.19523581989789,-134.9100465598857,-457.09488948939486,0.0,0.6478037864017493,0.1,0.012092351913452148,0.23731684684753418,0.049810443,0.15195276,-239.97289993927288,-0.10163479229011359,-3.1345075494263788,0.0,2202,0.5866765975952148,0.05088427616048708,0.04831533744608159,-262.7086762366383,6.25
27,1.6037580966949463,-229.5868677839159,34.95852207377144,-137.92117376817592,-394.580107796608,0.0,0.6259063178930566,0.1,0.03378891944885254,0.4438598155975342,0.050452337,0.17636412,-238.93429672373716,-0.10172196928343936,-3.0161169381438935,0.0,2124,0.3993217945098877,0.028478053433433598,0.02711656709017503,-246.77826455062217,0.0
28,1.797093152999878,-236.2809485866039,45.372449453842215,-165.43377961513266,-517.890185030304,0.0,0.6480629355419576,0.1,0.02552628517150879,0.5313045978546143,0.051431026,0.13249016,-238.66896191002382,-0.10081517016324981,-3.105923164541782,0.0,2195,0.5074648857116699,0.05390887827151731,0.05113818628181114,-255.53977823805735,0.0
29,1.5982317924499512,-236.14776736496887,34.102342038166626,-164.65304223971552,-345.46087934930193,0.0,0.6173811690299377,0.1,0.011931180953979492,0.3929879665374756,0.05034445,0.17550696,-238.41684245551832,-0.10184681099156674,-3.1038611098712985,0.0,2159,0.4931447505950928,0.029152788970793035,0.028656274514992797,-247.5749524192611,0.0
30,1.6327414512634277,-227.83565565798065,25.94377821393722,-178.90725761296667,-305.2487978555282,0.0,0.6017591206694279,0.1,0.0343778133392334,0.32690906524658203,0.05067529,0.17744182,-237.35872377576456,-0.10067077967384748,-2.9937821294030607,0.0,2117,0.4587428569793701,0.019918713420962977,0.018862680559539616,-253.84575228963976,6.25
31,1.7884948253631592,-239.59268026611304,52.69688508519464,-137.61105773288838,-572.786170711449,0.0,0.6337950133086925,0.1,0.06977081298828125,0.25205183029174805,0.050757434,0.13578089,-237.58211942479943,-0.1024988780325581,-3.149493388014104,0.0,2188,0.601407527923584,0.06941315715363916,0.06274226984201219,-256.5623066421502,0.0
32,1.702204704284668,-235.35278776567966,34.99202712011491,-162.95056403941416,-358.1636535717917,0.0,0.6666729671876935,0.1,0.07986044883728027,0.41835737228393555,0.049387407,0.14752173,-237.35918625888746,-0.10159652327365581,-3.093826828083967,0.0,2175,0.5230648517608643,0.027930080173380445,0.026385295212635624,-241.31232933657273,6.25
33,1.7239534854888916,-228.96012418403606,38.20541874047643,-156.68827354177978,-440.17725810347565,0.0,0.6257252762101068,0.1,0.06487154960632324,0.40422987937927246,0.049673088,0.14797276,-236.51928005140235,-0.10121696194233216,-3.007486139692657,0.0,2126,0.517587423324585,0.032605004196363745,0.030185699317323546,-248.27275002197575,6.25
34,1.6890990734100342,-236.15282489271968,39.85971727580747,-177.68349405014038,-498.01956420004143,0.0,0.5977681992357416,0.1,0.012204170227050781,0.3416862487792969,0.0505128,0.13374667,-236.4826345355341,-0.10196360358073771,-3.103929360350533,0.0,2153,0.4646174907684326,0.03900078113635151,0.03719495113174477,-248.8563647973927,6.25
35,1.6456878185272217,-235.9885958767073,32.12625597100705,-171.99134212756599,-324.7527051524895,0.0,0.6390392769677776,0.1,0.05308079719543457,0.25181055068969727,0.049586114,0.16395149,-236.43323066965144,-0.10093594005848384,-3.101646487027359,0.0,2156,0.4506206512451172,0.023765996873038594,0.02237925086962031,-242.89964710293077,0.0
36,1.7214176654815674,-236.460902946131,33.72253933570597,-179.69251042911065,-373.06884248128193,0.0,0.6032811151048982,0.1,0.04195857048034668,0.34740543365478516,0.050240077,0.15991193,-236.4359978972994,-0.10127154630967909,-3.108144555426689,0.0,2181,0.4673435688018799,0.025331621060376078,0.024533730404265243,-229.7435198056806,6.25
37,1.6338894367218018,-234.7805165978572,27.422201832090817,-170.2351624454078,-301.77661821647786,0.0,0.6207554603362845,0.1,0.03577065467834473,0.42856287956237793,0.050662093,0.17071381,-236.27044976735516,-0.10172411616126355,-3.085771796954202,0.0,2139,0.48494887351989746,0.017813690345949734,0.017226381201589223,-235.79162188512106,6.25
38,1.6619296073913574,-231.71677901180274,32.54277984443007,-145.8509708327405,-323.7781175229788,0.0,0.6222517542676343,0.1,0.022448301315307617,0.4240448474884033,0.05111662,0.16617207,-235.81508269179994,-0.10116664126238879,-3.044111296242414,0.0,2138,0.5986371040344238,0.021544888531637933,0.020926919472978308,-241.26760908115978,6.25
39,1.6444833278656006,-230.5890569051733,33.15351014195391,-155.47353230725122,-348.01908906136583,0.0,0.6528772271919728,0.1,0.03688526153564453,0.3643028736114502,0.050463445,0.15948583,-235.2924801131373,-0.10043534612212995,-3.0303792142577275,0.0,2161,0.5063948631286621,0.026824570933558185,0.025520447600976555,-243.78698298557742,6.25
40,1.637664556503296,-226.9052655501824,32.02603001994992,-136.9371385493995,-312.30985314730606,0.0,0.619839596827548,0.1,0.05076169967651367,0.42751216888427734,0.05031739,0.16108486,-234.4537586568418,-0.09964857196378858,-2.9798373881060733,0.0,2135,0.5119061470031738,0.02058318674374461,0.02025048233670399,-239.33566438763546,0.0
41,1.6463286876678467,-236.84485221794293,38.71140300600047,-159.34710671977825,-482.1192601075307,0.0,0.6292574761941166,0.1,0.0449986457824707,0.2565131187438965,0.050674133,0.15063085,-234.69286801295192,-0.10304898296466658,-3.113453257759018,0.0,2162,0.48847317695617676,0.03372687937482809,0.032062764759760325,-234.3406297439032,6.25
42,1.8385086059570312,-230.30062939637173,32.361775528993974,-153.60071760338116,-298.92178226236723,0.0,0.6419150850924941,0.1,0.010540008544921875,0.4438958168029785,0.05047974,0.16263705,-234.25364415129388,-0.1002329983859727,-3.0261839970714597,0.0,2157,0.5327589511871338,0.02080517316043328,0.019518620491523437,-239.2217569789461,6.25
43,1.7705049514770508,-228.36781781838866,32.74659175456449,-165.79613701240714,-327.67552141315014,0.0,0.632332147230809,0.1,0.027770042419433594,0.2735886573791504,0.05078517,0.15891343,-233.66506151800337,-0.09900382351552374,-3.000680758129452,0.0,2167,0.5864262580871582,0.024837882989255912,0.02431754243844555,-238.5004664419078,0.0
44,1.7307312488555908,-228.408598595796,32.18403331025434,-145.53476966607235,-317.89557515756223,0.0,0.6738052064482631,0.1,0.06062936782836914,0.31897926330566406,0.049682677,0.14726679,-233.13941522578264,-0.10082776096525047,-3.001419731891863,0.0,2129,0.5202047824859619,0.019824457533887743,0.019207199781105227,-242.1952499468045,0.0
45,1.7340929508209229,-228.20354139767548,26.24007913082999,-159.71928459518142,-320.68017826205386,0.0,0.6096492734213322,0.1,0.03238320350646973,0.3746187686920166,0.04962879,0.16338429,-232.64582784297193,-0.1017110432330035,-2.9993316956477187,0.0,2089,0.5069882869720459,0.015826303914936383,0.015535324949294629,-234.99834908173023,0.0
46,1.7627758979797363,-229.44461569272525,30.946779904648874,-164.8170980109781,-332.1822939344788,0.0,0.5989660016757368,0.1,0.03649330139160156,0.29305124282836914,0.049278423,0.16521299,-232.32570662794728,-0.10097237018588485,-3.0144474678503066,0.0,2118,0.48525452613830566,0.020124853225518977,0.01953704361684229,-239.57489813067022,0.0
47,1.760944128036499,-231.17082325273793,30.833940937249572,-144.29813905427716,-334.669501978868,0.0,0.5950727015741774,0.1,0.06221127510070801,0.328355073928833,0.05041174,0.17496878,-232.21021829042635,-0.10261267502941902,-3.0379058719884853,0.0,2100,0.49341702461242676,0.01887936641257752,0.018645986543167355,-238.14501466575496,0.0
48,1.7341718673706055,-227.53019902732794,31.07115120011119,-137.3964770980804,-316.5912800653636,0.0,0.6180221466183186,0.1,0.012479066848754883,0.3672821521759033,0.050593972,0.16412598,-231.74221636411653,-0.10249277646097282,-2.9891467377701813,0.0,2087,0.5814330577850342,0.018583669670841595,0.0173826461386754,-234.515841055591,0.0
49,1.766418218612671,-233.7792842177624,29.291197349925156,-153.3264384864191,-311.73393365755584,0.0,0.611491679247364,0.1,0.07094883918762207,0.29042601585388184,0.049918137,0.15687579,-231.9459231494811,-0.10124896483801578,-3.072575718605947,0.0,2141,0.5324540138244629,0.019308703563669392,0.018733904725338524,-237.71332652335053,0.0
50,1.7709755897521973,-229.8467461642906,29.97382612472448,-168.13711133527423,-290.310254481114,0.0,0.622014147465297,0.1,0.026825904846191406,0.42655324935913086,0.050084814,0.16923578,-231.73600545096207,-0.10180021284693586,-3.020028886471817,0.0,2114,0.5336647033691406,0.016145014321356944,0.014916483052898765,-234.4594769335347,0.0
51,1.646533489227295,-229.3906854924597,27.417845625396506,-154.52449242218913,-314.15690514991115,0.0,0.6156965984946188,0.1,0.051935434341430664,0.38857269287109375,0.050095156,0.1588507,-231.50147345511184,-0.10183774121759592,-3.015047487904134,0.0,2100,0.48293447494506836,0.014788024647791907,0.014145953309795312,-234.31319482026248,0.0
52,1.6784226894378662,-226.9970755985872,30.870435684447965,-156.57039544643135,-346.08544814133955,0.0,0.6243302925838035,0.1,0.01724863052368164,0.41068506240844727,0.049996894,0.15928136,-231.05103366945937,-0.09984041721744437,-2.9822590882160163,0.0,2134,0.6385786533355713,0.01975503484003653,0.018572893343665867,-232.72084770096762,0.0
53,1.683795690536499,-236.914651467137,33.669084843441766,-176.63618726584832,-423.3652789866697,0.0,0.6198958854215313,0.1,0.052526235580444336,0.3467581272125244,0.049221598,0.1475473,-231.63739544922714,-0.10147589417406393,-3.1145396037238213,0.0,2157,0.6482458114624023,0.026110264851815574,0.024219520362386875,-237.9574421978161,0.0
54,1.647552728652954,-223.78931880296412,26.183203021315943,-151.1275165173046,-278.6171736417739,0.0,0.6501204431396018,0.1,0.04444074630737305,0.31012845039367676,0.049876865,0.15804067,-230.85258778460084,-0.09851571617122297,-2.939615377311354,0.0,2125,0.5644607543945312,0.015895665747895235,0.013801787459202136,-245.25529897716,0.0
55,1.6664371490478516,-225.76223199338264,26.04455164610793,-158.16945843900695,-313.055483248451,0.0,0.6135640401057918,0.1,0.0579986572265625,0.34599733352661133,0.050089143,0.17086262,-230.34355220547903,-0.10029401228679974,-2.964970234192201,0.0,2098,0.5888102054595947,0.014376184598544608,0.01387083811150162,-242.73652684429126,0.0
56,1.6726188659667969,-224.1311205767271,27.604762513489543,-160.22377982812068,-305.8911506269009,0.0,0.6091034613606549,0.1,0.052655696868896484,0.4491424560546875,0.05066155,0.16323856,-229.72230904260385,-0.0984276010407872,-2.9437186282738423,0.0,2126,0.64019775390625,0.01435776076736751,0.013905187679057868,-245.67399740962475,0.0
57,1.6150670051574707,-222.86625803067272,27.366098113040216,-156.82827631845183,-291.03485750310085,0.0,0.604847324324862,0.1,0.05467367172241211,0.3562164306640625,0.049985398,0.17636064,-229.03670394141074,-0.09928965734651977,-2.926502521683067,0.0,2096,0.5124857425689697,0.013750315694680678,0.013513426137925012,-239.54270677404648,0.0
58,1.675849437713623,-223.5995753905846,29.108894266264702,-152.19170713385938,-301.43325369997876,0.0,0.6294514127576614,0.1,0.047739267349243164,0.4699716567993164,0.04930796,0.15415855,-228.49299108632812,-0.09821059547296544,-2.9375522807490317,0.0,2133,0.5205786228179932,0.015019122584338919,0.014594199911233697,-242.42545047950696,0.0
59,1.6248292922973633,-224.49682503335438,27.62697285886828,-158.79495330583435,-320.8745837255242,0.0,0.630200609519885,0.1,0.03958249092102051,0.38080406188964844,0.0492383,0.1603798,-228.09337448103076,-0.10041094973991488,-2.948717851127611,0.0,2079,0.5186896324157715,0.014751956104152303,0.01423383113655668,-242.47012287625515,0.0
60,1.6352760791778564,-224.11973146245245,27.989902857559954,-133.95446968481357,-326.03026878471485,0.0,0.6805266795148224,0.1,0.058492183685302734,0.41503024101257324,0.049831517,0.15134177,-227.69601017917296,-0.1003670721262636,-2.9445051967125857,0.0,2079,0.567338228225708,0.01431830837115442,0.013734290468629885,-241.74555025895216,0.0
61,1.8658552169799805,-221.7334713829174,29.10217183651441,-151.07453688774578,-312.043601550093,0.0,0.6620808748639021,0.1,0.03197002410888672,0.447390079498291,0.050174657,0.15452132,-227.0997562995474,-0.09768931366485999,-2.912340312541907,0.0,2134,0.5933675765991211,0.015031441850188378,0.014410213701678542,-243.03571875008362,0.0
62,1.8057911396026611,-223.69003696207218,29.481924248445036,-141.5644325782995,-333.02725839954604,0.0,0.608620714499105,0.1,0.04744267463684082,0.3935575485229492,0.050701853,0.16401729,-226.7587843657999,-0.10060740319007448,-2.938377755146647,0.0,2070,0.5888400077819824,0.016426138897155836,0.01600718137597497,-241.76455323959937,0.0
63,1.805476188659668,-219.30816176997908,30.67016072390857,-155.79473063659927,-364.9386765607623,0.0,0.6275011503493055,0.1,0.03200244903564453,0.2909207344055176,0.049746197,0.15183674,-226.0137221062178,-0.0973283506902265,-2.879658147802859,0.0,2112,0.4953787326812744,0.019391101774637362,0.018708126782575704,-240.9717977086123,0.0
64,1.6901609897613525,-218.11435237315288,27.916391043808908,-147.2278937574963,-272.8489588877739,0.0,0.6287902174906626,0.1,0.030912160873413086,0.33144712448120117,0.049987335,0.16822982,-225.22378513291133,-0.09926276258932705,-2.8632286648733185,0.0,2060,0.5181756019592285,0.012123211659826572,0.011729716017280817,-241.4725097097436,0.0
65,1.8035874366760254,-222.51979638536784,34.170442913070005,-146.0531879128415,-340.86407317126225,0.0,0.6514146402778651,0.1,0.011553525924682617,0.27373790740966797,0.049820814,0.14611587,-224.953386258157,-0.09851904220561725,-2.9216921214079825,0.0,2121,0.525627851486206,0.02365886874734256,0.021956456572934442,-241.6363888509561,0.0
66,1.807361125946045,-223.36208021711596,35.63330072766731,-153.3986673420001,-412.8130141811393,0.0,0.6347061038768272,0.1,0.028032541275024414,0.3679637908935547,0.049295243,0.14934024,-224.7942556540529,-0.09767752873949002,-2.933007982079396,0.0,2137,0.5857729911804199,0.02337632470076019,0.022195951610590844,-244.46783042275032,0.0
67,1.7834994792938232,-225.18521276621632,30.960337674859122,-158.12637523495476,-349.2579016256417,0.0,0.6619653282418181,0.1,0.05175161361694336,0.48398756980895996,0.05053739,0.14036246,-224.83335136526927,-0.09931803256746174,-2.9578703452222825,0.0,2116,0.6520013809204102,0.016303197458383222,0.01569596507730916,-238.18109875578347,0.0
68,1.8099937438964844,-222.00277134109035,29.82816438426156,-153.86019155360194,-289.4036419921109,0.0,0.6715767811819997,0.1,0.04394388198852539,0.37667346000671387,0.051358912,0.15153234,-224.55029336285136,-0.09739586040786646,-2.914882362839748,0.0,2144,0.5913906097412109,0.014683261860572134,0.01422222886203215,-231.44466739528139,0.0
69,1.8024840354919434,-223.2188868835232,33.39097587934436,-140.17883275709332,-366.9273462448796,2.0833333333333335,0.6151357502154668,0.1,0.03405618667602539,0.2726426124572754,0.050318085,0.15814921,-224.41715271491856,-0.09770125005822174,-2.932120402559151,2.0833333333333335,2149,0.5298881530761719,0.018398189176085687,0.01656346777202042,-234.2288994160893,0.0
70,1.7587764263153076,-225.98582688994915,27.693440019346557,-132.35663523198644,-327.92742961152675,0.0,0.5954479098165532,0.1,0.0326237678527832,0.2612950801849365,0.05010619,0.16405293,-224.57402013242162,-0.09968512607895545,-2.968575262444967,0.0,2109,0.5396230220794678,0.015802659567721623,0.014877609121748986,-228.21126140601797,0.0
71,1.7897443771362305,-218.53707388559164,32.18830527791422,-127.71842770108415,-377.1629536645512,1.0416666666666667,0.6661503271052162,0.1,0.010486125946044922,0.32294201850891113,0.050151654,0.14863336,-223.97032550773864,-0.09648492585459556,-2.8696544114468945,1.0416666666666667,2135,0.505112886428833,0.01809809044270411,0.017597595927760154,-226.80912403400373,0.0
72,1.823378562927246,-220.86838525715962,27.735580118851708,-142.06852712883156,-293.5933331964281,0.0,0.6200585554668472,0.1,0.06220054626464844,0.35954785346984863,0.050275613,0.17161316,-223.66013148268073,-0.09703631099275058,-2.899209349855537,0.0,2122,0.45369839668273926,0.014771459492579804,0.013860527638964422,-233.77873455988907,0.0
73,1.6595938205718994,-220.0358159387093,28.331351960146957,-138.9701373224938,-307.5152050986672,0.0,0.6099828363373252,0.1,0.023105859756469727,0.43338513374328613,0.05107056,0.16200389,-223.29769992828358,-0.09622900272227959,-2.8891633465525586,0.0,2141,0.5894157886505127,0.013308315648122652,0.012485890538993166,-228.51384147482236,0.0
74,1.5955190658569336,-214.64168373986823,26.245762022229243,-129.59610393365264,-276.85362704895306,0.0,0.6615060752065217,0.1,0.010893821716308594,0.3616495132446289,0.04981284,0.15647475,-222.43209830944204,-0.0960485030440494,-2.816540982964644,0.0,2106,0.45775890350341797,0.011383381506158741,0.011017533929097099,-234.24116176789647,0.0
75,1.6025748252868652,-214.81585799346877,30.02655806957265,-139.94247859078868,-306.5235462943203,0.0,0.6759104666000905,0.1,0.03422665596008301,0.3931558132171631,0.049369123,0.14492805,-221.6704742778447,-0.0941860045651854,-2.819388474808895,0.0,2155,0.46389341354370117,0.013811810379689279,0.013313899047889191,-226.26819993068978,0.0
76,1.5831396579742432,-220.42210353753399,30.193749775856283,-141.70408830672375,-308.5914545556507,0.0,0.6300217790987528,0.1,0.017357587814331055,0.32293224334716797,0.050619334,0.16532938,-221.54563720381364,-0.09653526760579179,-2.8948045708154813,0.0,2136,0.5228521823883057,0.014846088456608564,0.0129521799792544,-229.2850041857028,0.0
77,1.6715819835662842,-216.65195479174045,33.17519362374839,-112.36536741174737,-331.2890097008336,0.0,0.6444343357181906,0.1,0.014958381652832031,0.370452880859375,0.051046915,0.15853852,-221.05626896260634,-0.09427193597394086,-2.843476944331884,0.0,2168,0.6806068420410156,0.01706793020195976,0.01547660437054051,-229.58474365597397,0.0
78,1.6556730270385742,-213.51467618133105,31.023385497339863,-121.38641213762693,-336.540850095077,1.0416666666666667,0.5997681198342605,0.1,0.028922557830810547,0.2802436351776123,0.050343767,0.17580749,-220.30210968447884,-0.09430503350224728,-2.8026292357583222,1.0416666666666667,2132,0.5071635246276855,0.013802918070709148,0.013142045869639738,-239.00705270170255,0.0
79,1.6767029762268066,-218.44334100884421,27.835479678435192,-145.77781888876922,-289.1941994088974,3.125,0.677600078987843,0.1,0.04801774024963379,0.2677459716796875,0.050083306,0.15099083,-220.11623281691539,-0.09460735586838032,-2.8686810484370593,3.125,2165,0.46724987030029297,0.013287524967465419,0.01267946459110427,-235.30352649802444,0.0
80,1.6619815826416016,-215.63398036513607,27.153448805345004,-146.83495657108358,-273.604974352242,0.0,0.6425996209690512,0.1,0.05839800834655762,0.3721771240234375,0.04920126,0.15988933,-219.66800757173746,-0.09542230458586938,-2.830296511429733,0.0,2121,0.5890462398529053,0.012305130909177314,0.011401014588579882,-231.4006397959144,0.0
81,1.6924285888671875,-218.81438483952522,31.63495750296819,-127.0893503167919,-291.03608526347506,1.0416666666666667,0.6351365128172489,0.1,0.06864094734191895,0.43228626251220703,0.05048897,0.16659221,-219.58264529851624,-0.09576544063626014,-2.8722060577981683,1.0416666666666667,2147,0.5265264511108398,0.014454742397687298,0.013431084584000759,-234.77364867701232,0.0
82,1.656799554824829,-217.47634781034535,28.06680376608375,-134.75685886027054,-287.1565727848101,0.0,0.6086477257850929,0.1,0.048590898513793945,0.2875030040740967,0.04927385,0.16582657,-219.37201554969914,-0.09458095808708551,-2.854787686380714,0.0,2152,0.6220271587371826,0.013757026859490613,0.013178953686923865,-233.8581451082005,0.0
83,1.6903529167175293,-218.0705932496786,31.795199194637377,-139.0514664867343,-295.67957322734907,0.0,0.6487984802639061,0.1,0.058278799057006836,0.35480284690856934,0.05017838,0.15987858,-219.2418733196971,-0.09385889063386825,-2.863477853048383,0.0,2185,0.5055599212646484,0.0165850189214884,0.016067593587249126,-231.9909482066057,0.0
84,1.6775007247924805,-218.62853466372817,30.182770190152794,-142.1247196581444,-287.60571691997706,0.0,0.6508527322385382,0.1,0.04088997840881348,0.3589155673980713,0.049935944,0.1643095,-219.18053945410023,-0.09592119037881426,-2.870830663895229,0.0,2150,0.45774388313293457,0.013390784921851905,0.012826520946298587,-229.48417983982404,0.0
85,1.691786766052246,-214.5193060044071,27.26974676019215,-104.41144937790403,-271.3958027495665,1.0416666666666667,0.6146127542977671,0.1,0.010663509368896484,0.43233680725097656,0.04975887,0.17863902,-218.71441610913092,-0.09405594187750488,-2.81485815269068,1.0416666666666667,2135,0.4643886089324951,0.011703105541577106,0.011015922008604967,-231.10267620685357,0.0
86,1.7621221542358398,-220.2790124857262,29.232723390769138,-129.49860230346607,-308.3495423843036,1.0416666666666667,0.6191056662701531,0.1,0.031426429748535156,0.2861762046813965,0.05101369,0.17097057,-218.87087574679046,-0.09555130355916079,-2.8934008814084327,1.0416666666666667,2150,0.49530625343322754,0.015211719904430772,0.014304304905215236,-227.11896596386572,0.0
87,1.823322057723999,-209.78275683556947,32.74435065109448,-108.35403331282859,-288.3793761319818,2.0833333333333335,0.6389598070723536,0.1,0.019484996795654297,0.24370598793029785,0.05004864,0.175095,-217.96206385566836,-0.09299496724919061,-2.7526555632216643,2.0833333333333335,2156,0.6543850898742676,0.014728096676737159,0.013087510450773939,-224.6975924000852,0.0
88,1.7186086177825928,-219.2227380912967,30.869507008182044,-136.59981342559377,-359.4924950804685,0.0,0.654977018531198,0.1,0.028207063674926758,0.45147204399108887,0.050312206,0.15494557,-218.08813127923122,-0.09426931994274661,-2.877746164812082,0.0,2163,0.5349400043487549,0.013541905772959778,0.013013661151727352,-227.12878392093512,0.0
89,1.6572482585906982,-219.32057475138808,28.89776519826612,-137.40089899476794,-278.46968381683405,1.0416666666666667,0.6263502914940635,0.1,0.044297218322753906,0.277294397354126,0.050620504,0.16858225,-218.2113756264469,-0.09575116844064609,-2.879409053303212,1.0416666666666667,2155,0.30034780502319336,0.011981926999453933,0.012038731262571184,-230.14350994141313,0.0
90,1.8307549953460693,-215.24722944685865,28.166300365815307,-138.1904512715043,-277.6923186042137,1.0416666666666667,0.6457564702427039,0.1,0.01053619384765625,0.3499257564544678,0.05005854,0.17368282,-217.9149610084881,-0.0955358079449475,-2.8254270384363918,1.0416666666666667,2112,0.45003700256347656,0.010823724291088513,0.010605079073391328,-233.76395443814928,0.0
91,1.801048994064331,-218.67577987517674,26.99475098137525,-141.15761611971158,-277.18786980621496,0.0,0.6381334320483253,0.1,0.027263879776000977,0.4699091911315918,0.050838813,0.16382252,-217.99104289515697,-0.09518035598125613,-2.8717157902178205,0.0,2142,0.4803500175476074,0.011049844639565362,0.01043919862303587,-229.62588571117792,0.0
92,1.9151360988616943,-217.28264256489288,27.379928968691583,-119.53569986142958,-279.28057195335214,0.0,0.6382423453934367,0.1,0.02969074249267578,0.389392614364624,0.050702024,0.17131592,-217.92020286213057,-0.09426491081127508,-2.852385446181753,0.0,2159,0.4880998134613037,0.012618900068799956,0.012042664366034916,-233.43968268720195,0.0
93,1.8504433631896973,-221.060824056788,24.787030414221164,-160.81164018187548,-288.1285264921178,0.0,0.6631337575868155,0.1,0.05893254280090332,0.24069857597351074,0.05004987,0.15584457,-218.2342649815963,-0.09580321636656236,-2.9034549883022778,0.0,2147,0.5142576694488525,0.010230437777974884,0.009728934306000735,-229.42657423795788,0.0
94,1.9074673652648926,-215.79190412876315,30.850037371617745,-125.53436467351185,-272.3555806546455,0.0,0.6249074191713732,0.1,0.01331472396850586,0.34853482246398926,0.049688376,0.17473851,-217.990028896313,-0.09267749692299228,-2.8326879183314695,0.0,2189,0.5907082557678223,0.01329456353650048,0.012802927867476591,-231.49575498363313,0.0
95,1.9056096076965332,-221.09711632628137,24.889292071910504,-144.70994825787153,-270.704569696176,1.0416666666666667,0.6472261534423953,0.1,0.04316306114196777,0.5117125511169434,0.049883775,0.16409877,-218.30073763930986,-0.09511836878971432,-2.9027982052155905,1.0416666666666667,2171,0.5801465511322021,0.00986333597989805,0.008954415543317067,-223.30048090349572,0.0
96,1.8146488666534424,-217.10876755379854,25.9558687517092,-145.13043358651524,-285.8883170582451,0.0,0.6489419601903264,0.1,0.01168060302734375,0.34821295738220215,0.050024413,0.16206151,-218.18154063075872,-0.09502179529615652,-2.8506266089037298,0.0,2141,0.5026726722717285,0.011195646021288032,0.011163682704860428,-228.66417158049873,0.0
97,1.8404326438903809,-214.84433564277674,27.043303128698188,-149.18061424154774,-283.024811245686,0.0,0.6952256064288722,0.1,0.03464984893798828,0.29033637046813965,0.04971652,0.15151331,-217.84782013196053,-0.09269803793286273,-2.8196395250740647,0.0,2173,0.5808730125427246,0.014414255477146136,0.013629887623548189,-223.81154736432632,0.0
98,1.7805631160736084,-217.1304478507816,25.866488643166367,-141.41697259099033,-295.27416803985375,0.0,0.6539389912014758,0.1,0.04103279113769531,0.34726977348327637,0.049713664,0.15546459,-217.77608290384265,-0.09439057292779456,-2.851468038970299,0.0,2145,0.5576598644256592,0.009875084457006111,0.009407340990039046,-221.80446422004678,0.0
99,1.6351122856140137,-219.79872900241057,29.632377685588605,-120.11020870406062,-301.42632662345756,0.0,0.6510445540876006,0.1,0.032068490982055664,0.3740661144256592,0.05046574,0.15710194,-217.97834751369945,-0.09441493294653996,-2.8869369859451037,0.0,2174,0.5364809036254883,0.013760170234889528,0.013035164145853087,-223.54316562030337,0.0
100,1.661245584487915,-214.5339348398638,25.089841986190375,-148.83243660409116,-278.8337613067318,0.0,0.6655668496167598,0.1,0.03019881248474121,0.27657008171081543,0.050898537,0.15500675,-217.6339062463159,-0.09298703872307283,-2.8157050681247213,0.0,2155,0.5009627342224121,0.010544116371919343,0.009932389689886315,-221.11308358538554,0.0
101,1.7567696571350098,-215.65015360402995,28.437657765540933,-146.67676998298347,-298.4815947039225,0.0,0.6367710854718506,0.1,0.06418728828430176,0.3039560317993164,0.050071705,0.16402315,-217.4355309820873,-0.09263068636349858,-2.8309413478768204,0.0,2192,0.5055356025695801,0.011553478673475273,0.011622985635226561,-224.7631438304366,0.0
102,1.725766658782959,-212.7005420830435,29.66113352321538,-115.66286359295228,-271.73108772544424,2.0833333333333335,0.6398122506178672,0.1,0.0636301040649414,0.30648136138916016,0.049962144,0.17642765,-216.9620320921829,-0.09201663162746233,-2.791467691262369,2.0833333333333335,2197,0.5122032165527344,0.012576541270021677,0.011876297603419976,-226.67783167213761,0.0
103,1.7198328971862793,-212.1795887307859,28.562618425772534,-133.08963166875085,-274.02243755417066,1.0416666666666667,0.6480026348891177,0.1,0.06874275207519531,0.29738879203796387,0.049534004,0.17055488,-216.48378775604323,-0.0913786794520242,-2.7849441827309445,1.0416666666666667,2190,0.49853992462158203,0.011590151154292008,0.010964284508435325,-225.2637553676554,0.0
104,1.72935152053833,-215.5930806989214,28.96036552358897,-127.65949424660998,-313.88267561275137,1.0416666666666667,0.6733419926028028,0.1,0.011523008346557617,0.38916873931884766,0.049814176,0.1610605,-216.39471705033105,-0.0911191235280356,-2.8315548302864957,1.0416666666666667,2227,0.5360326766967773,0.013105526571320653,0.012410837959640425,-230.42895232198396,0.0
105,1.74208664894104,-212.70183524331594,28.158011760090186,-144.21812968678483,-262.49339026601245,0.0,0.6709334816303474,0.1,0.07100725173950195,0.5325069427490234,0.050144814,0.15741831,-216.02542886962956,-0.09201352894609076,-2.790737285628108,0.0,2175,0.5032908916473389,0.011778547429331597,0.01102971725616524,-225.72233916579884,0.0
106,1.7620513439178467,-211.95567474119107,25.919322830195107,-145.58601881431633,-275.37554295320194,0.0,0.6785166815806466,0.1,0.07583212852478027,0.33980751037597656,0.050514057,0.15072778,-215.61845345678572,-0.09317739322349915,-2.782619275355637,0.0,2135,0.5573022365570068,0.010838909348398287,0.010387917946527079,-224.0170047722461,0.0
107,1.647796869277954,-212.92174440677044,25.395762855323888,-140.4144368234974,-264.0255575566279,1.0416666666666667,0.6379209753310877,0.1,0.11595630645751953,0.38812708854675293,0.050185733,0.16123265,-215.3487825517842,-0.09291982521521312,-2.793913708154841,1.0416666666666667,2153,0.539419412612915,0.010878272696991629,0.010218448745751727,-229.30212066029156,0.0
108,2.046921968460083,-212.42973831784056,25.40564854506837,-133.87157583975738,-269.42330174139187,0.0,0.6863097742695142,0.1,0.01289677619934082,0.34012794494628906,0.049868267,0.15847312,-215.05687812838983,-0.0909115300136661,-2.787410215684181,0.0,2195,0.5501277446746826,0.011287519804114476,0.010985219188541008,-231.31432660563618,0.0
109,1.957094430923462,-218.77298386721478,26.847459375008743,-151.45835825249424,-292.284749718602,0.0,0.6546512653923219,0.1,0.09760284423828125,0.3550295829772949,0.050281756,0.15516746,-215.42848870227232,-0.09348965848120061,-2.871771461139044,0.0,2182,0.5409963130950928,0.011705104894150936,0.011043598527712433,-224.6228206386104,0.0
110,2.0537331104278564,-213.98625488806428,29.33834423214501,-131.3967628284448,-273.76742173534893,0.0,0.6507185331490385,0.1,0.05240750312805176,0.47185659408569336,0.050685328,0.1707195,-215.28426532085152,-0.09251310601926084,-2.8086245440222464,0.0,2181,0.5695369243621826,0.013377845894677725,0.012245849871758413,-229.09760119555867,0.0
111,1.9751043319702148,-212.7845138656293,29.32981993987643,-118.31032242979136,-265.19106624675646,2.0833333333333335,0.6860462892317875,0.1,0.01102900505065918,0.3226611614227295,0.050722748,0.16002123,-215.0342901753293,-0.09069269566790546,-2.7924830674157266,2.0833333333333335,2203,0.5751931667327881,0.01311655040778691,0.013357810429871582,-225.66397360950498,0.0
112,2.252459764480591,-215.04262270361392,29.001497021430147,-90.91673185642519,-276.1838723594041,1.0416666666666667,0.6934054912932873,0.1,0.04267263412475586,0.42943644523620605,0.050314266,0.15125738,-215.03512342815776,-0.09109972891370315,-2.8231823028190797,1.0416666666666667,2199,0.6360702514648438,0.014238910232537162,0.01256026775212339,-224.9517562030704,0.0
113,1.9897594451904297,-215.55859489659863,28.139434192583273,-126.1563415784918,-286.91670754084896,0.0,0.6649377810751858,0.1,0.0799710750579834,0.3645813465118408,0.04921846,0.1623838,-215.08747057500184,-0.09231874592572513,-2.8302450737596736,0.0,2191,0.6015682220458984,0.01167229461970241,0.011413348429743696,-222.40316109989192,0.0
114,1.9580435752868652,-214.22883305510413,26.215252062832825,-155.12668586511526,-271.09094095475945,0.0,0.673162237970356,0.1,0.08527088165283203,0.3557469844818115,0.05001144,0.15617509,-215.00160682301208,-0.09170355520889761,-2.811326674484994,0.0,2182,0.5224161148071289,0.01178267184111282,0.011492587506374169,-224.6719317531119,0.0
115,2.2258999347686768,-214.60697647735478,29.722796485502307,-118.80802506240008,-273.3799682221542,0.0,0.6374368669728172,0.1,0.04102039337158203,0.3610055446624756,0.049378082,0.16636321,-214.96214378844635,-0.09104279036658476,-2.8160185467913528,0.0,2223,0.6953926086425781,0.014281726581875384,0.013771227522029476,-224.44584196404247,0.0
116,2.2123007774353027,-214.65969440692143,28.960830247001677,-115.90486706351786,-289.7414291393263,2.0833333333333335,0.6632363096115823,0.1,0.0811617374420166,0.3266139030456543,0.049897533,0.15916395,-214.93189885029386,-0.09106196140078032,-2.816668706411006,2.0833333333333335,2208,0.4564690589904785,0.01336177774125942,0.013363201072084541,-226.80871829984096,0.0
117,2.224453926086426,-216.4100973578953,26.142002765882157,-128.5235827775537,-277.4396635337482,0.0,0.6511454652641961,0.1,0.04269862174987793,0.3693666458129883,0.050445363,0.16179718,-215.07971870105402,-0.09152204957917147,-2.8408942950756013,0.0,2208,0.49817490577697754,0.011058043762615197,0.010242551417459523,-224.98550892430353,0.0
118,2.001085042953491,-217.993520643396,30.61892633302281,-131.17072487536677,-288.8059125058933,1.0416666666666667,0.6579964888867478,0.1,0.03189730644226074,0.3906896114349365,0.05046403,0.15397698,-215.37109889528824,-0.09295836443896095,-2.8612665611542867,1.0416666666666667,2196,0.5678415298461914,0.01373170719012462,0.013165868744784794,-217.70675562719154,0.0
119,1.9747066497802734,-213.41031305379033,24.40823729437,-144.79023054301192,-269.9535862391551,0.0,0.6441749726949019,0.1,0.03964805603027344,0.4032399654388428,0.049288347,0.155305,-215.17502031113847,-0.0919906192994653,-2.8015312171728284,0.0,2164,0.5956518650054932,0.01049863390606726,0.009400396109516788,-224.04393369547623,0.0
120,2.0166990756988525,-207.65606304278262,27.711152247957457,-127.6144323235854,-263.8691862196441,1.0416666666666667,0.6139268294092637,0.1,0.07606172561645508,0.3367342948913574,0.04998274,0.1890904,-214.42312458430288,-0.09092916016034451,-2.7244166434492585,1.0416666666666667,2165,0.5629189014434814,0.011044778787692151,0.010451483084680553,-217.96781856444653,0.0
121,1.795578956604004,-216.72740805803292,29.51211114221208,-148.63253072613986,-308.94091194236273,0.0,0.6461604971061203,0.1,0.02665543556213379,0.35930919647216797,0.050311532,0.16217901,-214.6535529316759,-0.0939743556488817,-2.8448172929469826,0.0,2178,0.5266294479370117,0.015326174316368232,0.013431686643019173,-220.22629750199434,0.0
122,2.059699058532715,-208.68347975371356,27.36118495864463,-125.64040929526954,-255.5824971635261,0.0,0.6328925379876907,0.1,0.027733325958251953,0.4493861198425293,0.05069822,0.17656595,-214.05654561387968,-0.09117187045079471,-2.73730686670856,0.0,2172,0.5063357353210449,0.01368456311980219,0.010561360935562744,-213.18505495184036,0.0
123,1.8400380611419678,-211.36831709816178,31.02395578958925,-118.16527171369994,-272.77995029233483,2.0833333333333335,0.6491160591324059,0.1,0.034128665924072266,0.3303337097167969,0.05014962,0.16322583,-213.7877227623079,-0.0923615907884403,-2.772773033252969,2.0833333333333335,2164,0.48882341384887695,0.013941542803610044,0.013522017797635984,-216.63990311145935,0.0
124,1.780776023864746,-209.55927549624957,24.5592251704036,-149.9419754435282,-262.3285840188137,0.0,0.6739960840889031,0.1,0.050513267517089844,0.3620796203613281,0.050486665,0.15058707,-213.36487803570208,-0.09107456801661747,-2.7493622049347266,0.0,2166,0.611163854598999,0.010173968314369928,0.009674917200579126,-222.76791990725323,0.0
125,1.7785472869873047,-211.05714924786494,33.85640644008483,-108.06215688481947,-326.48532178542473,1.0416666666666667,0.6703350447850283,0.1,0.04077911376953125,0.33962440490722656,0.050568942,0.15577382,-213.13410515691837,-0.09060356462215059,-2.7697102872025727,1.0416666666666667,2199,0.4170093536376953,0.01738477235005951,0.016832293128620356,-215.40309484205216,0.0
126,1.777388572692871,-210.21781224387146,29.789441181335075,-109.48533347180756,-290.4146627174121,1.0416666666666667,0.6538460018197719,0.1,0.059851646423339844,0.3623957633972168,0.04997731,0.15683122,-212.8424758656137,-0.09142323017995047,-2.757293740453901,1.0416666666666667,2178,0.5234618186950684,0.01457166730088515,0.014012035879069266,-221.8455530077131,0.0
127,2.002528667449951,-209.22726498940096,27.36358427503675,-141.1104783618556,-273.47034112056724,1.0416666666666667,0.6836047984050053,0.1,0.02555108070373535,0.39888954162597656,0.050164375,0.15622412,-212.48095477799242,-0.0917977120148488,-2.744233288604029,1.0416666666666667,2149,0.40908122062683105,0.011375715233863134,0.011514971209252765,-222.240261606959,0.0
128,2.055072546005249,-211.72452541224422,31.710687498873998,-123.16045456675315,-281.66290439894897,0.0,0.6612947327432379,0.1,0.011611700057983398,0.39577579498291016,0.049837347,0.15263091,-212.4053118414176,-0.09111716048670265,-2.777455549017251,0.0,2196,0.48453736305236816,0.01781344120638206,0.01575770973075419,-218.46890314327214,0.0
129,2.033738136291504,-217.3094853218247,30.029319384790913,-106.73056431708184,-312.5830747378831,1.0416666666666667,0.6510081865672624,0.1,0.040281057357788086,0.4249272346496582,0.049427614,0.15606803,-212.89572918945834,-0.09187173909117058,-2.8528014801331785,1.0416666666666667,2219,0.4746100902557373,0.01398972026005771,0.013467777390415377,-226.55626969604444,0.0
130,1.7602026462554932,-214.8252295219643,27.772124123434946,-133.09513164246243,-267.6080475796985,0.0,0.6750304955769196,0.1,0.05367302894592285,0.3729438781738281,0.04984043,0.1582607,-213.08867922270895,-0.09244980760270816,-2.8193903676046226,0.0,2175,0.4658637046813965,0.012013584089472111,0.011029646069845033,-221.69221006711143,0.0
131,1.7561097145080566,-210.62990591049288,27.237102627868644,-136.08968198676487,-268.2520848625684,1.0416666666666667,0.6769021705898688,0.1,0.03934645652770996,0.4059486389160156,0.04964787,0.15341558,-212.84280189148737,-0.09048967269013967,-2.7639655490920774,1.0416666666666667,2178,0.5247824192047119,0.012197737309423591,0.01182396373844505,-220.16187448702098,0.0
132,1.9562294483184814,-209.06165264033044,28.1498175263074,-124.98694129655266,-254.68049367761614,1.0416666666666667,0.6749414572154181,0.1,0.016644716262817383,0.3689725399017334,0.049677033,0.16832083,-212.46468696637166,-0.09109413784982084,-2.742932729671613,1.0416666666666667,2174,0.4654960632324219,0.011530047089878285,0.010542127840311787,-219.68463726354094,0.0
133,1.7239768505096436,-209.11440205755176,25.6409324380588,-127.31368881003249,-265.5948954508803,1.0416666666666667,0.6560248848924769,0.1,0.05022072792053223,0.3392765522003174,0.050014954,0.16343847,-212.1296584754897,-0.09076826209842785,-2.744813199478011,1.0416666666666667,2162,0.5063126087188721,0.011212802827042208,0.010381967897852576,-222.42804439226887,0.0
134,1.9647700786590576,-210.68690639406904,30.412919050830165,-135.40055182579783,-277.1425992540868,0.0,0.6476714033655636,0.1,0.08569192886352539,0.29353976249694824,0.04957927,0.16612326,-211.98538326734763,-0.09077537172359675,-2.763992667913366,0.0,2185,0.49945807456970215,0.013673493520556407,0.01298368879386783,-223.03837326735052,0.0
135,1.9421935081481934,-211.2966015678031,24.71353876682365,-142.6708060588747,-262.6468633657163,0.0,0.6698707491528183,0.1,0.07796335220336914,0.299410343170166,0.050091084,0.16460739,-211.91650509739318,-0.09082339382041811,-2.7736043996965,0.0,2203,0.5410263538360596,0.010800279890493104,0.010654629784407309,-219.38413049443952,0.0
136,1.9844732284545898,-209.26732919747283,30.625585195448465,-137.84156656842242,-270.4050802718103,0.0,0.6469817266768113,0.1,0.06858038902282715,0.31354808807373047,0.04959261,0.16582309,-211.65158750740116,-0.09168017935581457,-2.745472083878504,0.0,2166,0.5503659248352051,0.012552041994764212,0.011876627899966817,-221.08137066664278,0.0
137,2.127218723297119,-217.63572905440506,33.729018492310324,-108.13478396114672,-355.33095856680774,1.0416666666666667,0.7039342096727412,0.1,0.04957151412963867,0.3619120121002197,0.049559485,0.14161171,-212.25000166210154,-0.09129095108481607,-2.8567515821779748,1.0416666666666667,2230,0.4886484146118164,0.018487247860831623,0.017241824533467093,-223.34356340908073,0.0
138,1.9853551387786865,-207.9538570118374,31.09547392767104,-105.48102971317009,-288.5092809948237,2.0833333333333335,0.6523997895045462,0.1,0.051306724548339844,0.2897334098815918,0.050603744,0.17246759,-211.82038719707512,-0.08940614444214127,-2.728301284937615,2.0833333333333335,2206,0.4584059715270996,0.013944319043537018,0.013583898201485561,-214.37305460124873,0.0
139,1.958752155303955,-210.02605942583787,29.348311224989104,-142.96256378764048,-265.7784058528439,0.0,0.6590183745511059,0.1,0.03290295600891113,0.24834775924682617,0.049335554,0.15942603,-211.64095441995138,-0.09071494679238812,-2.755979335930171,0.0,2186,0.6035284996032715,0.013356419723902347,0.013284885886349036,-218.0382207356867,0.0
140,1.9325602054595947,-207.70605523753235,27.68933180082637,-132.8541269682063,-273.56581879283675,1.0416666666666667,0.7036305192009673,0.1,0.01749444007873535,0.4391453266143799,0.04933555,0.15422694,-211.2474645017095,-0.08869145002187571,-2.7251898052259658,1.0416666666666667,2205,0.40703821182250977,0.01432355043799779,0.01282397322143114,-219.96364397169054,0.0
141,2.19425892829895,-214.57447263551248,28.43158328990722,-137.6444274281239,-283.57583956943296,0.0,0.6795281241637494,0.1,0.0863335132598877,0.32117319107055664,0.049393162,0.1512504,-211.5801653150898,-0.09162312492516012,-2.8157088019217045,0.0,2196,0.5914251804351807,0.014046777156998454,0.013683064721135946,-223.91807411217695,0.0
142,2.1440412998199463,-213.44426610477157,26.26697649276738,-128.3342408140732,-262.80354421615596,1.0416666666666667,0.6557597470776176,0.1,0.05119156837463379,0.3845534324645996,0.050045643,0.17055862,-211.766575394058,-0.09304571020030737,-2.8009485449438514,1.0416666666666667,2157,0.4682464599609375,0.010370936747469415,0.009819283128250566,-220.9200172952617,0.0
143,1.9195425510406494,-209.0498567639238,26.254002391538762,-136.64937713908114,-253.10796520900413,0.0,0.6693419434413964,0.1,0.07583427429199219,0.4885714054107666,0.050202128,0.16604692,-211.4949035310446,-0.09055005014342181,-2.7425975109295404,0.0,2164,0.4850504398345947,0.011531297765281518,0.010509544447520787,-220.51347435674717,0.0
144,1.9571013450622559,-207.12712676101805,33.952656803224016,-88.90758578492236,-301.3842802978756,3.125,0.6711776757275943,0.1,0.04726433753967285,0.39751601219177246,0.050467223,0.17119999,-211.05812585404195,-0.08918086116477453,-2.71607033150048,3.125,2215,0.4390289783477783,0.016785925554766965,0.01608122750020765,-225.86623562589642,0.0
145,2.2093350887298584,-214.7433682773988,27.636862366825234,-113.07021551510546,-263.2240010845437,2.0833333333333335,0.6562196754050141,0.1,0.0556638240814209,0.3480949401855469,0.050082322,0.15887679,-211.42665009637764,-0.09167152207873756,-2.81941100964511,2.0833333333333335,2195,0.5036530494689941,0.010649288739968094,0.00942093697035814,-224.8661609917505,0.0
146,1.7743334770202637,-208.60380940242734,33.639711336684684,-92.33699529911489,-287.11946586101504,1.0416666666666667,0.6940600821865449,0.1,0.022942066192626953,0.29022836685180664,0.049412753,0.1547254,-211.1443660269826,-0.09083036221290859,-2.737282488748411,1.0416666666666667,2172,0.48947572708129883,0.017423549011791155,0.01658021334350874,-222.0779630358133,0.0
147,1.9752545356750488,-208.3244839574226,27.50951573074997,-138.05382529497223,-259.25667199479994,0.0,0.6689168557421029,0.1,0.04674363136291504,1.0072810649871826,0.049956225,0.15416008,-210.8623778200266,-0.09067471903635382,-2.7332548270874404,0.0,2156,0.5888853073120117,0.013246777382862524,0.012730962853317486,-219.6484447653703,0.0
148,1.7744581699371338,-203.7649728806091,26.93487789772532,-139.17990823738225,-256.9655915328094,0.0,0.6630336419587293,0.1,0.03935813903808594,0.42898011207580566,0.049415648,0.1685062,-210.15263732608486,-0.08891750312257762,-2.671779950972431,0.0,2183,0.4809596538543701,0.011825823796915108,0.011520136810255302,-220.39822411743356,0.0
149,1.8266119956970215,-210.54614421928622,28.56742649184455,-97.3895702873177,-269.2179382641227,0.0,0.6684789778861986,0.1,0.01818537712097168,0.5857021808624268,0.050148793,0.20431532,-210.191988015405,-0.09004396290525592,-2.763544757862197,0.0,2194,0.4530787467956543,0.014298616474867918,0.013916009588245803,-223.14470045071658,0.0
150,1.719498872756958,-212.38326076661647,29.306372927331683,-131.6181265656736,-265.12951658917393,0.0,0.6575141999669011,0.1,0.02895331382751465,0.32212042808532715,0.04937327,0.16091703,-210.41111529052617,-0.09065266111007152,-2.7869178256044207,0.0,2204,0.4985957145690918,0.013907031954523167,0.013042644520014999,-222.69830768705958,0.0
151,1.7857799530029297,-210.17595232254766,30.527992952132614,-114.87388589284473,-270.18681683824195,3.125,0.671438554807551,0.1,0.02726578712463379,0.46790409088134766,0.05007868,0.16002811,-210.38759899372832,-0.09089719985549856,-2.7569352671739815,3.125,2191,0.6038541793823242,0.01334968994063867,0.012913395697671661,-220.7205144655717,0.0
152,1.781998634338379,-211.0605133029134,25.704512547157975,-120.82235776162028,-265.5580258445664,0.0,0.6866054909716313,0.1,0.04999709129333496,0.28056812286376953,0.05007704,0.15768783,-210.45489042464683,-0.08913552377764726,-2.769121060216824,0.0,2213,0.5325789451599121,0.011036322983948023,0.010172173282943198,-226.72695994232444,0.0
153,1.7533791065216064,-215.07601452805787,27.663324888148917,-126.3169790462425,-268.4413233316044,0.0,0.6810926546140862,0.1,0.0723259449005127,0.3462364673614502,0.04897892,0.15479366,-210.91700283498795,-0.09067996310089199,-2.822742429704615,0.0,2224,0.46134090423583984,0.013158723074276445,0.012348079059580587,-224.49545801411494,0.0
154,1.8381359577178955,-210.87397142822942,28.9079370018009,-123.87907172205051,-280.46379217785505,0.0,0.6936595206686047,0.1,0.011996746063232422,0.38669800758361816,0.049772866,0.15401173,-210.9126996943121,-0.08938348737681205,-2.767024075477518,0.0,2223,0.44507741928100586,0.01277696628764373,0.012360161596872685,-222.66836280906875,0.0
155,1.9066667556762695,-209.39784554909127,27.242521425081193,-114.02179147828542,-287.83524747864215,1.0416666666666667,0.6889420862009086,0.1,0.01162266731262207,0.3619730472564697,0.049315717,0.14334577,-210.76121427979,-0.08938100963708422,-2.7473269513358978,1.0416666666666667,2205,0.5206160545349121,0.012476724565923074,0.011662949224231597,-225.52578578800006,0.0
156,1.7550392150878906,-212.96983729874822,25.40242650008766,-136.7131893945476,-263.74336129979605,0.0,0.6655645650899024,0.1,0.04656219482421875,0.3888266086578369,0.05031337,0.15212886,-210.98207658168585,-0.09081578009258738,-2.7943094496095817,0.0,2196,0.4440422058105469,0.011036349548435156,0.010528108297454158,-221.26044678073498,0.0
157,1.923814058303833,-213.41885261540187,25.942958280449787,-121.71064996159912,-254.14697066655,0.0,0.6840878389315859,0.1,0.05506610870361328,0.44545984268188477,0.047705393,0.15460782,-211.22575418505747,-0.09134136508715333,-2.8015942104309173,0.0,2189,0.47025561332702637,0.010023843862047832,0.009818483552023501,-225.90340369965418,0.0
158,1.9817612171173096,-211.72751167814343,32.20466661346354,-84.99284975899485,-292.26531413050066,1.0416666666666667,0.6464540869951341,0.1,0.0791013240814209,0.3889944553375244,0.050247446,0.1754158,-211.27592993436608,-0.09046956664224519,-2.7778771227694086,1.0416666666666667,2201,0.4421367645263672,0.015235996604629865,0.01472858134685243,-225.83678207641663,0.0
159,1.913689136505127,-215.14244293587583,29.693069652382714,-127.53147974616067,-291.5656891180882,0.0,0.6566719225928663,0.1,0.06821703910827637,0.3467092514038086,0.04861342,0.16398254,-211.66258123451706,-0.09121075443190634,-2.8237762495140935,0.0,2209,0.4036827087402344,0.014330060424607707,0.013485816830481208,-223.32431202307407,0.0
160,2.0128042697906494,-212.92990866821557,29.04450149606354,-115.1808056636959,-270.60896061288605,1.0416666666666667,0.66696149451105,0.1,0.059599876403808594,0.35895681381225586,0.048980568,0.15695271,-211.7893139778869,-0.09088656788047755,-2.79404005409442,1.0416666666666667,2198,0.4948697090148926,0.012223734338537014,0.011738271895866195,-226.30419752206848,0.0
161,1.9394464492797852,-208.74428043414613,27.321045887390195,-134.00637191393062,-277.24581552549773,1.0416666666666667,0.6449215843818527,0.1,0.07376527786254883,0.29139018058776855,0.048909213,0.16719894,-211.48481062351283,-0.08980995863677681,-2.7382625472509634,1.0416666666666667,2188,0.4972696304321289,0.011569148569577591,0.010454872430167404,-219.59369563088006,0.0
162,2.034522294998169,-212.74722805730758,30.057955310402452,-115.42492954887668,-267.95109163143684,2.0833333333333335,0.6687498683490983,0.1,0.028908491134643555,0.33133912086486816,0.050517026,0.16555715,-211.61105236689232,-0.090502987813229,-2.7914252136990747,2.0833333333333335,2216,0.4554171562194824,0.012186704868286224,0.011700400254953575,-220.86547534347037,0.0
163,1.947197675704956,-213.2973989808827,31.14475351215556,-125.0004333868707,-296.6241189042353,0.0,0.6721088471480602,0.1,0.036707162857055664,0.35660266876220703,0.05005562,0.15802513,-211.77968702829136,-0.09016137073522258,-2.798532497316821,0.0,2230,0.510206937789917,0.014805799393143396,0.014154241299367978,-220.36491642077095,0.0
164,1.987229824066162,-208.68363840748316,28.081486665778595,-132.83328205974195,-276.4624175638488,0.0,0.6788608870289597,0.1,0.0341334342956543,0.25829410552978516,0.05027772,0.152109,-211.47008216621055,-0.0894146232473586,-2.737951918974897,0.0,2216,0.4672207832336426,0.013314486760559087,0.012800772446885912,-222.1731239918065,0.0
165,1.9619944095611572,-206.96743302209833,31.900186563299737,-107.67171486049729,-258.628872450763,2.0833333333333335,0.6878301089393182,0.1,0.01165318489074707,0.39559268951416016,0.05037297,0.1585754,-211.0198172517993,-0.08839243029045007,-2.7155877645807913,2.0833333333333335,2242,0.5010092258453369,0.014544334611665195,0.013861107690804128,-219.52361420985972,0.0
166,2.0111520290374756,-212.87741321717962,27.9972515554957,-124.66255661028539,-270.37988561222556,0.0,0.6875435349414104,0.1,0.06063508987426758,0.4287452697753906,0.04915518,0.15436547,-211.20557684833733,-0.09006359022518783,-2.794281398734276,0.0,2203,0.5622644424438477,0.012448026670794475,0.011900582717524187,-216.2327353588496,0.0
167,1.4176652431488037,-211.16191331934647,29.45010088979895,-121.72910874490168,-268.61415061187733,1.0416666666666667,0.67026281494228,0.1,0.05534482002258301,0.3243110179901123,0.05063969,0.1581378,-211.20121049543826,-0.08971479010172119,-2.771147828921134,1.0416666666666667,2228,0.4771692752838135,0.013088743164550706,0.012843881771497695,-220.0757872642299,0.0
168,1.8097105026245117,-212.2456587848139,29.792354736421533,-129.4477526683163,-293.5087358173697,0.0,0.6769816540018236,0.1,0.07541966438293457,0.23206710815429688,0.04960294,0.15816285,-211.30565532437583,-0.0898703063284901,-2.7854533448138112,0.0,2223,0.4706096649169922,0.013946095253332041,0.013408796667920256,-220.26900863512935,0.0
169,1.7882080078125,-211.73886888023193,28.751240386781568,-118.8316207533493,-274.3606539504311,0.0,0.6897279308709022,0.1,0.08799624443054199,0.4018712043762207,0.049545947,0.1576002,-211.34897667996145,-0.09095538146225257,-2.7782056519201794,0.0,2181,0.5041589736938477,0.012036831349267807,0.01191682455052411,-221.7487982674234,0.0
170,1.7775342464447021,-208.40324385251526,29.534516194499325,-111.06765931012103,-260.133729445487,0.0,0.691922568324359,0.1,0.04558873176574707,0.3196582794189453,0.049757034,0.15568306,-211.05440339721684,-0.08890255868482129,-2.734447148658777,0.0,2212,0.4264810085296631,0.01428204385274748,0.013336281745952435,-221.18352367131294,0.0
171,1.8095555305480957,-204.55681174321626,28.822661317684233,-119.56249326885177,-253.2651884836551,1.0416666666666667,0.6946707194744031,0.1,0.05011749267578125,0.34888410568237305,0.050028164,0.149051,-210.4046442318168,-0.08841536912436394,-2.6826450424120556,1.0416666666666667,2198,0.5471248626708984,0.013055148408065783,0.012674193648059589,-222.2169534717018,0.0
172,1.7791776657104492,-209.94625409142307,26.718478526887587,-132.0678685464648,-262.25456035496575,1.0416666666666667,0.6550325027350821,0.1,0.04628109931945801,0.37263941764831543,0.04959177,0.18581554,-210.35880521777744,-0.08968896058492781,-2.7552793776306275,1.0416666666666667,2200,0.5554478168487549,0.012942032925890306,0.011690131511842068,-227.1488067388272,0.0
173,1.8609449863433838,-207.59170094602518,27.001614894476454,-109.18255152539655,-262.6662616345217,1.0416666666666667,0.7177772258168146,0.1,0.059301137924194336,0.3967320919036865,0.049407702,0.15316567,-210.08209479060224,-0.08891073434449182,-2.7238053927309935,1.0416666666666667,2195,0.4186389446258545,0.011657667861166647,0.011262812770755295,-221.24153007927166,0.0
174,1.8458404541015625,-208.82302478846177,28.231661288791155,-105.30145109215132,-250.15118955071432,2.0833333333333335,0.678465740452773,0.1,0.029534101486206055,0.3107450008392334,0.05016509,0.16187254,-209.9561877903882,-0.08750805380731097,-2.7402726520789358,2.0833333333333335,2254,0.5123567581176758,0.011212940410503105,0.010824525142637983,-215.63638270523595,0.0
175,1.7363736629486084,-211.06333983664203,27.217147758746997,-110.58751222353234,-282.20648998307615,1.0416666666666667,0.6780517722131651,0.1,0.04803013801574707,0.24671101570129395,0.049172174,0.14375456,-210.0669029950136,-0.0897263532232795,-2.769971397926291,1.0416666666666667,2200,0.5409607887268066,0.01135292563626128,0.011035289576643134,-217.58464276722685,0.0
176,1.8684799671173096,-208.01439433500755,34.381508677676706,-118.89232610889007,-299.0803688932083,1.0416666666666667,0.6976968693642531,0.1,0.05594372749328613,0.3453662395477295,0.04957333,0.1501402,-209.861652129013,-0.08929330817586452,-2.72939803005918,1.0416666666666667,2217,0.5600221157073975,0.017283360577708486,0.016618133946861197,-216.9139372965879,0.0
177,1.828547716140747,-211.16732643399587,28.810438110879712,-126.44111287209307,-278.1669926461996,1.0416666666666667,0.6612994083679727,0.1,0.08153915405273438,0.31260013580322266,0.05022286,0.16998336,-209.9922195595113,-0.0897082501128222,-2.770683219269839,1.0416666666666667,2208,0.490297794342041,0.011672418677000545,0.011231856282028772,-217.25186375390254,0.0
178,1.7897827625274658,-211.82048765284063,30.21425729027753,-112.25132926077484,-268.6145795578976,1.0416666666666667,0.6759281135642546,0.1,0.023959636688232422,0.2550990581512451,0.049990833,0.15876918,-210.17504636884425,-0.09067203515509521,-2.779574518020567,1.0416666666666667,2196,0.5360970497131348,0.012924682773759162,0.01223641449955173,-216.9827203120839,0.0
179,1.7429993152618408,-209.36664588218278,26.728470828470616,-142.68477946475903,-265.5073220597939,0.0,0.7069895578101764,0.1,0.04166054725646973,0.34738779067993164,0.050303288,0.1569017,-210.0942063201781,-0.09061276379581369,-2.7462245217821377,0.0,2171,0.4975767135620117,0.01139591575941842,0.011048942528163899,-217.15273232040806,0.0
180,1.7726573944091797,-210.89575998595706,28.886602153774163,-101.52871563594204,-267.8799014258416,1.0416666666666667,0.6772833169128624,0.1,0.07241296768188477,0.3381984233856201,0.05001256,0.17337494,-210.17436168675601,-0.09073861617307515,-2.7664296139730653,1.0416666666666667,2169,0.522489070892334,0.0121782271277262,0.012069479570852247,-213.74494839794295,0.0
181,1.7157375812530518,-208.39878528404802,29.52604705982863,-123.45386150248916,-271.8859929560289,1.0416666666666667,0.6878082161710422,0.1,0.026207447052001953,0.5683205127716064,0.0497105,0.17243634,-209.9968040464852,-0.08967900113081545,-2.73458589953343,1.0416666666666667,2194,0.41620659828186035,0.012666168331631669,0.012056705174248849,-214.93779523271272,0.0
182,1.989600658416748,-206.2393579924691,33.29041429872587,-107.41642437033134,-270.956989670598,1.0416666666666667,0.7070461712753678,0.1,0.10540342330932617,0.47197556495666504,0.049877457,0.15387812,-209.6210594410836,-0.08985529278304132,-2.705817329395724,1.0416666666666667,2179,0.4231569766998291,0.015584687770524398,0.01490278389773617,-218.00608174122385,0.0
183,1.891129732131958,-206.22557519703847,28.981331236619592,-98.92984678152415,-254.00968275301273,1.0416666666666667,0.68437025504077,0.1,0.03696274757385254,0.36994504928588867,0.04969085,0.1623065,-209.28151101667908,-0.09090155001742033,-2.7056928491978645,1.0416666666666667,2143,0.47487330436706543,0.013466841581560049,0.013194169833285897,-217.77214715589872,0.0
184,2.0104787349700928,-206.21675131942774,32.63374803148462,-115.02553901812412,-301.4924283820443,1.0416666666666667,0.6830329939119211,0.1,0.06593084335327148,0.2609078884124756,0.04967894,0.15075995,-208.97503504695393,-0.08907394818869246,-2.7068020107492194,1.0416666666666667,2190,0.4438929557800293,0.016957827113677278,0.016156725860568755,-221.11339649266068,0.0
185,1.9008054733276367,-206.81357805822213,29.566672095020817,-110.69795581880209,-273.863358268011,1.0416666666666667,0.6752774944422287,0.1,0.04798769950866699,1.0368852615356445,0.05008563,0.15758789,-208.75888934808077,-0.08951739048928443,-2.7118080435580505,1.0416666666666667,2178,0.4644908905029297,0.014516940583808861,0.01314405427308653,-216.30937970576525,0.0
186,1.9136338233947754,-209.64133887676027,27.320943379469057,-123.67171146729869,-265.719747247444,1.0416666666666667,0.6861988646237784,0.1,0.06212568283081055,0.28357839584350586,0.050141495,0.15704924,-208.8471343009487,-0.09008132396861147,-2.7517873002197852,1.0416666666666667,2182,0.35602593421936035,0.011709096709653229,0.011619074145971176,-216.2841960038171,0.0
187,1.9757823944091797,-205.9404466625107,29.263922224673085,-127.70829138038152,-311.76866206634605,0.0,0.7319111477198368,0.1,0.05166029930114746,0.5537538528442383,0.047735747,0.14023066,-208.5564655371049,-0.08995703323939967,-2.7012142081912742,0.0,2159,0.4698364734649658,0.0160404311053931,0.014945656094340478,-217.301645833646,0.0
188,1.935793399810791,-213.39476490348375,24.063001000016595,-150.75454690072772,-264.3018466062043,0.0,0.6925454434260141,0.1,0.010832786560058594,0.345015287399292,0.05026328,0.15441686,-209.0402954737428,-0.09133946086667866,-2.8011917603916836,0.0,2166,0.4435451030731201,0.010936364020121594,0.01022009639518282,-211.95108465921754,0.0
189,1.8966703414916992,-199.9723907465544,28.79631086958565,-116.09163585111855,-266.45916142898056,1.0416666666666667,0.6603628838481576,0.1,0.06770896911621094,0.3698916435241699,0.048715185,0.16428228,-208.13350500102393,-0.09019307960637384,-2.621633394118442,1.0416666666666667,2107,0.5007948875427246,0.014039749199763033,0.012647380854654887,-216.68999736518376,0.0
190,2.0614585876464844,-206.41057099681203,28.590566925957603,-120.14005917890131,-255.24010466939976,0.0,0.701724924143687,0.1,0.03498554229736328,0.42266845703125,0.050214045,0.1663744,-207.96121160060275,-0.09149509205728829,-2.707972609708843,0.0,2138,0.4935295581817627,0.012542813861481058,0.011220145590337727,-217.11354979443828,0.0
191,1.8437025547027588,-204.53561900281613,31.313728993502178,-113.17522081468053,-277.30277066846287,0.0,0.6947248992816905,0.1,0.03954029083251953,0.35326290130615234,0.050297476,0.1523982,-207.6186523408241,-0.0912675180864219,-2.6828859396408262,0.0,2135,0.5081093311309814,0.014972074209937165,0.0148921329466727,-214.3656122983565,0.0
192,1.7760107517242432,-202.68903966149833,29.68529151260314,-126.77710448197124,-264.56634364331916,1.0416666666666667,0.66670482574565,0.1,0.05642247200012207,0.2516939640045166,0.049977697,0.16806082,-207.12569107289153,-0.09038017106672362,-2.6573879695159257,1.0416666666666667,2142,0.49112844467163086,0.013947344936958973,0.012850808720203633,-212.9126948740097,0.0
193,1.7782402038574219,-207.52276520825936,25.80154572507924,-140.51471644700678,-303.3973646403633,0.0,0.6724150258811443,0.1,0.014058113098144531,0.3178832530975342,0.049559344,0.15149002,-207.16539848642833,-0.09099741914725883,-2.7209592670985496,0.0,2139,0.5767388343811035,0.01235310164099705,0.011829826083365929,-213.84947855722345,0.0
194,1.817281723022461,-205.90394371945197,29.08259802326358,-118.41856811008834,-277.5662936445088,1.0416666666666667,0.6801453791020031,0.1,0.07484650611877441,0.24134349822998047,0.049043052,0.17467546,-207.0392530097307,-0.09141152830469894,-2.7008100109710385,1.0416666666666667,2126,0.5754868984222412,0.013360990078772854,0.012928112468692006,-210.34704108360535,0.0
195,1.819427728652954,-203.18472480833557,29.687624122764653,-130.54088951163877,-309.6653410142803,1.0416666666666667,0.6905613175471941,0.1,0.044181108474731445,0.313673734664917,0.050662942,0.14584859,-206.65380018959118,-0.08865835063791554,-2.664491878061895,1.0416666666666667,2180,0.5168728828430176,0.014994618970476187,0.013384631651772198,-213.69743084992206,0.0
196,1.8478412628173828,-205.94358030216804,29.56581049618469,-119.56216923879937,-261.89707593196687,1.0416666666666667,0.6998019403702754,0.1,0.046932220458984375,0.4654510021209717,0.04995946,0.15048763,-206.58277820084885,-0.09092390211494221,-2.700165169246741,1.0416666666666667,2140,0.37514328956604004,0.0134765847136514,0.013264062980572026,-213.64238670382414,0.0
197,1.8606517314910889,-205.28245926780133,30.16844096713442,-117.57777746795244,-270.7880714123225,2.0833333333333335,0.6544292154356415,0.1,0.028276681900024414,0.32178401947021484,0.050364915,0.17576788,-206.4527463075441,-0.09072101236404184,-2.6920303648465933,2.0833333333333335,2137,0.55631422996521,0.013664731286317263,0.012991224313388047,-214.5168347501324,0.0
198,1.7807517051696777,-208.20295966824548,25.26009731241838,-136.49917221519155,-270.6693134586034,1.0416666666666667,0.6734173158901997,0.1,0.05167746543884277,0.44579386711120605,0.05004655,0.15308233,-206.62776764361422,-0.091742795691449,-2.7318085525982863,1.0416666666666667,2131,0.4808950424194336,0.011903683240205635,0.011429021404097016,-210.6154616254263,0.0
199,1.8785836696624756,-206.23998780419515,28.30937698282112,-98.52970921913777,-275.4226707897566,1.0416666666666667,0.6762424932351266,0.1,0.012961626052856445,0.33595991134643555,0.049341217,0.18301913,-206.58898965967234,-0.0899468206049112,-2.704879519128023,1.0416666666666667,2147,0.4705977439880371,0.01338859145056097,0.0127458941848648,-211.39473040179035,0.0
200,1.9359767436981201,-206.48173714683108,29.85900244177619,-124.43557498693914,-347.0158855585913,1.0416666666666667,0.6773219531433932,0.1,0.03461146354675293,0.32599854469299316,0.0500474,0.1449018,-206.5782644083882,-0.09015094889577724,-2.7079188145295263,1.0416666666666667,2154,0.5021553039550781,0.01926726982849898,0.018540532527376075,-211.00944198817547,0.0
201,1.7921581268310547,-206.72101803678345,29.114282465952503,-115.40759559232609,-273.44105934707954,3.125,0.7066071545729,0.1,0.08110928535461426,0.30465078353881836,0.049900215,0.1508649,-206.59253977122773,-0.09049158086353483,-2.712463121326447,3.125,2154,0.48569416999816895,0.01412314863278536,0.013592433299062052,-209.7247807700498,0.0
202,2.0269458293914795,-205.87760749714275,25.534688571289138,-119.65734836643821,-254.59274000152837,1.0416666666666667,0.6608287455561221,0.1,0.011497974395751953,0.401608943939209,0.05017084,0.15697609,-206.52104654381924,-0.09049805708572317,-2.7009930264776005,1.0416666666666667,2140,0.6037371158599854,0.012188303059789504,0.011652712608229941,-212.7999769812768,0.0
203,1.996837854385376,-204.9895371895308,27.6553322334004,-117.66600128298789,-262.72309290882106,0.0,0.7290890857930841,0.1,0.014388322830200195,0.45175838470458984,0.050880753,0.14258437,-206.3678956083904,-0.0901673253199405,-2.689109489067627,0.0,2137,0.4616527557373047,0.013901404113039426,0.01336649354554756,-207.4439038554587,0.0
204,1.9583609104156494,-206.00165138066052,31.529383694067075,-123.92312244133494,-331.3961963915515,0.0,0.6660276182557153,0.1,0.048743486404418945,0.3723564147949219,0.049255606,0.15289031,-206.3312711856174,-0.09099431528964608,-2.702470056626737,0.0,2145,0.5791449546813965,0.014782871633492668,0.013980952141916315,-210.34662801474215,0.0
205,1.962233066558838,-205.67564442711384,28.51086299359571,-124.73321789833838,-265.3784721080883,2.0833333333333335,0.6710328967478231,0.1,0.01288294792175293,0.30971288681030273,0.050179508,0.18358928,-206.26570850976705,-0.09091163116751033,-2.698672893404435,2.0833333333333335,2141,0.4514317512512207,0.012068544567907031,0.011831436283978583,-204.13319708034538,0.0
206,1.9452593326568604,-206.79827321318666,27.470207310424954,-109.02834596242542,-263.28069401718045,2.0833333333333335,0.7083159287243782,0.1,0.06445598602294922,0.395815372467041,0.049450178,0.15156229,-206.31896498010903,-0.09059436883353068,-2.712787122591376,2.0833333333333335,2144,0.4746592044830322,0.01131743045854432,0.010661637488421047,-203.17111056735206,0.0
207,1.9521605968475342,-203.97040041330442,28.135026322815023,-104.1375294957077,-247.38435790804277,1.0416666666666667,0.7051107030798393,0.1,0.02461528778076172,0.392808198928833,0.04956927,0.14893156,-206.0841085234286,-0.0890507577662784,-2.6750221647179995,1.0416666666666667,2166,0.4838383197784424,0.013190290151274549,0.012701272137197994,-201.27888666982497,0.0
208,2.0269949436187744,-203.50153245135868,30.984514747585113,-103.90043448987561,-262.0962118194433,2.0833333333333335,0.6966165717041733,0.1,0.011276006698608398,0.4228980541229248,0.049849868,0.15520732,-205.8258509162216,-0.0877937184832173,-2.668159558848899,2.0833333333333335,2204,0.4926178455352783,0.012918416032098458,0.012290395484176663,-198.22141292214326,0.0
209,1.9575457572937012,-207.8669396557165,27.497275398851027,-132.20428937827833,-283.228450276297,0.0,0.6689109239981533,0.1,0.017012834548950195,0.2997918128967285,0.04966141,0.14897019,-206.02995979017112,-0.09059882903780991,-2.726876674289598,0.0,2164,0.6149404048919678,0.013108692158095087,0.012762116073156365,-199.05183494150754,0.0
210,1.912423849105835,-202.24033591337331,32.18925920687845,-115.31469971042168,-296.82963213040597,3.125,0.6889475436719915,0.1,0.0722055435180664,0.5380311012268066,0.050066005,0.15690829,-205.65099740249136,-0.08907615367630888,-2.65269421990182,3.125,2168,0.5239219665527344,0.014844461296755563,0.01380149164468017,-197.57924138245767,0.0
211,1.953920841217041,-207.655452428755,26.784778268309363,-111.42950356498068,-254.20049349318364,2.0833333333333335,0.7224983502071503,0.1,0.060820579528808594,0.3372528553009033,0.049305376,0.1477744,-205.85144290511772,-0.08964830947038327,-2.724262265218311,2.0833333333333335,2173,0.6248142719268799,0.010803122789840271,0.010272941627966386,-203.31148835813062,0.0
212,1.965088129043579,-207.57648595668266,30.332372109931757,-96.13528040279019,-264.03196400557863,2.0833333333333335,0.6882566467499146,0.1,0.07921433448791504,0.3693349361419678,0.049004104,0.16039377,-206.0239472102742,-0.08969671846381662,-2.723907997907188,2.0833333333333335,2184,0.3832683563232422,0.01440038253941268,0.013909101779968472,-209.92859131998472,0.0
213,2.0332016944885254,-202.6152556429331,28.147627085931973,-114.47222315797613,-249.19558790261038,0.0,0.703028871915492,0.1,0.025406837463378906,0.3705129623413086,0.049814828,0.14475365,-205.6830780535401,-0.0893960879057939,-2.6569377723066907,0.0,2165,0.47725486755371094,0.012531576705610897,0.011145449739796335,-209.73082653781063,0.0
214,1.9329380989074707,-208.38885131067207,29.5244745128635,-103.32371581781535,-255.6414004827511,1.0416666666666667,0.7236624311689023,0.1,0.04681253433227539,0.32996702194213867,0.05005643,0.14865227,-205.9536553792533,-0.0908935197828904,-2.734342300700794,1.0416666666666667,2165,0.41977858543395996,0.013404832119930168,0.01270650338735254,-208.4510318933174,0.0
215,1.8185234069824219,-201.95952275977413,29.714537639238973,-90.84384132270614,-252.6641571102841,3.125,0.6979498958517102,0.1,0.026557445526123047,0.46274614334106445,0.05066912,0.15190499,-205.5542421173054,-0.08922700380865517,-2.64880241167313,3.125,2170,0.5039124488830566,0.013772800846080003,0.012819820773368507,-207.4960504041868,0.0
216,1.8679649829864502,-203.20955608759064,28.620541406682552,-89.89882038103482,-292.361404976355,2.0833333333333335,0.693768092052527,0.1,0.057054996490478516,0.2994844913482666,0.049711347,0.14973456,-205.31977351433392,-0.08910774712555665,-2.6650921413431448,2.0833333333333335,2161,0.43717122077941895,0.01366869250765284,0.01285095053277051,-207.95358409352588,0.0
217,1.893287181854248,-207.70858570560185,30.860010429925925,-127.28875153549362,-306.8911814542524,0.0,0.7281230106044128,0.1,0.04434967041015625,0.3694930076599121,0.04962146,0.13804753,-205.5586547334607,-0.08935491314641715,-2.7241272679902804,0.0,2184,0.4791834354400635,0.01619855866633601,0.01631387866196341,-204.0866543129674,0.0
218,1.8604488372802734,-204.7825163086327,24.366372690885544,-138.50292485035027,-249.93610494710651,0.0,0.6903302100266365,0.1,0.052639007568359375,0.4066343307495117,0.049220514,0.15581925,-205.4810408909779,-0.0896711140770189,-2.685492216601343,0.0,2138,0.498645544052124,0.010225052478945038,0.009810057470380024,-205.3082165383157,0.0
219,1.858450174331665,-204.6565531917722,30.012589955421536,-126.07398561787187,-320.70177542309784,1.0416666666666667,0.7001251412405449,0.1,0.02880382537841797,0.4057047367095947,0.050613467,0.13827686,-205.39859212105733,-0.08914363770255601,-2.6844077597708385,1.0416666666666667,2179,0.4764232635498047,0.01493373247250359,0.013988156849905323,-206.99133553803986,0.0
220,1.896765947341919,-210.164411858653,24.96830695266399,-99.65558057965501,-267.2788443415755,1.0416666666666667,0.6723210407002358,0.1,0.02154374122619629,0.41187429428100586,0.049020372,0.16603376,-205.87517409481688,-0.0902187536700838,-2.7561107277839607,1.0416666666666667,2179,0.4778456687927246,0.01094194253606241,0.01099609848964149,-207.45767000152003,0.0
221,1.8615405559539795,-205.29712308991296,28.175365800308217,-120.32458238866414,-250.54162875154628,0.0,0.6651703973402012,0.1,0.04794454574584961,0.26424741744995117,0.050305113,0.16691288,-205.8173689943265,-0.09059155828040255,-2.6936218726658168,0.0,2143,0.5922262668609619,0.012050583726926191,0.011404450870799575,-209.80304629882755,0.0
222,1.803495168685913,-199.75944146254673,28.89814809505691,-126.64362281314325,-298.2262203741798,0.0,0.7107200319984036,0.1,0.018730640411376953,0.32571983337402344,0.047827054,0.14254704,-205.21157624114852,-0.08884227701841611,-2.6181226433142744,0.0,2150,0.4163322448730469,0.012801260151458101,0.012605849040237024,-205.918769201916,0.0
223,1.7730977535247803,-207.66915227621084,30.482912746818624,-134.93167897342587,-287.8491046096285,0.0,0.6958343325655213,0.1,0.03703713417053223,0.3454442024230957,0.05048158,0.14635856,-205.45733384465478,-0.08982220108539547,-2.7244329481562946,0.0,2177,0.37890005111694336,0.013545468707691712,0.012957299055705068,-209.62910335346004,0.0
224,1.8502905368804932,-209.15935955343716,27.360103016357343,-132.75217772875126,-267.372671403969,1.0416666666666667,0.7010851645844025,0.1,0.033963680267333984,0.5003657341003418,0.049863275,0.15130965,-205.82753641553302,-0.09104374356163338,-2.743847897749356,1.0416666666666667,2149,0.5486054420471191,0.012368781156824982,0.011936583752626767,-207.50077723769542,0.0
225,1.9600415229797363,-201.1901011097062,26.12503817231352,-124.98044204646177,-270.309755596588,0.0,0.6829158815867313,0.1,0.05400991439819336,0.3849468231201172,0.050381023,0.1582779,-205.36379288495033,-0.08833045821615486,-2.637842484062063,0.0,2147,0.4899098873138428,0.010822543357103486,0.010071919214360901,-205.95890420706908,0.0
226,1.7779548168182373,-200.72149180604308,27.967652950275,-131.774030378194,-251.5303051750835,0.0,0.6794232501364057,0.1,0.03295302391052246,0.356337308883667,0.050682206,0.15991041,-204.8995627770596,-0.08884921912807785,-2.630972113115158,0.0,2133,0.42581796646118164,0.0119078966032631,0.011405096785127161,-208.8668827279236,0.0
227,1.8076982498168945,-198.51129014026597,30.44118708166025,-127.51879245585647,-290.30456012339243,0.0,0.7037279752073075,0.1,0.05055880546569824,0.37848901748657227,0.05064594,0.1416762,-204.26073551338027,-0.08902557273204315,-2.602252825843712,0.0,2118,0.40689659118652344,0.018527006566707506,0.017518305705749616,-212.95564190741604,0.0
228,1.776413917541504,-206.11970779637736,25.27270534373983,-100.73331093418878,-265.25447940869356,1.0416666666666667,0.682301827496162,0.1,0.06336116790771484,0.4348642826080322,0.050960816,0.17360449,-204.44663274168,-0.09005742232329354,-2.703242763277038,1.0416666666666667,2135,0.4069399833679199,0.01115692286806505,0.010607419712544594,-206.47857101293943,6.25
229,1.7609546184539795,-201.310360301399,25.93352086607037,-126.80196874849919,-277.08771493639523,0.0,0.6975510371161266,0.1,0.026459217071533203,0.3658299446105957,0.050215635,0.14704233,-204.1330054976519,-0.0888531602566771,-2.6395735110985488,0.0,2129,0.3864121437072754,0.0126831553873408,0.011303033981936274,-202.60574640166777,0.0
230,1.9105734825134277,-200.96863745116676,27.542514056810646,-104.61422808333255,-277.80009842496133,1.0416666666666667,0.6968997926320143,0.1,0.0352938175201416,0.24611973762512207,0.050066225,0.1560779,-203.8165686930034,-0.08893807115538575,-2.635343237755913,1.0416666666666667,2136,0.587507963180542,0.012266927498648264,0.011821547393405669,-201.4165910275059,0.0
231,1.977283239364624,-203.9439281889754,22.387169165529606,-117.23957915915675,-251.33125505757664,1.0416666666666667,0.6897732354149986,0.1,0.04824566841125488,0.35835742950439453,0.049800243,0.14803359,-203.82930464260062,-0.08963404756991593,-2.6741707747626164,1.0416666666666667,2127,0.4319281578063965,0.010866881416951121,0.010273140079104593,-205.67442349107077,0.0
232,1.9051756858825684,-203.47240750919454,25.988888432202465,-106.45181654458315,-261.2289155283351,0.0,0.7192440248560185,0.1,0.01844310760498047,0.3100016117095947,0.049973454,0.15696836,-203.79361492926,-0.0883632714789979,-2.6684711238219427,0.0,2155,0.4820535182952881,0.012554630466960098,0.012292671885832884,-206.8127430589687,0.0
233,1.889991044998169,-199.45767283006876,30.576446357532376,-102.10985233021182,-248.65624382849256,2.0833333333333335,0.7059022743774063,0.1,0.07708454132080078,0.34358668327331543,0.049399678,0.16046785,-203.3600207193409,-0.0889464638005628,-2.6150135568555957,2.0833333333333335,2148,0.42864537239074707,0.012240144264254472,0.011538938048341035,-200.9274367049204,0.0
234,1.9195425510406494,-208.562690145029,29.354866337143495,-112.45883656896743,-314.6844720364926,1.0416666666666667,0.7119406693835549,0.1,0.08102226257324219,0.326915979385376,0.05005791,0.14149417,-203.88028766190973,-0.0901266320158367,-2.7365670996433367,1.0416666666666667,2157,0.5845575332641602,0.015387558198414968,0.014697289122039867,-200.86230763065322,6.25
235,1.9203784465789795,-201.34448932758983,28.05741620343671,-98.71377471301328,-257.47326062279643,3.125,0.657580246050458,0.1,0.042027950286865234,0.3214850425720215,0.049877472,0.17034553,-203.62670782847778,-0.08973968412832989,-2.6403977061875756,3.125,2119,0.5088307857513428,0.013465351943046077,0.011470198811620395,-205.88217202597588,0.0
236,1.9687094688415527,-205.46654805732382,29.639554372516077,-82.89556806071445,-266.7256468233604,2.0833333333333335,0.6846359492423555,0.1,0.07530355453491211,0.3857564926147461,0.049691863,0.16572891,-203.81069185136238,-0.08993590531087746,-2.6953044000363255,2.0833333333333335,2147,0.543095588684082,0.012167523084555987,0.01234638506252654,-198.2954975072902,6.25
237,2.108262777328491,-206.00223429333323,22.862207958144992,-143.56896982638077,-253.46904324574072,1.0416666666666667,0.6581597111139516,0.1,0.08289456367492676,0.3888843059539795,0.04954273,0.16354999,-204.0298460955595,-0.09034571744040375,-2.7019342774753348,1.0416666666666667,2127,0.5841155052185059,0.009632176496939752,0.008470462213181148,-194.8675668194033,6.25
238,1.9222753047943115,-204.188254199118,24.52290191370716,-119.2173028496158,-250.41874025972788,0.0,0.7080717768854541,0.1,0.034970760345458984,0.3386650085449219,0.04926132,0.14909762,-204.04568690591535,-0.09016740431281145,-2.6774632019350086,0.0,2124,0.5131208896636963,0.009501067924208318,0.009087650552498144,-200.78803201336854,0.0
239,1.9684627056121826,-199.77916074888557,29.31549448735091,-113.26016541783537,-264.6993782106969,1.0416666666666667,0.6858756890296093,0.1,0.01311635971069336,0.3769540786743164,0.05023687,0.15147656,-203.61903429021237,-0.08892459397672044,-2.619076415876878,1.0416666666666667,2140,0.48203063011169434,0.014864202803996862,0.014083965773452709,-204.90305645241344,6.25
240,1.7780060768127441,-199.95711466088423,28.179209739829705,-113.72369985359003,-243.1656523660612,2.0833333333333335,0.7239906964835374,0.1,0.043862342834472656,0.40042972564697266,0.050042752,0.15886657,-203.25284232727955,-0.08970364103465177,-2.621101014041287,2.0833333333333335,2107,0.46320271492004395,0.012985650077791181,0.01257783622393132,-202.12480818447926,6.25
241,1.8866591453552246,-201.9299450961843,29.13621724943163,-87.80359034098333,-260.6357729028097,1.0416666666666667,0.6859935853375777,0.1,0.06766104698181152,0.4417378902435303,0.049447965,0.15607613,-203.12055260417003,-0.08870535694002879,-2.647926844627183,1.0416666666666667,2147,0.47002172470092773,0.013990727117260507,0.013446909300626328,-204.92467432350944,6.25
242,1.9194059371948242,-209.2756846620298,24.27494285704312,-136.89726275227667,-263.3712613269363,0.0,0.667548606502326,0.1,0.08075666427612305,0.32658982276916504,0.05048918,0.15345725,-203.73606580995602,-0.09008257847884442,-2.7455173419410204,0.0,2155,0.4432051181793213,0.011611414854735885,0.010426807462521713,-210.4610184610475,6.25
243,1.8143372535705566,-205.42111385451128,26.123066251311744,-123.63789836588766,-277.3091466155711,1.0416666666666667,0.6818787469439254,0.1,0.056746482849121094,0.2528650760650635,0.049710765,0.15776308,-203.90457061441157,-0.09060816873904116,-2.694381326602128,1.0416666666666667,2124,0.48572659492492676,0.010938468032973724,0.010343993733383197,-203.75291559404053,6.25
244,1.8170571327209473,-204.06756595969418,25.338510419153952,-147.37746975103659,-287.8092474885893,0.0,0.7334380761195122,0.1,0.07732677459716797,0.2291250228881836,0.05017547,0.14036186,-203.92087014893985,-0.08887751825317702,-2.675665055370642,0.0,2149,0.4966707229614258,0.012334450836027822,0.011881144513958136,-208.25494667840235,6.25
245,1.7913691997528076,-207.80558166891694,26.28723505211206,-114.50827739501554,-264.76559892393107,1.0416666666666667,0.6825304822432449,0.1,0.038481712341308594,0.418811559677124,0.050168574,0.15368691,-204.30934130093758,-0.08993515866724251,-2.7257901820406083,1.0416666666666667,2152,0.47245240211486816,0.012465307948933257,0.01139643818434564,-199.7148971675591,6.25
246,1.81644606590271,-202.67909422233905,24.256105507494482,-129.34917510232518,-249.02709334804342,0.0,0.6664837865923753,0.1,0.06908631324768066,0.27843689918518066,0.050239466,0.1574246,-204.14631659307773,-0.08935250191043242,-2.6580875956356596,0.0,2127,0.39539265632629395,0.010312832733047969,0.010176884301428817,-206.86174454408427,6.25
247,1.8341467380523682,-203.59248465054816,31.056912480707723,-118.31307047418792,-336.9291409541193,0.0,0.6891382955257452,0.1,0.04030013084411621,0.2859222888946533,0.0503155,0.14560321,-204.0909333988248,-0.08869998106072059,-2.6693648123759357,0.0,2158,0.4484596252441406,0.01684592693041171,0.015335016560614407,-202.65353487418912,6.25
248,1.7834677696228027,-204.27960323213992,25.71638172572935,-91.4852857671626,-252.18540996240264,1.0416666666666667,0.6915951114014043,0.1,0.02106499671936035,0.32663536071777344,0.050115023,0.15808406,-204.10980038215632,-0.08947666085860316,-2.6796856389703607,1.0416666666666667,2155,0.6125335693359375,0.011467727978780925,0.011133768040108532,-207.33924693418982,6.25
249,1.749985933303833,-200.95401555278457,26.809421788238062,-95.63194362249257,-258.6286884011911,3.125,0.698855945043004,0.1,0.037874460220336914,0.44699883460998535,0.050339844,0.16864961,-203.79422189921917,-0.08857301489080986,-2.635086407011475,3.125,2125,0.5607318878173828,0.012412526958412358,0.011937496949543155,-205.34622781399548,6.25
250,1.7956924438476562,-204.69119229011952,26.56421098034466,-116.99373936425258,-259.1002962078674,1.0416666666666667,0.6981332169460265,0.1,0.02434682846069336,0.3723888397216797,0.05014329,0.14979891,-203.8839189383092,-0.09052998885473519,-2.685009276534054,1.0416666666666667,2130,0.5203266143798828,0.01024174023792208,0.00963648120812374,-207.41489042456732,6.25
251,1.8345365524291992,-200.78026332388148,26.246963124605156,-132.0549850052395,-260.50005889840645,0.0,0.7193457016629833,0.1,0.07243108749389648,0.3716084957122803,0.049782228,0.15048288,-203.5735533768664,-0.08828529172406523,-2.6324399704778236,0.0,2149,0.6327059268951416,0.012013948929466356,0.01165775658963322,-206.8803137907422,6.25
252,1.8081955909729004,-210.36734590819972,26.021612687109332,-136.26993133714177,-260.09136170250235,0.0,0.6959600270394602,0.1,0.09352612495422363,0.505441427230835,0.049265802,0.1567066,-204.25293262999975,-0.09112724104964219,-2.760830241524443,0.0,2144,0.4351651668548584,0.01204227957958866,0.010814294013551313,-203.58496429738142,6.25
253,2.018548011779785,-203.65495085117655,23.076665834570754,-127.6569706124843,-245.7675171292521,0.0,0.7014668454690236,0.1,0.05103588104248047,0.5492734909057617,0.050491553,0.1563277,-204.19313445211745,-0.08938265794361666,-2.670668299398541,0.0,2126,0.5036923885345459,0.009172352565274313,0.008683474666105466,-200.89424489510176,6.25
254,1.8991367816925049,-203.14565044701544,25.78245993020188,-132.286302432183,-261.7821614368755,0.0,0.6898958444916404,0.1,0.0500187873840332,0.5137341022491455,0.04962185,0.1566361,-204.08838605160724,-0.08916178882065885,-2.6645200565926075,0.0,2136,0.4148223400115967,0.011257822392026488,0.010938279750293375,-203.4650968974302,6.25
255,1.5878169536590576,-198.77171592417392,27.93686631518528,-113.81112071331641,-250.40676186845945,1.0416666666666667,0.6712693341812278,0.1,0.030032873153686523,0.4847874641418457,0.050112575,0.15493043,-203.55671903886392,-0.0874258630942983,-2.60652597211381,1.0416666666666667,2146,0.49057912826538086,0.013285727239476854,0.01246745214012166,-205.49954672273157,6.25
256,1.9506595134735107,-204.6851499293372,27.970685007866727,-99.60189590279856,-251.42972432068618,2.0833333333333335,0.7287863399239785,0.1,0.0682060718536377,0.3854990005493164,0.049543157,0.1583526,-203.66956212791126,-0.09013982747512168,-2.684925791818761,2.0833333333333335,2136,0.532310962677002,0.013234259034020965,0.011094002127628927,-205.9218564294534,6.25
257,1.9408953189849854,-201.20310770589444,24.692098679661996,-110.30461737823006,-240.30461664357063,0.0,0.6899219498568518,0.1,0.05932259559631348,0.3429718017578125,0.050219223,0.15100506,-203.4229166857096,-0.08880062590409517,-2.63904989261267,0.0,2129,0.5291957855224609,0.01120255163077136,0.010421017501481434,-205.9548689167681,6.25
258,1.9166970252990723,-194.9367371700304,30.03484784598477,-120.18202490924301,-279.0430355412501,0.0,0.7461134641657543,0.1,0.0603032112121582,0.38554859161376953,0.049986586,0.13708895,-202.57429873414168,-0.08686746384845773,-2.554368602192738,0.0,2133,0.5394229888916016,0.014934526646310503,0.013978238636184455,-209.22475281418724,6.25
259,1.905242681503296,-204.984196724006,24.686799812981384,-120.99959713448115,-253.6392804578038,1.0416666666666667,0.7233941438614834,0.1,0.08892273902893066,0.3493983745574951,0.05018641,0.1407771,-202.81528853312813,-0.08923548779479616,-2.689162007507121,1.0416666666666667,2143,0.477323055267334,0.011838561896830212,0.010978725538132115,-208.31832428949522,0.0
260,1.9430181980133057,-197.94028710308385,29.19895376019487,-126.98597267033597,-266.79701569235544,0.0,0.6976069307767434,0.1,0.022541522979736328,0.3813464641571045,0.050323725,0.15227674,-202.32778839012371,-0.08805548274599612,-2.594522976649591,0.0,2142,0.5148625373840332,0.014307797245576834,0.013168221447349754,-208.19123133710954,0.0
261,2.0199718475341797,-202.89682219348416,29.933121221837652,-115.59642016513715,-305.0256989023006,1.0416666666666667,0.6699728069325638,0.1,0.05743288993835449,0.35036611557006836,0.050254267,0.14983103,-202.38469177045977,-0.0890195111004508,-2.6604502664267184,1.0416666666666667,2142,0.606682538986206,0.016864273270069233,0.016163351165305682,-211.39587823501478,0.0
262,1.9380507469177246,-203.52857391276234,29.417697941416392,-121.23601256938518,-269.0458380001245,0.0,0.6978756354136094,0.1,0.017282485961914062,0.4485740661621094,0.050113082,0.14968696,-202.49907998469004,-0.08949705186466254,-2.6684559878916816,0.0,2142,0.4499199390411377,0.015012259113685483,0.015569712376208734,-207.97411216237367,0.0
263,1.9056203365325928,-203.3445793061852,27.043792071895684,-103.44222539720379,-262.28835691715534,1.0416666666666667,0.7014384819092984,0.1,0.0814824104309082,0.314129114151001,0.05015419,0.15730406,-202.58362991683956,-0.08963297635942984,-2.666323184294906,1.0416666666666667,2129,0.6353037357330322,0.01237131697177356,0.011397841352961569,-206.59193369867575,0.0
264,1.9378032684326172,-201.14361680986508,28.61611695287138,-120.3946176919674,-252.65842713384183,0.0,0.7534501326717163,0.1,0.05865144729614258,0.29619503021240234,0.049659897,0.1376425,-202.43962860614212,-0.08928302176584017,-2.636436075348682,0.0,2126,0.5026543140411377,0.012390808295155039,0.012333810782431797,-205.29392071775442,0.0
265,1.7469708919525146,-201.25153918856395,29.39356616938368,-115.95963251953566,-266.10258307698206,2.0833333333333335,0.7068312176703238,0.1,0.03979086875915527,0.3944127559661865,0.049661055,0.14814585,-202.32081966438432,-0.09038490882187177,-2.639053453144158,2.0833333333333335,2107,0.4706568717956543,0.014275787848419557,0.014183663841560312,-204.27956127149264,0.0
266,1.7641427516937256,-199.54065650871735,28.288700021776933,-127.65636415654582,-249.14450534810322,0.0,0.7260387665472889,0.1,0.034436702728271484,0.3422722816467285,0.049870905,0.14128588,-202.04280334881764,-0.08868482030713422,-2.616914182728729,0.0,2125,0.48343825340270996,0.013135402095096525,0.012171229355716686,-205.83406308268206,6.25
267,1.8474626541137695,-201.11701210795044,27.880667418120865,-113.91702748953853,-270.06674985906847,2.0833333333333335,0.6910808313605856,0.1,0.02431797981262207,0.36508941650390625,0.0500214,0.15404047,-201.95022422473093,-0.08985320775506857,-2.6379072310230818,2.0833333333333335,2109,0.4367995262145996,0.012058531685629198,0.011683999660392725,-208.39952637438012,6.25
268,1.745378017425537,-199.39206520713432,26.460589575314675,-120.68768654575842,-247.17126988938898,0.0,0.7126773235403125,0.1,0.012008428573608398,0.5150299072265625,0.04956893,0.15758239,-201.69440832297127,-0.08915057616235449,-2.613297004267237,0.0,2120,0.5635592937469482,0.010407653612608515,0.010205771795068336,-208.2925455309435,6.25
269,1.7716238498687744,-201.38360238359598,29.724574725172747,-105.91196763370553,-264.40776292005773,0.0,0.7156382354972542,0.1,0.01244497299194336,0.29974913597106934,0.050077837,0.14322084,-201.66332772903377,-0.08858436798423745,-2.6414867266462494,0.0,2144,0.43361544609069824,0.013784062009450785,0.013522804670058352,-206.70615716571007,6.25
270,1.7567455768585205,-194.9502941400332,30.250086817108386,-106.15813118351029,-240.30090474791245,3.125,0.7384324199969217,0.1,0.03145647048950195,0.2695169448852539,0.050500624,0.1483756,-200.99202437013372,-0.08808213985388764,-2.5543517426661064,3.125,2131,0.522611141204834,0.012626447209051624,0.012238470777053248,-209.21202600957588,6.25
271,1.8741085529327393,-202.71301627958064,27.439339045559013,-119.48949045539061,-240.4019522016508,0.0,0.709301528541237,0.1,0.033453941345214844,0.341855525970459,0.049861528,0.15011334,-201.16412356107844,-0.08987873730433159,-2.658400937661179,0.0,2125,0.5765938758850098,0.013378640236543584,0.012330669349502905,-207.90471475761598,6.25
272,1.8051292896270752,-202.47362755660254,25.843175770625376,-135.51546612554017,-274.4391170622706,0.0,0.7065220033852306,0.1,0.023212909698486328,0.5090498924255371,0.049272243,0.1490284,-201.29507396063084,-0.08943759386771398,-2.654569108792328,0.0,2125,0.4209902286529541,0.011923172405695476,0.011496844763266173,-205.0293678519344,6.25
273,1.8357658386230469,-202.0997646721693,24.619274539683243,-138.7594047419107,-259.92017501967933,0.0,0.7148774270500305,0.1,0.03432774543762207,0.4981346130371094,0.050337955,0.14459711,-201.3755430317847,-0.08886103817199532,-2.6500530876278883,0.0,2133,0.44794583320617676,0.012651821985701878,0.012279095450692548,-203.88643673065457,6.25
274,1.8921546936035156,-202.35909089377776,26.026314397133202,-120.26828489855608,-255.73899812830138,2.0833333333333335,0.6957876978078119,0.1,0.04099583625793457,0.409466028213501,0.049521636,0.15902655,-201.473897817984,-0.08884508615215174,-2.6536198983457413,2.0833333333333335,2146,0.4834001064300537,0.010409151898715411,0.009928250373012914,-202.76251585610362,6.25
275,1.8039448261260986,-205.3454399951563,26.546170956598715,-117.82842429846193,-277.60381749663384,1.0416666666666667,0.7129191450216894,0.1,0.029734134674072266,0.3869359493255615,0.050323114,0.15907922,-201.86105203570122,-0.09076955457570608,-2.693358020009926,1.0416666666666667,2122,0.5032961368560791,0.011985307464889803,0.010884946145886752,-203.6276472623848,6.25
276,1.799941062927246,-203.45410135203164,25.14645359766141,-140.613289136821,-266.10768682888477,1.0416666666666667,0.6900450299574826,0.1,0.030409812927246094,0.3563356399536133,0.049238443,0.15793593,-202.02035696733427,-0.08904734363390814,-2.667689300198578,1.0416666666666667,2160,0.5430114269256592,0.010436274965888503,0.01010487904782117,-201.15507922630843,6.25
277,1.8136451244354248,-199.37840366386646,27.782073287968426,-102.58108408758991,-254.6709871752619,1.0416666666666667,0.7141842772362937,0.1,0.08863687515258789,0.33932995796203613,0.04938748,0.17843767,-201.75616163698749,-0.088986545275782,-2.6132121134081365,1.0416666666666667,2124,0.4978625774383545,0.012671266100047759,0.012175932695679246,-204.03631516358365,6.25
278,1.9365675449371338,-198.62143236229986,32.002219857520274,-105.66543031704563,-270.5490880252231,3.125,0.7074941337512725,0.1,0.04492759704589844,0.312314510345459,0.049752723,0.15082005,-201.44268870951873,-0.08798573786915041,-2.6038079915522796,3.125,2165,0.46439218521118164,0.01497885167034596,0.014207236486640852,-203.56436507200544,6.25
279,1.8163108825683594,-204.67156717014302,28.082470082705793,-132.27260324235257,-270.5591552257544,1.0416666666666667,0.6972307550694099,0.1,0.05493474006652832,0.37189793586730957,0.050698876,0.14328764,-201.76557655558116,-0.09053301579067435,-2.6834689016412674,1.0416666666666667,2124,0.4071519374847412,0.013167329815498363,0.012059661140860059,-202.08769991894,6.25
280,1.8280248641967773,-202.87840056035418,32.96675335673396,-100.83577416695485,-294.9370875508879,1.0416666666666667,0.6916017412618407,0.1,0.050169944763183594,0.39574313163757324,0.050269753,0.14973746,-201.87685895605847,-0.08816040248928377,-2.6606722254385393,1.0416666666666667,2177,0.6024682521820068,0.01577580338725611,0.015456170148730493,-202.0095681774897,6.25
281,1.9136018753051758,-204.90744374160354,25.746712338165487,-118.1053644058607,-309.8547189202575,2.0833333333333335,0.6776209881725982,0.1,0.08382344245910645,0.5478358268737793,0.049633335,0.14931473,-202.17991743461297,-0.08985894280473898,-2.6878482301035618,2.0833333333333335,2152,0.5733563899993896,0.011032972849280896,0.010241169578050142,-203.21083544059036,6.25
282,2.1360137462615967,-196.86139944014167,30.811805716340164,-110.60908437381022,-276.1071972340011,2.0833333333333335,0.7096638523814285,0.1,0.09243202209472656,0.3578338623046875,0.049804915,0.16332963,-201.64806563516586,-0.08703944094643364,-2.5807776511016525,2.0833333333333335,2167,0.5314815044403076,0.016482744424310154,0.013689825896154884,-199.3499321454196,6.25
283,2.0464131832122803,-199.32083149714583,27.55027128162252,-113.48206689510053,-270.40074716148877,1.0416666666666667,0.6946309357383795,0.1,0.027399539947509766,0.4205293655395508,0.05027502,0.14702319,-201.41534222136386,-0.08837165496414057,-2.6137144711165967,1.0416666666666667,2127,0.46894216537475586,0.011913695922813687,0.0114527932719127,-203.16160246910025,6.25
284,1.962867259979248,-201.01189730196234,30.928947096572657,-87.6572784326369,-260.09919653260874,4.166666666666667,0.7366917794396773,0.1,0.07377409934997559,0.29194068908691406,0.05016682,0.14755099,-201.3749977294237,-0.08911795306876447,-2.6356916623920985,4.166666666666667,2133,0.41716718673706055,0.013730696663964106,0.013594732465437827,-209.0734904621342,6.25
285,1.940941333770752,-203.59272875556925,29.39491654110393,-118.72032911423736,-255.9549611222499,0.0,0.7671162577351287,0.1,0.0525362491607666,0.37352490425109863,0.049864236,0.141689,-201.59677083203826,-0.0897528587470302,-2.6710206866111545,0.0,2141,0.5929379463195801,0.013159624108882346,0.012720953244175503,-206.86193357507022,6.25
286,1.8785450458526611,-201.5002348600865,27.639667400480064,-120.3313458812775,-265.6849613554607,1.0416666666666667,0.6808130760445004,0.1,0.05066990852355957,0.41889071464538574,0.05003605,0.15438823,-201.58711723484308,-0.08920770661512623,-2.642610190385263,1.0416666666666667,2129,0.43697667121887207,0.013999560649145086,0.013267879501312143,-203.19460804315315,6.25
287,1.8899791240692139,-197.0047132246796,30.19665854133577,-105.10557776311983,-266.31456947252815,2.0833333333333335,0.6720437990228799,0.1,0.11084914207458496,0.3043832778930664,0.049960677,0.2032006,-201.12887683382672,-0.08867072008871026,-2.5816821144955937,2.0833333333333335,2121,0.45973873138427734,0.013838584005197543,0.012974020413841275,-206.7610362748888,6.25
288,1.9683218002319336,-197.0272930621661,31.67278773904085,-97.71967902119161,-284.21264542953577,3.125,0.6951995202378037,0.1,0.052158355712890625,0.3428006172180176,0.049840566,0.15421167,-200.71871845666067,-0.0879509367505319,-2.583040430602608,3.125,2127,0.5068802833557129,0.015003090188596505,0.014938574512755504,-204.63094152087294,6.25
289,1.9192883968353271,-207.23728026490073,28.680156956059722,-106.59626585302173,-265.75717744115906,1.0416666666666667,0.7241325045665703,0.1,0.011854410171508789,0.3798494338989258,0.050319847,0.14739633,-201.37057463748468,-0.09002481304044306,-2.719258985041527,1.0416666666666667,2160,0.4707958698272705,0.013371045032093496,0.012512409671395058,-208.03791020296802,6.25
290,1.770106554031372,-199.27282814064043,32.08714632295244,-114.5545595743126,-271.8672472839267,1.0416666666666667,0.7173786271601477,0.1,0.025390148162841797,0.2509644031524658,0.050159067,0.15192313,-201.16079998780026,-0.08883209433562918,-2.612766906547199,1.0416666666666667,2134,0.44565439224243164,0.01534135711158536,0.014236302138638628,-207.7468526022176,6.25
291,1.7279994487762451,-203.57258288109014,29.56246084021332,-99.90643455620034,-259.43222211497783,2.0833333333333335,0.670050703289824,0.1,0.03071284294128418,0.33643174171447754,0.04986258,0.17586882,-201.40197827712927,-0.09031460012425481,-2.6688787660816007,2.0833333333333335,2124,0.564793586730957,0.012881062107073352,0.012766857799163634,-207.76558009070848,6.25
292,1.7077758312225342,-199.26380299449477,29.80553546263147,-120.94480492406704,-253.63355872715715,3.125,0.7333856108276681,0.1,0.011707067489624023,0.3093435764312744,0.050020784,0.14956287,-201.18816074886584,-0.0899251781797417,-2.6118553890547873,3.125,2100,0.4712233543395996,0.014345533051702275,0.01326398464537809,-206.96188814764352,6.25
293,1.781571865081787,-198.37204171544283,32.51325302699981,-110.904690276242,-298.6660528648272,1.0416666666666667,0.6974840582969514,0.1,0.07260942459106445,0.37526965141296387,0.05016288,0.1585422,-200.90654884552356,-0.08884349782621158,-2.6009177156259597,1.0416666666666667,2133,0.49620556831359863,0.015741910716855927,0.015035839610364296,-206.36299456861423,6.25
294,1.8232603073120117,-201.63865918536013,30.420846435050873,-91.42326376012778,-251.69545471155178,1.0416666666666667,0.7204078814320656,0.1,0.07372617721557617,0.38104724884033203,0.050065465,0.15273522,-200.9797598795072,-0.0886965318279452,-2.64323112984869,1.0416666666666667,2152,0.5226523876190186,0.014862313291840344,0.014110252740276658,-203.08290744691027,6.25
295,1.86311674118042,-203.43727238355066,28.778159154663648,-84.21654072020596,-252.29774773121244,1.0416666666666667,0.6691022911365659,0.1,0.05576467514038086,0.313692569732666,0.049431946,0.18793547,-201.22551112991155,-0.09054100098448271,-2.6676388323450984,1.0416666666666667,2121,0.5228216648101807,0.012976441765700595,0.012395334555110618,-205.5039234655825,6.25
296,1.8509738445281982,-201.25792156324113,24.552593060915182,-132.56390068560947,-248.02731926944182,0.0,0.6546160248442963,0.1,0.060546875,0.3556516170501709,0.049927577,0.1553399,-201.22875217324452,-0.08924922962245592,-2.6388849833316836,0.0,2117,0.5297219753265381,0.012051581404306073,0.011262551437275628,-205.38006316818263,6.25
297,1.8122756481170654,-200.03638995868752,26.946921181848573,-113.80731347963854,-257.7954275541674,1.0416666666666667,0.6990176876285746,0.1,0.0511775016784668,0.4119415283203125,0.050246872,0.15707456,-201.10951595178884,-0.08950701931412575,-2.623259244024742,1.0416666666666667,2122,0.5494108200073242,0.011811279993510946,0.011244073919317787,-206.36370310981943,6.25
298,1.8286173343658447,-206.0052546375629,27.1403437911105,-103.89262137459983,-258.7093775203342,1.0416666666666667,0.7205588271501249,0.1,0.038515567779541016,0.3616797924041748,0.05017703,0.15698901,-201.59908982036626,-0.09122904388520499,-2.700929206741076,1.0416666666666667,2116,0.5474472045898438,0.0122468529544415,0.011588430304580004,-200.87419580404105,6.25
299,1.7775726318359375,-199.7812142301993,29.01211514829314,-116.00447524470039,-253.38221674135295,1.0416666666666667,0.7147069016218955,0.1,0.04894304275512695,0.38935303688049316,0.04793311,0.1628887,-201.41730226134956,-0.08884414182680418,-2.6189078850639964,1.0416666666666667,2136,0.5512325763702393,0.011863244897709067,0.011416310102142965,-203.24750625786544,6.25
300,1.7519042491912842,-203.85998262703382,21.903998555503016,-137.90352683237415,-249.85089400245587,0.0,0.726585097846036,0.1,0.1140146255493164,0.43076324462890625,0.049745195,0.14332037,-201.661570297918,-0.08939613574529615,-2.672034752136193,0.0,2111,0.49599385261535645,0.009600224564986642,0.009131477926424988,-202.17641081432387,6.25
301,1.8114044666290283,-198.86370219559885,27.13759651776427,-105.3247755878422,-245.6670636038388,2.0833333333333335,0.7152614264760799,0.1,0.018552780151367188,0.3884615898132324,0.050055273,0.153372,-201.38178348768608,-0.0893089809995627,-2.608339453523762,2.0833333333333335,2121,0.48049354553222656,0.010226213225750043,0.010017391467923754,-204.47228172960865,6.25
302,1.98240327835083,-201.14889872160356,29.25352476036,-97.76469820929329,-259.2907242599576,2.0833333333333335,0.6832972994390575,0.1,0.0561830997467041,0.39597177505493164,0.05010362,0.16039054,-201.35849501107782,-0.09011124058491393,-2.6373519470995137,2.0833333333333335,2116,0.5865046977996826,0.014186237881957863,0.012622281079975,-197.89537511992822,6.25
303,2.0481903553009033,-197.63288531121952,31.153591444247404,-93.2499330227206,-267.3121308057662,2.0833333333333335,0.6573597535697461,0.1,0.042154550552368164,0.3868680000305176,0.050543383,0.17569812,-200.985934041092,-0.08919876053174824,-2.590713299847478,2.0833333333333335,2107,0.5583834648132324,0.015273080127478392,0.014869102086450888,-198.6289318757612,6.25
304,2.078169584274292,-201.48531921140307,25.899682998932562,-107.93203085200285,-250.30335554189864,1.0416666666666667,0.6601838249628101,0.1,0.05718827247619629,0.3447141647338867,0.049875714,0.19775683,-201.03587255812312,-0.09037852575552631,-2.6412680370782824,1.0416666666666667,2089,0.5426886081695557,0.010194156303446453,0.009520197599723834,-200.78800374444535,6.25
305,1.9203588962554932,-197.59757230311212,29.035978100830377,-115.41208188378732,-248.62561065562366,0.0,0.686704582465912,0.1,0.053507328033447266,0.45027709007263184,0.049639896,0.16567017,-200.69204253262203,-0.08855114806078312,-2.5907264601459046,0.0,2119,0.5247008800506592,0.01329800999359913,0.01274242337665154,-197.5088392427383,6.25
306,1.8887252807617188,-200.66230140578864,27.247928224397175,-123.50806707799183,-249.36102266412524,2.0833333333333335,0.6696704877438581,0.1,0.06088685989379883,0.4500415325164795,0.04983943,0.1689165,-200.68906841993868,-0.09038525441423105,-2.6307432610125168,2.0833333333333335,2099,0.501213788986206,0.011702802819296603,0.011069431354540396,-196.06795070711817,6.25
307,1.9023375511169434,-205.01633705836556,23.181836028717278,-142.39964217956827,-278.18633023416754,0.0,0.7293959678165695,0.1,0.07388901710510254,0.35338497161865234,0.050692424,0.13895093,-201.12179528378138,-0.09052196403093753,-2.6896636996328787,0.0,2103,0.47039198875427246,0.010162700333058421,0.009708843204915298,-199.08943145329891,6.25
308,1.880906343460083,-200.84777235231434,27.406085543994603,-113.60756069915799,-262.6231967967372,1.0416666666666667,0.7468173358127127,0.1,0.03792977333068848,0.41377782821655273,0.04974972,0.15532084,-201.09439299063467,-0.08977841616426363,-2.634153294088039,1.0416666666666667,2112,0.47362470626831055,0.010634587392665758,0.010799090762259824,-195.61303549432392,6.25
309,1.937333583831787,-200.64196025904405,26.46114744099683,-133.0875877888234,-284.6885009003857,0.0,0.6816616725204327,0.1,0.06755733489990234,0.32498741149902344,0.04993837,0.16419229,-201.04914971747561,-0.0902910138443287,-2.6303320844385882,0.0,2098,0.3733174800872803,0.012889722640483261,0.011660782672274318,-203.4721464668782,6.25
310,1.9313433170318604,-202.60023246892897,25.694925436539634,-128.7583962294152,-265.705252012969,0.0,0.7457376304490683,0.1,0.043465375900268555,0.3127262592315674,0.04999299,0.13688913,-201.20425799262097,-0.08919044083314964,-2.6569048193587004,0.0,2131,0.43776559829711914,0.013100796412428242,0.012298254265958982,-205.53826624575285,6.25
311,1.9467740058898926,-203.98931364664062,27.769582078093546,-114.44830469401121,-274.9532217166931,1.0416666666666667,0.7031923899567792,0.1,0.03918766975402832,0.2584495544433594,0.050248507,0.16469418,-201.48276355802295,-0.09002315302004704,-2.6747866942260217,1.0416666666666667,2148,0.557969331741333,0.011176360583786982,0.010959164037943895,-205.19708966350996,6.25
312,1.850013256072998,-203.79743303414148,25.012982781916282,-123.89264995735857,-261.8650238400896,0.0,0.7051817322702608,0.1,0.027158498764038086,0.40691328048706055,0.049178537,0.14522973,-201.71423050563482,-0.09107288196935552,-2.6711480494871744,0.0,2096,0.5616493225097656,0.010273544209780215,0.009831554405038053,-203.90015856637268,6.25
313,1.7430050373077393,-197.19042694351643,25.72906955480268,-104.91255957413193,-238.03991104672454,1.0416666666666667,0.7222453616258384,0.1,0.05402183532714844,0.36608362197875977,0.050222397,0.14071596,-201.26185014942297,-0.08833684076888,-2.5842866151908517,1.0416666666666667,2122,0.44576025009155273,0.01102444678946888,0.010345910108580379,-200.63342207858173,6.25
314,1.7814218997955322,-201.0679407396748,24.0656115383838,-129.1754578443267,-256.648568566224,2.0833333333333335,0.7363965154151403,0.1,0.04501509666442871,0.3464043140411377,0.050425746,0.13758147,-201.24245920844817,-0.08935126389132557,-2.636212178396991,2.0833333333333335,2106,0.48219728469848633,0.011258842164229557,0.010717105072533754,-206.97070225739276,6.25
315,1.9450550079345703,-194.75517332495733,30.322813887927786,-107.40566564509663,-237.9196076408816,1.0416666666666667,0.6856304009025085,0.1,0.021705150604248047,0.3343522548675537,0.0499193,0.15538566,-200.5937306200991,-0.08877106417467111,-2.5527425134788646,1.0416666666666667,2116,0.5217087268829346,0.014126889414393504,0.013469317928975133,-204.1415268184586,6.25
316,1.7830984592437744,-200.8936526677172,27.703412221207675,-132.50979590488856,-253.87414911986397,0.0,0.7188547412123525,0.1,0.07312965393066406,0.34151625633239746,0.050232723,0.1432388,-200.62372282486092,-0.0894898737711818,-2.6343317657857095,0.0,2120,0.4714798927307129,0.013967518613057112,0.012837080175639186,-202.835066992768,6.25
317,1.7778527736663818,-198.98422561338535,27.078976287405506,-115.887385299936,-248.78418676161766,1.0416666666666667,0.6798209625711417,0.1,0.032293081283569336,0.3789358139038086,0.050682675,0.16359422,-200.45977310371336,-0.08950141583507652,-2.6082466545546423,1.0416666666666667,2112,0.5500171184539795,0.011766028083263535,0.011253759931258281,-205.2606264198616,6.25
318,1.7682743072509766,-199.73015470774388,26.949401188128654,-111.4856085168118,-248.41547896935427,0.0,0.713726095059342,0.1,0.056900978088378906,0.3308267593383789,0.050014336,0.15301865,-200.3868112641164,-0.08842370426498765,-2.6189123764268083,0.0,2120,0.5308055877685547,0.011833575909946386,0.011190285919970908,-209.70960071132757,6.25
319,1.792344331741333,-205.06622760347113,27.36955068910787,-114.59746039808255,-273.29804173859816,0.0,0.7135189853606527,0.1,0.06855249404907227,0.5021083354949951,0.049798585,0.14631432,-200.85475289805188,-0.08944308539160478,-2.6887002139540477,0.0,2144,0.6536026000976562,0.011570489484802982,0.011412013719109606,-205.60113140957498,6.25
320,1.76220703125,-204.51153258923443,30.05131334664071,-118.31547227539622,-278.4065711592499,0.0,0.7263631394612011,0.1,0.07565164566040039,0.4216957092285156,0.050215997,0.14558077,-201.22043086717017,-0.09022202590357768,-2.6815652408498463,0.0,2143,0.5309100151062012,0.013670746591693385,0.013143302422363345,-204.076781251051,6.25
321,1.797853946685791,-205.32221442284745,25.715899822529288,-128.1704802499238,-253.9335406303399,0.0,0.7010347709221232,0.1,0.08399748802185059,0.34957146644592285,0.05071805,0.14289582,-201.6306092227379,-0.09072317788049407,-2.6928609794258542,0.0,2097,0.4923365116119385,0.012866230136543914,0.011171476200777523,-205.46393371096605,6.25
322,1.7515349388122559,-196.7155375592791,23.369917225435557,-139.63312880343491,-241.40184382068705,0.0,0.6925773206719558,0.1,0.061902761459350586,0.3139774799346924,0.05030257,0.16681151,-201.139102056392,-0.08872779840697775,-2.5781131669624746,0.0,2090,0.5348360538482666,0.011165501342294194,0.00997711242738337,-198.45280321087353,6.25
323,1.7829234600067139,-197.5659906221567,29.41361899884055,-98.74971604772715,-250.25581567642087,1.0416666666666667,0.7349714359928647,0.1,0.025011777877807617,0.33094096183776855,0.050014276,0.15971003,-200.78179091296846,-0.08872835266519223,-2.5893540762254275,1.0416666666666667,2120,0.5044732093811035,0.011733984367020176,0.010858277508468303,-197.66276931836046,6.25
324,1.8301661014556885,-197.76801881532148,26.022709206570376,-112.98435702336215,-245.32702541163746,3.125,0.7074935532799175,0.1,0.04561734199523926,0.35163044929504395,0.05033979,0.15377904,-200.48041370320377,-0.09032272074622377,-2.5919912825141895,3.125,2067,0.5225543975830078,0.010238790885409688,0.009984249342048428,-195.58368782979767,6.25
325,1.7268481254577637,-198.14152639722627,26.88501479894734,-129.91806368361102,-242.180531939481,0.0,0.6965200259146908,0.1,0.03240823745727539,0.3402092456817627,0.05032098,0.15314679,-200.24652497260604,-0.08890041439812008,-2.5965349846612145,0.0,2116,0.48923778533935547,0.012097957271061126,0.011526405760440908,-194.69701580666046,6.25
326,1.754131555557251,-202.15168664853593,28.237722022231914,-110.5802316122959,-253.30174998311728,1.0416666666666667,0.7089872832960159,0.1,0.011115312576293945,0.5022130012512207,0.04984091,0.15446764,-200.43704114019903,-0.08944904786569167,-2.6510887779857097,1.0416666666666667,2136,0.5350561141967773,0.01149590980227691,0.0108282742376471,-194.60972113102093,6.25
327,1.6750023365020752,-199.58370197147732,28.683805411654696,-91.5734299846163,-248.6758811562258,2.0833333333333335,0.6845053693958575,0.1,0.05994462966918945,0.44370198249816895,0.049657457,0.17358863,-200.35170722332686,-0.08970099693264455,-2.615861113024858,2.0833333333333335,2088,0.5384054183959961,0.012043634128046895,0.011989210491199428,-201.05183829264985,6.25
328,1.744389295578003,-196.84580741017157,27.826974180727223,-114.30879020071657,-259.3157459549303,0.0,0.6720387334804235,0.1,0.01993560791015625,0.28140807151794434,0.050522327,0.17905642,-200.00111724201133,-0.08780363331671774,-2.5799919712735337,0.0,2134,0.5234899520874023,0.01217373899195991,0.010984427141268073,-198.48204320388982,6.25
329,1.7602648735046387,-204.05106132460992,28.861556603413515,-118.97887611615745,-253.70219112991822,2.0833333333333335,0.7182851691413791,0.1,0.07984113693237305,0.308056116104126,0.050038975,0.15301026,-200.40611165027119,-0.09016132608162453,-2.6761993841372287,2.0833333333333335,2127,0.44826269149780273,0.01309202896124323,0.011637718938676836,-197.42474561533535,6.25
330,1.7853052616119385,-202.8870047825345,28.67387002000375,-120.54995708212887,-255.85580547887278,0.0,0.6621389196033705,0.1,0.08265137672424316,0.4148092269897461,0.05049826,0.16284636,-200.65420096349752,-0.09142574284762302,-2.660143880474957,0.0,2084,0.4683268070220947,0.012038190902828502,0.011653317490003975,-188.21751349239764,6.25
331,1.8950772285461426,-202.2454977476502,25.50756432878062,-99.91604984903078,-257.61929809375874,1.0416666666666667,0.6651333429841317,0.1,0.02791571617126465,0.30658388137817383,0.049311183,0.18567492,-200.81333064191278,-0.09000507233744215,-2.6511019816746866,1.0416666666666667,2093,0.39226531982421875,0.010677309480875311,0.010620768211131459,-187.14010492770245,6.25
332,1.9889488220214844,-198.89724236046115,27.446845973857997,-123.94359689591454,-256.2099744829121,1.0416666666666667,0.6647987749737602,0.1,0.11453819274902344,0.3913710117340088,0.05006048,0.16717188,-200.6217218137676,-0.08940792571317902,-2.6072679806803567,1.0416666666666667,2108,0.5959639549255371,0.011478951815740577,0.010943310599724702,-190.7027474853486,6.25
333,1.8752784729003906,-198.17221285688188,31.326083156895393,-109.4898671254579,-258.73551343010615,3.125,0.6895175883311813,0.1,0.031900882720947266,0.39380884170532227,0.049656045,0.15647732,-200.37677091807905,-0.08926768710581497,-2.5971670717068855,3.125,2116,0.4710812568664551,0.014313550254087738,0.013594089443386933,-193.4891003871701,6.25
334,1.856740951538086,-199.07326146706055,29.10795111922207,-123.04688623389521,-262.516447066415,0.0,0.6743353026366257,0.1,0.07618594169616699,0.3240549564361572,0.050090957,0.15733269,-200.2464199729772,-0.08998427499653446,-2.6099029808706695,0.0,2098,0.5602381229400635,0.012459112804842019,0.012213881717850764,-192.68588366346467,6.25
335,1.848802089691162,-201.2832541029502,23.958388281052866,-115.68292344140318,-249.2715853728141,1.0416666666666667,0.6921853977981235,0.1,0.042081594467163086,0.32127881050109863,0.05008502,0.15186478,-200.3501033859745,-0.09074888789985454,-2.6388486275813485,1.0416666666666667,2076,0.4616122245788574,0.010061689028720677,0.009731367893722387,-191.81257884918142,6.25
