iteration,time_sampling,stoc_pol_mean,stoc_pol_std,stoc_pol_max,stoc_pol_min,rollout_success,alpha,delta,time_vpg,time_npg,kl_dist,surr_improvement,running_score,rwd_sparse,rwd_dense,success_percentage,num_samples,time_VF,VF_error_before,VF_error_after,eval_score,eval_success
0,3.070037364959717,-349.91171696898846,50.953394082857685,-269.4342621425362,-648.9766923898641,0.0,0.62008708296863,0.1,0.08969855308532715,1.9401404857635498,0.054171897,0.1886924,-349.91171696898846,-2.647455470082799,-6.961135688485399,0.0,3194,0.31842613220214844,0.999225836316592,0.6603905955148415,-416.76674665816284,0.0
1,3.0266966819763184,-356.84229487164095,60.84592237066679,-285.0790056324172,-681.8124010099641,0.0,0.8254533835507255,0.1,0.09150123596191406,0.7081255912780762,0.049296547,0.13270931,-350.6047747592537,-2.686982403349232,-7.099196186949311,0.0,3201,0.3311126232147217,0.6717241123161491,0.20975592842895843,-413.8133662816472,0.0
2,2.7738797664642334,-361.2656048629486,70.7654016028818,-259.3045739270118,-692.8943892612986,0.0,0.9173559286867351,0.1,0.07868456840515137,1.6148173809051514,0.05176121,0.11571489,-351.6708577696232,-2.6547065362211555,-7.188247652088299,0.0,3241,0.5698637962341309,0.22547108750836617,0.17222824742118026,-386.4776633721912,0.0
3,2.711240768432617,-350.1575594780722,42.63366531062528,-275.92743602372803,-556.2451134487951,0.0,0.8303366782525359,0.1,0.05931496620178223,0.5858626365661621,0.04986547,0.13565615,-351.5195279404681,-2.6694386553270246,-6.964597517786255,0.0,3187,0.28760862350463867,0.14599066864083043,0.08923997628894628,-387.1786112887942,0.0
4,3.098825216293335,-355.53569207655846,73.36900120288651,-255.98240227391642,-653.7229252967189,0.0,0.7990751688089569,0.1,0.00735783576965332,0.16237473487854004,0.050691318,0.1265799,-351.92114435407717,-2.6790808459185755,-7.073161295134494,0.0,3189,0.312213659286499,0.12452952803506914,0.08046865932910538,-386.5041368455029,0.0
5,2.6632039546966553,-366.9153054416431,81.27129435661611,-259.28722765605715,-667.4573430393004,0.0,0.8088073535456752,0.1,0.07178163528442383,1.1191070079803467,0.05124096,0.12736998,-353.4205604628338,-2.7090919976093795,-7.301261174227622,0.0,3267,0.31807804107666016,0.0900847374550139,0.07055070659256658,-384.75281306648384,0.0
6,2.8281495571136475,-341.902540768355,41.715285403584495,-257.0259480891123,-586.4098387879577,0.0,0.8067622199068196,0.1,0.0689234733581543,0.3049924373626709,0.050643407,0.1262904,-352.268758493386,-2.6750809954754,-6.800688720556594,0.0,3114,0.2844095230102539,0.04362205312265536,0.032165455848932926,-381.60522915489787,0.0
7,2.9899582862854004,-347.4649961371221,63.73098500460356,-268.9923084154015,-655.5538219653265,0.0,0.7725752039302082,0.1,0.007077932357788086,0.15939688682556152,0.050577965,0.13963275,-351.7883822577596,-2.620780297962092,-6.912523457558852,0.0,3169,0.28363513946533203,0.05617542289238518,0.0527278990819866,-374.6238740923784,0.0
8,2.8104958534240723,-343.51666512652855,44.822863981958086,-276.73428402364965,-507.2220573024688,0.0,0.7428233883540855,0.1,0.006829977035522461,0.15163898468017578,0.052162565,0.17540638,-350.9612105446365,-2.6506042138888137,-6.833523915904496,0.0,3115,0.2824821472167969,0.03093934907403911,0.0281083413881369,-363.4390666003142,0.0
9,2.600078582763672,-350.1711695856947,60.44944018544801,-274.9463141751857,-660.1335716874474,0.0,0.7554989299415124,0.1,0.006883144378662109,0.15218496322631836,0.048477516,0.15043056,-350.88220644874235,-2.7082292149011256,-6.965555429617862,0.0,3176,0.29021191596984863,0.04775956063634822,0.04398749199115068,-358.5490911651473,0.0
10,2.607086658477783,-347.7168790112167,49.10381255955552,-261.12132625696984,-567.4935979259204,0.0,0.7197121455263169,0.1,0.024516582489013672,0.15955662727355957,0.050839614,0.16403838,-350.56567370498976,-2.6572434431184604,-6.916420714010056,0.0,3177,0.29174041748046875,0.034574509930757745,0.03168947024145765,-350.4812485092667,0.0
11,2.595919132232666,-343.8852166702258,57.739796595015,-273.6064586523555,-657.3042622429332,0.0,0.6643613700402163,0.1,0.006725788116455078,0.1568279266357422,0.050172016,0.12943716,-349.8976280015134,-2.629734761462475,-6.840161133997508,0.0,3145,0.28333520889282227,0.04699239343768124,0.04490058233310219,-357.3080684205669,0.0
12,2.5390777587890625,-332.1297061601375,42.55427148265899,-276.59255425069296,-622.9860196473352,0.0,0.6969138391748609,0.1,0.0071964263916015625,0.1619727611541748,0.05073134,0.12134298,-348.12083581737585,-2.5398795258752984,-6.605049215124084,0.0,3117,0.2884197235107422,0.04276007985966547,0.03081727064338453,-349.33568637342876,0.0
13,2.504638433456421,-345.3032011055216,49.31459924417915,-246.61616051105776,-593.2323262800513,0.0,0.7430790353811576,0.1,0.007165670394897461,0.22974324226379395,0.050453853,0.12957878,-347.83907234619045,-2.6280737219951216,-6.867707078347208,0.0,3182,0.3128080368041992,0.0361941130632822,0.033247184396216586,-348.6618341633168,0.0
14,2.5960235595703125,-340.29094766740445,51.19728062629823,-264.8926250307463,-647.594682943314,0.0,0.7299458038639723,0.1,0.01189279556274414,0.20398426055908203,0.050608095,0.13650648,-347.08425987831185,-2.6680557122656148,-6.76692271328528,0.0,3148,0.353731632232666,0.03404660737121065,0.031194816025010254,-336.8588900409728,0.0
15,2.681943416595459,-348.46755719017557,66.51466744433476,-258.78395780498784,-656.2185904980524,0.0,0.7610699391920209,0.1,0.006934642791748047,0.1540846824645996,0.049948968,0.10857862,-347.22258960949824,-2.610779963986527,-6.930527847973148,0.0,3211,0.3993556499481201,0.05936304926621397,0.05322007937937984,-337.47235297657454,0.0
16,2.573427677154541,-346.7868320755045,58.11199250586582,-277.2989454666003,-656.7018644636587,0.0,0.7550806420421071,0.1,0.007744789123535156,0.1542530059814453,0.05097486,0.11768686,-347.1790138560989,-2.7069140103277505,-6.897745948104903,0.0,3219,0.44507360458374023,0.04428277117677577,0.039900526210086024,-331.9421810050583,0.0
17,2.6303181648254395,-334.1572711876995,50.51969072559493,-265.7796915646879,-554.9229221970053,0.0,0.7274714136679625,0.1,0.006936788558959961,0.16925835609436035,0.052553963,0.12585354,-345.87683958925896,-2.56235279336366,-6.645446756890195,0.0,3182,0.4746532440185547,0.037298045006255484,0.03354040401784062,-310.3605135050028,0.0
18,2.6360809803009033,-351.82630665669603,74.40397287325634,-273.4383184444706,-687.3820066351884,0.0,0.7884291801827686,0.1,0.0073206424713134766,0.1653594970703125,0.050282653,0.12202207,-346.4717862960027,-2.71232763283856,-6.9996284118480885,0.0,3256,0.5025522708892822,0.05393749513662266,0.04713645992258668,-277.60021274932745,0.0
19,3.0644686222076416,-347.6639247966091,62.82396260505059,-251.1758215016378,-631.8038546963128,0.0,0.7222484774302684,0.1,0.029561758041381836,0.19391322135925293,0.049463242,0.11923918,-346.5910001460633,-2.5876248066373435,-6.9163231994252685,0.0,3245,0.5317018032073975,0.05072028135633533,0.0439888529871995,-279.68209580921507,0.0
20,2.5971906185150146,-343.14022297859856,66.03135084232844,-254.7957792780764,-717.5656116199544,0.0,0.6835094692994556,0.1,0.008260250091552734,0.16103196144104004,0.049929224,0.13612224,-346.24592242931686,-2.6271751610679765,-6.825753824485569,0.0,3207,0.4919273853302002,0.05092397638235017,0.04717709934455088,-274.3342038451471,0.0
21,2.608445882797241,-339.94505491603564,49.39236160053161,-273.6321999241233,-644.561286747937,0.0,0.7801349311455515,0.1,0.0068018436431884766,0.15090680122375488,0.050343227,0.12074967,-345.61583567798874,-2.6439628422550268,-6.762266686536608,0.0,3178,0.48445963859558105,0.03064227683008715,0.02841696709379413,-244.00930760702119,0.0
22,2.581026315689087,-333.6180199201035,45.53771630854409,-258.45098216964726,-583.5564674027978,0.0,0.7334703250818289,0.1,0.006759166717529297,0.15382599830627441,0.049239658,0.11998814,-344.4160541022002,-2.594037377760468,-6.634817814497194,0.0,3163,0.47144079208374023,0.023541349303761196,0.022117591753797735,-240.98565222939223,0.0
23,2.601473569869995,-332.3114405040848,38.376920820528156,-260.6387099572683,-456.2823448579862,0.0,0.7507306915481666,0.1,0.006982088088989258,0.15558791160583496,0.05173153,0.12114091,-343.20559274238866,-2.6453783059715934,-6.609193894232598,0.0,3134,0.4604606628417969,0.023450523540396048,0.02049211993408583,-241.17495403564314,0.0
24,2.5854454040527344,-328.20322818738197,46.05697067371931,-254.88314275980667,-596.5108972750605,0.0,0.678813270783249,0.1,0.06188392639160156,0.15473151206970215,0.05148342,1.1326216,-341.705356286888,-2.5154314437395215,-6.5267289392162935,0.0,3157,0.5438921451568604,0.026401404153898664,0.024768637781906445,-234.6166845152659,0.0
25,2.6591413021087646,-330.9873477965855,41.512843537682826,-257.10545211927445,-508.6876573040008,0.0,0.7075511852247323,0.1,0.00670933723449707,0.1500709056854248,0.050013468,0.12683807,-340.63355543785775,-2.558924837355364,-6.58184117668463,0.0,3164,0.4725801944732666,0.022210434670761767,0.021176618340321345,-249.53067668802456,0.0
26,2.5673696994781494,-327.0421245136292,52.74301853992371,-261.9622792667169,-651.7982242110019,0.0,0.658691262973797,0.1,0.006924867630004883,0.15421104431152344,0.049643267,0.15044966,-339.27441234543494,-2.6216323649417856,-6.502476631287775,0.0,3161,0.4688146114349365,0.031044939294320232,0.02995297018239482,-246.46646723536114,0.0
27,2.617905378341675,-321.98166748270586,55.48174682789214,-244.92326601938385,-588.3265066441544,0.0,0.7430260021452497,0.1,0.006958484649658203,0.21866345405578613,0.048447702,0.12638716,-337.545137859162,-2.467298952077741,-6.402274589330442,0.0,3123,0.5070838928222656,0.035053896151048425,0.03296212615280498,-238.5824733163974,0.0
28,2.539097309112549,-321.3428411803458,41.20870494884861,-252.3910381734114,-543.8656918370929,0.0,0.7403360911721856,0.1,0.007047176361083984,0.15114831924438477,0.049721822,0.14339066,-335.92490819128045,-2.5067242689167646,-6.389452430737464,0.0,3144,0.4669179916381836,0.021603705113656762,0.01967204514583741,-230.53290937482313,0.0
29,2.820105791091919,-318.3848902636924,32.16203518841829,-243.36232687121029,-421.6901095173475,0.0,0.6322764705971098,0.1,0.06184124946594238,0.16138339042663574,0.0496976,0.54468715,-334.17090639852165,-2.5050440297962857,-6.330267999010592,0.0,3111,0.47243595123291016,0.017555766007472617,0.015840739468824045,-227.54225189569976,0.0
30,2.5912697315216064,-316.7575114571119,32.923195090537945,-251.547621974158,-420.63910823552555,0.0,0.7255077207752919,0.1,0.007047414779663086,0.1597609519958496,0.05056045,0.15520847,-332.42956690438064,-2.5267093101428535,-6.29606452592499,0.0,3125,0.5160706043243408,0.014902260325629545,0.013692731903976962,-222.6468925192234,0.0
31,2.906085729598999,-334.74184932140423,65.49981408997287,-250.62145231928997,-645.7247260969986,1.0416666666666667,0.7377199306564721,0.1,0.006919145584106445,0.1496577262878418,0.050346002,0.10742482,-332.660795146083,-2.598010296148575,-6.656774930166965,1.0416666666666667,3252,0.48256874084472656,0.056629008157279795,0.04747580211192176,-224.34438152531698,0.0
32,2.612454891204834,-322.1812595621006,50.29094790840791,-233.08547250138426,-616.414584978031,0.0,0.7197340894136828,0.1,0.006562471389770508,0.15092921257019043,0.050175667,0.12425267,-331.6128415876848,-2.602190185680341,-6.405710604732484,0.0,3162,0.4728736877441406,0.032614867601238495,0.02886444564186189,-226.62983523393984,0.0
33,2.6296958923339844,-323.61548314319725,55.04682910495854,-244.93154355306464,-621.3600673053548,0.0,0.7135016373808556,0.1,0.0488886833190918,0.11756730079650879,0.05245449,0.1105929,-330.81310574323606,-2.508612634397315,-6.4345118773365515,0.0,3195,0.39325571060180664,0.041481204903645784,0.035848635909873,-221.24749264657012,0.0
34,2.705026149749756,-324.9780932889234,47.113169876562374,-253.22758860837166,-564.207315977907,0.0,0.7614426375675356,0.1,0.005689144134521484,0.3013334274291992,0.0495727,0.13776372,-330.2296044978048,-2.5120964383737725,-6.462109049584513,0.0,3182,0.41065359115600586,0.028994499083508887,0.025528590669586217,-222.04410901377094,0.0
35,2.7350306510925293,-322.8990636222634,51.92232402561301,-257.9798482151261,-639.9192765452779,0.0,0.7345067870847247,0.1,0.007173776626586914,0.16791844367980957,0.049405552,0.12173579,-329.4965504102507,-2.4954561893070393,-6.419836081144413,0.0,3213,0.49346256256103516,0.03342185702632776,0.02937299117429727,-223.91931379697098,0.0
36,2.5696263313293457,-319.58481329754295,57.210202550055826,-248.86778912672048,-647.9490435673802,2.0833333333333335,0.7752630161217449,0.1,0.0067958831787109375,0.16423726081848145,0.051181376,0.10840035,-328.50537669897994,-2.459995863955216,-6.354784674386212,2.0833333333333335,3171,0.4837038516998291,0.03891058551362667,0.03329586260427774,-211.84646330766122,0.0
37,2.678171396255493,-321.1200241274398,53.14067515983785,-245.3503510186518,-569.1734557676789,0.0,0.7435064665057189,0.1,0.007319211959838867,0.15294647216796875,0.049666926,0.1136958,-327.766841441826,-2.5161529280139447,-6.3843676813047425,0.0,3204,0.5013573169708252,0.03486813749080162,0.030930962890165052,-217.26755230760944,0.0
38,2.679894208908081,-318.9011444303929,53.68347172796938,-243.70886220966025,-587.5155060903343,0.0,0.7767744728354664,0.1,0.0068972110748291016,0.1558694839477539,0.04930079,0.14591548,-326.8802717406827,-2.486345122439782,-6.340729812018101,0.0,3213,0.49183177947998047,0.031282215015720975,0.027972606986681234,-205.92066183580573,0.0
39,2.7784664630889893,-333.50410933459926,68.57914852401159,-238.24219280672858,-578.773498782591,0.0,0.8078644825721624,0.1,0.04057884216308594,0.298311710357666,0.050143715,0.11887022,-327.5426555000744,-2.666408673436186,-6.63350858500895,0.0,3322,0.5960252285003662,0.05023450016329557,0.04267284878412575,-206.31948466220123,0.0
40,2.7553231716156006,-308.9831364171925,33.115409075094945,-224.5025689671188,-403.1652296540537,0.0,0.7756608968359968,0.1,0.06847882270812988,0.21819782257080078,0.050192893,0.16865145,-325.6867035917862,-2.509580789012587,-6.142399651927994,0.0,3253,0.4981956481933594,0.025661398365554478,0.01545741700102522,-215.16460688664827,0.0
41,2.841428279876709,-312.6531984837029,48.31345115418622,-229.77876961988466,-595.9397444404024,0.0,0.7653458438018856,0.1,0.02070927619934082,0.2926805019378662,0.049147278,0.11687654,-324.3833530809779,-2.4870995847616015,-6.215237618247791,0.0,3218,0.5636403560638428,0.028767613014533823,0.027247098551253342,-229.72963867223066,0.0
42,2.889033555984497,-308.08193643107035,35.26916258041958,-224.61100674081527,-394.21478297219574,0.0,0.734149687236042,0.1,0.00868844985961914,0.16038823127746582,0.050663255,0.13787562,-322.7532114159871,-2.4768678109021867,-6.123231784995544,0.0,3198,0.47489500045776367,0.015766029881694895,0.013490196236466736,-241.28021954990442,0.0
43,2.75734543800354,-310.6047210795904,35.163684756612966,-223.9076498215384,-450.2493279021617,0.0,0.8367957027300554,0.1,0.006855010986328125,0.15434837341308594,0.049995262,0.13296029,-321.53836238234743,-2.49419341895592,-6.174368870302646,0.0,3298,0.489532470703125,0.0174787399906607,0.01579006190749489,-260.5274142227346,0.0
44,2.764465570449829,-308.25274095037054,36.9368633128289,-224.26801511862513,-509.8540845991224,1.0416666666666667,0.7533604723641093,0.1,0.006846904754638672,0.15422463417053223,0.050410755,0.14906703,-320.20980023914973,-2.5674982169793323,-6.127510303104479,1.0416666666666667,3269,0.4840972423553467,0.01764606800168494,0.016681707635944027,-269.4563370090267,0.0
45,2.7481958866119385,-312.70712420637665,42.16856016377989,-258.0914568242903,-577.3391956812493,0.0,0.7730001353009386,0.1,0.00674891471862793,0.15460419654846191,0.049607374,0.116460204,-319.45953263587245,-2.5868289951172363,-6.216063424532145,0.0,3252,0.4754633903503418,0.019910784379388036,0.01853924783001946,-265.5017135656807,0.0
46,2.770167589187622,-308.7138721456281,41.40665372166507,-212.04235984917972,-440.4833703415437,0.0,0.7774522843064556,0.1,0.0070438385009765625,0.16035938262939453,0.049819537,0.10870363,-318.384966586848,-2.476792299166283,-6.135224993586512,0.0,3289,0.4798755645751953,0.023716273844576544,0.02172339091721759,-282.8515670455256,0.0
47,2.6637659072875977,-309.67840330431386,46.86044222047133,-237.90440032390023,-561.2204929342054,0.0,0.7824793734170686,0.1,0.006635189056396484,0.15596652030944824,0.049991395,0.12564407,-317.5143102585946,-2.448084439766943,-6.155689145506227,0.0,3278,0.4815549850463867,0.025197567876881242,0.022297212828000047,-286.94854551304354,0.0
48,2.7096757888793945,-306.74198492736895,45.1300767967873,-232.54934366926125,-507.2107758964957,0.0,0.7738181675652268,0.1,0.011913299560546875,0.15261292457580566,0.049565118,0.13346314,-316.437077725472,-2.536341462366265,-6.0967154372845345,0.0,3266,0.48403143882751465,0.024531180666202385,0.02198475217009987,-296.11192585709017,0.0
49,2.7494852542877197,-307.20328267317376,47.02623833783433,-224.97233963142136,-500.0070885227644,0.0,0.7673707217659345,0.1,0.007150411605834961,0.18045449256896973,0.050582442,0.125143,-315.5136982202422,-2.5161785250293263,-6.107169650921921,0.0,3247,0.4705038070678711,0.02621800646623744,0.022546183229451074,-284.8096548415656,0.0
50,2.739230155944824,-297.2758363650876,35.58416677158944,-214.16067223917477,-440.7108292068545,0.0,0.7625700395670507,0.1,0.006560802459716797,0.15036964416503906,0.050000377,0.14944975,-313.6899120347268,-2.501971276513289,-5.906535361258374,0.0,3185,0.4563767910003662,0.017804480285820608,0.01495360009809578,-300.82176306856894,0.0
51,2.920271396636963,-297.72290892935536,30.784996900790023,-212.12456760665046,-372.9756322083391,0.0,0.763775319179761,0.1,0.006627559661865234,0.1506047248840332,0.050044473,0.13996468,-312.09321172418964,-2.5617212661620123,-5.916210063552231,0.0,3171,0.4625978469848633,0.011965262305480878,0.011216030721992825,-298.570032692302,0.0
52,2.7285759449005127,-293.32305679305483,39.47259187421051,-223.2184886113813,-491.27753460962987,0.0,0.700978588255843,0.1,0.007295131683349609,0.16171813011169434,0.050390195,0.117041044,-310.21619623107614,-2.430698957271614,-5.829005633186184,0.0,3222,0.4844658374786377,0.020255484591050105,0.018040354203518523,-304.1807314036955,0.0
53,2.697101354598999,-295.5404092177655,41.24970595570949,-218.51090108530556,-545.6469355736388,2.0833333333333335,0.7591083517616877,0.1,0.007292985916137695,0.22108912467956543,0.050040983,0.13289766,-308.7486175297451,-2.4704442309133285,-5.872818584904029,2.0833333333333335,3201,0.5442256927490234,0.02183363612951219,0.0206932886985182,-311.88244486803035,0.0
54,2.7163171768188477,-300.40098791438635,47.16032493089764,-226.42023682991996,-540.8505319704628,0.0,0.7584633134499812,0.1,0.0074918270111083984,0.16164422035217285,0.051111415,0.10626689,-307.9138545682093,-2.5283366419651148,-5.971281935168689,0.0,3252,0.5569884777069092,0.02690790072141129,0.02451271515826607,-326.5992774813195,0.0
55,2.651533365249634,-299.6299531800334,43.99328001484549,-228.5371380549356,-475.74020450492293,0.0,0.8072921474630806,0.1,0.03250002861022949,0.34987640380859375,0.049927346,0.12005671,-307.08546442939166,-2.570814485308692,-5.954780360149042,0.0,3212,0.5449280738830566,0.025110140040002577,0.023970751823904308,-341.2979131699291,0.0
56,2.7285938262939453,-300.7080666472136,55.380162625279375,-221.14899682711376,-563.2473747341515,0.0,0.7842144128615471,0.1,0.03422880172729492,0.165360689163208,0.050110467,0.12233204,-306.44772465117387,-2.5307182530008325,-5.9762444823366225,0.0,3260,0.5478706359863281,0.04235133063662259,0.0372224115346491,-345.78641806637756,0.0
57,2.745490074157715,-287.63821179488514,33.55167442484516,-216.65089062838024,-381.8422589016444,0.0,0.8093887664590331,0.1,0.006757020950317383,0.1504223346710205,0.049934234,0.13963412,-304.566773365545,-2.4661393528031925,-5.714851609162634,0.0,3190,0.4543898105621338,0.018344641765149126,0.012971546949113075,-352.2121067660087,0.0
58,2.8005452156066895,-296.26831038806966,42.381945806835034,-205.76306683994102,-514.3967383007362,0.0,0.7669689848790776,0.1,0.006882667541503906,0.15758252143859863,0.049763724,0.12558824,-303.73692706779747,-2.5425177075819168,-5.887154958707476,0.0,3278,0.47916603088378906,0.022201618042770144,0.018939883697541928,-336.417380327558,0.0
59,2.7027299404144287,-289.2504341656724,34.206085583242086,-225.59902936231938,-402.0394480579403,1.0416666666666667,0.7956756144472017,0.1,0.006716251373291016,0.14812493324279785,0.049253292,0.12669124,-302.28827777758494,-2.470304013505455,-5.745075362371959,1.0416666666666667,3165,0.4644935131072998,0.014833876370596154,0.012330391505713658,-348.18663250173324,0.0
60,2.805730104446411,-297.9760024916622,57.25542920240115,-204.54184980318644,-530.3601514268993,0.0,0.8398120931475512,0.1,0.00699925422668457,0.15450572967529297,0.049716845,0.108535774,-301.85705024899266,-2.4818140964820166,-5.922223534544947,0.0,3278,0.45380163192749023,0.03803650520224543,0.03189139747204569,-343.00814328848605,0.0
61,2.906909704208374,-287.261607475044,38.96210988895895,-211.24407850102605,-425.11281365939806,0.0,0.826004989167194,0.1,0.006827831268310547,0.15538692474365234,0.050210577,0.12368576,-300.3975059715978,-2.4674117570992813,-5.706410176058142,0.0,3253,0.45558667182922363,0.022080293270005703,0.02009383328094976,-322.24122141988124,0.0
62,2.9874539375305176,-301.05233997285364,61.05162849660207,-195.01186308941635,-578.0685843279061,0.0,0.8222077932986905,0.1,0.0072667598724365234,0.16597509384155273,0.050366044,0.12545164,-300.46298937172344,-2.6384534567633495,-5.9814869790326375,0.0,3285,0.533461332321167,0.04284517773384463,0.03860162475085105,-309.1484528348161,0.0
63,2.7507355213165283,-286.07670654365035,41.33507413360473,-221.71392768531845,-446.28696072294474,0.0,0.8469876941702901,0.1,0.06540441513061523,0.16309881210327148,0.049675353,0.11731167,-299.0243610889162,-2.496146597471503,-5.682196004326447,0.0,3227,0.49585461616516113,0.022663492720071187,0.018225992190538467,-309.0125730871683,0.0
64,2.677030086517334,-287.3157407118056,41.34064449816925,-211.1871623185883,-428.93433071767146,0.0,0.7370738449522831,0.1,0.008927583694458008,0.15781617164611816,0.049462203,0.14954379,-297.8534990512051,-2.531371687799703,-5.707675106754529,0.0,3186,0.44831085205078125,0.021281810970341833,0.01914984871103867,-321.17660565153926,0.0
65,2.748643636703491,-287.4007240908552,42.12693593470566,-214.52981235332342,-455.2560965543022,0.0,0.7261217586937517,0.1,0.007209062576293945,0.22479891777038574,0.050132293,0.3014337,-296.8082215551702,-2.55069247248483,-5.7098801567721535,0.0,3198,0.47754430770874023,0.020429547459736814,0.017980489716155602,-314.33066830843075,0.0
66,2.7469770908355713,-289.55082136595985,36.21244597576882,-203.66963146884063,-421.26309651227706,0.0,0.8686140106532959,0.1,0.007109880447387695,0.15920305252075195,0.04935204,0.117771685,-296.08248153624913,-2.602275449251739,-5.752489171938361,0.0,3198,0.4490494728088379,0.014071510257172022,0.01271167191698866,-322.2737167800992,0.0
67,2.694810628890991,-283.97499187744694,43.599070721073566,-210.27950288002575,-479.5798254451948,1.0416666666666667,0.7282391754237789,0.1,0.07285809516906738,0.1635913848876953,0.05073702,0.11113842,-294.8717325703689,-2.4425760940770633,-5.640775949645302,1.0416666666666667,3162,0.48079872131347656,0.022224379644707387,0.02051952741870583,-312.98125165717244,0.0
68,2.827101230621338,-289.8829043885427,42.53738888412549,-209.70014421334267,-458.0892977966627,0.0,0.7466760485347501,0.1,0.03230118751525879,0.2361447811126709,0.050077453,0.14850184,-294.3728497521863,-2.590951440416202,-5.7601586352993985,0.0,3224,0.5088746547698975,0.022510501178548102,0.020254116887457426,-320.0153629181408,0.0
69,2.6764845848083496,-285.4244087808773,33.91974506009545,-222.15480800515618,-390.70769581141786,1.0416666666666667,0.8194840004177445,0.1,0.007040977478027344,0.15687322616577148,0.049088173,0.12169396,-293.4780056550554,-2.584045768349067,-5.669623860637794,1.0416666666666667,3203,0.46086645126342773,0.014253757976881198,0.012243072797633887,-312.36129768511125,0.0
70,2.688628911972046,-286.3483779431072,44.08301272702492,-222.61624577728713,-579.1467967014345,0.0,0.8031519995617113,0.1,0.007427692413330078,0.15931344032287598,0.050416194,0.10196532,-292.76504288386064,-2.5884781375792416,-5.688277307545324,0.0,3155,0.4543159008026123,0.025185493660646027,0.0223436817685104,-320.392871271163,0.0
71,2.847055435180664,-282.9115656453576,35.70531552075817,-202.40512606149318,-476.05445311515956,0.0,0.8255447939433997,0.1,0.006646633148193359,0.15528535842895508,0.050675273,0.116924316,-291.77969516001036,-2.5827054337607653,-5.619545286642871,0.0,3163,0.44855260848999023,0.017571526634350923,0.016024036754158998,-324.48595770287966,0.0
72,2.7666890621185303,-273.1713206488808,29.929180024740138,-193.19434414983468,-339.01419647490985,0.0,0.7634201033701997,0.1,0.006638526916503906,0.1521618366241455,0.0499246,0.13358462,-289.9188577088974,-2.473044858173166,-5.42441235792328,0.0,3103,0.4344673156738281,0.011049457888387343,0.008740531943519736,-318.1339942562662,0.0
73,2.931575059890747,-282.89405469175813,43.876592043735364,-189.9010334696744,-420.605161178736,0.0,0.7714496666556596,0.1,0.007169008255004883,0.1518566608428955,0.050443817,0.13117088,-289.2163774071835,-2.6177717265051945,-5.619708582114709,0.0,3140,0.43692636489868164,0.022752161664735693,0.018043423225104677,-308.78525060018376,0.0
74,2.6772358417510986,-274.28472195997193,33.89444209415876,-203.54759443091655,-403.5910319431841,0.0,0.8137223123036421,0.1,0.006663084030151367,0.15090441703796387,0.048219934,0.11709298,-287.72321186246234,-2.5257714128022655,-5.448801032445233,0.0,3086,0.4267923831939697,0.01701097667453965,0.013801253406146394,-312.58501720832396,0.0
75,2.6687967777252197,-274.7195276521402,35.88004730420009,-205.93949513132245,-423.5327568350015,0.0,0.7708681586757883,0.1,0.045469045639038086,0.18038082122802734,0.050313663,0.11699722,-286.42284344143013,-2.4922401296370826,-5.456550271947516,0.0,3110,0.495347261428833,0.016448183705860396,0.014413672507496188,-312.20869697494135,0.0
76,2.6768195629119873,-276.12747459322287,36.78248477600892,-211.8326793634651,-436.4155143851738,0.0,0.8240261989590146,0.1,0.007462739944458008,0.16214323043823242,0.04956156,0.11258406,-285.39330655660945,-2.485200943632854,-5.484383755732824,0.0,3100,0.4375033378601074,0.016774109536056306,0.014698210321687619,-316.44673434637264,0.0
77,2.6643619537353516,-279.3646099278372,46.23529584289458,-211.13665132226416,-489.30519468684975,0.0,0.785574958515701,0.1,0.006737709045410156,0.15383577346801758,0.05040877,0.15566994,-284.79043689373225,-2.6291693731340486,-5.5475797719494855,0.0,3093,0.4379887580871582,0.02167478813372315,0.021212195591965875,-306.36528974605505,0.0
78,2.6485636234283447,-273.61031728261986,31.38735723990475,-208.01355462307026,-353.49547910898883,0.0,0.812074569164208,0.1,0.030835390090942383,0.1861882209777832,0.049951307,0.14471705,-283.672424932621,-2.5715388695942356,-5.434422016820918,0.0,3083,0.5083603858947754,0.015712559676076338,0.011930019423405202,-306.8658555719139,0.0
79,2.6406900882720947,-272.4212228374053,32.69534751398479,-205.08414222405813,-361.86613286335546,1.0416666666666667,0.8379992396213528,0.1,0.006894826889038086,0.21852326393127441,0.05020246,0.10880578,-282.54730472309944,-2.4421732951758575,-5.409524418567085,1.0416666666666667,3105,0.5036587715148926,0.014120917717245508,0.013173371004987583,-317.9359082633815,0.0
80,2.5701825618743896,-268.9384987945636,26.954656641832283,-208.73892147287495,-364.29414234905033,0.0,0.803500085755814,0.1,0.009821414947509766,0.19006729125976562,0.049191494,0.12020084,-281.1864241302459,-2.5615997618437114,-5.3403579105610435,0.0,3006,0.41971611976623535,0.009941155631868894,0.00902608852135671,-318.8541928247085,0.0
81,2.6852505207061768,-277.59326813706724,37.555975719524405,-203.52905895668326,-465.23574683249404,0.0,0.814785715764794,0.1,0.00743865966796875,0.1542983055114746,0.050069273,0.115731776,-280.827108530928,-2.5625491082575347,-5.513529001282311,0.0,3089,0.48070335388183594,0.020624608724675444,0.01844015445930743,-312.2605064911171,0.0
82,2.570359706878662,-272.36748324259844,37.455209369923985,-187.23282845670727,-485.24392047262455,0.0,0.6919066496340955,0.1,0.06453824043273926,1.6303133964538574,0.049210325,0.117343985,-279.98114600209504,-2.5095017144868925,-5.409580029765668,0.0,3029,0.4172031879425049,0.019438248442175093,0.017256974578059213,-331.5520660540512,0.0
83,2.539252281188965,-270.20028762190503,31.08220791742216,-209.27643016418926,-374.53079545000406,0.0,0.7475500628163254,0.1,0.04909372329711914,0.15214014053344727,0.050258707,0.13988242,-279.00306016407603,-2.6158963588441977,-5.365114914520597,0.0,2987,0.4094364643096924,0.013765181252609992,0.012222623754307105,-312.0566627909283,0.0
84,2.782709836959839,-272.92450789565305,36.646039709658375,-205.25620560076624,-398.3352754567918,0.0,0.8236395214027502,0.1,0.007187366485595703,0.16150426864624023,0.049925372,0.13604984,-278.39520493723376,-2.528420397020408,-5.4193803861415,0.0,3054,0.4259474277496338,0.017100937361726513,0.014558067886259468,-309.5198904660168,0.0
85,2.8030953407287598,-263.1990845382547,30.714654458003032,-207.08082851830812,-381.5858433839422,0.0,0.8332918760157989,0.1,0.0070917606353759766,0.15613961219787598,0.04984457,0.1189377,-276.8755928973359,-2.4505039206184094,-5.227045868617334,0.0,2987,0.4244844913482666,0.014438610568242862,0.011095140121155067,-308.9641835214901,0.0
86,2.612852096557617,-272.7741214278151,34.160269374508324,-199.37178134293057,-387.3403373004544,0.0,0.8276716184086191,0.1,0.005319118499755859,0.186598539352417,0.04969413,0.12749855,-276.4654457503838,-2.5754302394246618,-5.417117783933381,0.0,2988,0.347653865814209,0.01427425767860213,0.011797676497729287,-307.1428589599521,0.0
87,2.5354385375976562,-267.39548646262733,32.63698130948159,-193.94258046319365,-417.76464337754817,0.0,0.7609887603598791,0.1,0.007169246673583984,0.3134765625,0.049962517,0.113336846,-275.5584498216082,-2.5386682720248364,-5.309778061043801,0.0,2958,0.49132847785949707,0.01515191382603361,0.013078551006076638,-301.87561238922433,0.0
88,2.6086089611053467,-270.17154003548137,47.336919098448355,-205.04509536216887,-533.994158286336,2.0833333333333335,0.7953207645342656,0.1,0.006590366363525391,0.15491223335266113,0.049274392,0.108426504,-275.0197588429955,-2.4758699190084474,-5.3648531230721135,2.0833333333333335,3016,0.42011427879333496,0.03866982860553738,0.03403768989727392,-308.6894539501375,0.0
89,2.5309183597564697,-271.1340287346777,28.185085496221117,-205.62016613911527,-341.01909774632287,0.0,0.7029876607900523,0.1,0.0067217350006103516,0.1533336639404297,0.049805596,0.16848682,-274.6311858321637,-2.5846303528788575,-5.381815122259418,0.0,2955,0.4106161594390869,0.017985209553791362,0.010455630774631268,-304.9824498958669,0.0
90,2.4798583984375,-261.404790137781,28.871116922275515,-206.82923136120252,-361.87913119213454,0.0,0.7518948043559449,0.1,0.006927967071533203,0.15537047386169434,0.050095838,0.24862848,-273.30854626272543,-2.455710639808071,-5.190556573535158,0.0,2894,0.4011378288269043,0.01242125760992729,0.010871050371697773,-306.08259391227216,0.0
91,2.5875563621520996,-267.01049855200097,31.70987967182037,-200.3026482906086,-430.25472349302515,0.0,0.817826387395435,0.1,0.0068743228912353516,0.15456366539001465,0.050751302,0.11952898,-272.678741491653,-2.5211192999510277,-5.302517537625808,0.0,2941,0.40099644660949707,0.017022651691728577,0.013800061720292845,-293.3306657226612,0.0
92,2.592695713043213,-266.43308336993414,39.3437795285628,-197.94560717441377,-502.04575892303444,0.0,0.7696051658513879,0.1,0.04624772071838379,0.15950703620910645,0.049762826,0.11326172,-272.0541756794811,-2.4913822176601057,-5.290420043332303,0.0,2938,0.46338844299316406,0.023109902822397208,0.02027437632583145,-294.291541791109,0.0
93,2.5641815662384033,-264.3372785006018,38.92551799600725,-206.5708478417272,-470.83562085062243,0.0,0.766790286729882,0.1,0.006546735763549805,0.14972853660583496,0.05010117,0.1330069,-271.2824859615932,-2.473623191064632,-5.248123559686506,0.0,2898,0.40309762954711914,0.020172810967266083,0.016206207562578092,-297.4238118383637,0.0
94,2.496685743331909,-258.88482842339425,29.559130363062327,-206.01155031800025,-348.9836535626868,0.0,0.8008796301131531,0.1,0.006703615188598633,0.15300202369689941,0.04903101,0.13439414,-270.0427202077733,-2.45865341417125,-5.139368705289608,0.0,2908,0.4047222137451172,0.013016485560028698,0.010683294140369488,-287.0264264474048,0.0
95,2.5701868534088135,-262.624354189475,26.854261373320163,-211.68552159925622,-359.23496270353513,0.0,0.7929067091514226,0.1,0.006856441497802734,0.15269851684570312,0.04868287,0.12934397,-269.30088360594345,-2.4664801230316566,-5.213865156081417,0.0,2918,0.4043920040130615,0.009651445366770517,0.008684232785353234,-278.3649817685248,0.0
96,2.6646153926849365,-265.5214622729846,47.34689999764916,-203.71384165610067,-507.8311883897836,0.0,0.7045047591372962,0.1,0.017179489135742188,0.15300798416137695,0.049811855,0.10923783,-268.92294147264755,-2.4659268401886156,-5.2725771354713835,0.0,2879,0.39378857612609863,0.03176269186278493,0.027588015279470815,-288.7639654945116,0.0
97,2.7839722633361816,-263.3762845986011,29.817524361373927,-206.67112301249193,-409.4380197493329,0.0,0.8120450045416324,0.1,0.006714820861816406,0.15093302726745605,0.04987785,0.13459839,-268.36827578524293,-2.5542657719388893,-5.229232582126111,0.0,2918,0.40446901321411133,0.014552042876982531,0.011480699687676907,-286.1638891894376,0.0
98,2.5258119106292725,-267.09746193275515,35.40542745606194,-199.79751615218356,-461.2784703086602,0.0,0.7855154026863216,0.1,0.006493091583251953,0.14873743057250977,0.04954998,0.13228962,-268.24119439999413,-2.6249435320214154,-5.303277648348801,0.0,2918,0.39934873580932617,0.019015540240046383,0.01773099710396578,-282.9165937004965,0.0
99,2.5371339321136475,-261.5696664764039,36.55683915387814,-197.69132622680806,-428.68776239234154,0.0,0.7140841762600845,0.1,0.015382766723632812,0.23157668113708496,0.05025394,0.1579102,-267.5740416076351,-2.446578195839683,-5.193265417877388,0.0,2909,0.4789605140686035,0.016577446293891393,0.014990960555066248,-283.7138624272979,0.0
100,2.50136661529541,-258.9151553268495,27.44856653612069,-188.7676258748258,-346.22010658599186,0.0,0.7586352105837295,0.1,0.0065419673919677734,0.15093660354614258,0.0496899,0.12111493,-266.70815297955653,-2.5171078106119893,-5.139741645229226,0.0,2871,0.47418212890625,0.009479559705548627,0.007933614006065848,-281.4171060231098,0.0
101,2.494662284851074,-266.36155145589487,49.366773870507764,-194.53796178642375,-515.2071330639408,0.0,0.7621834118985321,0.1,0.0070035457611083984,0.15810179710388184,0.049425755,0.11842986,-266.6734928271904,-2.52949988158395,-5.289439892942557,0.0,2905,0.47923851013183594,0.02917775243140042,0.024845980523161802,-294.6279435001327,0.0
102,2.5279223918914795,-264.5993073678199,36.22396160253838,-198.19150813246696,-489.82692817290257,0.0,0.7754928033392808,0.1,0.06794548034667969,0.20882487297058105,0.04858536,0.11447212,-266.4660742812533,-2.6069454441975957,-5.2523865643132455,0.0,2896,0.48455047607421875,0.01975726824126501,0.017130831357003894,-277.6053891147947,0.0
103,2.4678940773010254,-256.010284708833,29.418595940678085,-207.64171112828848,-379.30544779480107,0.0,0.7972423367286745,0.1,0.05182194709777832,0.1516871452331543,0.048506852,0.11788526,-265.4204953240113,-2.493861841199811,-5.082543000470152,0.0,2816,0.4666430950164795,0.013519946250944806,0.01209291501565731,-289.82096815054695,0.0
104,2.50462007522583,-258.8610493132034,33.519971424544615,-203.94774790117745,-377.4433938055232,0.0,0.6914129511164341,0.1,0.007123231887817383,0.15940260887145996,0.049287364,0.12468926,-264.7645507229305,-2.5436954728949224,-5.138563811426091,0.0,2852,0.4019923210144043,0.01526169401245169,0.012690962421087451,-290.24906459074356,0.0
105,2.400745391845703,-251.2898684113893,23.332124950989957,-197.9226644178079,-306.6537748884136,0.0,0.8004608318405753,0.1,0.0067729949951171875,0.14713788032531738,0.04934828,0.13393542,-263.4170824917764,-2.4415087619888216,-4.98828427777898,0.0,2790,0.39346909523010254,0.007083845754918593,0.006130296830563227,-283.90959156558404,0.0
106,2.4020676612854004,-251.2693447214148,33.926531433702976,-193.6755738643021,-426.55158874321415,1.0416666666666667,0.7897385605234274,0.1,0.007176637649536133,0.14986157417297363,0.05016752,0.116916396,-262.20230871474024,-2.396140109153936,-4.987500012103678,1.0416666666666667,2747,0.38600826263427734,0.017853172220439185,0.015888521969355623,-293.0273281886725,0.0
107,2.5608108043670654,-252.46330951050913,36.76979479992989,-187.0802126566456,-488.47691373648297,0.0,0.7536949656812675,0.1,0.0067996978759765625,0.15380311012268066,0.050073206,0.18844877,-261.22840879431715,-2.4653517033773436,-5.011608676671082,0.0,2768,0.39517974853515625,0.0219358481215112,0.019608746655543848,-282.9095896488767,0.0
108,2.6162161827087402,-252.7525466048734,36.71281523443068,-198.28947445722991,-511.6790266124282,0.0,0.5968836741760429,0.1,0.0066814422607421875,0.14873337745666504,0.049670137,0.17213051,-260.38082257537275,-2.422671374839988,-5.017844160232175,0.0,2779,0.3906681537628174,0.024030610440959926,0.017772972802542468,-286.6011307950207,0.0
109,2.6530964374542236,-251.8549583521235,25.74775097279426,-191.83482399316063,-343.9032921730893,0.0,0.713581567683905,0.1,0.0066106319427490234,0.14510440826416016,0.0495301,0.23488615,-259.5282361530478,-2.485151973875846,-4.998857506939896,0.0,2761,0.3795053958892822,0.011603609619602669,0.008740583586573229,-281.25940575999766,0.0
110,2.408501625061035,-248.72014384205525,22.91049148169798,-201.71445380907727,-332.2014589861335,0.0,0.776067504831937,0.1,0.006575822830200195,0.3327662944793701,0.05001544,0.1278334,-258.4474269219486,-2.4040577615884664,-4.937387598296581,0.0,2721,0.3846621513366699,0.008666294630684482,0.007960247486277548,-275.9547841001157,0.0
111,2.359574317932129,-244.309474883861,29.786268800344356,-188.22159968803436,-362.81186644439197,0.0,0.6838496575417415,0.1,0.004980564117431641,0.14008498191833496,0.04723394,0.23952198,-257.0336317181399,-2.394489559878865,-4.847296475351389,0.0,2703,0.37637877464294434,0.011519444143695533,0.010552822475360083,-270.5359835981661,0.0
112,2.39477801322937,-248.75550676350437,20.19872398168653,-211.80048968519372,-311.3068925099917,0.0,0.7273743668372679,0.1,0.006745100021362305,0.1456747055053711,0.0498627,0.18852966,-256.2058192226763,-2.4841367447025084,-4.937464737644479,0.0,2757,0.38773584365844727,0.008486857728677731,0.006881378341127137,-269.88329027282424,0.0
113,2.3443171977996826,-247.87076026968376,24.533474248379274,-184.66206902268888,-327.92581355481025,0.0,0.7254228342365352,0.1,0.0067980289459228516,0.31692075729370117,0.049766354,0.16295137,-255.37231332737707,-2.4110360247121956,-4.92000661422709,0.0,2706,0.422015905380249,0.008885826920932613,0.00798889288613234,-271.6960135207706,0.0
114,2.4014909267425537,-250.41282403734226,28.348777915440255,-195.62335376888868,-355.83886012917964,0.0,0.6909834714736143,0.1,0.030280351638793945,0.21665215492248535,0.05058833,0.11974202,-254.8763643983736,-2.4467037212076694,-4.969656710825336,0.0,2754,0.4211561679840088,0.012615129222571193,0.01124413101333015,-274.4650303222996,0.0
115,2.4002625942230225,-252.88470682829143,30.260417193502683,-188.61348991257432,-421.26562556864934,0.0,0.7443210826715444,0.1,0.007692813873291016,0.15096712112426758,0.05014501,0.12230062,-254.67719864136538,-2.5171598833954723,-5.020220036383775,0.0,2735,0.36574769020080566,0.015751681597700646,0.013701841133948105,-273.0426068855994,0.0
116,2.3930652141571045,-245.91790344377537,30.643975483892465,-188.66793814718912,-351.9042612488402,0.0,0.7175191992034263,0.1,0.006499290466308594,0.14233112335205078,0.049489625,0.50608397,-253.80126912160637,-2.3856190857718325,-4.880832475904415,0.0,2709,0.3644425868988037,0.01295969021713199,0.01089607850412536,-286.42117770045826,0.0
117,2.3887767791748047,-245.9417983901666,29.373158307579526,-191.3832259931143,-377.72371374584714,1.0416666666666667,0.7566415033288414,0.1,0.006966352462768555,0.1501784324645996,0.04912168,0.14245598,-253.0153220484624,-2.4097518250858996,-4.880672520300829,1.0416666666666667,2713,0.3794400691986084,0.012280480856519765,0.011506365391556991,-274.58534454960505,0.0
118,2.3668599128723145,-247.76642979986863,29.554696990578957,-196.60881049633934,-427.7692164018528,0.0,0.7943636804218501,0.1,0.007157325744628906,0.1745591163635254,0.04921513,0.114789434,-252.49043282360302,-2.458391574411625,-4.916984570149501,0.0,2666,0.3631279468536377,0.015165953289022477,0.01387684766525809,-265.4242410908437,0.0
119,2.323657751083374,-241.81611169989176,24.065689095897948,-193.53817070982313,-327.39374370444693,0.0,0.7508486825232659,0.1,0.006429910659790039,0.14296197891235352,0.050227165,0.16103731,-251.42300071123188,-2.344014841507469,-4.798035311340357,0.0,2634,0.36182284355163574,0.009567520233991048,0.008685021874431412,-265.8559567138578,0.0
120,2.334508180618286,-241.41703120236775,26.03409894399123,-192.46068069457897,-354.7772123497057,0.0,0.7388874915019686,0.1,0.006417512893676758,0.14528179168701172,0.0499192,0.20330197,-250.42240376034547,-2.3166377907268636,-4.790513062797764,0.0,2665,0.3661611080169678,0.009882454878977364,0.009061636546195434,-271.5342901664298,0.0
121,2.3819305896759033,-243.12018735033794,39.0025790432413,-191.0721683002593,-555.3297835502495,0.0,0.7858973150115255,0.1,0.0065343379974365234,0.14425253868103027,0.05062348,0.10676195,-249.69218211934472,-2.356101660780944,-4.824881120895285,0.0,2648,0.3586161136627197,0.025877808748481,0.023032711302789076,-268.587971963824,0.0
122,2.477773666381836,-246.29843506381403,46.34132940267334,-189.9366463060214,-574.8909188182969,0.0,0.6388578498856334,0.1,0.007018089294433594,0.14709806442260742,0.049092706,0.16407433,-249.35280741379165,-2.3857664006777166,-4.889314793091429,0.0,2686,0.3551652431488037,0.028892923976143747,0.02412040713406629,-259.0514312825278,0.0
123,2.5988638401031494,-247.70522955006948,41.972668400102975,-199.19356612703965,-587.7808457419849,0.0,0.6990958771737341,0.1,0.006416797637939453,0.1443796157836914,0.050346967,0.24040757,-249.18804962741945,-2.435086543724759,-4.917248987972134,0.0,2674,0.3600282669067383,0.02594388946333422,0.022514269123847155,-267.51545639066177,0.0
124,2.354109525680542,-241.67260335076926,22.211290385152157,-192.67982316543572,-330.9482649198103,0.0,0.8431116394618056,0.1,0.00825047492980957,0.19778704643249512,0.04921503,0.11005248,-248.43650499975442,-2.414068665002271,-4.7962765773019695,0.0,2634,0.4136617183685303,0.009067272596755377,0.006508216400829852,-266.8354281743686,0.0
125,2.4044535160064697,-247.26985365420418,43.901851874621116,-201.88171088588064,-582.1232110876267,0.0,0.6501174746426118,0.1,0.05395102500915527,0.998110294342041,0.050739136,0.11318606,-248.3198398651994,-2.3974296048174035,-4.907942559691733,0.0,2701,0.370025634765625,0.02623133117703072,0.021926367425404457,-266.87182215227983,0.0
126,2.294163227081299,-239.24103315897932,44.644213297342596,-189.04165890930636,-639.4130163592869,0.0,0.5881793991645454,0.1,0.0063707828521728516,0.1436009407043457,0.050512947,0.093436785,-247.4119591945774,-2.4287989459097137,-4.7472461604234795,0.0,2588,0.35193705558776855,0.039319853673196015,0.031623287269457755,-269.2602938939443,0.0
127,2.3120834827423096,-234.21944481710398,22.776264406815656,-191.44425548965725,-300.79132891532396,0.0,0.7478878123221975,0.1,0.006507396697998047,0.14564228057861328,0.049676146,0.1616387,-246.09270775683007,-2.269959643076802,-4.646248012593628,0.0,2608,0.34975314140319824,0.011320233133458852,0.00885964991591353,-262.2807020853112,0.0
128,2.3493363857269287,-240.08364882355417,24.54240184182731,-190.79876471782705,-379.31729123688774,0.0,0.7101749806382358,0.1,0.006516695022583008,0.1444697380065918,0.04914855,0.3304256,-245.49180186350247,-2.382030566199722,-4.763640463731346,0.0,2629,0.3583807945251465,0.012879835582950224,0.011163346851478635,-271.0074706265676,0.0
129,2.36960768699646,-243.37158615411394,24.158906078941772,-194.0998908266532,-392.95178277881837,0.0,0.7789275883875978,0.1,0.006560087203979492,0.14509963989257812,0.050296232,0.11702311,-245.27978029256363,-2.393763243977524,-4.830036828536944,0.0,2642,0.3762240409851074,0.010981355995806978,0.009645367431573045,-256.6942159903952,0.0
130,2.292414903640747,-239.80895406085733,19.47142989662568,-192.33258313383533,-294.28584891330746,0.0,0.7559487138891388,0.1,0.0062639713287353516,0.14337778091430664,0.050401907,0.1312838,-244.73269766939302,-2.3826473005362616,-4.758432695874249,0.0,2591,0.3535797595977783,0.007393269448352001,0.005257120666719308,-248.62200844808717,0.0
131,2.316071033477783,-244.2962353446231,23.48159364498551,-203.97482215001457,-333.0959694994571,0.0,0.7234064976544397,0.1,0.0065572261810302734,0.14307951927185059,0.04991734,0.20738912,-244.68905143691603,-2.427056823781349,-4.848967083060451,0.0,2639,0.35858726501464844,0.008363638925929472,0.006873812723235232,-247.7334708999548,0.0
132,2.355469226837158,-240.33196530940594,23.701963820457703,-189.21619668691088,-325.54279287017226,0.0,0.7292997094588819,0.1,0.0068895816802978516,0.1495194435119629,0.0495641,0.1137494,-244.25334282416503,-2.427639417987154,-4.7688588318288785,0.0,2645,0.4013478755950928,0.009065417907531645,0.008241064176682484,-259.6155537500182,0.0
133,2.316539764404297,-238.85735180742404,21.15907871694643,-193.95981752423882,-306.52826175052206,0.0,0.8084103238759212,0.1,0.06694602966308594,1.7502970695495605,0.049567517,0.12593727,-243.71374372249096,-2.382915249140261,-4.739484620958139,0.0,2623,0.4027707576751709,0.007126499054064671,0.006376711610256934,-250.15975440030223,0.0
134,2.284545660018921,-236.82512361186528,19.065220293782772,-191.08373391748518,-330.59531138296063,1.0416666666666667,0.7833965632928458,0.1,0.006876468658447266,0.14743256568908691,0.049778916,0.12897676,-243.0248817114284,-2.2991682405024925,-4.699294642518663,1.0416666666666667,2594,0.3542768955230713,0.0070167888366266685,0.006673745234348263,-258.0327385758816,0.0
135,2.2911789417266846,-234.30237573943214,19.875302577754617,-197.25074255582356,-311.5157352843856,0.0,0.7733671756239331,0.1,0.006478309631347656,0.14080238342285156,0.04905539,0.1246136,-242.15263111422877,-2.355991469735302,-4.648279259958728,0.0,2557,0.3424808979034424,0.008505856851928867,0.006689780257865882,-249.1047164705443,0.0
136,2.296581506729126,-240.34645615655836,22.73995307095117,-200.1143974962149,-333.8625404276386,1.0416666666666667,0.7286239689944465,0.1,0.005097866058349609,0.11196255683898926,0.049318936,0.12108051,-241.97201361846174,-2.4523867467760443,-4.768977979737249,1.0416666666666667,2588,0.28154730796813965,0.007304097395203908,0.0062050589672693595,-256.3320409564459,0.0
137,2.5727663040161133,-237.4281032863421,22.994060747331382,-181.81342173010881,-307.4842683906813,0.0,0.7994093766356908,0.1,0.006487607955932617,0.14545083045959473,0.04977201,0.12399016,-241.5176225852498,-2.375268413979542,-4.711061669595002,0.0,2593,0.3563694953918457,0.008438379203517326,0.005886679705799031,-254.29036312456074,0.0
138,2.3378829956054688,-235.87425523457924,19.458619400702354,-198.73888589801186,-306.13560478981833,0.0,0.7499589124932985,0.1,0.006564617156982422,0.14712309837341309,0.049642645,0.12570833,-240.95328585018274,-2.334910809048146,-4.6795798924879195,0.0,2573,0.3668649196624756,0.007921085408930184,0.006782129220902651,-246.06053815703046,0.0
139,2.2739853858947754,-235.6863791879131,26.236537586190924,-197.62154386485867,-398.20018828099126,0.0,0.7021086829191328,0.1,0.0064580440521240234,0.14339303970336914,0.049542256,0.11939692,-240.42659518395578,-2.323783977144135,-4.676658984449479,0.0,2595,0.3521711826324463,0.010297087920130428,0.009294759819240555,-241.72828644553573,0.0
140,2.2995858192443848,-236.6782333151974,25.439159117182268,-194.33941753562587,-343.03391288884376,0.0,0.7756478236127841,0.1,0.006459474563598633,0.1431276798248291,0.050375212,0.121339776,-240.05175899707996,-2.3805260762871465,-4.695503527500491,0.0,2570,0.3451352119445801,0.008939842819892145,0.007473718199285423,-249.13270337055255,0.0
141,2.262751579284668,-239.85893654686083,35.13960374416819,-195.6573469107335,-505.7186692068327,0.0,0.7062799112768247,0.1,0.006805419921875,0.1501462459564209,0.049269475,0.1069635,-240.03247675205807,-2.422995086565466,-4.7600036209247705,0.0,2586,0.37720489501953125,0.016877410077242753,0.015463654193321396,-247.10834191217077,0.0
142,2.284327507019043,-233.87132283067095,18.995703392936292,-186.84838676750846,-290.1779666331204,0.0,0.7741663238636045,0.1,0.0049588680267333984,0.132920503616333,0.049865495,0.12775443,-239.41636135991936,-2.3017565530863546,-4.639822453655803,0.0,2533,0.33910083770751953,0.007528362631077507,0.0062245486534480985,-244.6807044401882,0.0
143,2.3180198669433594,-234.07630824130322,24.889591557931098,-182.65631287524914,-345.34234801850755,1.0416666666666667,0.728479275899585,0.1,0.006592988967895508,0.14929747581481934,0.04913274,0.16258033,-238.88235604805777,-2.307307901723102,-4.64352300218669,1.0416666666666667,2579,0.37691617012023926,0.010597367086460804,0.010057767445349475,-248.19536896984556,0.0
144,2.2813217639923096,-235.0710389023251,21.86952263940199,-194.41483402862238,-291.2464550285076,0.0,0.7452054662225963,0.1,0.0062007904052734375,0.13917827606201172,0.050450344,0.14121404,-238.50122433348452,-2.330881241555884,-4.664066397233229,0.0,2579,0.3464939594268799,0.00791259062320908,0.006884010640713561,-243.64538779752286,0.0
145,2.249067544937134,-234.2643884486995,17.145259862816737,-192.57308271005067,-289.9053766058826,0.0,0.7848293036866588,0.1,0.0069103240966796875,0.1426684856414795,0.05046458,0.14156426,-238.07754074500602,-2.312817702585818,-4.648080244148319,0.0,2541,0.34147047996520996,0.00546929722752052,0.004921911481834701,-245.83026155250826,0.0
146,2.3272945880889893,-232.1806834209173,19.90404149271855,-196.37957428861785,-312.08215292439206,1.0416666666666667,0.7711794378774786,0.1,0.0062103271484375,0.22047090530395508,0.049704608,0.12347533,-237.48785501259715,-2.2311468100303213,-4.606766011464164,1.0416666666666667,2582,0.3674921989440918,0.007403159473223166,0.006516354502637988,-244.7493258224109,0.0
147,2.2770702838897705,-231.3496817968556,19.310198092320917,-190.29148273883658,-308.42544758252046,0.0,0.7475480708169308,0.1,0.005057096481323242,0.22832155227661133,0.04965226,0.15900342,-236.874037691023,-2.332878185723114,-4.589718923561577,0.0,2528,0.28824496269226074,0.006991628723871194,0.006053290995949169,-248.8976755549881,0.0
148,2.2675063610076904,-232.9802359546807,17.984421958307752,-192.6331678845782,-277.42208480007605,0.0,0.7859227763538617,0.1,0.006407737731933594,0.19681978225708008,0.050136887,0.13227704,-236.48465751738877,-2.3788271467226125,-4.621293540972927,0.0,2523,0.3832409381866455,0.006371850962672013,0.005389667364295283,-251.68217362333445,0.0
149,2.3794190883636475,-236.66464289722822,25.552825063320235,-189.4835755357892,-373.21347364346735,0.0,0.8184145761262539,0.1,0.0066907405853271484,0.20369839668273926,0.05000981,0.11362283,-236.5026560553727,-2.30658899038557,-4.6963037178024365,0.0,2597,0.3755035400390625,0.010074646692702985,0.008118591623428097,-236.16312959837182,0.0
150,2.321859359741211,-231.85567393133996,19.66682174336202,-185.48822141467943,-286.59833296827037,0.0,0.7667736262522568,0.1,0.005045890808105469,0.13625192642211914,0.0488007,0.12557158,-236.03795784296943,-2.3156045627360453,-4.599896728097061,0.0,2571,0.34673309326171875,0.007897931311562913,0.006847029820856042,-240.8971041519393,0.0
151,2.558079481124878,-229.555135895395,20.459377931537226,-184.48865703557968,-281.3437084996932,1.0416666666666667,0.7805562728716847,0.1,0.006284952163696289,0.14554548263549805,0.049423963,0.13933833,-235.38967564821198,-2.2996266189318737,-4.55247574534443,1.0416666666666667,2535,0.3430154323577881,0.007279485859964391,0.006167747127993408,-244.12367689020923,0.0
152,2.2575700283050537,-233.17023285798282,17.092825173616067,-195.41977811085826,-282.30580403382237,0.0,0.7256377539412973,0.1,0.006626605987548828,0.14501595497131348,0.049656667,0.2023157,-235.16773136918906,-2.2657827436328635,-4.6259851535638346,0.0,2570,0.35039186477661133,0.004979319242596799,0.004431085781514332,-238.13447695072912,0.0
153,2.2759485244750977,-231.44774148289795,21.383901903257982,-184.92745141276382,-289.09952873137325,0.0,0.7790884479573701,0.1,0.006597995758056641,0.14254403114318848,0.049704563,0.14424814,-234.79573238055994,-2.3376818266178545,-4.590717229409877,0.0,2530,0.34351134300231934,0.007666707525533814,0.007189471435690578,-236.40130282243834,0.0
154,2.262063980102539,-231.57596477207483,18.468506329285415,-183.4505255580042,-289.7768167644801,1.0416666666666667,0.785512224829914,0.1,0.0064697265625,0.1477954387664795,0.04912173,0.12326534,-234.47375561971143,-2.3482059121132317,-4.594178383752177,1.0416666666666667,2484,0.3371257781982422,0.0056745271834359465,0.0047119871170332225,-239.42718286995964,0.0
155,2.2028238773345947,-228.4897947101807,19.935389115102044,-191.62293544300002,-298.59641675361365,0.0,0.7251418744555587,0.1,0.008150815963745117,0.15347671508789062,0.04987401,0.13632171,-233.87535952875834,-2.2936504668894155,-4.532452248599049,0.0,2485,0.33855319023132324,0.007772264670133749,0.007482513463745332,-235.81634339081253,0.0
156,2.2027649879455566,-229.67096825403212,24.28734829689276,-183.94381786146786,-357.45375818314005,0.0,0.7478861916267325,0.1,0.006861686706542969,0.15709638595581055,0.050346445,0.1241002,-233.45492040128573,-2.281431551784205,-4.555843539112146,0.0,2503,0.39311742782592773,0.008290404916689255,0.007328710622276972,-236.59003689429386,0.0
157,2.19099497795105,-224.99795937563113,17.91494312525342,-188.5534675693637,-279.2889071236687,0.0,0.7372750138259422,0.1,0.007393360137939453,0.43419575691223145,0.04987216,0.13682452,-232.60922429872028,-2.2772305694254036,-4.4629165650839475,0.0,2450,0.38227057456970215,0.006467661071867947,0.005156620238855739,-229.62654514319814,0.0
158,2.2909865379333496,-226.3605740444319,17.391664613233512,-180.38291407205722,-260.9543636793511,0.0,0.8004155915633223,0.1,0.007136821746826172,0.15424108505249023,0.0497235,0.12840472,-231.98435927329146,-2.305642220341418,-4.489820830239024,0.0,2443,0.3334531784057617,0.005448098035842386,0.004924524306335336,-233.5210870081278,0.0
159,2.2580759525299072,-224.7690029757555,21.064247650399132,-184.13893788186368,-308.1531209958616,0.0,0.75765508624038,0.1,0.006701231002807617,0.21352100372314453,0.049768675,0.12910774,-231.26282364353787,-2.215102938596843,-4.458582716719413,0.0,2490,0.38541507720947266,0.007025013043582901,0.006715149759633484,-224.98141000133887,0.0
160,2.235496759414673,-225.22074778942536,16.381828632643938,-194.8537183970661,-272.9812831746361,0.0,0.7686639048871305,0.1,0.0065610408782958984,0.21314573287963867,0.04987015,0.1350243,-230.65861605812663,-2.264168202212541,-4.467454886698781,0.0,2472,0.35327649116516113,0.006913572444637306,0.004710276880306445,-225.0917928251963,0.0
161,2.1766278743743896,-224.8330727683223,18.206971570047433,-187.8865766458106,-280.29324263993186,0.0,0.7153263228737808,0.1,0.00688624382019043,0.14904046058654785,0.049554497,0.15169205,-230.07606172914618,-2.2893656314206443,-4.460003677694025,0.0,2444,0.33712267875671387,0.007842738189923934,0.00629627710441648,-227.50525950652406,0.0
162,2.1901745796203613,-224.61518952302708,21.314467954099598,-184.29928428847495,-340.0688066330228,0.0,0.7893355236332487,0.1,0.00696253776550293,0.15053081512451172,0.050644793,0.12804909,-229.52997450853428,-2.2351031395378445,-4.4541503833506555,0.0,2432,0.3419520854949951,0.008736397210776195,0.007872022958201106,-226.64369796357926,0.0
163,2.2296228408813477,-226.52019500996994,20.841342850850808,-190.28820851687098,-331.8764449243359,0.0,0.7193722717297811,0.1,0.006921529769897461,0.21272063255310059,0.049754363,0.12654062,-229.22899655867786,-2.2488020541268323,-4.4926687495908055,0.0,2453,0.37349677085876465,0.009082428556315207,0.0070620443260003265,-225.99906723034917,0.0
164,2.2693066596984863,-227.3547579790248,19.94135333196592,-181.5436497931091,-295.9802263292519,2.0833333333333335,0.7778528106457334,0.1,0.006568193435668945,0.15477275848388672,0.049722962,0.12521544,-229.04157270071255,-2.30740561001793,-4.509664217023933,2.0833333333333335,2487,0.3471403121948242,0.006319823283061818,0.00609060107916583,-222.80904891700663,0.0
165,2.272171974182129,-230.0310887275326,19.47340491009182,-187.98577711217885,-305.9271581499586,0.0,0.714317548204757,0.1,0.006646156311035156,0.20061087608337402,0.04960457,0.12861083,-229.14052430339456,-2.3376127007301055,-4.563228488405934,0.0,2478,0.4779822826385498,0.006612969894586255,0.005821101738041519,-222.86360874969392,0.0
166,2.461668014526367,-224.6599051324358,23.5934355748177,-181.034874408172,-380.10035794948305,0.0,0.6565271135828421,0.1,0.030754804611206055,0.6233248710632324,0.050354365,0.12428756,-228.6924623862987,-2.2521895312423275,-4.455865218023489,0.0,2480,0.5224249362945557,0.012988205085613071,0.010581343044391322,-224.22145788670412,0.0
167,2.212088108062744,-227.14823002503783,17.558020385432314,-184.30211350109448,-286.46011436715344,0.0,0.7481129731932527,0.1,0.04170489311218262,0.3049023151397705,0.048905134,0.13083771,-228.5380391501726,-2.33343597217863,-4.50485757184294,0.0,2446,0.4401733875274658,0.00657443672488459,0.006035219820011938,-221.45365537574128,0.0
168,2.1991279125213623,-225.6575547960983,17.659209400960847,-182.08975821685033,-270.91085020991505,0.0,0.7357997197170738,0.1,0.011981725692749023,0.38213682174682617,0.049705558,0.13983457,-228.24999071476518,-2.339547561347853,-4.475488130751817,0.0,2424,0.5629394054412842,0.005095737634863079,0.004623994270451897,-224.00588506152263,0.0
169,2.184551477432251,-230.66790375034392,29.055207804076815,-193.43613938012174,-423.0290994812818,0.0,0.6406203147509033,0.1,0.007169485092163086,0.15360808372497559,0.048930045,0.11364058,-228.49178201832305,-2.370200286921016,-4.576312140733928,0.0,2456,0.33213162422180176,0.018000319210708944,0.013847928968476302,-221.29041234209086,0.0
170,2.260462999343872,-224.3640631612011,21.01697223294392,-187.67323198965335,-338.314431173498,0.0,0.6579513465910547,0.1,0.0063629150390625,0.1465284824371338,0.04909577,0.13051441,-228.07901013261085,-2.2801250881736013,-4.449994620454542,0.0,2476,0.3410298824310303,0.010227131491214018,0.008518723091062814,-224.9106496156477,0.0
171,2.228123426437378,-228.79367350777113,28.57157144272918,-180.4286387099355,-391.76826142245113,0.0,0.7293563036003675,0.1,0.006731986999511719,0.1489849090576172,0.048212264,0.13741887,-228.15047647012688,-2.3803570625718415,-4.53817314756106,0.0,2494,0.32641124725341797,0.013202744220406248,0.011610631930848238,-223.51282634558981,0.0
172,2.2040152549743652,-227.36312238923992,24.620141128361617,-182.69531151472378,-389.70902142557316,0.0,0.7684800973075351,0.1,0.0065691471099853516,0.14615511894226074,0.04834168,0.10803243,-228.0717410620382,-2.3548360627393756,-4.508942715693208,0.0,2469,0.3269209861755371,0.010146585300378373,0.008585692514308926,-222.08531828617186,0.0
173,2.163926601409912,-225.42333756478834,18.784582743608865,-190.26681175626277,-289.3198739736057,0.0,0.7688462190549049,0.1,0.006352901458740234,0.14415597915649414,0.050383173,0.13029307,-227.80690071231322,-2.3806645896733163,-4.4702770394739355,0.0,2412,0.32057619094848633,0.006677757030378661,0.005742515489338222,-221.41796743424112,0.0
174,2.256342649459839,-229.4392859006999,30.445918653771145,-172.26556259103293,-405.44453611094127,0.0,0.7251587501120627,0.1,0.0065724849700927734,0.1467909812927246,0.05041262,0.11479908,-227.9701392311519,-2.324760881920844,-4.550530987566694,0.0,2496,0.3385601043701172,0.011708199553923859,0.011501041179465378,-221.20107416766828,0.0
175,2.2058470249176025,-224.7116055593226,24.47896978968053,-181.07660189829974,-351.44367298928205,0.0,0.7335856859506948,0.1,0.005472898483276367,0.24351835250854492,0.049587164,0.13090394,-227.644285863969,-2.3048547876335017,-4.456479779916788,0.0,2446,0.2730591297149658,0.010808052638037953,0.009815915155173825,-222.36718794944161,0.0
176,2.224921464920044,-222.38915098081102,19.732889520014446,-179.10109346460993,-280.06012774670245,0.0,0.7689105304630692,0.1,0.006857872009277344,0.15242242813110352,0.049988173,0.12783134,-227.1187723756532,-2.2982317359035647,-4.410634123383563,0.0,2419,0.32361936569213867,0.005875417112110302,0.0047909614900875684,-218.62863748195656,0.0
177,2.166363000869751,-223.0190331923027,22.854403510118633,-183.65097171482438,-312.9851114576103,0.0,0.688952221607576,0.1,0.038733720779418945,0.2804865837097168,0.049976747,0.1431954,-226.70879845731815,-2.306375410674116,-4.422318882083851,0.0,2410,0.38455700874328613,0.00751056850917299,0.006495644610693656,-213.0140482434669,0.0
178,2.137542724609375,-220.26063307865806,18.437074931244524,-179.277557515186,-301.47471670333186,0.0,0.7682765543077741,0.1,0.00669550895690918,0.3064260482788086,0.050005015,0.12624335,-226.06398191945215,-2.3013095497546616,-4.367244046900887,0.0,2359,0.35255908966064453,0.008139031931404158,0.0067730630064555,-213.6741433258034,0.0
179,2.173617362976074,-221.61542571539908,17.629119224779767,-179.86228881694552,-274.2362242274893,0.0,0.7869595671714869,0.1,0.006558895111083984,0.15118002891540527,0.047942385,0.12149832,-225.61912629904685,-2.3417754492438054,-4.394706812541791,0.0,2419,0.33191776275634766,0.006897688513149903,0.006046066266280538,-216.11556722147907,0.0
180,2.368647813796997,-222.30158818367826,21.66276968900615,-169.0874889214605,-280.25348514517776,0.0,0.7259189202247627,0.1,0.006632089614868164,0.15039920806884766,0.049793623,0.14069727,-225.28737248751003,-2.302117887548203,-4.409511303537615,0.0,2447,0.341031551361084,0.006164834287526639,0.005729775134885646,-213.8596936311076,0.0
181,2.3531806468963623,-224.49414392904774,21.58375225407551,-181.626728139442,-353.717381259474,0.0,0.7211373220801881,0.1,0.006920576095581055,0.3771934509277344,0.04987078,0.11733379,-225.2080496316638,-2.319886765609224,-4.453091253652441,0.0,2437,0.38861870765686035,0.008647393175733566,0.007433718639312194,-216.0899581815516,0.0
182,2.4273810386657715,-219.77977805385171,18.452513651035172,-185.0910310176595,-266.4679332815742,0.0,0.6288244504842279,0.1,0.007002353668212891,0.15363478660583496,0.04971129,0.33681002,-224.6652224738826,-2.300473710464273,-4.357885574629568,0.0,2402,0.38427066802978516,0.00689313024625678,0.005629239151282308,-210.47958081052857,0.0
183,2.2187657356262207,-217.34836780652904,19.692729064659186,-170.41138409536865,-314.20927990209503,0.0,0.7648789538661308,0.1,0.005216836929321289,0.11533093452453613,0.049195223,0.12550631,-223.93353700714724,-2.204169179875653,-4.310591594353194,0.0,2406,0.2726166248321533,0.006709909233035065,0.006328200571096959,-212.0834285279906,0.0
184,2.2349801063537598,-223.66890001183367,24.450657541838595,-185.979721607665,-373.0557309000629,0.0,0.7134746030363314,0.1,0.0570826530456543,0.8995511531829834,0.04877786,0.12347819,-223.9070733076159,-2.241905401862748,-4.435482986223961,0.0,2462,0.4227328300476074,0.009767989479325166,0.007678844198592751,-211.8657089548435,0.0
185,2.185086250305176,-221.98337091728806,20.199912700879658,-181.18687151191844,-288.9512847380992,0.0,0.7622138625312856,0.1,0.00528407096862793,0.11840081214904785,0.04952584,0.12577643,-223.7147030685831,-2.2323572945549395,-4.402282400797817,0.0,2409,0.25412654876708984,0.007701653260021912,0.006709227560397433,-212.5706343679151,0.0
186,2.2462518215179443,-224.07153032893868,22.825414613442426,-183.2457430192365,-343.3753286884683,0.0,0.6368557456936047,0.1,0.028519868850708008,0.5574710369110107,0.050177455,0.12843339,-223.75038579461867,-2.3354986945781633,-4.443636603830719,0.0,2458,0.39621543884277344,0.01053375047502269,0.008525050972719996,-211.0992473300323,0.0
187,2.1365442276000977,-217.7647772503086,15.484762570124804,-183.5795499635446,-251.5465045072597,0.0,0.7797591994272804,0.1,0.007010459899902344,0.5895521640777588,0.050146136,0.12918113,-223.15182494018768,-2.259770431068429,-4.317616803002803,0.0,2397,0.3946092128753662,0.006328040812325666,0.004715352573001045,-211.30421330839152,0.0
188,2.208789587020874,-218.73691031166217,16.71706551862404,-174.13823598372772,-259.1629498606479,0.0,0.780910520786902,0.1,0.005125522613525391,0.44998598098754883,0.049834214,0.13734794,-222.71033347733515,-2.23816071848033,-4.337411026744039,0.0,2404,0.3544495105743408,0.005200482703159916,0.004858961398452458,-215.54938792754137,0.0
189,2.1646785736083984,-219.51383017608111,17.266091261735596,-175.17968743166918,-260.6409817340272,1.0416666666666667,0.7393762890563244,0.1,0.006466388702392578,0.14514589309692383,0.049911454,0.13030586,-222.39068314720976,-2.3814458753290375,-4.351927087624579,1.0416666666666667,2379,0.33372068405151367,0.005608019765181342,0.005089020894151481,-218.84917958474585,0.0
190,2.136476516723633,-218.31620727061843,19.545758121678382,-183.21085358755414,-310.0324532291594,0.0,0.7588787200625818,0.1,0.006417751312255859,0.14662456512451172,0.048626095,0.12941353,-221.98323555955062,-2.2740243804937212,-4.328755585006159,0.0,2370,0.3292562961578369,0.00725191464487156,0.005961328440902047,-219.15124944764835,0.0
191,2.199366331100464,-217.68705778140801,18.359320791713234,-185.88891875914257,-284.57130244021266,0.0,0.7605272051164429,0.1,0.0077724456787109375,0.14709043502807617,0.046770547,0.12586698,-221.55361778173636,-2.3187323056666607,-4.316235918004684,0.0,2328,0.36207008361816406,0.005675633033759329,0.00472445932720219,-217.08119127457698,0.0
192,2.167341470718384,-214.05882262401553,18.624923206230548,-173.208262864449,-270.03199781900037,0.0,0.7370020132578194,0.1,0.006608009338378906,0.2080821990966797,0.049676407,0.12642682,-220.80413826596427,-2.2334944262269762,-4.244512087249202,0.0,2332,0.34788012504577637,0.0063656468781247,0.005287000782495822,-213.88690634039224,0.0
193,2.1989474296569824,-217.5785505914556,17.73345086673348,-176.5380697123398,-256.52159999979796,0.0,0.7458917729127507,0.1,0.005117177963256836,0.1432206630706787,0.04871901,0.13103299,-220.4815794985134,-2.297906170286353,-4.313157163431394,0.0,2364,0.30613040924072266,0.004910865361154164,0.004363136707478963,-213.17226359881877,0.0
194,2.2127037048339844,-215.4313185815865,19.157673496921085,-177.599134588947,-281.83782311917184,0.0,0.7300593644790132,0.1,0.01351022720336914,0.49654269218444824,0.04824756,0.13255046,-219.97655340682073,-2.217526017819843,-4.271100518123061,0.0,2363,0.2302541732788086,0.005551092787154641,0.004875917661791457,-212.4604036252971,0.0
195,2.176924467086792,-216.8553368307539,21.136908829905767,-176.33357387476423,-342.9164220855163,0.0,0.6596042403437046,0.1,0.024644851684570312,0.22638773918151855,0.04930833,0.1252235,-219.66443174921406,-2.2976671812820695,-4.299389112527305,0.0,2346,0.34294986724853516,0.009784266210190047,0.00795079380899381,-212.80457557164388,0.0
196,2.163208246231079,-215.81464977602505,20.670467567566483,-178.302702504334,-317.51365767383913,0.0,0.7523898984706039,0.1,0.005281209945678711,0.1718459129333496,0.049857203,0.11872905,-219.27945355189516,-2.3041965650826257,-4.279245278489051,0.0,2370,0.242018461227417,0.0062506095089394295,0.005528114730081561,-212.81068792933485,0.0
197,2.3342134952545166,-218.78150525567813,25.739842645996077,-171.76268958023047,-402.3158368357435,0.0,0.6291180314721778,0.1,0.05886030197143555,0.4206244945526123,0.048149455,0.15494293,-219.22965872227346,-2.327405965016409,-4.338632727694379,0.0,2379,0.3153798580169678,0.013535471476311923,0.011943299399552812,-212.26121923337791,0.0
198,2.3090126514434814,-216.94908657517718,19.5214031078836,-168.83712780179303,-291.2223560024066,0.0,0.7056020244689545,0.1,0.006518840789794922,0.14133095741271973,0.049326286,0.12828329,-219.00160150756383,-2.372053240529908,-4.300460098810837,0.0,2319,0.2981138229370117,0.006591831565573395,0.005489427753675427,-212.94957915402298,0.0
199,2.3649823665618896,-211.94149840969467,17.350985794252974,-171.23604984775753,-254.82952273111923,0.0,0.7627310574631978,0.1,0.006400108337402344,0.2467339038848877,0.048430778,0.12239875,-218.2955911977769,-2.2510919206655586,-4.200758396551366,0.0,2301,0.32959747314453125,0.0055333929379183305,0.004727587764537991,-210.11644055216692,0.0
200,2.160407066345215,-215.10195840753045,17.80187328868613,-180.00237031027274,-262.93329210534574,0.0,0.7439009257751011,0.1,0.006615877151489258,0.14926767349243164,0.049079318,0.12494644,-217.97622791875227,-2.274310101890446,-4.26472064102278,0.0,2340,0.298616886138916,0.004664878007901618,0.004202286786061998,-209.55859799657173,0.0
201,2.1517181396484375,-216.78862861122252,19.885193310793206,-171.96449755586653,-327.7688907460247,0.0,0.656294704232581,0.1,0.006490945816040039,0.14926981925964355,0.047781494,0.11972242,-217.8574679879993,-2.3162468674784886,-4.298291551391421,0.0,2339,0.3139684200286865,0.009200626248786717,0.0077168220233471896,-207.04226517777073,0.0
202,2.137441873550415,-212.54724573590624,18.881300119015975,-179.049705712128,-285.2405177882217,0.0,0.7511246743750905,0.1,0.0069005489349365234,0.31293797492980957,0.04792912,0.13150904,-217.32644576279003,-2.260464733403531,-4.213827144110358,0.0,2320,0.35201025009155273,0.005214167928383266,0.004537336296314543,-207.2961987275249,0.0
203,2.115306854248047,-209.92341940146093,15.780459077984439,-174.5006256032198,-252.36401731160626,0.0,0.7090382695997066,0.1,0.006514549255371094,0.1974954605102539,0.04975102,0.14139852,-216.58614312665713,-2.200272840777656,-4.1621267525388745,0.0,2280,0.30852699279785156,0.004273078479611333,0.0038281533272448514,-206.12145169885028,0.0
204,2.1263160705566406,-212.47632878310117,16.950917704811694,-178.07222539361865,-255.31662686441473,1.0416666666666667,0.7053345216669809,0.1,0.006352424621582031,0.14144468307495117,0.050149284,0.15267046,-216.17516169230154,-2.3112107488165314,-4.212452757566236,1.0416666666666667,2276,0.2923884391784668,0.005084937852794848,0.004748238227728082,-207.07401413825906,0.0
205,2.073019027709961,-210.73107281957917,16.95393393782819,-170.49523368606168,-253.89268420089923,0.0,0.7567336640893396,0.1,0.006318569183349609,0.14020442962646484,0.049151547,0.1292798,-215.63075280502932,-2.357082928350151,-4.176993656886242,0.0,2260,0.29210543632507324,0.00442195082235956,0.003665900733442413,-205.1520354724482,0.0
206,2.099604606628418,-210.80942287988069,15.801437262532426,-175.0036618714049,-257.1234337376034,0.0,0.7722181068323776,0.1,0.03060770034790039,0.16999053955078125,0.050034173,0.12919213,-215.14861981251448,-2.2716352844768877,-4.179363165812856,0.0,2265,0.2948427200317383,0.0035741710446043355,0.0033582529965586988,-204.8068976823499,0.0
207,2.127164125442505,-213.32454082498307,20.244693683716378,-168.921602148408,-275.4532294321631,0.0,0.7299615102139216,0.1,0.006438255310058594,0.14092206954956055,0.048633114,0.13147068,-214.96621191376136,-2.330825950585752,-4.2294869667521775,0.0,2298,0.303272008895874,0.005148247428571838,0.004742213834118699,-204.28972045491457,0.0
208,2.0849215984344482,-211.25948986496186,16.637792257364392,-177.98640463607816,-265.9596473529307,0.0,0.7642096951833465,0.1,0.006234169006347656,0.14071321487426758,0.04967044,0.12755246,-214.5955397088814,-2.3889981717722595,-4.18839306406566,0.0,2238,0.29567956924438477,0.005383409301161325,0.004602370174556991,-202.1881191224837,0.0
209,2.114316701889038,-210.11824640215937,18.107000634749255,-173.70886326460703,-254.7516124019216,0.0,0.7078154591198939,0.1,0.008899688720703125,0.13825488090515137,0.049913995,0.14481626,-214.14781037820921,-2.2640605449741495,-4.165409061671835,0.0,2255,0.2972421646118164,0.004893660409318722,0.004468610058275367,-203.24485087086646,0.0
210,2.100377082824707,-210.69283167338668,27.038270845205904,-171.47891338636896,-374.5149033710533,0.0,0.6468309126738296,0.1,0.0061795711517333984,0.13977575302124023,0.04825612,0.13511722,-213.80231250772698,-2.2834643785762316,-4.176466764073576,0.0,2250,0.2933669090270996,0.014276594641953222,0.012154909815271845,-204.64332139666791,0.0
211,2.1049065589904785,-210.34019038603097,17.8360770890101,-172.75186091034627,-254.0803694927748,0.0,0.6854610945272934,0.1,0.006448984146118164,0.14608430862426758,0.049055517,0.1540012,-213.4561002955574,-2.310156668282916,-4.169845428998546,0.0,2246,0.2994210720062256,0.005630478042286104,0.004987750977672708,-202.54355012101598,0.0
212,2.19327974319458,-207.43408405976098,16.342755327206703,-170.56386537333933,-256.3257089600087,0.0,0.6969615079227112,0.1,0.0066339969635009766,0.250089168548584,0.04960438,0.16387405,-212.8538986719778,-2.2693691218233876,-4.111658076348686,0.0,2236,0.328716516494751,0.004354766603187899,0.003820012847709534,-201.64126703826116,0.0
213,2.1167168617248535,-211.14303398152006,29.317165716840222,-165.52974420919583,-407.72599618264354,0.0,0.7456186349287747,0.1,0.006506919860839844,0.14515328407287598,0.050296023,0.10243631,-212.682812202932,-2.329402281864715,-4.1857201402666995,0.0,2257,0.29692935943603516,0.013415841482296057,0.01160826817477195,-199.62047973745663,0.0
214,2.387561082839966,-209.30388607885826,25.29296707384834,-168.3911647657878,-403.37388436479705,0.0,0.6845542175404808,0.1,0.0064601898193359375,0.1430213451385498,0.049808063,0.09493573,-212.34491959052463,-2.3414135219074965,-4.148219002583359,0.0,2207,0.28753209114074707,0.019341152868561997,0.017578684503595402,-200.8492345873584,0.0
215,2.0711872577667236,-204.73925092443832,18.816278318837476,-166.34466902906118,-266.5745406990017,0.0,0.5713305266955967,0.1,0.0068094730377197266,0.15389680862426758,0.04970107,0.5148243,-211.584352723916,-2.2421025029270223,-4.057503113150151,0.0,2241,0.3381059169769287,0.00651684404790246,0.004850687103074987,-204.1247402011259,0.0
216,2.048098564147949,-208.4705391157743,21.198080630718255,-167.20211727883336,-326.99800021556644,0.0,0.7037445940172968,0.1,0.006445169448852539,0.26165127754211426,0.049080074,0.15349284,-211.27297136310185,-2.3258547872943858,-4.1319207620868434,0.0,2243,0.36602354049682617,0.009827086735263323,0.008380417428183386,-202.95281351835658,0.0
217,2.1532208919525146,-208.28291557151147,18.550937735611868,-168.9868377585035,-276.1177076186092,0.0,0.6747913220420664,0.1,0.0066220760345458984,0.15603995323181152,0.05002841,0.14582771,-210.97396578394282,-2.184355207423783,-4.128152737577825,0.0,2292,0.34057068824768066,0.006367626704752213,0.0055233359725358495,-202.78318237851124,0.0
218,2.110250234603882,-205.2199292201699,15.648273634884497,-167.1564915390743,-240.89505258498326,0.0,0.7455180027652435,0.1,0.00640106201171875,0.14478754997253418,0.048999526,0.13557696,-210.39856212756553,-2.1612709694388688,-4.067237079492601,0.0,2269,0.3411519527435303,0.004718621491034456,0.0043787806536806665,-197.25793331308404,0.0
219,2.0321106910705566,-208.09364620747556,15.443042300518552,-173.93011485323225,-245.4078836343364,0.0,0.7789097369003151,0.1,0.006375312805175781,0.23871064186096191,0.04905607,0.1299639,-210.16807053555652,-2.3135185849618605,-4.124528005837623,0.0,2209,0.332902193069458,0.0035703698693803944,0.0032411418566175125,-201.32707429848313,0.0
220,2.0980496406555176,-205.68094939838375,17.185056487668376,-164.49444792001069,-261.75100937556834,0.0,0.7178715562102889,0.1,0.00634455680847168,0.14291644096374512,0.0501443,0.13953322,-209.71935842183925,-2.253149301879462,-4.076449933691101,0.0,2215,0.290203332901001,0.005101546363810735,0.004636807669679367,-199.15479317141867,0.0
221,2.065760612487793,-206.27524497903553,15.86306443386213,-172.66428475717754,-251.5939742619698,0.0,0.7010816215265554,0.1,0.0067598819732666016,0.14388132095336914,0.04993521,0.1533107,-209.3749470775589,-2.3145577036436786,-4.0879424566029074,0.0,2208,0.2989654541015625,0.004139959401857192,0.0042605589337434266,-198.27013316093928,0.0
222,2.109577178955078,-204.75677438137726,16.510929178670512,-165.41733855979004,-243.71686736741435,0.0,0.7186726427102251,0.1,0.00680232048034668,0.3327453136444092,0.04978695,0.14217983,-208.91312980794072,-2.2670332909914612,-4.057793865605561,0.0,2234,0.3361945152282715,0.0045262343736998615,0.003353149138036345,-198.51141165670592,0.0
223,2.100139617919922,-209.09300704230284,18.17074960152086,-170.94999289804943,-264.85486943626586,0.0,0.7084352119071522,0.1,0.0065767765045166016,0.19430875778198242,0.049303275,0.13761483,-208.93111753137694,-2.3077115122208354,-4.144232603981357,0.0,2241,0.34947896003723145,0.005162890936130406,0.0049275972255947535,-198.68283080823105,0.0
224,2.1051931381225586,-205.38139132188584,16.780040263693028,-164.2158708534149,-252.8513030607383,1.0416666666666667,0.7603004096277444,0.1,0.006203889846801758,0.14272809028625488,0.049815983,0.13323751,-208.57614491042781,-2.2610263476885986,-4.070621108425737,1.0416666666666667,2206,0.29909610748291016,0.005059154842157986,0.004086399037877377,-204.46472071617742,0.0
225,2.1066360473632812,-208.691583782023,18.64155124211684,-175.5762112384567,-286.59231290712154,0.0,0.680564722712668,0.1,0.006340742111206055,0.14383459091186523,0.050304774,0.13975787,-208.58768879758736,-2.3772248307524113,-4.137058435355405,0.0,2226,0.30551862716674805,0.0060230544800470515,0.0059369595394357716,-201.4544244484514,0.0
226,2.1437487602233887,-206.3461148379121,19.69696531941192,-169.9673038397042,-293.00265576460816,0.0,0.7130181355990859,0.1,0.04244518280029297,0.1418156623840332,0.048143033,0.13501282,-208.36353140161984,-2.1793416022395555,-4.090026138618079,0.0,2288,0.3194458484649658,0.007654457500241599,0.0060893822137370116,-201.97144848642273,0.0
227,2.1066014766693115,-203.47040360742028,15.985857576541731,-163.0331618909191,-247.6888071786219,0.0,0.7148089790944758,0.1,0.007242918014526367,0.14791464805603027,0.04971024,0.15251692,-207.8742186221999,-2.277094329090478,-4.031766230447065,0.0,2216,0.31186819076538086,0.00604676335792655,0.004032019908538864,-201.65977285421116,0.0
228,2.144313335418701,-205.54182728710518,17.72356021800392,-170.47266439409117,-263.89950518691273,0.0,0.767652670762471,0.1,0.0063114166259765625,0.1397409439086914,0.04899662,0.122486934,-207.64097948869042,-2.31398530552662,-4.073034604668909,0.0,2218,0.3131377696990967,0.0053751822080989635,0.004780968228013127,-201.13717921190752,0.0
229,2.090494394302368,-205.41421837527378,17.33147379920449,-168.1400788719102,-260.6524420585713,0.0,0.7305758085279817,0.1,0.006726264953613281,0.14397668838500977,0.049134403,0.13528508,-207.41830337734876,-2.307886140890018,-4.071348526601738,0.0,2212,0.30814027786254883,0.003874161961294987,0.003620386890169634,-204.21504102749293,0.0
230,2.2943942546844482,-203.791370228995,15.45706068891848,-169.7925309736988,-239.99724934970226,1.0416666666666667,0.7437181601720441,0.1,0.0064544677734375,0.1459357738494873,0.049211547,0.13585824,-207.05561006251338,-2.196110708147527,-4.039068072876956,1.0416666666666667,2233,0.3159654140472412,0.003950383730758465,0.0035665817782238297,-201.32601725887827,0.0
231,2.2719407081604004,-202.593980578224,18.505767815363452,-170.47163857270408,-290.3039749902208,0.0,0.7138277256997038,0.1,0.006329059600830078,0.1423943042755127,0.049057975,0.13842498,-206.60944711408445,-2.2869125662404675,-4.014351901869268,0.0,2209,0.31394243240356445,0.0048209135698230356,0.004265929965849618,-203.0100641702803,0.0
232,2.2682695388793945,-201.98259034795083,21.034012517728993,-168.97733246657748,-340.59047427451856,0.0,0.6511791196094813,0.1,0.006278276443481445,0.1431443691253662,0.049741913,0.24805993,-206.1467614374711,-2.229595270962744,-4.0028808004631475,0.0,2197,0.3103177547454834,0.006802279757316953,0.006120840716232142,-200.7753719663016,0.0
233,2.2759652137756348,-200.6398608520918,17.672443183748946,-157.08175178121508,-239.84811188669335,0.0,0.7350496585986034,0.1,0.006342172622680664,0.14310050010681152,0.049940053,0.13444625,-205.59607137893317,-2.252563947700717,-3.9755603016378545,0.0,2182,0.3095204830169678,0.004001683489948588,0.003200167172388867,-198.46098181252808,0.0
234,2.0798161029815674,-203.94733388890677,20.491632938272186,-158.4379682322554,-262.420508719221,0.0,0.7267188852933258,0.1,0.006378889083862305,0.14156436920166016,0.050178472,0.14003731,-205.43119762993052,-2.3243957440363374,-4.041262200339283,0.0,2192,0.3131570816040039,0.0052740169386776194,0.004861046495793039,-199.6554104662778,0.0
235,2.099760055541992,-200.73147524717396,18.126104563149454,-162.88311619497435,-246.1685207581021,0.0,0.7074277054412682,0.1,0.006415605545043945,0.14475059509277344,0.048582517,0.13668233,-204.96122539165486,-2.1834197187208084,-3.9774856589383183,0.0,2206,0.30925536155700684,0.004814605122277689,0.0039273598437166,-200.08937929689185,0.0
236,2.0684962272644043,-201.89310609042613,14.211771156986455,-172.4074648019862,-242.1025227285534,0.0,0.7371968249314117,0.1,0.006436824798583984,0.14275312423706055,0.04991256,0.13374332,-204.65441346153202,-2.3081521467658868,-4.000332843132332,0.0,2180,0.3133983612060547,0.004889416716252014,0.00419388572884021,-200.08423918079185,0.0
237,2.040009021759033,-201.36866195239722,17.89759389480533,-169.13861396154357,-250.6713233928154,0.0,0.712860191505702,0.1,0.006532907485961914,0.2076423168182373,0.050294492,0.13895705,-204.32583831061854,-2.263092170211234,-3.9911029650354117,0.0,2164,0.3677480220794678,0.0043192204348779135,0.003917470217934995,-202.8153221044683,0.0
238,2.049180507659912,-202.6565798448781,16.695126326533547,-157.60570698265144,-258.11587103944044,0.0,0.7575063935671947,0.1,0.006512165069580078,0.14222073554992676,0.049681168,0.13380307,-204.15891246404448,-2.276065406042575,-4.015828235745728,0.0,2177,0.3239409923553467,0.004373478534041357,0.003980978106483011,-199.3880448299918,0.0
239,2.0353243350982666,-200.64361129512406,14.544876284615388,-168.06890012761036,-231.78933763941762,0.0,0.7360000548046937,0.1,0.006560087203979492,0.14307165145874023,0.048369534,0.13686717,-203.80738234715244,-2.201012123291436,-3.975830900068233,0.0,2180,0.31181812286376953,0.0038436654675631948,0.0030973983757586893,-199.56163356113237,0.0
240,2.0735228061676025,-201.41807079658668,17.541438566587086,-165.36762194750008,-239.8994481164203,1.0416666666666667,0.7898233828260909,0.1,0.006456613540649414,0.16341662406921387,0.04942357,0.13525629,-203.56845119209586,-2.2269432328090986,-3.991180204023985,1.0416666666666667,2184,0.35912156105041504,0.004373610117135225,0.00386146024819351,-201.40472052971262,0.0
241,2.055691719055176,-202.42435018292667,15.375723606349897,-171.7748697662998,-235.49390427215116,0.0,0.7164370385918999,0.1,0.030432701110839844,0.16885900497436523,0.04918981,0.13853107,-203.45404109117894,-2.2906539162677273,-4.011841129445259,0.0,2173,0.3311152458190918,0.004032497556987152,0.0035251953677049096,-200.25455915164866,0.0
242,2.0595946311950684,-198.82771844784463,15.650887351556932,-169.2373958451626,-243.5686244281851,0.0,0.7251813664756269,0.1,0.006268739700317383,0.14093828201293945,0.049245305,0.13292198,-202.99140882684551,-2.234836563556397,-3.939502285685626,0.0,2131,0.369579553604126,0.0038541064509920783,0.003471380497738734,-201.95332921885347,0.0
243,2.041782855987549,-199.8858786212248,17.520694891224714,-163.16327404453185,-249.7571785223886,0.0,0.7156356140593635,0.1,0.05366635322570801,0.27097630500793457,0.050164565,0.13947853,-202.68085580628343,-2.2624904391362843,-3.960454735513435,0.0,2136,0.2854733467102051,0.0061502952328225426,0.005527468588832777,-201.01424829002093,0.0
244,2.0515642166137695,-199.43502100578402,17.14973300408479,-156.7077675271043,-242.31077251127073,2.0833333333333335,0.702759991276368,0.1,0.0504152774810791,0.1791229248046875,0.049760684,0.1462157,-202.3562723262335,-2.2733981471519,-3.951299106377904,2.0833333333333335,2127,0.3083045482635498,0.004920862011657433,0.003970063763777278,-200.9000671502446,0.0
245,2.0206081867218018,-199.7374551166723,16.19042556561369,-159.36868529451573,-236.22221014306098,0.0,0.7090412441403121,0.1,0.028410911560058594,0.1855456829071045,0.048898157,0.13240814,-202.09439060527737,-2.3223834007946254,-3.956681015489471,0.0,2139,0.39676618576049805,0.00395988828470922,0.0035712957632960084,-201.18354529401626,0.0
246,2.0686521530151367,-200.07523364176768,16.78469957908141,-159.22961399542504,-260.7262793746915,0.0,0.7346772598683027,0.1,0.03191089630126953,0.5368783473968506,0.050380133,0.13663496,-201.8924749089264,-2.221172202681148,-3.963998139310363,0.0,2168,0.40300559997558594,0.004595494262095951,0.004064258353598892,-200.11309052892244,0.0
247,2.06288743019104,-202.21718668425615,20.03928402560733,-159.95719433010626,-294.6051285604352,0.0,0.5813225665190811,0.1,0.056055545806884766,0.35736966133117676,0.049298458,0.28136823,-201.92494608645939,-2.308295999458998,-4.007033654285691,0.0,2184,0.5347650051116943,0.017047371967454407,0.006983614359890601,-202.54877087413246,0.0
248,2.112462282180786,-201.55032354286354,23.13485467390318,-165.6095588875165,-318.37589655339906,0.0,0.6604777005637882,0.1,0.006499052047729492,0.1915113925933838,0.0477835,0.11236553,-201.8874838320998,-2.282050927703663,-3.993646149632793,0.0,2167,0.3925340175628662,0.01482573182847497,0.011002713588978768,-202.10567427614825,0.0
249,2.165719747543335,-199.98534589112555,16.948103665457843,-163.2828576664291,-236.22210821838314,0.0,0.7204656904853167,0.1,0.06840062141418457,1.7738795280456543,0.04873708,0.14267278,-201.6972700380024,-2.2892445548184277,-3.9627928283035683,0.0,2146,0.35710692405700684,0.005583858592081378,0.004236468627876869,-200.86596433057144,0.0
250,2.1835732460021973,-198.19679411694872,17.646117515299075,-155.86744892063436,-249.9666752687919,0.0,0.7070635530210674,0.1,0.0065686702728271484,0.1440885066986084,0.049698763,0.13919698,-201.34722244589702,-2.2974045785343575,-3.9261136704721227,0.0,2128,0.36615538597106934,0.0038685531961650727,0.003613973058478626,-199.6704181232172,0.0
251,2.313699245452881,-197.71276841848558,15.315753999102501,-159.018282077529,-230.39091297505286,0.0,0.7216785358125084,0.1,0.006299734115600586,0.14140915870666504,0.049267948,0.13684756,-200.98377704315587,-2.3082311685033776,-3.9165182600656343,0.0,2128,0.32151198387145996,0.004579840720305524,0.004016108332853484,-195.68055098162665,0.0
252,2.0269222259521484,-197.50053701260995,16.405189510098754,-162.34501172450325,-234.58042118774944,1.0416666666666667,0.711799265797285,0.1,0.030085086822509766,0.15641450881958008,0.049186796,0.14087486,-200.63545304010125,-2.3008716076451634,-3.912734316556822,1.0416666666666667,2121,0.37975621223449707,0.0038694919616214453,0.0035583407350937733,-198.18391616825795,0.0
253,2.0689351558685303,-196.94355490763573,18.82693250429352,-153.6673414558922,-282.2457428276822,0.0,0.7050015496302173,0.1,0.00637054443359375,0.191558837890625,0.04894644,0.12320293,-200.2662632268547,-2.3133025781928365,-3.901057323553784,0.0,2142,0.32662510871887207,0.00731091136055088,0.005769535527195952,-198.37687431346848,0.0
254,2.0520925521850586,-199.1368481573392,26.79579851379831,-161.8200992232775,-398.9402223650956,0.0,0.5527712129850139,0.1,0.006448507308959961,0.13938522338867188,0.04963863,0.10695452,-200.15332171990315,-2.3482850694413613,-3.9462176273979694,0.0,2124,0.3032670021057129,0.01934382286612904,0.01317814148709772,-199.40514659318973,0.0
255,2.034019947052002,-201.35159148676564,19.575179905555583,-157.5520188161704,-288.77639520234663,0.0,0.6671714151452851,0.1,0.006298065185546875,0.15236878395080566,0.04864585,0.17358501,-200.2731486965894,-2.3672763503843535,-3.990216954477854,0.0,2138,0.3123648166656494,0.005963392559173393,0.004860062001856413,-199.00686617751373,0.0
256,2.0526158809661865,-195.1626538723002,16.437196998676594,-160.96089206402777,-240.2329111203367,0.0,0.721419581405509,0.1,0.006376981735229492,0.14354276657104492,0.050014146,0.13316017,-199.7620992141605,-2.305414471388764,-3.8665986500535148,0.0,2099,0.34947967529296875,0.005588596492616853,0.0047579505787633284,-198.90894931098842,0.0
257,2.0394725799560547,-198.74075066795217,15.973423527444673,-165.09569310711572,-245.9295685008946,0.0,0.7040359779140386,0.1,0.006539344787597656,0.14205336570739746,0.04908777,0.14493316,-199.65996435953966,-2.324166073558873,-3.9378821626283584,0.0,2113,0.30919432640075684,0.004072877373942807,0.0034999474976535484,-196.96150770296595,0.0
258,2.0242011547088623,-195.92051515371273,17.294413834807745,-158.37225937634824,-257.9813006787787,0.0,0.7211903043095221,0.1,0.005324840545654297,0.28606653213500977,0.049345866,0.13927631,-199.28601943895697,-2.2117322107325923,-3.881272472949275,0.0,2138,0.265887975692749,0.00558428211503432,0.004978620576729645,-199.7790649333129,0.0
259,1.9943513870239258,-194.3371197284388,14.822729934080884,-168.21979681697044,-235.2602754482166,0.0,0.7044202094045175,0.1,0.028764724731445312,0.13869738578796387,0.049228072,0.1363779,-198.79112946790514,-2.267073714436094,-3.8495319569591593,0.0,2080,0.30070066452026367,0.00516767314373504,0.005091091238273187,-198.469540781909,0.0
260,2.0071723461151123,-195.86313413181907,17.88136276289503,-149.7049088513048,-249.11123464922645,0.0,0.7129710653793091,0.1,0.004966020584106445,0.1085517406463623,0.04920778,0.1394288,-198.49832993429652,-2.3296615767186064,-3.880397187215445,0.0,2086,0.2576603889465332,0.006215330857086875,0.005071931291765636,-195.51282886041318,0.0
261,2.0226221084594727,-198.68026510651507,17.60641096136003,-159.89604557266085,-238.95392759316522,0.0,0.7009031773991912,0.1,0.006230831146240234,0.14998555183410645,0.048817936,0.13707316,-198.51652345151837,-2.378507939485229,-3.935950350132582,0.0,2106,0.3034944534301758,0.0043188355696998785,0.00379936664977886,-198.00898677400988,0.0
262,1.9930434226989746,-195.0432480803946,21.35771511978705,-156.13692042384136,-316.4375905869693,0.0,0.7205613358183153,0.1,0.0063517093658447266,0.14032649993896484,0.049235657,0.12746108,-198.169195914406,-2.2545806416187277,-3.863852692145226,0.0,2092,0.29675769805908203,0.00894280247092807,0.007444065809796498,-195.17365665910944,0.0
263,2.0317530632019043,-192.01742364223364,18.477081357985256,-158.3708243446323,-249.76106260864168,0.0,0.7321369461112497,0.1,0.006293773651123047,0.1381673812866211,0.050459895,0.13186367,-197.55401868718877,-2.2742934211894856,-3.8025697859819516,0.0,2071,0.28949856758117676,0.005059857609491334,0.004112921369268403,-196.39316162754943,0.0
264,1.9948644638061523,-195.24548497078732,16.785379949980264,-159.2231015721985,-238.10150859035303,1.0416666666666667,0.6853830969011193,0.1,0.006609678268432617,0.14530396461486816,0.049049575,0.13673241,-197.32316531554864,-2.2799954743725013,-3.8680092817460108,1.0416666666666667,2096,0.3413882255554199,0.00477037060726577,0.004301770195248367,-194.1571819510259,0.0
265,2.0297820568084717,-197.81437478699652,15.086795788875339,-168.6131603876471,-235.12894665789182,0.0,0.7254919018556453,0.1,0.06145048141479492,0.3777012825012207,0.04872572,0.13574813,-197.37228626269342,-2.3221872644045924,-3.918497993194169,0.0,2114,0.3534982204437256,0.003954664463201065,0.003347939988181181,-195.76246736098102,0.0
266,2.1384189128875732,-192.27468530472188,15.68068594369879,-153.82208151788217,-239.57677504159668,0.0,0.6869061783450042,0.1,0.006178855895996094,0.5211436748504639,0.049104236,0.15198722,-196.86252616689626,-2.1988436690587605,-3.8091105063649677,0.0,2100,0.3411424160003662,0.00410390135978213,0.00329417511658831,-195.89791552038335,0.0
267,2.071683883666992,-191.72388718238997,19.402135440364166,-153.6031606978732,-284.9263935315257,0.0,0.6342534515311797,0.1,0.033805131912231445,0.14514470100402832,0.04745129,0.13857694,-196.34866226844565,-2.2855893217925582,-3.7971619073438294,0.0,2051,0.3025236129760742,0.007160116165283373,0.006454802472133795,-195.512180374148,0.0
268,2.152902603149414,-193.92980606847013,14.767559794021166,-163.63427993559708,-227.75129220106535,0.0,0.7628989921925834,0.1,0.006418466567993164,0.14007210731506348,0.04793328,0.12831302,-196.1067766484481,-2.276061179839067,-3.8407538549425713,0.0,2077,0.2963876724243164,0.005856322737506903,0.004113617555195241,-196.6078151249942,0.0
269,2.1342146396636963,-192.74388626458173,14.76301311347032,-161.85725704169897,-225.3430484685299,0.0,0.7340332645135851,0.1,0.006557941436767578,0.15444231033325195,0.049974408,0.13669087,-195.77048761006145,-2.2118986918513923,-3.8178778590354874,0.0,2098,0.3249645233154297,0.004134601871262932,0.0036156150231105746,-195.8769473274224,0.0
270,2.0950326919555664,-193.28048222551297,16.697313210483518,-160.72787422692414,-235.18307202994114,0.0,0.7706256462622206,0.1,0.006151437759399414,0.14130806922912598,0.049846355,0.13063891,-195.5214870716066,-2.2773769137156257,-3.8289310520983246,0.0,2068,0.2976562976837158,0.004436578195152899,0.004021074189849522,-199.26251067784287,0.0
271,2.1893508434295654,-194.31907322311585,15.683530893780482,-151.78053026282515,-235.75236556783904,0.0,0.7139622613534631,0.1,0.006176471710205078,0.13853049278259277,0.049544666,0.13604087,-195.40124568675753,-2.3527504587317956,-3.849505427765095,0.0,2055,0.28621959686279297,0.004443342066706186,0.0039345167426626405,-197.90109817404652,0.0
272,1.9747262001037598,-194.26516142705358,23.58279119304114,-155.17906023164574,-370.5995253771811,0.0,0.4595504936635621,0.1,0.006298542022705078,0.13860130310058594,0.048255824,0.10149738,-195.28763726078716,-2.286481771647346,-3.8478097259398005,0.0,2088,0.28941893577575684,0.014782388881324457,0.011337953245124977,-195.59263558816548,0.0
273,2.0100204944610596,-196.08131001459023,19.475942479016688,-155.29363796137272,-280.0832785371549,0.0,0.6164853750756453,0.1,0.006296634674072266,0.13977575302124023,0.050287884,0.23119095,-195.36700453616746,-2.381354078302678,-3.8837993548856904,0.0,2088,0.28569889068603516,0.006868349830000528,0.006104629946865627,-194.50854453706836,0.0
274,1.9596374034881592,-190.5142898246181,16.684482010399687,-155.18685205122145,-256.6698563118104,0.0,0.747731089969878,0.1,0.03090667724609375,0.22011375427246094,0.049182236,0.14433314,-194.88173306501253,-2.2381014243075152,-3.7731975643775155,0.0,2019,0.32722973823547363,0.00467581816521856,0.003799800420032462,-194.42875804448175,0.0
275,1.9604246616363525,-191.9574994965019,15.485638064137737,-163.22508435715142,-240.75531595100205,0.0,0.7066286311994087,0.1,0.030590534210205078,0.140838623046875,0.05021186,0.14136091,-194.58930970816147,-2.3110453843129846,-3.802074159278894,0.0,2053,0.32334113121032715,0.004117652426506954,0.003537403626900453,-196.27034040345785,0.0
276,1.9781713485717773,-192.1442479926162,16.69200634488548,-152.16191701395113,-240.89235671500313,1.0416666666666667,0.7547488178568234,0.1,0.006206989288330078,0.23709988594055176,0.048611496,0.13231394,-194.34480353660695,-2.213284848321195,-3.8059595673023274,1.0416666666666667,2067,0.3272705078125,0.004252300193094446,0.003644028516653893,-192.5975129677489,0.0
277,1.9753623008728027,-192.30588334775328,17.460247696980705,-164.72532606844192,-243.6289713174107,0.0,0.7045207035334475,0.1,0.006357431411743164,0.13756918907165527,0.049740765,0.14111301,-194.14091151772158,-2.340285625034342,-3.809156761744726,0.0,2037,0.3114502429962158,0.0057959690050538625,0.004909547800701586,-194.84360091824635,0.0
278,1.9700427055358887,-193.41142430542186,13.997884234645973,-164.71324842709654,-239.04987204515157,0.0,0.7109448992562121,0.1,0.006125450134277344,0.19417333602905273,0.049323477,0.13783276,-194.06796279649163,-2.2930372950021796,-3.831019624101844,0.0,2064,0.31850433349609375,0.004329823335627879,0.003173284163828875,-193.74691680380735,0.0
279,1.975219488143921,-192.78728312469886,16.058363459863113,-154.48513093620642,-233.34199341246932,0.0,0.7399280455074814,0.1,0.0064203739166259766,0.14546561241149902,0.04890588,0.13196401,-193.93989482931235,-2.281642495644764,-3.817845438623459,0.0,2042,0.28837132453918457,0.0038520272564044953,0.0030917318932871967,-191.62097247643402,0.0
280,2.067312240600586,-189.33224984376798,15.987722006351085,-153.45879962609035,-242.22725025061845,1.0416666666666667,0.7106974580493048,0.1,0.006297588348388672,0.14347243309020996,0.05020942,0.13752103,-193.47913033075793,-2.2146842324941782,-3.748873329119006,1.0416666666666667,2044,0.3107619285583496,0.004473202195284919,0.0037735592340637863,-188.76463967710836,0.0
281,1.9723870754241943,-188.9982418946452,15.906064989060981,-157.8761021144878,-227.35922801157523,1.0416666666666667,0.7112922931576979,0.1,0.0063381195068359375,0.19368886947631836,0.04921577,0.1420337,-193.03104148714664,-2.2266256972746556,-3.7427431861926337,1.0416666666666667,2015,0.27725648880004883,0.004701125483232712,0.004054425568090128,-191.4931186377542,0.0
282,1.9376068115234375,-191.49916067971404,14.363554182079822,-163.90102112019383,-229.50375935756534,0.0,0.7200348951147716,0.1,0.0063703060150146484,0.1368868350982666,0.04942603,0.14489704,-192.8778534064034,-2.2885690135881753,-3.7925761994123803,0.0,2032,0.2774529457092285,0.004395088602496483,0.0038831331828842325,-193.1501296513659,0.0
283,2.0014595985412598,-191.58916795950225,15.503716849061151,-152.86070303508777,-228.1008307445505,0.0,0.6981646550280859,0.1,0.0320589542388916,0.1829979419708252,0.048440225,0.13798015,-192.7489848617133,-2.2727139469466846,-3.794404626153726,0.0,2034,0.30974245071411133,0.0044747890424055746,0.004005787224752422,-189.40169178414527,0.0
284,1.9596595764160156,-187.6490800907169,14.532347065021153,-152.20177391685283,-223.51758467359082,0.0,0.7531730029116488,0.1,0.006207942962646484,0.13671255111694336,0.049973372,0.1352823,-192.23899438461365,-2.1722115657665175,-3.7144717985349813,0.0,2021,0.26807284355163574,0.004039040794954111,0.003453461193915359,-191.47269371580387,0.0
285,1.9495539665222168,-190.1254726398998,16.381966725100572,-160.09289355883163,-239.6336241001124,0.0,0.6873428291893469,0.1,0.0060007572174072266,0.13739562034606934,0.049900167,0.14692052,-192.02764221014226,-2.3491091223731355,-3.765508569742584,0.0,2002,0.2716391086578369,0.0043130380002245295,0.0038420705113423157,-190.5966487467124,0.0
286,1.9869003295898438,-192.5125592536405,17.371618126715454,-152.28933388379986,-247.68562285806013,0.0,0.7206641301211194,0.1,0.006638050079345703,0.14364862442016602,0.050254006,0.13498041,-192.07613391449206,-2.289896872480899,-3.812669399679043,0.0,2054,0.28529810905456543,0.004916746799520515,0.003979272160492383,-188.6317757038501,0.0
287,1.952385425567627,-188.6844906999403,16.614507279486002,-161.88244714235864,-234.83925079434232,0.0,0.7465995126414068,0.1,0.005942344665527344,0.13618135452270508,0.049303137,0.13744946,-191.7369695930369,-2.292460655398648,-3.7362918255712985,0.0,2001,0.2744300365447998,0.004065205239246947,0.0034872267578709383,-189.7136145966577,0.0
288,1.9609646797180176,-186.78667271770587,15.30202499872816,-159.09831608512445,-224.08051159510367,0.0,0.675487698130023,0.1,0.0063593387603759766,0.28632378578186035,0.049885303,0.14309487,-191.24193990550378,-2.190671981278875,-3.699468443950877,0.0,2012,0.32126784324645996,0.003534411992298758,0.003163122408066313,-189.7225492141444,0.0
289,2.1248342990875244,-191.36847760433614,15.590875909449739,-157.37870207256532,-234.21144730851918,0.0,0.7286258711503728,0.1,0.00635075569152832,0.14066505432128906,0.05004101,0.12772827,-191.25459367538704,-2.339313033330076,-3.789530260224461,0.0,2023,0.2842710018157959,0.004712493856048336,0.00407451410954237,-187.13803157006697,0.0
290,1.970001459121704,-189.79524334495355,14.834620739519968,-158.62085866641107,-225.39613196510237,0.0,0.7418318700902179,0.1,0.006287574768066406,0.13873291015625,0.049880933,0.13583949,-191.1086586423437,-2.268816795646547,-3.7585099876851102,0.0,2039,0.274627685546875,0.0040809575996073495,0.003707225659356812,-188.48904298584756,0.0
291,2.0766448974609375,-189.34256278961865,19.096238795795596,-155.85383452706623,-278.31136985845495,0.0,0.6610416644494113,0.1,0.0061566829681396484,0.138763427734375,0.050088495,0.13600822,-190.9320490570712,-2.2694308413482536,-3.7495175972214,0.0,2033,0.26921796798706055,0.0071048319172502825,0.006335170293069423,-184.02358782257312,0.0
292,2.149301052093506,-186.38786947879626,17.45450465051859,-152.91240139802144,-239.45781274957153,0.0,0.6717637831435638,0.1,0.0063669681549072266,0.13768959045410156,0.049521647,0.14310955,-190.4776310992437,-2.2298541813803,-3.690781190452092,0.0,1995,0.27278995513916016,0.0043877492627869925,0.0038659583492278095,-182.655761379005,0.0
293,2.0069046020507812,-190.59140580170967,15.345567703513495,-155.92702764757072,-241.61650029987211,0.0,0.6981516736278169,0.1,0.006724119186401367,0.1934189796447754,0.049235955,0.14101836,-190.4890085694903,-2.3243033731622047,-3.7741318299330455,0.0,2027,0.30617666244506836,0.005397208491214441,0.004862785070985096,-182.15950930077202,0.0
294,1.9599063396453857,-187.45248422919465,17.645283796397923,-156.61758737807966,-251.12146608384813,0.0,0.6728735133894315,0.1,0.025492191314697266,0.17119812965393066,0.04924077,0.14389189,-190.18535613546075,-2.2184897046514904,-3.711930689396695,0.0,2011,0.32201480865478516,0.004713461077418674,0.0039007671228889346,-183.6887403946179,0.0
295,1.9543719291687012,-188.66936630891442,25.586833230582442,-157.01418713224726,-377.73219537168484,0.0,0.6405185984078867,0.1,0.029583215713500977,0.23238658905029297,0.050310872,0.10610785,-190.03375715280612,-2.2261950604549803,-3.736281657009558,0.0,2020,0.31113123893737793,0.015873024724983545,0.012946963357431418,-183.34625392433037,0.0
296,2.0075645446777344,-185.36481584521326,14.652010926534489,-142.20322537275945,-226.26157941663388,0.0,0.7095792950947273,0.1,0.00625157356262207,0.19784975051879883,0.049985547,0.14775112,-189.56686302204685,-2.2488204718458147,-3.6703187688390244,0.0,1988,0.3034358024597168,0.004215364968292219,0.003778290434744763,-183.92574564779292,0.0
297,1.9541544914245605,-189.10927238706918,18.409886442910583,-147.35004138569946,-246.6840275300249,0.0,0.6980230650565987,0.1,0.006261110305786133,0.19764161109924316,0.049449727,0.13809903,-189.52110395854908,-2.3102104353428197,-3.7448915266321907,0.0,1994,0.3076033592224121,0.005394452495473525,0.004240969082731502,-182.83689922230008,0.0
298,1.9781506061553955,-187.82740031916015,15.151602419747755,-155.3502080119884,-225.6642464242256,0.0,0.7038666225228258,0.1,0.03435564041137695,0.2666490077972412,0.049216434,0.14140627,-189.35173359461018,-2.2672313474330807,-3.718719061313704,0.0,2011,0.3008568286895752,0.0042070719217980595,0.0032052979894211455,-184.41071118824726,0.0
299,1.9754652976989746,-187.51626210637696,15.905989838364391,-158.0016600873811,-235.77916563834063,0.0,0.7045862640930767,0.1,0.037467002868652344,0.20769953727722168,0.049605425,0.13694115,-189.1681864457869,-2.3052339901770798,-3.7128000318527987,0.0,2004,0.31229209899902344,0.004807432834137386,0.0038715743262638424,-182.0138146350427,0.0
300,2.1527040004730225,-188.9137548742997,17.831773705111342,-158.0503441913805,-247.2174646578104,0.0,0.7012076128002971,0.1,0.007052898406982422,0.1472489833831787,0.049119394,0.1392918,-189.14274328863817,-2.2832465995653983,-3.740944914208898,0.0,2021,0.3227534294128418,0.004725689116269927,0.004052072384439209,-183.66612079562952,0.0
301,1.9617359638214111,-185.26110401401,17.82578107099959,-140.67944953856784,-267.4663321351261,0.0,0.7208919007319506,0.1,0.006192684173583984,0.19333434104919434,0.050327096,0.1330093,-188.75457936117533,-2.268274867956849,-3.668648390284171,0.0,1955,0.3267781734466553,0.006239952199356385,0.006169626679585741,-185.4190630135037,0.0
302,1.953456163406372,-185.72592751989797,14.426220490343733,-153.42617769276941,-226.43362681106626,0.0,0.7253411050554612,0.1,0.0059397220611572266,0.13111615180969238,0.048913453,0.13519588,-188.4517141770476,-2.283198112230627,-3.6773490766135755,0.0,2000,0.26622939109802246,0.0035115430486142656,0.003028108294235995,-184.96055197681858,0.0
303,1.9892802238464355,-187.17693743681514,17.03252394681579,-154.665665322944,-245.00532209541686,0.0,0.7001100047651406,0.1,0.006121397018432617,0.13344216346740723,0.048802212,0.14242618,-188.32423650302434,-2.237390729514329,-3.7066952993968307,0.0,2020,0.2650432586669922,0.004400484524766385,0.0036750933693751623,-180.81447963176595,0.0
304,1.9175477027893066,-185.50132117622192,16.13028047862441,-154.9035910026268,-241.5441839191666,0.0,0.7297006033604764,0.1,0.0062448978424072266,0.2013864517211914,0.048765138,0.13452627,-188.0419449703441,-2.2785590200007797,-3.6722099997124524,0.0,1975,0.29859328269958496,0.003316479920468998,0.002835231318535187,-182.46755939175296,0.0
305,1.9367897510528564,-183.3687434133159,16.78227012289345,-149.0433475222825,-228.99302263423854,0.0,0.7051775519515106,0.1,0.0064427852630615234,0.14259815216064453,0.049534533,0.14330819,-187.57462481464128,-2.190722857843775,-3.630231188763954,0.0,1985,0.30443811416625977,0.0038296255386579283,0.003477141635674895,-180.87244861041887,0.0
306,1.954267978668213,-186.03040262438495,15.767539007681618,-152.38152314223436,-245.5400218317085,0.0,0.6622276381691431,0.1,0.024584054946899414,0.14306902885437012,0.047702752,0.15640743,-187.42020259561565,-2.335483508999218,-3.6830610398817245,0.0,1962,0.3093833923339844,0.004542514362083372,0.004000911782745784,-182.8085294904343,0.0
307,1.9510183334350586,-187.85113915879558,15.878971848903962,-155.08856138748945,-236.87911860528482,0.0,0.7186478369001724,0.1,0.006139993667602539,0.14219117164611816,0.04970578,0.14102367,-187.46329625193363,-2.3888847847375208,-3.7190620343958467,0.0,1975,0.2873344421386719,0.004248536888836884,0.0038038393157288153,-188.3725202444517,0.0
308,1.9483654499053955,-182.0228766876205,15.505972227344198,-150.2262196441039,-232.56248656312576,0.0,0.6558653053836888,0.1,0.006562948226928711,0.20685291290283203,0.04995945,0.15419203,-186.9192542955023,-2.208619954208822,-3.602288178759023,0.0,1968,0.30890941619873047,0.004711695572509341,0.003820998151044679,-185.16699322191045,0.0
309,1.932654857635498,-185.92266981732112,18.47531858875423,-148.39963273484943,-229.6560265402065,0.0,0.6414119635768656,0.1,0.006364345550537109,0.13692092895507812,0.04960136,0.15816718,-186.81959584768418,-2.2554981835598062,-3.6807475599232844,0.0,2001,0.31529808044433594,0.00473008376373843,0.004207979337103807,-181.2450915314661,0.0
310,2.0753962993621826,-180.74670896812867,16.32128723828356,-143.26703422206418,-228.93613824973076,0.0,0.6947916610395282,0.1,0.006054878234863281,0.14664840698242188,0.04951929,0.14972138,-186.21230715972865,-2.1752168590182346,-3.5780146123242886,0.0,1977,0.3020346164703369,0.0038995180052054153,0.0032802685891305926,-181.532803507887,0.0
311,1.9861552715301514,-184.6274000369881,16.20942331747962,-150.07621722196188,-236.13518005005275,0.0,0.7091473162896624,0.1,0.006140470504760742,0.13532423973083496,0.049666855,0.14305696,-186.05381644745458,-2.3032692800327936,-3.654499690912408,0.0,1951,0.2583639621734619,0.004665563083079628,0.004150507284719734,-182.2449138194159,0.0
312,2.026670217514038,-184.9751057491236,17.682942542363307,-145.38806056963307,-245.6344493249454,0.0,0.6525767906020385,0.1,0.0058879852294921875,0.13187694549560547,0.049656007,0.1563812,-185.94594537762148,-2.2397626145778737,-3.6621896029262877,0.0,1975,0.3603794574737549,0.0036568292808040483,0.0032178920206683416,-182.77578810603575,0.0
313,2.2007529735565186,-183.87527380860487,17.771001914024154,-148.20496871739735,-258.27452424780375,0.0,0.6657649020413509,0.1,0.005831003189086914,0.13446497917175293,0.049144626,0.14168848,-185.73887822071984,-2.285301542746504,-3.639868475504253,0.0,1976,0.25780606269836426,0.004201851827543232,0.0038206143498045807,-180.28934626732226,0.0
314,1.9361810684204102,-181.68601253680413,16.337370068725672,-148.91297082586277,-229.7442304159481,0.0,0.6688282082255238,0.1,0.0059964656829833984,0.13755464553833008,0.04985905,0.15106535,-185.33359165232827,-2.2386237138676606,-3.5963288356589977,0.0,1932,0.26583218574523926,0.0035054473827434017,0.0032534828924550667,-180.49574832042867,0.0
315,1.9062309265136719,-183.24047107548222,14.647442240550916,-149.1765713635485,-235.80380536712502,0.0,0.7126566120559201,0.1,0.0060079097747802734,0.13483309745788574,0.049794804,0.14251028,-185.12427959464367,-2.319430073379525,-3.6280297099127092,0.0,1936,0.29555463790893555,0.004775088996398835,0.004652083453814982,-179.12908691318876,0.0
316,1.8296544551849365,-184.4333580100456,15.695644592377674,-151.69747014987627,-220.66933841964013,0.0,0.7267961611926264,0.1,0.02888774871826172,0.16027426719665527,0.04990646,0.13734815,-185.05518743618387,-2.2920953473151173,-3.651185544380395,0.0,1948,0.3025801181793213,0.004570377490534662,0.003175475924776735,-180.50834685873747,0.0
317,1.9300434589385986,-180.28582181016023,14.747105141988095,-149.84406013994862,-223.603014188182,0.0,0.7261509125172555,0.1,0.03093242645263672,0.2268528938293457,0.050193127,0.14302658,-184.5782508735815,-2.2268609341901926,-3.5680569284972115,0.0,1946,0.3156599998474121,0.003473448040524593,0.0029550982017235708,-177.43071143917132,0.0
318,1.902630090713501,-185.14844503077018,25.93151261127033,-152.64131822971413,-395.0373832156391,0.0,0.5117138800166559,0.1,0.0501096248626709,0.30200648307800293,0.049044885,0.13078962,-184.6352702893004,-2.29747528280105,-3.6653229547824586,0.0,1972,0.3325009346008301,0.01647337109839946,0.013270108010655424,-179.27174733449115,0.0
319,1.9141905307769775,-181.91785040204513,14.679138162862342,-148.90997270941224,-222.35650491124937,0.0,0.7350540083190634,0.1,0.045607566833496094,0.5780632495880127,0.04969717,0.13797644,-184.36352830057487,-2.218070623516558,-3.6010458825971186,0.0,1942,0.27501392364501953,0.004186230129709739,0.0032573091137966035,-179.1795423865379,0.0
320,1.923933744430542,-182.68329830220443,16.471378316634055,-149.73971970058352,-225.62494173137782,0.0,0.6650756469915486,0.1,0.0062236785888671875,0.13950371742248535,0.048236508,0.14438167,-184.19550530073784,-2.2308839146072263,-3.61573849386899,0.0,1949,0.279644250869751,0.00417551359753938,0.0036066316425960626,-179.36944291203497,0.0
321,1.9013466835021973,-183.8261090796112,14.05296835639015,-147.6164567231551,-218.8850208177825,0.0,0.7092682695121307,0.1,0.006493568420410156,0.19772553443908691,0.049553897,0.14439951,-184.15856567862517,-2.299630725195367,-3.639163931567539,0.0,1951,0.29953789710998535,0.004841584451739579,0.004485692069245525,-177.21883797151827,0.0
322,1.923095464706421,-181.7663700228853,16.160937703177556,-149.83137967288053,-241.32471147013894,0.0,0.7073527784070931,0.1,0.006204366683959961,0.13892316818237305,0.049211264,0.13583897,-183.91934611305118,-2.245788922221202,-3.597927287567351,0.0,1948,0.28772878646850586,0.004848066104805655,0.003766515516251267,-180.12756929275298,0.0
323,1.9105455875396729,-181.60341792766621,17.082056224200908,-150.49898807979253,-240.4807829720865,0.0,0.6921705233826154,0.1,0.00472712516784668,0.1681535243988037,0.049804326,0.14275013,-183.68775329451267,-2.232497828037316,-3.594294004618382,0.0,1949,0.20720267295837402,0.0056947369981929005,0.005117651766562596,-180.4888181347693,0.0
324,1.8609747886657715,-179.67078944720103,14.304661866263842,-149.16854551510386,-220.03188306759628,0.0,0.720614386348618,0.1,0.02809762954711914,0.14615249633789062,0.050107207,0.14786395,-183.2860569097815,-2.211829567653954,-3.556624041890913,0.0,1940,0.30533885955810547,0.003982967850254962,0.003550093560935268,-179.4427516621947,0.0
325,1.867521047592163,-181.01958036326835,15.417407806108322,-149.45711676140306,-237.33727070386573,0.0,0.7543438946301629,0.1,0.006166696548461914,0.13744616508483887,0.049263127,0.13181289,-183.0594092551302,-2.2478522353382373,-3.582846482476118,0.0,1930,0.3078749179840088,0.0040205256425830185,0.003764867711999571,-180.68726121069636,0.0
326,1.902951717376709,-183.18782218513465,16.767128360896084,-144.84093615741793,-225.09182862136063,0.0,0.6701082914507285,0.1,0.007066965103149414,0.18285870552062988,0.04930834,0.15293282,-183.07225054813063,-2.26837403153951,-3.625767588833798,0.0,1954,0.26851534843444824,0.004038228006595133,0.00334279692298761,-179.80181345659315,0.0
327,1.8920161724090576,-179.71140089911432,16.28676654984945,-141.04005083525112,-222.02623047490022,1.0416666666666667,0.701748172923083,0.1,0.0064237117767333984,0.15391778945922852,0.04933491,0.14800812,-182.73616558322902,-2.227611254840862,-3.5562176344176404,1.0416666666666667,1919,0.29727602005004883,0.004548545220141603,0.004010626922512588,-174.0675213716891,0.0
328,1.90138578414917,-182.56270793959013,13.59564992426032,-153.1885446255297,-208.7697070801297,0.0,0.6666846679984705,0.1,0.006729602813720703,0.15447020530700684,0.04904631,0.14643732,-182.71881981886514,-2.2982399797360844,-3.613230875298031,0.0,1917,0.2649857997894287,0.003934682363313583,0.0032941267907629058,-176.4836772161536,0.0
329,1.9154422283172607,-180.9389595903434,15.369800591245093,-150.60655052997586,-217.93000053350954,0.0,0.6865578419855645,0.1,0.0062618255615234375,0.13945555686950684,0.04975843,0.14106308,-182.54083379601298,-2.2961689026702192,-3.58106218494108,0.0,1922,0.30602121353149414,0.004483766132169058,0.0038125984559733467,-174.8274075020209,0.0
330,1.8710439205169678,-180.5324800375846,15.100432555431388,-148.18855956080642,-225.47096570001764,0.0,0.7108731583267933,0.1,0.006262302398681641,0.14584875106811523,0.050066464,0.15843184,-182.33999842017013,-2.2620578447353896,-3.5732225148755994,0.0,1910,0.2794179916381836,0.003313566855577212,0.0030461094261312934,-175.20284227118765,0.0
331,1.8849503993988037,-181.19206262420838,16.452763754717214,-145.53860071268184,-238.13023756490122,0.0,0.7287388167416868,0.1,0.00604557991027832,0.13483190536499023,0.04954485,0.13213252,-182.22520484057398,-2.27334533790343,-3.5867605501852746,0.0,1920,0.25686216354370117,0.003552543907453338,0.003193527652343851,-175.18151970799988,0.0
332,1.896601915359497,-180.84478778541998,15.583068381766887,-138.6169881253542,-229.09155676044278,0.0,0.6718131616461015,0.1,0.0059664249420166016,0.13485002517700195,0.048758082,0.1382862,-182.0871631350586,-2.224546722898307,-3.579137490894574,0.0,1945,0.251507043838501,0.0036143866704772412,0.003312333679936045,-174.21968322738718,0.0
333,1.888812780380249,-176.54236101454902,14.89605124752405,-146.43912191439208,-218.37209687022093,0.0,0.6982029442345632,0.1,0.009550809860229492,0.13269281387329102,0.049489155,0.14466186,-181.53268292300766,-2.1519533500467016,-3.493412390701156,0.0,1901,0.26645517349243164,0.003736917464825075,0.003259237159204807,-174.38562312231193,0.0
334,2.032857894897461,-178.91724442382397,15.103993696267196,-145.90003181324408,-215.01394112203508,0.0,0.697156951124108,0.1,0.00620269775390625,0.13260793685913086,0.049512494,0.15644422,-181.27113907308927,-2.234920075669588,-3.541357628415818,0.0,1905,0.2438044548034668,0.0043560243517687045,0.0038950119510938967,-175.38874452532903,0.0
335,1.8748719692230225,-180.89939750014966,16.154423154418343,-140.68797167970627,-223.6828078759217,0.0,0.7058791081803473,0.1,0.006437540054321289,0.23012781143188477,0.049618863,0.14264524,-181.23396491579533,-2.3594075549929325,-3.5805828870838745,0.0,1901,0.27880239486694336,0.003840112348180258,0.003596768512348785,-175.50211757162964,0.0
336,2.0888988971710205,-178.44737144453396,13.681802396585034,-133.42708474509004,-209.54481458299233,0.0,0.7195295613537854,0.1,0.0062713623046875,0.1414320468902588,0.048652258,0.14506783,-180.9553055686692,-2.1867360494319708,-3.531820214066327,0.0,1897,0.2753586769104004,0.004966678860037699,0.004424408832805671,-173.33045521232043,0.0
337,2.0358328819274902,-178.23689638433999,14.497202537104943,-147.43798675285288,-214.61407094322277,0.0,0.6554684286900809,0.1,0.005952358245849609,0.13045191764831543,0.04954201,0.1453936,-180.68346465023626,-2.304203968795561,-3.5278717164221565,0.0,1904,0.2447974681854248,0.004473628490231123,0.0037150979129056544,-173.50845177757844,0.0
338,2.1060547828674316,-178.94690466288242,13.859244616637636,-146.40514322526641,-207.13584719960002,0.0,0.6989502345968072,0.1,0.00603938102722168,0.13198590278625488,0.04839401,0.14085424,-180.5098086515009,-2.2910752906957854,-3.541452285145599,0.0,1893,0.236985445022583,0.004476989047766604,0.0038994578410812466,-175.49680537991065,0.0
339,1.9001660346984863,-179.1284706290452,14.5860998147469,-141.61164829047746,-214.72693355985677,0.0,0.6774590041825604,0.1,0.00619196891784668,0.1361854076385498,0.0496526,0.15188055,-180.37167484925533,-2.2577654322672713,-3.545756149620479,0.0,1896,0.2529296875,0.003682958842556476,0.002985209402791472,-176.3055725538129,0.0
340,1.9102349281311035,-180.04441641635728,15.219681805652705,-154.10913654392263,-229.7496333615684,0.0,0.6912855934425781,0.1,0.006375789642333984,0.1354234218597412,0.04939857,0.14987428,-180.33894900596553,-2.2801266253683665,-3.564269752799836,0.0,1888,0.26900386810302734,0.005351379192052187,0.004821349785392258,-173.8150581072402,0.0
341,1.852468490600586,-180.5144812252523,16.52002314405503,-146.98074465944023,-233.76936029167496,0.0,0.6829417721323099,0.1,0.006182670593261719,0.1382451057434082,0.048515,0.13318254,-180.35650222789423,-2.2745817273959634,-3.57282354373192,0.0,1913,0.24101567268371582,0.005353105762381569,0.004634360829675229,-173.33346492399642,0.0
342,1.8810451030731201,-177.0143181917134,17.353150020799934,-145.13563932165363,-256.00428626038337,1.0416666666666667,0.6670682214207556,0.1,0.04945540428161621,0.38593506813049316,0.04942374,0.14404885,-180.02228382427614,-2.1736302139423933,-3.5038060427576894,1.0416666666666667,1911,0.26463985443115234,0.006271115732271212,0.005431234868011886,-172.56774072450082,0.0
343,1.908205270767212,-181.38071263565158,15.532268371708785,-144.45600940728585,-237.1080937909404,0.0,0.7101721786071429,0.1,0.04585742950439453,0.1780378818511963,0.04989554,0.13714464,-180.1581267054137,-2.2735400206298397,-3.5905624411620187,0.0,1918,0.2688634395599365,0.004523017711719568,0.0038693059153589522,-172.7533774162481,0.0
344,2.279675006866455,-181.697478572906,16.618803663190736,-142.3271904573768,-239.06813755100623,0.0,0.7233416614004595,0.1,0.006142616271972656,0.14147353172302246,0.049208246,0.13447572,-180.31206189216292,-2.3135961341542157,-3.597176765709163,0.0,1912,0.2517251968383789,0.004641640938836668,0.004102601045958058,-172.49860739892597,0.0
345,2.231083869934082,-179.46164248074152,14.422996848566214,-151.66069727731275,-229.87432216431225,0.0,0.7005720837883962,0.1,0.006452083587646484,0.14572906494140625,0.04974049,0.14499629,-180.2270199510208,-2.3201505067703914,-3.552034339241636,0.0,1883,0.24489355087280273,0.004044775139348911,0.0035587426204539267,-171.80674083222067,0.0
