iteration,time_sampling,stoc_pol_mean,stoc_pol_std,stoc_pol_max,stoc_pol_min,rollout_success,alpha,delta,time_vpg,time_npg,kl_dist,surr_improvement,running_score,rwd_sparse,rwd_dense,success_percentage,num_samples,time_VF,VF_error_before,VF_error_after,eval_score,eval_success
0,1.9234626293182373,-25.04254783047993,5.644556536072503,15.233363145852039,-28.141794470042335,0.0,2.573600272963756,0.1,0.05917167663574219,0.2894251346588135,0.048633,0.04612541,-25.04254783047993,-0.2568882445096852,-0.2502215778430186,0.0,9600,0.8883178234100342,0.9897463543238684,0.16633500680402952,-19.33699967946081,0.0
1,1.7972841262817383,-11.648799409551453,13.591874606090201,27.087958905661516,-27.94095770827804,0.0,3.2784022188418604,0.1,0.015298843383789062,0.29132747650146484,0.054508414,0.030573417,-23.70317298838708,-0.15013994918771742,-0.11638994918771743,0.0,9600,1.0899481773376465,1.1330644859893766,0.2591242531414306,-19.17450105335674,0.0
2,1.7368664741516113,-3.1441956320028797,13.88213337250114,31.440890504546896,-27.72747829693841,0.0,2.5874485917835894,0.1,0.006654977798461914,0.14702653884887695,0.067671604,0.040910278,-21.647275252748663,-0.10180414420944728,-0.03138747754278062,0.0,9600,0.5761995315551758,0.6011915281400064,0.4747654889497417,-19.323873751013057,0.0
3,1.6969881057739258,10.75532411736529,18.82216458127353,47.90731162468921,-26.123294340301555,0.0,3.437627294482834,0.1,0.006286144256591797,0.26722073554992676,0.06736029,0.03418418,-18.40701531573727,-0.08449941176617799,0.10716725490048869,0.0,9600,1.088181972503662,0.8789437036687987,0.6827480269753449,-18.428447473412856,0.0
4,1.6308774948120117,35.026025557082164,26.77346085895041,106.62904509956782,-17.51557257490429,2.0833333333333335,3.407016651823823,0.1,0.009081363677978516,0.3314695358276367,0.055329483,0.03213062,-13.063711228455327,-0.07385157677473685,0.35031508989192983,2.0833333333333335,9600,1.0410785675048828,0.732349491494893,0.5064576092314264,-6.376036422249075,0.0
5,1.8500139713287354,33.37692482265209,35.88891477758187,152.58803988568542,-26.794704395083293,2.0833333333333335,3.0350190217667765,0.1,0.010571479797363281,0.27964234352111816,0.060426522,0.03438469,-8.419647623344584,-0.09859590080032059,0.3334874325330128,2.0833333333333335,9600,1.5408589839935303,0.5494788414876141,0.5126466255244626,-6.5478601859107695,0.0
6,1.6200120449066162,55.77871394492223,37.27768726031132,164.4231980081482,-22.92113557432394,7.291666666666667,2.9500634277345785,0.1,0.008569478988647461,0.30448365211486816,0.056205634,0.037599564,-1.9998114665179019,-0.05429035882335597,0.5573763078433107,7.291666666666667,9600,1.3995814323425293,0.4695881736099926,0.3838140712594429,-5.417325360315394,0.0
7,1.796335220336914,84.66690477918951,43.27001249002023,188.81315890313607,-12.163522143211148,21.875,2.952468205289296,0.1,0.010095596313476562,0.3210320472717285,0.05840791,0.03428769,6.666860158052839,-0.04747565223299453,0.8462743477670055,21.875,9600,1.3948173522949219,0.3685573728384737,0.22454565563778356,-4.6539264005225265,0.0
8,1.8189122676849365,123.45491382353369,44.54651186003423,245.19376667653748,11.395236493892828,32.291666666666664,2.3605555023942433,0.1,0.009158611297607422,0.2968614101409912,0.05736852,0.046296988,18.345665524600925,-0.03753573485793561,1.2324642651420643,32.291666666666664,9600,1.7329936027526855,0.21368964914820135,0.14123942856579386,-2.981667224649013,0.0
9,1.8358588218688965,169.57975992375668,45.497133377977356,301.59430516620495,83.5124155537065,64.58333333333333,2.2334268721412904,0.1,0.009652853012084961,0.3046073913574219,0.05499533,0.04694118,33.4690749645165,-0.03212487695259536,1.6941251230474048,64.58333333333333,9600,1.719144582748413,0.1603606349618026,0.09273483878835109,370.0180487274378,0.0
10,1.802520513534546,221.70049446974417,45.878829012951556,349.81999396134086,80.29227392094418,86.45833333333333,2.0178862530466213,0.1,0.008903264999389648,0.2953951358795166,0.056684136,0.050440107,52.29221691503927,-0.02758153619636544,2.215751797136968,86.45833333333333,9600,1.9925181865692139,0.12834578148372947,0.05538695983827627,414.49251517416053,100.0
11,1.7156383991241455,293.77961217396546,45.07758313390213,397.99673511155544,168.8736775676095,98.95833333333333,1.979269173196808,0.1,0.010256528854370117,0.31049537658691406,0.056339968,0.052132886,76.4409564409319,-0.023877958282856892,2.9357053750504765,98.95833333333333,9600,2.0207841396331787,0.08006425565845106,0.03313906136054161,758.9976912382209,100.0
12,1.9156525135040283,361.1497305485923,42.33703064452771,454.1737847820473,273.5468930931614,100.0,2.062559152070502,0.1,0.01321721076965332,0.28484106063842773,0.058587693,0.04845449,104.91183385169793,-0.021015246079915072,3.606901420586752,100.0,9600,1.9424984455108643,0.051790280207895334,0.019691941937904182,755.2314770171116,100.0
13,1.868880271911621,421.41925308937107,36.266449656713796,502.3902164485393,329.85911952015454,100.0,2.017616105720549,0.1,0.012485504150390625,0.33922576904296875,0.057705168,0.048571005,136.56257577546526,-0.018736192592590323,4.210847140740742,100.0,9600,1.9340662956237793,0.03232512661117459,0.012673096184779435,755.361114403516,100.0
14,1.8986620903015137,467.0855717223738,51.29291739275741,554.5723492759128,147.56388459975534,100.0,2.039168653757927,0.1,0.009530067443847656,0.292586088180542,0.05629036,0.048529845,169.6148753701561,-0.01749216893968576,4.667507831060314,100.0,9600,1.7973852157592773,0.023511557224902377,0.013222578233683795,767.4123589908587,100.0
15,1.9188361167907715,510.8337320723729,38.19610210481,594.6035314759664,430.1612923555357,100.0,1.9724770012091608,0.1,0.01071023941040039,0.30978846549987793,0.056733266,0.04813334,203.7367610403778,-0.01584484892650888,5.104155151073491,100.0,9600,1.658050298690796,0.018057877049235425,0.007477386607259714,763.3534271164674,100.0
16,1.885493516921997,554.2731823452903,30.554278686005485,626.7806390449393,454.3502154718524,100.0,2.2208727376300463,0.1,0.009888887405395508,0.30855226516723633,0.056249324,0.04345419,238.79040317086904,-0.014368980126805592,5.537714353206527,100.0,9600,1.8366632461547852,0.00934113469156428,0.0041320438130136765,771.3131088223969,100.0
17,1.8715360164642334,598.8625396806128,27.854281862778787,666.9026155170245,506.47102315525177,100.0,2.2735315923761976,0.1,0.012122154235839844,0.2854037284851074,0.056602262,0.041954037,274.79761682184346,-0.0130573674739059,5.984025965859427,100.0,9600,1.9163646697998047,0.00947597347948673,0.0035183171541818773,771.365665650097,100.0
18,1.6586260795593262,632.9240408012562,22.729729580243422,682.9255696789189,586.6137003448773,100.0,2.235925156634035,0.1,0.015018463134765625,0.29000377655029297,0.055398192,0.04617388,310.6102592197847,-0.012029496097781622,6.323803837235552,100.0,9600,1.7554521560668945,0.0038143510490777867,0.0018871468972825995,775.3389439518078,100.0
19,1.8873088359832764,659.1725127922506,20.871744089124917,702.9817121328243,602.7342668630656,100.0,2.24404186501396,0.1,0.009578943252563477,0.28757643699645996,0.055740654,0.04175285,345.46648457703134,-0.011208260202736417,6.587541739797263,100.0,9600,1.7193832397460938,0.003353369247426394,0.001746526694507489,779.3160682208434,100.0
20,1.6719141006469727,685.2499887788549,24.311511213794528,735.0745685843019,606.8029814521319,100.0,2.3506765918895813,0.1,0.008404731750488281,0.2763800621032715,0.048686415,0.037284017,379.4448349972137,-0.010436734126298683,6.846646599207035,100.0,9600,1.658576488494873,0.0035620588225976062,0.0015814431068693386,779.4287716879893,100.0
21,1.8189208507537842,700.5549997404363,19.95131053285104,743.1460807322024,654.8837129394835,100.0,2.366905808361131,0.1,0.015503883361816406,0.3014650344848633,0.023961129,0.022054069,411.555851471536,-0.009887285902707094,6.998862714097292,100.0,9600,1.5295593738555908,0.0016958184794829477,0.0012858320378260131,779.4499294400149,100.0
22,1.783095359802246,716.6455585557388,18.354371935380755,751.1983627224878,654.891557045031,100.0,2.5026188836663232,0.1,0.010082006454467773,0.30898261070251465,0.018699966,0.01703015,442.0648221799563,-0.009398953007124717,7.16018438032621,100.0,9600,1.5051555633544922,0.001699435885160473,0.0009703811298850895,779.4273614413945,100.0
23,1.7730557918548584,719.7792286940036,16.111871146628353,759.1484048649565,670.9457770777408,100.0,2.618930214208492,0.1,0.010335206985473633,0.3237178325653076,0.028567845,0.023766622,469.836262831361,-0.009312241225981881,7.191521092107351,100.0,9600,1.6741950511932373,0.0007796695255818275,0.0007664659704782381,783.4434558309238,100.0
24,1.8753166198730469,721.8233823158185,18.847743426133505,763.1517770991478,650.8771898602732,100.0,2.4293034000400904,0.1,0.008722066879272461,0.3204638957977295,0.027491888,0.021748746,495.03497477980676,-0.00928614967226856,7.211963850327732,100.0,9600,1.713759183883667,0.001070665372679135,0.0010084034822293684,783.4662348841217,100.0
25,1.8800122737884521,726.8021318034915,15.151647449134003,759.1965680303406,686.9660600569074,100.0,2.558989036671057,0.1,0.011827707290649414,0.3272724151611328,0.015520714,0.01441932,518.2116904821753,-0.009081936742815738,7.261751396590516,100.0,9600,1.7107207775115967,0.0006988915393255094,0.0006782845422644585,783.4276440227833,100.0
26,1.8798611164093018,730.8053610451493,16.689897435115356,767.2405586998458,686.9617484082082,100.0,2.6624130936965917,0.1,0.011767148971557617,0.3146224021911621,0.022149045,0.015957143,539.4710575384727,-0.00905142318083029,7.301365243485836,100.0,9600,1.6210758686065674,0.0007881250507321513,0.0007974743736668282,783.4136498761324,100.0
27,1.7815265655517578,731.5616429255532,16.57631210413145,767.2477548569767,686.9745177643031,100.0,2.9896288334902916,0.1,0.009222745895385742,0.345245361328125,0.013119252,0.010582346,558.6801160771807,-0.008986708057811911,7.309346625275523,100.0,9600,1.7697603702545166,0.0007728550402729995,0.0007086054949520526,783.4409376950697,100.0
28,1.8855409622192383,736.4552555139629,13.658772545698573,775.2237940904336,703.0351339690556,100.0,3.0850373674516804,0.1,0.011811494827270508,0.2733287811279297,0.020858243,0.013981848,576.4576300208589,-0.008802678112457473,7.35786398855421,100.0,9600,1.505932331085205,0.0006316781194846332,0.0005548938723312701,783.4046237018538,100.0
29,1.7809653282165527,737.0396213314174,14.307483816668704,767.2147258997611,699.0076164474133,100.0,3.300113664884455,0.1,0.010227441787719727,0.3323240280151367,0.021427685,0.014562915,592.5158291519148,-0.008790626237777446,7.3645427070955565,100.0,9600,1.712944507598877,0.0006039453768107984,0.0006102888544296291,783.4386183401725,100.0
30,2.1474645137786865,740.5522726156545,13.659697414363638,767.2222192342338,703.0101474434864,100.0,2.580228509965108,0.1,0.010803699493408203,0.2742919921875,0.016514339,0.014033235,607.3194734982887,-0.008665329911029779,7.399251336755637,100.0,9600,1.6566593647003174,0.0006383572099486901,0.0006271066809601814,783.4244753786099,100.0
31,1.853883981704712,738.5485022746406,17.039159505199756,775.2355038163188,699.0549674658138,100.0,2.771921492067542,0.1,0.011678695678710938,0.3167259693145752,0.029296061,0.01932437,620.4423763759239,-0.008703826987969688,7.37879617301203,100.0,9600,1.8919625282287598,0.0007550525537489892,0.000742073939240967,783.441431609444,100.0
32,1.9036548137664795,742.5965437976707,15.06813388799159,771.1935190264039,703.006237612023,100.0,2.881446019808013,0.1,0.009617805480957031,0.312211275100708,0.016749864,0.012522563,632.6577931180987,-0.008640462594050607,7.419276204072617,100.0,9600,1.952747106552124,0.0006091018832511266,0.0005537290194891431,783.4454254453864,100.0
33,1.8964319229125977,745.6058453985102,13.285403638258012,775.1699318313151,711.0577567151702,100.0,2.8281061047150686,0.1,0.009539365768432617,0.29573678970336914,0.017546428,0.014103771,643.9525983461398,-0.008545622904616931,7.450204377095383,100.0,9600,1.9618113040924072,0.0005036715503913934,0.00047072170618535445,783.4287374990909,100.0
34,1.7762255668640137,744.4378516964503,14.736545132542425,775.2668707455131,703.0601279679157,100.0,2.9252659922687276,0.1,0.009975433349609375,0.3101615905761719,0.020889016,0.014708567,654.0011236811708,-0.008557667499976327,7.43810899916669,100.0,9600,1.760530710220337,0.0005206509121046974,0.0005240730578813757,783.3996268180075,100.0
35,1.9530913829803467,747.1928108113989,14.3831434130487,775.234169048611,707.0523656308096,100.0,3.0300969541731306,0.1,0.009107828140258789,0.2768392562866211,0.0204368,0.013988813,663.3202923941936,-0.008505867884636144,7.466494132115364,100.0,9600,1.6287567615509033,0.000541531950423276,0.0005697075845244148,783.4329689655053,100.0
36,1.762845516204834,745.8148443766144,14.195362861883359,783.2359679910331,707.0433563555961,100.0,3.211259095768854,0.1,0.012476682662963867,0.29412245750427246,0.023560178,0.013982248,671.5697475924356,-0.00853728314942906,7.45271271685057,100.0,9600,1.5616309642791748,0.0006672083885897189,0.0006135450626046206,783.4284497918604,100.0
37,1.8145999908447266,746.9045927690628,15.01391964438646,771.2269836027923,699.0481641517869,100.0,2.7959390406832245,0.1,0.007454872131347656,0.31249260902404785,0.013573621,0.012115567,679.1032321100984,-0.008474310458878502,7.462775689541121,100.0,9600,1.659045934677124,0.0005332440545996651,0.0005430659515186457,783.3780300762882,100.0
38,2.034370183944702,751.5031849600581,13.44948192464726,779.2172352742401,711.0441759918983,100.0,3.066274332329187,0.1,0.009313106536865234,0.2970108985900879,0.027476972,0.016438153,686.3432273950943,-0.008323319519778952,7.508343347146888,100.0,9600,1.9020030498504639,0.0005733323525418979,0.0005190256511798994,783.4184068512023,100.0
39,1.88712477684021,751.3803781371726,12.857577634827779,775.2624383561329,723.0836753948861,100.0,2.975213515336818,0.1,0.016855955123901367,0.32094526290893555,0.015999608,0.011478209,692.8469424693021,-0.008302846404618867,7.507113820262049,100.0,9600,1.931288242340088,0.0005051082610336513,0.00046532398250758507,783.3770127515178,100.0
40,1.784989595413208,751.8375762628917,13.342663673532734,783.2548291080675,715.0557379104915,100.0,2.763893181262457,0.1,0.011034488677978516,0.32477235794067383,0.017076764,0.013149082,698.7460058486612,-0.008311979870745565,7.511688020129253,100.0,9600,1.7499840259552002,0.00045639904453833533,0.0004560484683931473,783.393151078286,100.0
41,1.6759326457977295,749.9559059274821,12.41839983987229,779.2266893939781,719.0590242060521,100.0,2.7148171130473124,0.1,0.009559392929077148,0.3268094062805176,0.029850712,0.018257208,703.8669958565433,-0.008380137773498041,7.4928698622265015,100.0,9600,1.410487413406372,0.00043412747567790237,0.00044724557241199083,783.4153081053389,100.0
42,1.7220458984375,753.0509515025618,10.995951218394909,775.271702545049,731.1061222406458,100.0,2.909852267208878,0.1,0.013192415237426758,0.3102278709411621,0.024635483,0.01601563,708.7853914211452,-0.008262090780385057,7.523821242552948,100.0,9600,1.952918291091919,0.0003712687844773681,0.00036596829106436916,783.3924789816069,100.0
43,1.852961540222168,752.9202171476396,12.0662368349107,775.2734958916639,723.0701167821634,100.0,2.8059400080421364,0.1,0.011873245239257812,0.2905435562133789,0.01910019,0.0139894495,713.1988739937947,-0.008317647167898998,7.5229323528321,100.0,9600,1.6679000854492188,0.00037065874731979616,0.00038205633642879045,783.3761284785874,100.0
44,1.8086001873016357,753.8454501792935,10.973818350798686,779.2257285753486,719.11751987936,100.0,2.7516519820764582,0.1,0.011387109756469727,0.31645798683166504,0.012216229,0.009345831,717.2635316123445,-0.008235660017786478,7.531764339982213,100.0,9600,1.7994825839996338,0.0004108784980834337,0.0004074810135232428,783.394711182015,100.0
45,2.0062878131866455,755.1430176824797,12.160878456365388,779.2186712318639,719.0921964517772,100.0,2.772356586757744,0.1,0.010240316390991211,0.3098738193511963,0.018482713,0.01264471,721.051480219358,-0.008171556490256188,7.5455784435097435,100.0,9600,1.9466605186462402,0.0004438341148417216,0.0003980460510488592,783.383471431925,100.0
46,1.7561688423156738,755.390027575147,11.958407418297815,779.2389911384705,731.1180377510743,100.0,3.0045682884691054,0.1,0.011725664138793945,0.31508827209472656,0.02211951,0.014196552,724.485334954937,-0.008205872335655217,7.547210794331011,100.0,9600,1.7675526142120361,0.00040520702732144273,0.00040681129317565945,783.3940650209939,100.0
47,1.687835931777954,756.6010349713988,12.809394454689903,783.2625823516864,715.0424190952368,100.0,3.0033418721893517,0.1,0.010254144668579102,0.3486292362213135,0.019951671,0.013613434,727.6969049565831,-0.008180169122844125,7.559319830877157,100.0,9600,1.8782193660736084,0.00043734549973534285,0.0004238456491219053,783.3893416840517,100.0
48,1.7561016082763672,758.27220028795,10.550959242345803,779.2607485663326,731.1034183554162,100.0,3.769598115151084,0.1,0.011575937271118164,0.31412816047668457,0.032296643,0.015191841,730.7544344897198,-0.008132292948406297,7.576034373718261,100.0,9600,1.6914293766021729,0.00027400359579812827,0.000296077247032081,783.3750230102369,100.0
49,1.6431143283843994,756.4372598926747,10.804163940361462,775.2366876361665,711.0243394276976,100.0,3.1232785389374222,0.1,0.008046150207519531,0.2944462299346924,0.024390569,0.012946027,733.3227170300152,-0.00814755174902157,7.558935781584311,100.0,9600,1.9749114513397217,0.00030957695232519027,0.00030833782936785407,783.3270900720663,100.0
50,1.840132474899292,759.1508229687919,12.134633232661015,783.2469524551688,715.1136001867175,100.0,3.135813095408018,0.1,0.011577844619750977,0.2857532501220703,0.025085527,0.015399308,735.9055276238928,-0.008097245897552474,7.584819420769114,100.0,9600,1.8770711421966553,0.00039901354051461135,0.0003974841558596825,783.4233738025454,100.0
51,1.8439850807189941,757.4824187034998,11.630266803488048,783.259075698934,723.1161820279295,100.0,3.2115425606001726,0.1,0.011569738388061523,0.3111288547515869,0.01893093,0.011135789,738.0632167318535,-0.008113418020538539,7.568136581979463,100.0,9600,1.9754397869110107,0.000375807359208636,0.0003765267367738908,783.4028147014437,100.0
52,1.8312945365905762,760.8206114209821,10.085243412086399,783.2689813485715,731.1378455471067,100.0,3.763454894138896,0.1,0.009509563446044922,0.2715592384338379,0.038064316,0.020640299,740.3389562007662,-0.008067225139152458,7.60151610819418,100.0,9600,1.7214112281799316,0.00029997863568723197,0.0002948157086395782,783.4119047906083,100.0
53,1.6768772602081299,757.4812826859425,10.757229949635697,775.2626644997613,727.1483411462344,100.0,2.8416899630080033,0.1,0.008760452270507812,0.3079984188079834,0.030907711,0.02405768,742.0531888492839,-0.00812782751773318,7.5681221724822665,100.0,9600,1.6742146015167236,0.00030959201379882387,0.0003048205457620887,783.4230447365476,100.0
54,1.645172119140625,761.1236910183893,10.7913871294328,783.2927303670056,735.1786121716796,100.0,3.4618256237677554,0.1,0.009889602661132812,0.2978382110595703,0.030480586,0.017233,743.9602390661944,-0.007951677107597678,7.604548322892402,100.0,9600,1.7544035911560059,0.0003724419318773145,0.0003490588313191442,783.3914461665797,100.0
55,1.6288337707519531,762.0821764559269,10.083965942562594,783.3065984524962,735.1273959021895,100.0,3.721915903854295,0.1,0.009307861328125,0.315532922744751,0.03381795,0.016351696,745.7724328051676,-0.007949329865643437,7.614550670134356,100.0,9600,1.6230137348175049,0.0002945868360580628,0.00029632237141705224,783.4075378419125,100.0
56,1.7265324592590332,760.8709214777055,11.258705697346421,783.2767074507592,727.1622729460569,100.0,3.1223077235426993,0.1,0.009475469589233398,0.30136680603027344,0.017429858,0.010642321,747.2822816724214,-0.00797720455841172,7.602439462108255,100.0,9600,1.7889912128448486,0.00036765790798396635,0.00036194880880183883,783.4377229263257,100.0
57,1.77067232131958,759.201375596224,11.284763291247248,783.2414003423963,727.1076353691818,100.0,3.1388488016095253,0.1,0.008698225021362305,0.31154537200927734,0.026351769,0.013604524,748.4741910648016,-0.008008715120856272,7.585324618212478,100.0,9600,1.7924253940582275,0.00034428685993550845,0.0003637665223574224,783.356911070881,100.0
58,1.7905206680297852,759.4125017200386,10.82903484974659,779.2529103968003,715.1092776615501,100.0,3.3165631757417073,0.1,0.011593341827392578,0.3006906509399414,0.032829642,0.017681649,749.5680221303253,-0.00797973454068591,7.587853598792647,100.0,9600,1.792172908782959,0.00032531851410452155,0.0003000930944153692,783.3901836758939,100.0
59,1.8547654151916504,762.5865862359241,9.41451840478621,779.2664187662273,731.1552587656013,100.0,3.786296766400542,0.1,0.009936332702636719,0.2849297523498535,0.024632355,0.012235112,750.8698785408852,-0.007905662548123492,7.61917767078521,100.0,9600,1.6259760856628418,0.00026034818782740075,0.00025496700401109266,783.4111296870398,100.0
60,1.832322597503662,761.4166776532969,10.087176229085248,779.2933243515398,731.1347505017445,100.0,3.1531910278716686,0.1,0.009872198104858398,0.3021554946899414,0.033379313,0.019176453,751.9245584521263,-0.007938194155627918,7.60747847251104,100.0,9600,1.619924783706665,0.0002361343061925436,0.0002392009975997143,783.34508858524,100.0
61,1.9101219177246094,762.5440510491517,9.933438008346407,783.2719885333175,739.1585707952798,100.0,3.399046132166448,0.1,0.010471820831298828,0.28345394134521484,0.0270126,0.014314793,752.9865077118288,-0.00791415450348257,7.6187525121631845,100.0,9600,1.826007604598999,0.00029164794800991343,0.00028762988727654127,783.3979181342243,100.0
62,1.7830219268798828,761.6260235656476,9.086902447032209,779.2804381164124,739.1518803908235,100.0,3.5392408698178457,0.1,0.009970903396606445,0.30193400382995605,0.021917505,0.011813374,753.8504592972107,-0.00792721788841392,7.609989448778253,100.0,9600,1.721376657485962,0.0002623942547327758,0.00029846074843252745,783.3960576404119,100.0
63,1.7500720024108887,761.245915281151,10.492863957370439,783.2584390779875,731.0802612762999,100.0,3.249808364240211,0.1,0.012808799743652344,0.3255927562713623,0.022939181,0.0127418,754.5900048956048,-0.007978258375872944,7.605771741624128,100.0,9600,1.6942284107208252,0.0003366762878540479,0.0003395986128975242,783.4193858657933,100.0
64,1.7855439186096191,762.4237211746275,8.31978419430855,779.3054683317862,743.1414305166944,100.0,3.351195582288195,0.1,0.009417057037353516,0.3224310874938965,0.033038516,0.018535294,755.3733765235071,-0.007869078572976357,7.61754758809369,100.0,9600,1.9863169193267822,0.00024409860618836176,0.0002002600410347188,783.3337125914238,100.0
65,1.7302594184875488,761.8391487637695,9.75709223672203,779.2454422801821,743.1283148969371,100.0,3.318022533703034,0.1,0.010178804397583008,0.28705859184265137,0.03345526,0.017028827,756.0199537475332,-0.007879355287005991,7.611703978046329,100.0,9600,1.706176996231079,0.00027319519838108386,0.0002766073702353482,783.4343358779429,100.0
66,1.7039873600006104,763.8016305035011,8.482659893587604,779.2475250851433,731.1565592284758,100.0,3.7799363683258975,0.1,0.010720014572143555,0.30962252616882324,0.025616016,0.012406442,756.79812142313,-0.00783894762730212,7.631327719039365,100.0,9600,1.786485195159912,0.000193302907359172,0.0002106819144508969,783.4517207383333,100.0
67,1.900404691696167,763.1334417601392,9.628812323083734,783.1775845732525,735.1417071884442,100.0,3.4447590979687206,0.1,0.010276317596435547,0.34392809867858887,0.027131764,0.013621849,757.431653456831,-0.007854699487035434,7.624645300512964,100.0,9600,1.788909673690796,0.00024956107157814286,0.00023058685840149191,783.3665736768919,100.0
68,1.6464428901672363,764.3454930679296,10.022297559854849,783.2616611706874,723.1541174849052,100.0,4.246472048640218,0.1,0.010400772094726562,0.27736663818359375,0.03842435,0.016988078,758.1230374179408,-0.007817081310350901,7.636766252022983,100.0,9600,1.869565486907959,0.00023978257521660516,0.00024383430659710552,783.3528445955559,100.0
69,1.7505860328674316,765.9735248985257,8.66557323183942,783.3004006195724,739.1777629663043,100.0,3.200200824567406,0.1,0.014910221099853516,0.32131290435791016,0.033941675,0.019075133,758.9080861659994,-0.00778623843130891,7.653047094902025,100.0,9600,2.1119184494018555,0.0002041960927043704,0.00019875425892339042,783.3969559729127,100.0
70,1.7724244594573975,765.55797350918,9.012130044221063,783.3174015160029,735.143707962143,100.0,3.736214429539019,0.1,0.011460065841674805,0.35332822799682617,0.0367264,0.018123083,759.5730749003176,-0.007776976962001777,7.6488896897046645,100.0,9600,1.7060520648956299,0.00021668891363788657,0.00022572634080647152,783.4472906656305,100.0
71,1.8894267082214355,765.2223222488128,9.174357084357402,783.301773441517,731.1203319108212,100.0,3.4953729423813904,0.1,0.013099431991577148,0.289351224899292,0.030323397,0.014073202,760.137999635167,-0.007798542421668103,7.645951457578332,100.0,9600,1.7431459426879883,0.00024207398465325838,0.0002345031865410944,783.3911584892271,100.0
72,1.8846626281738281,765.0623730564504,10.284183490577535,783.2621396562657,735.1205453776123,100.0,3.5154379090465016,0.1,0.010004043579101562,0.3139069080352783,0.027538449,0.014069204,760.6304369772954,-0.007732954260230472,7.643933712406436,100.0,9600,2.042194128036499,0.0002633248253550941,0.0002562237354192277,783.4439173922069,100.0
73,1.8167109489440918,764.8028571281247,9.21174622094711,783.2235323996335,739.1154231177455,100.0,2.9488898687676874,0.1,0.011244058609008789,0.31080055236816406,0.02746989,0.017851781,761.0476789923783,-0.007826260239818309,7.641340406426849,100.0,9600,1.9157867431640625,0.00023330063792051384,0.000232710841738806,783.3988856425628,100.0
74,1.654130458831787,766.0574500800922,10.201569707572045,783.323293090956,719.1383541068454,100.0,3.5255266699316077,0.1,0.011490821838378906,0.3432290554046631,0.03448473,0.019146089,761.5486561011497,-0.007779788887132096,7.654303544446201,100.0,9600,1.7816877365112305,0.00024609598083227406,0.00024608965347571506,783.4722937804628,100.0
75,1.9064743518829346,765.3128320962672,9.563302857515426,783.3200580460585,739.1677356279203,100.0,3.332319588452055,0.1,0.010133981704711914,0.31398892402648926,0.029156819,0.016225899,761.9250737006615,-0.0077277919675786295,7.646438874699089,100.0,9600,1.9162037372589111,0.00023923042036345991,0.0002496512762301392,783.4667281037457,100.0
76,1.6757488250732422,764.7693826045291,9.5867412404062,783.3002645646959,735.1610789725794,100.0,3.6969800814240985,0.1,0.010593652725219727,0.3085441589355469,0.033450246,0.015683256,762.2095045910484,-0.007743301212498281,7.641840032120835,100.0,9600,1.7949979305267334,0.00027138235226826797,0.0002769782473780723,783.4153584190353,100.0
77,1.6666531562805176,765.5602600299973,8.790348169371583,783.2912414370927,739.1359332727367,100.0,3.406875594804984,0.1,0.010785102844238281,0.3116576671600342,0.029303165,0.016686369,762.5445801349432,-0.00775237973985587,7.648914286926811,100.0,9600,1.788316249847412,0.00024891983794212346,0.0002358507047579513,783.4221189296765,100.0
78,1.8792896270751953,766.7387962927005,8.16818995027086,783.2820440238916,743.2043000130492,100.0,3.4729716409552465,0.1,0.009260177612304688,0.3204371929168701,0.028107757,0.012646553,762.9640017507189,-0.0076360382150578695,7.6606972951182755,100.0,9600,1.983919620513916,0.0002263188343349783,0.00020251618107485113,783.4012984055817,100.0
79,1.7634074687957764,765.9845137649171,10.372858449473926,783.2917286082944,723.1521601681446,100.0,3.3150348288852203,0.1,0.011925697326660156,0.3168213367462158,0.036870297,0.019137092,763.2660529521388,-0.007677785078180452,7.653155548255152,100.0,9600,1.8308935165405273,0.00024049529173398226,0.00023960279697083075,783.4258601664684,100.0
80,1.7018604278564453,767.3946864833312,8.244580710297027,783.2916702814732,735.1546542363866,100.0,3.0570755679209936,0.1,0.009374856948852539,0.33426475524902344,0.03179379,0.017578982,763.6789163052581,-0.007740472229706985,7.668092861103626,100.0,9600,1.8156821727752686,0.00018139704286252557,0.00018395542074736086,783.4171317409841,100.0
81,1.7609901428222656,765.18503736122,8.816381007905575,783.2953015140587,739.1327311354765,100.0,3.2764877655931994,0.1,0.014094829559326172,0.3069162368774414,0.035147082,0.018009366,763.8295284108542,-0.007755579076148776,7.645161087590517,100.0,9600,1.804741382598877,0.0002502879418399804,0.00022205448121492827,783.335348926246,100.0
82,1.9721910953521729,766.8185334143982,9.215975257339293,783.3065210035835,743.1752533765657,100.0,3.0432787535145884,0.1,0.010367870330810547,0.31679868698120117,0.01954524,0.011811647,764.1284289112086,-0.007669454053691303,7.661913879279642,100.0,9600,1.8088924884796143,0.00022886720018579806,0.0002225653043015863,783.3890530172126,100.0
83,1.6782076358795166,767.8628990577258,8.206501276957823,783.1917184588583,743.1846926416189,100.0,3.6653995980788703,0.1,0.009259939193725586,0.30337023735046387,0.036555853,0.016689742,764.5018759258604,-0.007642808764642873,7.672357191235357,100.0,9600,1.8663902282714844,0.00019278384359090067,0.00019323898938520764,783.4016563797103,100.0
84,1.870011806488037,769.6132012248613,7.861968088752227,783.2946531378227,747.1641187566933,100.0,3.754898485634196,0.1,0.010530948638916016,0.33312249183654785,0.03813431,0.021520687,765.0130084557604,-0.007640369500963668,7.689859630499036,100.0,9600,2.084287405014038,0.00018113534180233353,0.00017441173721604046,783.3981068225057,100.0
85,1.6721768379211426,768.8333272413911,7.795595652193447,783.2797550918975,751.2215081414922,100.0,3.1941102337334497,0.1,0.012866497039794922,0.2949228286743164,0.03255442,0.016428977,765.3950403343235,-0.007521010619753003,7.682478989380247,100.0,9600,1.9074006080627441,0.0001701209974790006,0.00017219835583458636,783.3100338470006,100.0
86,1.8809154033660889,767.1942739922829,8.117447099867261,783.2795388616464,747.1717615897251,100.0,3.0980473402900093,0.1,0.009767293930053711,0.3136470317840576,0.026873617,0.013741918,765.5749637001195,-0.007663172141655096,7.665253494525011,100.0,9600,2.0651845932006836,0.00024629811536600044,0.00020272299318211477,783.3960008543576,100.0
87,1.915280818939209,768.953714125766,7.803114112277123,783.3228827456002,751.1969248735994,100.0,3.37884178850627,0.1,0.01136922836303711,0.31000638008117676,0.033483867,0.01618009,765.9128387426842,-0.007568542664609652,7.6828481240020565,100.0,9600,1.8133277893066406,0.0001691902231105175,0.000180366069706181,783.3817614001348,100.0
88,1.7887601852416992,770.1267466213848,7.694745884032611,783.3329570194267,751.1878932592277,100.0,3.3637211539975183,0.1,0.009808540344238281,0.3067450523376465,0.03860094,0.021784896,766.3342295305544,-0.00750463136928746,7.694578701964045,100.0,9600,1.9465603828430176,0.00016230004754648039,0.00015250792858008484,783.3157016481151,100.0
89,1.917651891708374,768.3311152413183,6.814186344335587,783.2632992929621,743.1486455059354,100.0,3.3990905703298373,0.1,0.010007619857788086,0.305126428604126,0.03707098,0.020741278,766.5339181016308,-0.007544076709137739,7.677039256624195,100.0,9600,1.880650520324707,0.0001522563496792671,0.0001403927392610748,783.3054412634947,100.0
90,1.87581205368042,767.4058522522205,8.440749855280295,783.30688440069,747.1994110964694,100.0,3.5459326629936188,0.1,0.009236812591552734,0.30991458892822266,0.03934842,0.019531531,766.6211115166898,-0.007631668682689617,7.66736833131731,100.0,9600,1.7510147094726562,0.00018840042213600982,0.00018926466678513334,783.3940833081059,100.0
91,1.8616352081298828,768.2833265012483,8.670945094203011,783.3129456410495,743.165971974543,100.0,3.029073763165203,0.1,0.009309530258178711,0.31927967071533203,0.027554862,0.0143504925,766.7873330151457,-0.007606748718819177,7.67614325128118,100.0,9600,1.577314853668213,0.00021684338469826902,0.00022105363766243788,783.3839162640832,100.0
92,1.6617896556854248,769.4218454919836,8.01688061398326,783.3476202234938,743.2184914206808,100.0,3.8060024293851837,0.1,0.008069753646850586,0.33227014541625977,0.03510276,0.017427392,767.0507842628296,-0.0074716170834430795,7.6875283829165575,100.0,9600,1.5172429084777832,0.0001923467516772805,0.00015291110290822696,783.3639512410609,100.0
93,1.6916511058807373,768.9597496186076,9.92564675109912,783.316187634323,735.0815214800724,100.0,3.3183163380020804,0.1,0.010786294937133789,0.2971162796020508,0.033996183,0.017732697,767.2416807984073,-0.007505389485539225,7.683744610514462,100.0,9600,1.8203349113464355,0.00027281750213620595,0.0002940768484951528,783.3786734997278,100.0
94,1.8847730159759521,768.9571483669009,7.5169286461800535,783.2909286928611,747.2628880738059,100.0,2.9343800404846734,0.1,0.010564565658569336,0.2993736267089844,0.027744796,0.014939496,767.4132275552566,-0.007534145244582697,7.6828825214220835,100.0,9600,1.6146345138549805,0.0001633072070443091,0.00015467239703000304,783.4125445435918,100.0
95,1.6670622825622559,769.2548425267238,7.632748359264728,783.3000806332485,751.1989768004514,100.0,3.229201047660262,0.1,0.010140180587768555,0.30489301681518555,0.031057155,0.016930943,767.5973890524034,-0.007474695490192028,7.685858637843141,100.0,9600,1.6128196716308594,0.0001647825279688917,0.0001556141987605363,783.4092674636088,100.0
96,1.7946090698242188,768.961583695283,8.197253387274252,783.3146531459747,743.2001660701807,100.0,3.375031152527518,0.1,0.009094715118408203,0.309581995010376,0.03352038,0.018585533,767.7338085166914,-0.007489450464811596,7.68334388286852,100.0,9600,1.5590333938598633,0.00018208619401477091,0.00017963395876686034,783.4568048290381,100.0
97,1.6487152576446533,768.9615206967025,7.951418372139802,783.3157344173395,739.2026219324335,100.0,3.3430090410115136,0.1,0.010178089141845703,0.31846022605895996,0.02929299,0.014516024,767.8565797346926,-0.0074900908084125474,7.682926575858254,100.0,9600,1.8463819026947021,0.00015291322838123427,0.00015213054866037353,783.4254227951534,100.0
98,1.9622142314910889,770.2618028696679,7.5273332632937064,783.3475924817659,747.19786518802,100.0,3.6217372755743202,0.1,0.009249687194824219,0.28168654441833496,0.030254968,0.015178273,768.0971020481901,-0.007405215311642242,7.6959281180216905,100.0,9600,1.7002286911010742,0.0001554095989689225,0.00017325977738454418,783.4273889784844,100.0
99,1.8143041133880615,770.518454292633,7.882076880975249,783.3305737090323,743.2204884260615,100.0,3.3557425119908415,0.1,0.009334087371826172,0.307952880859375,0.02919693,0.013844003,768.3392372726344,-0.007337670341833409,7.6984956629915,100.0,9600,1.9637994766235352,0.00020587473922898162,0.0001960259327501429,783.4618137988389,100.0
100,1.8470993041992188,769.6671321436728,8.927633111640088,783.3176117814371,739.1369938547624,100.0,3.505149469323799,0.1,0.009645223617553711,0.28240180015563965,0.034894694,0.017093733,768.4720267597382,-0.007518678360117217,7.689981321639883,100.0,9600,1.8929345607757568,0.000214528685110445,0.0002136982775509892,783.4300876171136,100.0
101,1.6600744724273682,771.6351152824624,7.916953933760705,783.3263874230067,747.1629458425573,100.0,3.401411639089401,0.1,0.009169578552246094,0.3315258026123047,0.028009802,0.013127766,768.7883356120107,-0.007420024921630388,7.709663308411703,100.0,9600,1.7109084129333496,0.0001951862014160789,0.0001727139463372771,783.4574150704444,100.0
102,1.7505204677581787,769.1730398936874,9.405545374498974,783.375550637197,743.2287575801059,100.0,3.0690283474425746,0.1,0.010388374328613281,0.32032084465026855,0.023218889,0.013706621,768.8268060401783,-0.007458048184345124,7.685458618482322,100.0,9600,1.5781877040863037,0.00025423237474319683,0.00029158408053933476,783.4545036237184,100.0
103,1.6487021446228027,772.480310526946,6.952285671668241,783.3624636613013,743.1592857613828,100.0,3.8731320965045186,0.1,0.015464067459106445,0.29290223121643066,0.040650934,0.019480675,769.1921564888552,-0.007302502335346292,7.718114164331321,100.0,9600,1.8480463027954102,0.0001506633402073867,0.00012961525737384443,783.465659563527,100.0
104,1.8713805675506592,772.8507205694837,6.586365580234059,783.3118122014671,755.214869668016,100.0,3.5396945126414066,0.1,0.017145156860351562,0.31935691833496094,0.039681748,0.018954284,769.5580128969181,-0.007348978428799144,7.721817688237867,100.0,9600,1.5810468196868896,0.00012166790661607246,0.00012747838929011833,783.4132439021436,100.0
105,1.7047975063323975,772.6495230816942,7.636260025927079,783.3523447439476,747.2124669246431,100.0,3.5357338718261087,0.1,0.009242534637451172,0.3316686153411865,0.027807087,0.014129147,769.8671639153957,-0.007277432083917266,7.719805901249416,100.0,9600,1.9175074100494385,0.00015746881430310565,0.0001486672470944098,783.4042279535159,100.0
106,1.7757313251495361,773.3309063133369,7.99993585897583,783.3399681028858,747.1724599921771,100.0,3.276700389822201,0.1,0.00996255874633789,0.3248739242553711,0.039782956,0.020472424,770.2135381551899,-0.007131330651456855,7.726618669348542,100.0,9600,1.9276752471923828,0.0001223914033194678,0.00012268454393289029,783.3797552817525,100.0
107,1.8643791675567627,772.0752871068526,9.016925488043823,783.3557180976745,743.2000356555981,100.0,3.368616731004456,0.1,0.009327411651611328,0.29635190963745117,0.041163594,0.02150314,770.3997130503562,-0.007185772103786573,7.7140642278962135,100.0,9600,1.958627462387085,0.0001999081141110062,0.00021022450880758424,783.4087425536301,100.0
108,1.7125229835510254,773.0788703045295,7.567030154227577,783.3575922064742,735.1875064980302,100.0,3.194390395371598,0.1,0.008771896362304688,0.34359002113342285,0.04280917,0.022459878,770.6676287757737,-0.007151995973699116,7.7240980040263,100.0,9600,1.9603395462036133,0.0001432232816602424,0.00013610147832969783,783.3664610003254,100.0
109,1.732787847518921,773.4124907127016,7.012485053593557,783.3559294361077,743.2295446607594,100.0,3.242177335252994,0.1,0.012228727340698242,0.2856135368347168,0.038244303,0.019163856,770.9421149694665,-0.0071471182402257005,7.727436215093107,100.0,9600,1.8388421535491943,0.00011657349356108058,0.00011904237094072078,783.3840063217821,100.0
110,1.7711453437805176,773.2102128786943,6.7487656952245185,783.3415118063429,751.2103569669571,100.0,3.17718855029721,0.1,0.008968830108642578,0.33483219146728516,0.0309954,0.013752345,771.1689247603892,-0.007087426296688486,7.725412573703312,100.0,9600,2.017054319381714,0.00013272594601397821,0.00012969562743126863,783.4068108147042,100.0
111,1.9401931762695312,774.8325747150711,5.457000200753236,783.3673393845477,759.1966294475661,100.0,3.905310928459914,0.1,0.010232210159301758,0.29165077209472656,0.041224446,0.019825913,771.5352897558575,-0.007114322594475392,7.741635677405523,100.0,9600,1.827690839767456,0.0001019185726348535,9.724268690186402e-05,783.3993790321531,100.0
112,1.914001226425171,774.4261601259742,6.478561774727687,783.3652064989757,755.2199961851206,100.0,3.8945295783539495,0.1,0.010715723037719727,0.3290293216705322,0.036216654,0.016880272,771.8243767928693,-0.007011202928045166,7.737572130405288,100.0,9600,2.0548856258392334,0.00011015586447443182,0.00012118570123753584,783.3636817288765,100.0
113,1.897454023361206,775.888797857158,5.641199544988939,783.3794705258059,759.2377374458913,100.0,3.877476406407521,0.1,0.010651826858520508,0.3085486888885498,0.043952685,0.021394609,772.2308188992982,-0.006968821242505315,7.7521978454241625,100.0,9600,1.8785483837127686,9.794164658500084e-05,9.299510077196982e-05,783.4025573941411,100.0
114,1.6481285095214844,775.1821234138639,6.085759664366324,783.379609241616,747.1921839594977,100.0,3.299337379247906,0.1,0.009898900985717773,0.28817176818847656,0.04037467,0.022021312,772.5259493507548,-0.006953119055664685,7.745130214277668,100.0,9600,1.7371959686279297,9.739864993423446e-05,0.00010590378925743403,783.4036281194742,100.0
115,1.9377267360687256,774.8454935859235,6.284579188324499,783.3909569455077,751.2862775025674,100.0,3.4710119471924843,0.1,0.00914454460144043,0.30403852462768555,0.037265554,0.021104733,772.7579037742717,-0.006985051993605241,7.741764948006395,100.0,9600,1.5621683597564697,0.00011322393864907957,0.00010524205662378293,783.3976780246037,100.0
116,1.808405876159668,775.430516940312,5.590315508916278,783.3696352378247,763.2485442726547,100.0,3.6391685528527877,0.1,0.009054422378540039,0.30899858474731445,0.038882393,0.01855807,773.0251650908757,-0.006966979953300795,7.747616353380033,100.0,9600,1.7335879802703857,0.00010033341121788227,9.360297908765399e-05,783.447640522973,100.0
117,1.711245059967041,776.3509567161818,5.120213139133957,783.3724873323118,763.3034268295336,100.0,3.981747469600023,0.1,0.013415098190307617,0.32198119163513184,0.04534172,0.020390011,773.3577442534063,-0.006929373204619667,7.756820626795381,100.0,9600,2.0447468757629395,8.185335809117949e-05,8.676123215978843e-05,783.4316883583391,100.0
118,1.6727147102355957,776.8951144212341,5.41677607968776,783.406326633352,763.2458817383258,100.0,4.252461126098332,0.1,0.01051783561706543,0.27724409103393555,0.034976043,0.014357861,773.7114812701891,-0.006905436821524597,7.762261229845142,100.0,9600,1.826927900314331,9.1092371826713e-05,7.975776978750014e-05,783.4286324424787,100.0
119,1.723564863204956,775.6445536387449,6.623189223917735,783.3838711607602,751.2354049126169,100.0,2.835915359004596,0.1,0.010363340377807617,0.29125332832336426,0.039340153,0.016870089,773.9047885070447,-0.006909485839495873,7.74975718082717,100.0,9600,1.4758508205413818,0.00010880109024003814,0.00010556806682175291,783.442968304715,100.0
120,1.8792002201080322,776.1415305706483,5.176343481070246,783.3626429235891,763.2799292689062,100.0,3.4311507667425825,0.1,0.015290975570678711,0.33249735832214355,0.034796406,0.017573807,774.1284627134052,-0.0069406901740757575,7.755142643159258,100.0,9600,2.016263246536255,8.749677748159345e-05,8.542027469632395e-05,783.4285951276638,100.0
121,1.9158389568328857,776.0532439465219,6.403088912461446,783.3628664929868,759.2480676236638,100.0,3.3933683934902388,0.1,0.009877443313598633,0.2920866012573242,0.0401065,0.019219404,774.3209408367168,-0.0069910424304176445,7.753842290902916,100.0,9600,1.5396459102630615,0.00010251783280416705,0.00010140137708972128,783.4233919431646,100.0
122,1.7784943580627441,777.229546162293,5.701577380220617,783.3811514123616,763.2527117087837,100.0,3.2881040395078482,0.1,0.009516239166259766,0.32825469970703125,0.039271776,0.019509202,774.6118013692744,-0.006892581837581177,7.765607418162419,100.0,9600,2.126861095428467,8.48939193797488e-05,7.868071910394218e-05,783.431278045676,100.0
123,1.938901424407959,777.2768776551233,6.042225930834696,783.386026307624,755.3066770749186,100.0,3.6934724881663272,0.1,0.01079869270324707,0.334397554397583,0.03916448,0.017022701,774.8783089978593,-0.006836656662392005,7.766080010004274,100.0,9600,1.9107024669647217,0.00010189285279889854,0.00010153436422051388,783.4161662260192,100.0
124,1.899329423904419,776.01844429907,5.460196614284781,783.3790911364783,763.2419309135113,100.0,3.8066419776417812,0.1,0.013870477676391602,0.3012685775756836,0.037774283,0.017450778,774.9923225279805,-0.006921666497798538,7.7534950001688685,100.0,9600,1.8370108604431152,0.00010354456359874299,9.427141764252532e-05,783.4154255084213,100.0
125,1.8178317546844482,778.1010902018456,5.055699099477167,783.3778670359363,759.2528536943164,100.0,3.9723384238752537,0.1,0.016560077667236328,0.3110518455505371,0.036961067,0.014633683,775.303199295367,-0.0069294568822816415,7.774320543117717,100.0,9600,1.7811126708984375,8.360287336098518e-05,6.331453452411942e-05,783.4327904043369,100.0
126,1.8493731021881104,777.7764805186613,5.187506276166103,783.3718360032902,763.2669717067861,100.0,3.806917746659223,0.1,0.01371145248413086,0.3242068290710449,0.041351076,0.019240154,775.5505274176965,-0.00684148168085896,7.771075184985809,100.0,9600,1.6922988891601562,6.944330101343501e-05,6.872588406466887e-05,783.4032216352979,100.0
127,1.7733142375946045,777.6081575493721,4.935270212556227,783.4198444031103,763.3135978302868,100.0,4.357157883934523,0.1,0.008791923522949219,0.3606710433959961,0.035411634,0.011813453,775.756290430864,-0.006857532383601446,7.769392467616399,100.0,9600,1.9285550117492676,6.568660603023558e-05,6.132293899223425e-05,783.4110671425043,100.0
128,1.8073019981384277,777.44199597347,5.6727936720681225,783.3870868950426,755.2738333136152,100.0,3.5628042583130597,0.1,0.009828805923461914,0.33704638481140137,0.04125249,0.018050777,775.9248609851247,-0.0068549043034372694,7.767728429029895,100.0,9600,1.7350542545318604,7.192193473672447e-05,7.077100985049537e-05,783.4307559609334,100.0
129,1.6718826293945312,776.8955509617937,6.171003714430297,783.4058280365653,743.2006457071731,100.0,3.5594443565658125,0.1,0.01597762107849121,0.34781432151794434,0.041512825,0.02023289,776.0219299827916,-0.006900935332680477,7.762265731333986,100.0,9600,1.7973532676696777,9.948509914040704e-05,0.00010212519510336721,783.439000399527,100.0
130,1.6589672565460205,777.5687360407151,4.864283909568016,783.3790751934079,763.3039307010099,100.0,4.117285416604078,0.1,0.009180545806884766,0.30353879928588867,0.048298,0.02025406,776.1766105885839,-0.006835369081133133,7.7689979642522005,100.0,9600,1.9343726634979248,7.274612640637323e-05,8.228012224803027e-05,783.4322283661434,100.0
131,1.9106855392456055,777.3563220013784,5.818255302467514,783.3647118500046,755.259907027152,100.0,3.026490364536827,0.1,0.009934186935424805,0.3351743221282959,0.038120113,0.019605605,776.2945817298634,-0.006876645469568506,7.766873354530432,100.0,9600,1.7249574661254883,9.102774481148978e-05,8.141375397489695e-05,783.4306508583259,100.0
132,1.7447466850280762,778.2822810549773,4.681119275448368,783.3885409770676,763.2621892685781,100.0,3.4931186437270196,0.1,0.013820648193359375,0.32733678817749023,0.03503128,0.018266305,776.4933516623747,-0.0067827808038283255,7.776133885862838,100.0,9600,2.1346073150634766,5.694712229224796e-05,5.582566748697022e-05,783.4296015354585,100.0
133,1.7143950462341309,777.9496706743406,4.904690190037769,783.3948824240148,763.2632806358187,100.0,4.217020558428024,0.1,0.009730339050292969,0.33035802841186523,0.04490082,0.015372905,776.6389835635713,-0.006775904432055669,7.772807428901277,100.0,9600,2.188385486602783,5.827311876270883e-05,6.593004307106114e-05,783.4348273705145,100.0
134,1.6693823337554932,778.1919679043662,4.513383729612721,783.3653054513178,763.2603945746738,100.0,3.355512192359278,0.1,0.010095834732055664,0.30432605743408203,0.0403897,0.016500864,776.7942819976508,-0.006853468139630258,7.77564653186037,100.0,9600,1.9408531188964844,5.67852482716913e-05,4.9180025057678534e-05,783.4314776628761,100.0
135,1.86732816696167,778.568044518403,4.496513626553383,783.3868701680343,763.2429355389039,100.0,4.477213445513867,0.1,0.010005950927734375,0.2975900173187256,0.04395627,0.016335825,776.971658249726,-0.006842255581831332,7.7789910777515034,100.0,9600,1.8268420696258545,6.184310771670178e-05,5.631065724167394e-05,783.4209599689027,100.0
136,1.9169836044311523,778.5266855506903,4.656578644689177,783.413760097564,759.2417110697226,100.0,3.77153346476356,0.1,0.009203195571899414,0.30318689346313477,0.044046428,0.021379631,777.1271609798225,-0.006838630177447902,7.778578036489218,100.0,9600,1.4551613330841064,5.830102235852249e-05,5.851456244831797e-05,783.3676563194421,100.0
137,1.868295669555664,778.1119752954006,4.990755471861503,783.3721725380809,767.2389689404333,100.0,3.8056199587314414,0.1,0.010046720504760742,0.3354527950286865,0.029249165,0.011887464,777.2256424113804,-0.006820231528192343,7.7744297684718076,100.0,9600,1.6877737045288086,7.555912564699006e-05,7.609618749516567e-05,783.41769391031,100.0
138,1.6696994304656982,778.8176492295853,4.305244053032915,783.3853608244309,767.2783079237502,100.0,4.18049175245126,0.1,0.014881372451782227,0.3172485828399658,0.03512155,0.015033901,777.3848430932009,-0.0068457650590707615,7.781487568274263,100.0,9600,1.931398868560791,5.4999106691844995e-05,5.657776136758571e-05,783.4106749239162,100.0
139,1.779970645904541,778.4436376406705,4.815662922848272,783.3920826794844,767.2683314124989,100.0,3.7676441991641405,0.1,0.011070966720581055,0.30481934547424316,0.04186943,0.023660207,777.4907225479478,-0.006837841960516289,7.777745491372817,100.0,9600,1.8651039600372314,6.736157617214348e-05,6.113224171158031e-05,783.3901803785218,100.0
140,1.6859257221221924,777.2321411030271,5.873151578403774,783.3607288128353,763.2282395111777,100.0,3.8379167843471578,0.1,0.009557723999023438,0.303300142288208,0.041349456,0.0163834,777.4648644034557,-0.006867090285679475,7.76563290971432,100.0,9600,1.942411184310913,8.68747953369057e-05,0.00012726650170290886,783.3988261867978,100.0
141,1.6695189476013184,778.0682901819282,4.347245542958814,783.3876681327056,763.2526537176543,100.0,3.568630280598183,0.1,0.010770797729492188,0.29230403900146484,0.03286129,0.017372591,777.5252069813031,-0.006840539496847209,7.773992793836485,100.0,9600,1.838362455368042,8.724908668790553e-05,5.1067522159238066e-05,783.3875736753621,100.0
142,1.8057096004486084,778.571687881048,4.6091769529175695,783.4159004516804,759.2456430922989,100.0,3.564899409484034,0.1,0.012479305267333984,0.3304159641265869,0.035664506,0.01705195,777.6298550712776,-0.006806249452048621,7.779027083881285,100.0,9600,1.7299859523773193,5.334688115887064e-05,5.6877537819942225e-05,783.4189741311355,100.0
143,1.8308334350585938,778.6983770354103,5.057637022029442,783.3881850497651,763.2927653462973,100.0,4.076843708969575,0.1,0.01047205924987793,0.28626108169555664,0.04492903,0.018925194,777.7367072676909,-0.006789695957533641,7.7802936373758,100.0,9600,1.6151745319366455,6.499815003879304e-05,6.767305568375828e-05,783.4079196781383,100.0
144,1.7146124839782715,778.0231426945512,4.999093149091646,783.3676450477275,763.2300107653429,100.0,3.8056997803326342,0.1,0.009907722473144531,0.3285644054412842,0.04235632,0.019623453,777.765350810377,-0.006874380382792876,7.773542286283874,100.0,9600,1.757615327835083,7.572856030343442e-05,6.890874904532669e-05,783.4426659273652,100.0
145,1.8654534816741943,777.6915721728938,4.833953454038157,783.3880654700115,763.2691842501752,100.0,3.266434087182377,0.1,0.011350393295288086,0.2727985382080078,0.041231144,0.020470375,777.7579729466287,-0.006857257771266119,7.770226075562068,100.0,9600,1.6105396747589111,6.860597862147587e-05,6.275320378555972e-05,783.4338508307065,100.0
146,1.648775339126587,779.1939865974804,3.9009194862766052,783.3748569125087,763.2268079383201,100.0,4.255612408404417,0.1,0.010139226913452148,0.31743812561035156,0.043871477,0.02052175,777.9015743117138,-0.006833687567966894,7.785249645765366,100.0,9600,1.3778636455535889,4.3399388114950486e-05,4.739649794634857e-05,783.3966722048787,100.0
147,1.6776387691497803,778.8145798452828,4.851123430386402,783.3764091282081,763.2601448195464,100.0,3.0840566887788965,0.1,0.013408422470092773,0.2882261276245117,0.039212666,0.016313292,777.9928748650708,-0.006876980336225365,7.781456352997108,100.0,9600,1.7354049682617188,5.550446115887465e-05,5.080297931631074e-05,783.4480636741915,100.0
148,1.8364953994750977,778.8219872883409,5.380056822266016,783.3768196256754,759.2364010154541,100.0,3.44968517289722,0.1,0.011075496673583984,0.2799108028411865,0.043770615,0.023111332,778.0757861073978,-0.006803022725706021,7.781530310607629,100.0,9600,1.7628889083862305,7.140139436553397e-05,7.03628579578937e-05,783.4368857122585,100.0
149,1.6234757900238037,778.0201047318518,5.066497279194141,783.3707292198874,763.2515685922059,100.0,3.2067943439738977,0.1,0.00950312614440918,0.3230588436126709,0.03158097,0.016176453,778.0702179698433,-0.0069046377211397685,7.773512028945528,100.0,9600,1.834312915802002,7.039669195017871e-05,6.997963879250323e-05,783.4468751278964,100.0
150,1.863020420074463,778.9432261848851,4.296756351331916,783.4072616827808,767.2596404300591,100.0,3.5953425359646407,0.1,0.007694721221923828,0.2914865016937256,0.038141802,0.016059415,778.1575187913476,-0.006840539051609927,7.782742794281724,100.0,9600,1.988910436630249,5.5181789823508034e-05,7.174454281589351e-05,783.4517411328543,100.0
151,1.7537002563476562,778.6127751579755,4.741369678595534,783.3805316390296,763.2780072783124,100.0,3.1592183526534083,0.1,0.009043216705322266,0.3019862174987793,0.03733565,0.018355396,778.2030444280103,-0.006811507728959175,7.779438492271041,100.0,9600,1.6599814891815186,6.477249302802915e-05,5.840284759349175e-05,783.4428346982469,100.0
152,1.6120188236236572,779.1588747842255,4.701130657501584,783.3992682205287,767.2501077634981,100.0,3.827090698325452,0.1,0.009154319763183594,0.2823493480682373,0.040558822,0.018472409,778.2986274636319,-0.0067696615582338955,7.784897005108434,100.0,9600,2.0156497955322266,6.741634332445573e-05,5.425760103810178e-05,783.4568056541817,100.0
153,1.7366530895233154,778.9945905570748,5.487837574832754,783.4005054641245,755.2417384030202,100.0,3.9580447914143484,0.1,0.011221170425415039,0.2858901023864746,0.04636832,0.018864565,778.3682237729763,-0.006744372196973945,7.783255627803026,100.0,9600,1.6701545715332031,6.945140018826489e-05,7.228215597239124e-05,783.4812986472133,100.0
154,1.673205852508545,779.8395795296498,4.064024581274932,783.4170591412865,767.2951430184903,100.0,3.9574291895038387,0.1,0.010019779205322266,0.30097079277038574,0.045246303,0.021801595,778.5153593486436,-0.006627148006508328,7.791706185326826,100.0,9600,1.7610969543457031,4.219848669010228e-05,4.450732684991442e-05,783.4477227166803,100.0
155,1.7986316680908203,778.8745397605202,4.326916580278301,783.3864398302361,767.2825315549841,100.0,3.8942340547738863,0.1,0.012597084045410156,0.2786896228790283,0.03936038,0.016563663,778.5512773898313,-0.006694198676407983,7.782055801323591,100.0,9600,1.6595008373260498,6.125331006938434e-05,5.803032564759104e-05,783.4447421953917,100.0
156,1.6498467922210693,779.7936763135176,4.513119330710462,783.4000210274294,763.3042018174068,100.0,3.6887085052063573,0.1,0.011574029922485352,0.3026542663574219,0.041941337,0.017765265,778.6755172822,-0.006668795842624806,7.791664537490708,100.0,9600,1.7396531105041504,4.7069405775893564e-05,4.5529892394146654e-05,783.4484944716863,100.0
157,2.0221540927886963,779.8782347130217,4.079216289187219,783.3997943933591,767.2849556528159,100.0,4.0964717614909905,0.1,0.010050535202026367,0.3062601089477539,0.0376653,0.01702071,778.7957890252821,-0.0066562153030658155,7.792093784696934,100.0,9600,1.8149199485778809,3.9142275408200584e-05,3.894944553093805e-05,783.4393708791455,100.0
158,1.9032049179077148,779.7614603934471,3.7750163045305523,783.4321484675946,771.2655077398808,100.0,3.951178046194126,0.1,0.012473344802856445,0.2866959571838379,0.039663814,0.017665755,778.8923561620986,-0.006576401415198957,7.7909235985848015,100.0,9600,1.9980719089508057,3.930133835578744e-05,3.794552435939107e-05,783.4431004410392,100.0
159,1.7520678043365479,779.9247782148936,3.8441398930461506,783.3984748307013,767.2918129632311,100.0,4.1056206696492445,0.1,0.00999140739440918,0.3237605094909668,0.035742436,0.014215141,778.9955983673782,-0.006608665780234418,7.792558000886433,100.0,9600,1.9585955142974854,3.879381083783749e-05,5.330833026748273e-05,783.4655092650381,100.0
160,1.7101120948791504,778.9623660303828,5.117939470856543,783.4212083948071,759.2494742455586,100.0,4.050763617942376,0.1,0.009250402450561523,0.30362701416015625,0.033830587,0.013140179,778.9922751336787,-0.006648980902579313,7.782934352430754,100.0,9600,1.8532743453979492,7.005311856552283e-05,6.667235774813196e-05,783.4173110611908,100.0
161,1.6571471691131592,779.7553787198167,3.9049694799345422,783.3949733956962,767.2470731294452,100.0,4.287600068043639,0.1,0.011187553405761719,0.30364251136779785,0.04125408,0.018434366,779.0685854922926,-0.006636478392176765,7.790863521607823,100.0,9600,1.7257282733917236,4.446301733383546e-05,4.252463908766461e-05,783.4638911621164,100.0
162,1.6675019264221191,779.0448206847146,4.886251108958892,783.398380422293,763.2839735869767,100.0,3.0771591373941245,0.1,0.010608434677124023,0.3161327838897705,0.030640693,0.015076746,779.0662090115349,-0.006658480457353756,7.783758186209314,100.0,9600,1.6932926177978516,5.78242101587805e-05,5.7916567335261173e-05,783.464695955218,100.0
163,1.8979930877685547,779.2085940911965,4.390467670879621,783.3919072848212,763.3198966341713,100.0,4.0327836398189305,0.1,0.012627363204956055,0.30866384506225586,0.04548503,0.019614153,779.080447519501,-0.006686999616091695,7.785396333717242,100.0,9600,1.6863834857940674,4.762680226550473e-05,5.0633703863874786e-05,783.4313111997371,100.0
164,1.960571050643921,779.083763923744,3.9600356317642373,783.3997854411153,767.3328952484852,100.0,3.735768729998476,0.1,0.012934684753417969,0.29138970375061035,0.037134316,0.01718677,779.0807791599253,-0.0066853522228676535,7.784147981110466,100.0,9600,1.804891586303711,4.524524891591663e-05,4.589695492315845e-05,783.4335168102588,100.0
165,1.9261577129364014,778.8337987527713,5.186777980518638,783.3899737861914,763.2659634588343,100.0,3.499900054276857,0.1,0.010810136795043945,0.3300647735595703,0.04344018,0.019335553,779.0560811192099,-0.006684660966673081,7.781648672366661,100.0,9600,1.7085466384887695,6.590119991373105e-05,6.46151100857182e-05,783.4417211397435,100.0
166,1.8287711143493652,779.4969513600919,4.594960242736113,783.397328639488,763.3057531932211,100.0,3.3598089671940223,0.1,0.011212348937988281,0.33863282203674316,0.034458656,0.017793661,779.1001681432981,-0.006719373858351065,7.788280626141648,100.0,9600,1.7532260417938232,5.390281097016462e-05,5.664357787633322e-05,783.4730729510497,100.0
167,1.7984592914581299,779.1637536115248,4.128051347716258,783.4015371292888,767.3238173451364,100.0,3.649804625960824,0.1,0.009961843490600586,0.29929661750793457,0.044345446,0.023070464,779.1065266901209,-0.006718315041587476,7.784948351625079,100.0,9600,1.9219388961791992,5.239978805532155e-05,5.621791608001263e-05,783.4559204773591,100.0
168,1.8652257919311523,778.7886118853843,5.541516272640177,783.4196592539141,759.2553839651519,100.0,4.001772150203897,0.1,0.00772547721862793,0.35015225410461426,0.04186833,0.01708802,779.0747352096472,-0.0067218320766043544,7.781194834590063,100.0,9600,1.5729124546051025,7.688138776143562e-05,7.009141265390272e-05,783.465358461963,100.0
169,1.7070121765136719,779.7092305566007,3.971311132955983,783.4061829034774,763.2643618619816,100.0,3.1619096221985434,0.1,0.011859655380249023,0.3165140151977539,0.04568018,0.022251807,779.1381847443427,-0.00668027158725232,7.790403061746081,100.0,9600,1.6565959453582764,3.929060288984462e-05,3.8457146180608126e-05,783.4078705420644,100.0
170,1.9187219142913818,779.6237439335437,4.300815913995713,783.3817134049228,767.2729719569173,100.0,4.624506316704051,0.1,0.010265827178955078,0.3135356903076172,0.042744815,0.017666271,779.1867406632628,-0.00670154110718538,7.789548458892816,100.0,9600,1.922780990600586,4.328498483958759e-05,4.312071106692724e-05,783.4573954750978,100.0
171,2.1036627292633057,779.4176451318954,3.6114172235271886,783.3896720547355,771.3063982866022,100.0,3.90033857919422,0.1,0.011596441268920898,0.31891298294067383,0.035541832,0.015625216,779.2098311101261,-0.006680745580052223,7.787485921086616,100.0,9600,1.80753493309021,4.08650885645057e-05,7.434850334180919e-05,783.4550294107667,100.0
172,1.958113670349121,779.3783813598433,4.389862429436023,783.3890884140452,759.2491737182027,100.0,3.910517440904194,0.1,0.010131597518920898,0.3295893669128418,0.032361876,0.015208212,779.2266861350978,-0.0066558334222322655,7.787094166577769,100.0,9600,2.0130555629730225,8.351790452127897e-05,5.491621524399679e-05,783.4847083489763,100.0
173,1.6860523223876953,779.1714305873453,4.363001933674767,783.3853184231918,767.3112838700438,100.0,3.7727884279178197,0.1,0.010483026504516602,0.2946796417236328,0.041437678,0.021738317,779.2211605803225,-0.006642305911131277,7.785024360755535,100.0,9600,1.878159999847412,6.846600376822928e-05,5.107407879156872e-05,783.4553069787609,100.0
174,1.6643943786621094,780.0465990454504,3.8821967040688126,783.3940530781472,763.3279971399649,100.0,3.4101806695331907,0.1,0.010313034057617188,0.33342623710632324,0.039619353,0.013635325,779.3037044268353,-0.0066409493815316155,7.793775717285135,100.0,9600,1.645519495010376,3.834497060676255e-05,3.630621223022521e-05,783.4642041240652,100.0
175,1.7840027809143066,780.2116066022548,3.578728489340134,783.4022919781156,767.3001540680632,100.0,3.274202296127558,0.1,0.010202884674072266,0.3188488483428955,0.03948386,0.020072795,779.3944946443773,-0.006657387324630664,7.795425946008702,100.0,9600,1.7739543914794922,2.984192364030659e-05,4.1311294240823646e-05,783.4786813050551,100.0
176,1.8913941383361816,780.6744105104138,3.103453086213719,783.4019079210171,771.2773248178088,100.0,4.441147370328257,0.1,0.010252237319946289,0.2888758182525635,0.04383404,0.018810244,779.522486230981,-0.006613276799876138,7.80005338986679,100.0,9600,1.7091639041900635,4.446698524332632e-05,3.2459580279271074e-05,783.4393466455865,100.0
177,1.666548728942871,779.9197649215308,3.7075019688109436,783.4118936108025,771.2802457877535,100.0,3.3475670538551214,0.1,0.008797168731689453,0.3229963779449463,0.045005955,0.02045788,779.562214100036,-0.006657783036651922,7.792508883630014,100.0,9600,1.7475411891937256,3.829407062059838e-05,3.6705066936476146e-05,783.4560662608227,100.0
178,1.757556438446045,780.1701657361222,3.520136980231337,783.3982887982493,767.2905624727839,100.0,4.70021502470432,0.1,0.009632349014282227,0.32599425315856934,0.045024548,0.019137444,779.6230092636447,-0.006654592810216906,7.795012073856451,100.0,9600,1.6306631565093994,4.079230210475692e-05,4.9789841278720793e-05,783.452313665352,100.0
179,1.6808273792266846,780.3428889490511,3.9714249607098973,783.4120540396732,767.2606478150998,100.0,3.832081780673439,0.1,0.010245084762573242,0.30638623237609863,0.03998201,0.016978512,779.6949972321853,-0.006594192307028245,7.796739141026305,100.0,9600,1.7378761768341064,5.7355827760151685e-05,4.572624561415582e-05,783.4544145831032,100.0
180,1.8475923538208008,779.7170634368887,4.412740393808616,783.4085872139722,767.2844699944621,100.0,3.5539473787783256,0.1,0.007804393768310547,0.3012728691101074,0.044815358,0.019530624,779.6972038526557,-0.00660338274229377,7.790479950591039,100.0,9600,1.7928085327148438,4.6868968203731665e-05,4.247439456468523e-05,783.4649864229837,100.0
181,1.6363451480865479,779.8045238346898,4.594628504556716,783.4032655287536,759.2638681446391,100.0,4.676355859947903,0.1,0.0114898681640625,0.32843446731567383,0.040914867,0.012955019,779.7079358508591,-0.006561397188747564,7.791355269477919,100.0,9600,1.9127771854400635,5.540248692177952e-05,5.352434923425983e-05,783.4790739046894,100.0
182,1.6923182010650635,780.2561995293458,3.994861599458941,783.3971104746529,763.2379168159467,100.0,3.6707444654483683,0.1,0.008975982666015625,0.3142967224121094,0.04780826,0.023537481,779.7627622187078,-0.006628380010052841,7.7958716199899465,100.0,9600,1.9790480136871338,4.811126045160608e-05,4.8011956865878245e-05,783.4679522235188,100.0
183,1.6634035110473633,780.1773981415122,4.440514284562982,783.3990372680084,759.3346158861352,100.0,4.210053477825367,0.1,0.010353565216064453,0.33405518531799316,0.041803546,0.015120619,779.8042258109883,-0.006581938035899405,7.7950847286307665,100.0,9600,1.858325481414795,4.565571018950443e-05,4.7239204520168006e-05,783.4833965490794,100.0
184,1.7212104797363281,780.094083179491,3.442701072214424,783.4058131836681,771.2516440594394,100.0,4.083059979193233,0.1,0.021381616592407227,0.3079259395599365,0.04297551,0.017605491,779.8332115478387,-0.0065825896010545054,7.794250743732278,100.0,9600,1.7950692176818848,3.663270313204298e-05,3.2781649191462364e-05,783.4629582961617,100.0
185,1.7358925342559814,780.8488429735249,3.291639894486917,783.4134319331114,767.2838229134308,100.0,4.004789895736535,0.1,0.010780096054077148,0.28955602645874023,0.041985523,0.017848816,779.9347746904073,-0.006534786351211668,7.80179854698212,100.0,9600,1.9788830280303955,3.643469060413742e-05,3.394456336954167e-05,783.4911198415687,100.0
186,1.899667739868164,780.1315024759065,4.973505573330983,783.3994167847283,759.2558758406444,100.0,3.54033015370974,0.1,0.009694099426269531,0.3274204730987549,0.041947003,0.016858494,779.9544474689571,-0.006624434482997672,7.794625565517002,100.0,9600,1.762507677078247,5.984842064785956e-05,5.864290421790788e-05,779.4373879142848,100.0
187,1.9126341342926025,779.4221582708591,4.0480823221395985,783.3939952418001,767.2937157025365,100.0,4.070625905670519,0.1,0.013112783432006836,0.3036983013153076,0.04052701,0.013306713,779.9012185491473,-0.006631860842391157,7.788368139157608,100.0,9600,1.7491075992584229,3.799939257044377e-05,3.804513666070329e-05,783.4490510827613,100.0
188,1.6576545238494873,781.2220691946103,3.1687032097899865,783.4249983529119,767.3054622148778,100.0,3.912967740199445,0.1,0.008446931838989258,0.2957432270050049,0.042417258,0.019542703,780.0333036136936,-0.006553724144381275,7.8055296091889526,100.0,9600,1.720472812652588,3.322393158316123e-05,2.7651350287027462e-05,783.4475636077143,100.0
189,1.8441810607910156,779.80076926631,4.481568721319824,783.4122833490827,759.2937096896986,100.0,3.5301114777004754,0.1,0.009708166122436523,0.29538631439208984,0.04114455,0.018049397,780.0100501789553,-0.006598051878584014,7.791318614788082,100.0,9600,1.865229606628418,4.9985497884445616e-05,5.013677249097441e-05,783.4583265007303,100.0
190,1.6566057205200195,779.7540917780389,4.113308227809026,783.3903703472294,763.2962010676857,100.0,3.918450939176819,0.1,0.00963449478149414,0.31165170669555664,0.037746187,0.019954981,779.9844543388638,-0.006649853518025471,7.790850146481975,100.0,9600,1.7744042873382568,4.7938753914832175e-05,4.1555531687668344e-05,783.4069222309769,100.0
191,1.6210665702819824,780.9261498351838,3.991706529200064,783.4461729928391,763.2587831703036,100.0,4.227349090117203,0.1,0.013518571853637695,0.2760896682739258,0.043905254,0.018036235,780.0786238884958,-0.006595350053875993,7.8025713166127915,100.0,9600,1.7459537982940674,4.885151702941196e-05,4.5292808827437954e-05,783.4378895448,100.0
192,1.67942214012146,779.8783611492994,4.397309845473155,783.3998442122863,767.258436385246,100.0,4.055322246405262,0.1,0.010043144226074219,0.2774231433868408,0.04698248,0.022361122,780.0585976145761,-0.006655251258620257,7.79209474874138,100.0,9600,1.9054958820343018,6.535767452198088e-05,6.199904554403263e-05,783.4534374155323,100.0
193,1.8009939193725586,779.7979684463353,4.32751858749853,783.3908358345253,767.2669964146868,100.0,4.734349150686699,0.1,0.00949859619140625,0.29434871673583984,0.039930783,0.018539589,780.032534697752,-0.006627054878710873,7.791706278454623,100.0,9600,1.5729467868804932,6.147929366127115e-05,4.8205384206921733e-05,783.445630117983,100.0
194,1.6070687770843506,780.1692535924489,3.837564219761187,783.4091353810003,767.2661095894073,100.0,4.718054857761574,0.1,0.01208043098449707,0.25925397872924805,0.047228023,0.01979082,780.0462065872217,-0.006664246446179881,7.795002420220487,100.0,9600,1.5345263481140137,3.6678886825502204e-05,3.8380679732753714e-05,783.4609012860072,100.0
195,1.7146210670471191,779.9619623774769,4.148856207332152,783.4093603768071,767.2557021054056,100.0,4.29264639828011,0.1,0.00983881950378418,0.3054215908050537,0.043451265,0.018640816,780.0377821662472,-0.006652091570008752,7.792931241763326,100.0,9600,1.6319584846496582,5.647603211286121e-05,5.202876506366856e-05,783.4484151275187,100.0
196,1.8356654644012451,780.5521211120998,3.761008579084077,783.4095254764707,763.2752300684884,100.0,4.441993192459379,0.1,0.007662296295166016,0.2817060947418213,0.043017834,0.017520828,780.0892160608325,-0.00658741416052918,7.798829252506138,100.0,9600,1.6761550903320312,3.993785880807326e-05,3.669333844426744e-05,783.451625888122,100.0
197,1.7504746913909912,779.2132041853374,5.062876810063213,783.4089842334716,759.2794258245668,100.0,3.891155483763926,0.1,0.008992910385131836,0.27890920639038086,0.044552308,0.020458616,780.001614873283,-0.006641350520018899,7.785441982813315,100.0,9600,1.710315227508545,6.885473369797114e-05,6.340545600927082e-05,783.4560242082464,100.0
198,1.8861732482910156,779.8346821382744,3.6712437693927287,783.4002173424155,771.2816521461925,100.0,4.0534499322408895,0.1,0.010136604309082031,0.3097379207611084,0.038270235,0.018139936,779.9849215997822,-0.006677477610320312,7.791655855723015,100.0,9600,1.6872761249542236,3.9284991849038196e-05,3.683219627870303e-05,783.4600949829629,100.0
199,1.7461910247802734,780.9249341153541,2.9195179148977655,783.4127414218882,771.3141516258006,100.0,4.160783236280387,0.1,0.013383150100708008,0.3102447986602783,0.04401561,0.017359173,780.0789228513394,-0.006608433225166407,7.802558233441499,100.0,9600,1.6843748092651367,3.076109041295858e-05,3.300517255285025e-05,783.4675044396569,100.0
200,1.6296229362487793,780.0010065102728,4.2820687601525895,783.4011752682486,763.3044307337544,100.0,3.5869300595564417,0.1,0.008825540542602539,0.31551432609558105,0.046682574,0.017243266,780.0711312172327,-0.00667964171096493,7.7933203582890345,100.0,9600,1.7805976867675781,5.7148862504297796e-05,4.874832099528747e-05,783.4389600077207,100.0
201,1.6909654140472412,779.5928228896449,4.2446770411054935,783.4032902538893,767.2944162347643,100.0,3.462699948573778,0.1,0.012136697769165039,0.2994265556335449,0.042003337,0.01923823,780.0233003844739,-0.006594568468332218,7.789655431531668,100.0,9600,1.9424586296081543,5.1502389832128596e-05,4.564910315683451e-05,783.4448555388223,100.0
202,1.8757617473602295,779.7613550245572,4.75347967395045,783.4128928195164,763.2917614044941,100.0,3.9796095898320814,0.1,0.01403355598449707,0.2987678050994873,0.042489365,0.017020872,779.9971058484823,-0.006575828831612461,7.790924171168387,100.0,9600,1.8874452114105225,5.6987643613064714e-05,5.7103939960974925e-05,783.465342526609,100.0
203,1.7520530223846436,780.7134093083646,3.613343593554686,783.4110291969121,767.2662685745003,100.0,3.784205619608889,0.1,0.010422945022583008,0.3361811637878418,0.033532094,0.015429183,780.0687361944706,-0.0066395673909721365,7.8004437659423616,100.0,9600,1.848573923110962,3.7068592183658547e-05,3.48284422976615e-05,783.4509210509492,100.0
204,1.9020404815673828,780.3021121077209,3.917283153885059,783.4020942174851,767.2907577694167,100.0,3.9980822297207745,0.1,0.00876164436340332,0.3066861629486084,0.046350896,0.02297241,780.0920737857957,-0.006585774437893154,7.796330892228774,100.0,9600,1.8010573387145996,3.398934507720801e-05,3.595664399483319e-05,783.4187772157482,100.0
205,1.6743037700653076,780.2163912975934,3.4877835631494185,783.3931095650729,767.3052113981356,100.0,4.803284733076921,0.1,0.009387493133544922,0.31104087829589844,0.041690327,0.016304966,780.1045055369756,-0.00661027557019101,7.795473057763142,100.0,9600,1.7484877109527588,3.635682490886106e-05,3.510989389916604e-05,783.4499265767015,100.0
206,1.6782844066619873,779.6706528564724,4.624951087379632,783.4094854294394,759.2221246519824,100.0,3.4015619153388412,0.1,0.012235164642333984,0.34496068954467773,0.028964907,0.014058478,780.0611202689253,-0.006649029442337163,7.790017637224328,100.0,9600,1.9247229099273682,4.687030618970563e-05,4.861637815400829e-05,783.4539557960235,100.0
207,1.6618165969848633,781.0502803272337,3.205408093145709,783.3943901196432,771.3268309600357,100.0,3.8230886069824273,0.1,0.01251077651977539,0.3322722911834717,0.038077466,0.018033072,780.1600362747561,-0.0066036593420247675,7.803813007324642,100.0,9600,1.9645929336547852,2.038034187785757e-05,2.007399988065843e-05,783.4395685126358,100.0
208,1.8510456085205078,780.3446274529148,3.6634215824234206,783.4065058007592,771.2742937144462,100.0,3.860399754587457,0.1,0.010448455810546875,0.3262803554534912,0.041908745,0.02089466,780.1784953925719,-0.006575647117507819,7.796757686215826,100.0,9600,1.7155194282531738,3.4942499133727e-05,3.427678891945299e-05,783.4515324356239,100.0
209,1.792872667312622,779.5488627667715,4.676070484300004,783.4047489678247,759.3032709927414,100.0,3.9667232852087824,0.1,0.015503406524658203,0.3322446346282959,0.041370574,0.015459719,780.1155321299918,-0.006617798171530053,7.788798868495136,100.0,9600,1.8172693252563477,5.256876267442691e-05,5.417499346176578e-05,783.4522266395304,100.0
210,1.9221105575561523,780.1815917216078,3.6577441453957644,783.4155471681773,771.2826265315122,100.0,4.083470367464864,0.1,0.009092092514038086,0.34616947174072266,0.04570935,0.019868998,780.1221380891534,-0.006540133747920268,7.795126532918746,100.0,9600,1.8909029960632324,3.9354797932170014e-05,3.905996967653414e-05,783.4394903735966,100.0
211,1.8689618110656738,779.632829950233,4.605540856630138,783.4112812577957,759.3089050439427,100.0,4.355161638213178,0.1,0.010138750076293945,0.3384270668029785,0.045050185,0.017139789,780.0732072752613,-0.006611995935811565,7.789638004064187,100.0,9600,1.850536823272705,4.870875153020528e-05,4.803625730106931e-05,779.4315677676911,100.0
212,1.7445547580718994,780.3461279311124,4.6311457379572705,783.4089482696195,763.2744779992265,100.0,4.641839407829147,0.1,0.009776830673217773,0.31859731674194336,0.045702003,0.015562144,780.1004993408465,-0.006562905720678709,7.796770427612654,100.0,9600,1.9882826805114746,5.152477880631079e-05,6.123441844024195e-05,783.4420211825917,100.0
213,1.6970460414886475,780.640575139816,3.4016331109434255,783.406387194165,767.3059541144355,100.0,3.953258899593004,0.1,0.010117053985595703,0.326296329498291,0.035711545,0.016378062,780.1545069207434,-0.006534282635679174,7.799715717364321,100.0,9600,1.8750994205474854,3.8367159980361356e-05,2.4818333542199802e-05,783.4364841492022,100.0
214,1.8054957389831543,780.2640217253353,4.237904291189613,783.4226955467228,763.2707944611094,100.0,3.4928158072408353,0.1,0.008677959442138672,0.3161051273345947,0.039718512,0.016622283,780.1654584012026,-0.006549288531264005,7.795950711468737,100.0,9600,1.9167068004608154,3.894995302334858e-05,4.110617929179763e-05,783.4398029767547,100.0
215,1.741851806640625,780.1375066255764,3.69416947312793,783.4151495497615,767.3413913493671,100.0,4.63988734014754,0.1,0.010120391845703125,0.31083226203918457,0.04535034,0.01651674,780.16266322364,-0.006564766189604224,7.794685233810395,100.0,9600,1.821000337600708,4.1897750822929995e-05,3.742178375573471e-05,783.4574948822826,100.0
216,1.7101109027862549,780.3429011399949,3.419756991298212,783.4066027640465,771.3030973187942,100.0,4.109030073645454,0.1,0.00961756706237793,0.3200371265411377,0.04069907,0.017453475,780.1806870152756,-0.006594291957143642,7.796739041376189,100.0,9600,1.8108789920806885,3.0433319700806506e-05,3.130684135436613e-05,783.4544490249971,100.0
217,2.126624584197998,778.7524123426587,5.614018729048694,783.4192439750096,759.2691089195265,100.0,3.4370958570972037,0.1,0.010587692260742188,0.2998502254486084,0.038020395,0.017682824,780.0378595480139,-0.006666378536545101,7.780833621463455,100.0,9600,1.9787466526031494,6.932336651062125e-05,6.781018682405888e-05,783.4178950714088,100.0
218,1.6365442276000977,780.8469335513624,3.483064781782141,783.4260135264034,771.3137703449845,100.0,5.01068955820323,0.1,0.007903814315795898,0.29147815704345703,0.047629483,0.018821783,780.1187669483487,-0.006553849152595148,7.801779484180739,100.0,9600,1.9680352210998535,3.347809801501669e-05,3.0024072377791158e-05,783.4443982389862,100.0
219,1.7720119953155518,778.9619973337221,4.637994368975968,783.3970084229519,763.2677358508548,100.0,3.491988667379958,0.1,0.010553359985351562,0.318251371383667,0.03786607,0.017742686,780.003089986886,-0.006652411024773187,7.782930922308561,100.0,9600,1.7081830501556396,6.104513659721833e-05,5.312913767564088e-05,783.4524903389353,100.0
220,1.888044834136963,781.1423340875982,3.212390428819635,783.3934337662507,767.3071293417839,100.0,4.350665334611802,0.1,0.009401321411132812,0.30059218406677246,0.048227835,0.01622645,780.1170143969572,-0.006515955055460708,7.804734044944539,100.0,9600,1.6258790493011475,3.2541914616728415e-05,2.819736876705531e-05,783.4436987101508,100.0
221,1.7169663906097412,779.9681033965817,4.06277701834343,783.4003345785466,763.3273881927712,100.0,4.373441908345716,0.1,0.009167909622192383,0.3018317222595215,0.045722503,0.018997107,780.1021232969197,-0.0065923263333865926,7.792991006999947,100.0,9600,1.697282075881958,5.6341527773699155e-05,4.565777670506549e-05,783.4458781583653,100.0
222,1.7940423488616943,779.8840426093162,4.1234460435738605,783.4001623259818,767.2646895094766,100.0,4.120128825707466,0.1,0.008742094039916992,0.3240506649017334,0.044776525,0.017375609,780.0803152281593,-0.006599484296760222,7.7921505157032405,100.0,9600,1.9287474155426025,4.3517485524682725e-05,4.096191651466966e-05,783.454217141133,100.0
223,1.682413101196289,779.8802041582658,3.4549108305861376,783.398115282418,767.3212531449356,100.0,4.174771926727691,0.1,0.010038137435913086,0.2868685722351074,0.04374129,0.016443552,780.0603041211699,-0.006639232144613646,7.7921107678553865,100.0,9600,1.9877731800079346,3.156209998564324e-05,3.1179075523328965e-05,783.4375864341062,100.0
224,1.931335687637329,779.8454216417266,4.38127564339183,783.4019241639531,767.3039796858815,100.0,3.7140264510957333,0.1,0.010405778884887695,0.3351922035217285,0.04376337,0.019151747,780.0388158732256,-0.0065682074251072935,7.792181792574893,100.0,9600,2.0698611736297607,4.20749204983385e-05,4.161183561264454e-05,783.4552134716779,100.0
225,1.7849650382995605,781.0194917978764,3.10147461240757,783.4147545140231,771.2923470648306,100.0,3.269096948829684,0.1,0.008791446685791016,0.32174086570739746,0.047191717,0.021640863,780.1368834656907,-0.006495899523972846,7.803504100476027,100.0,9600,1.7459995746612549,2.442677188469432e-05,2.5081259206767005e-05,783.4321602721661,100.0
226,1.6839220523834229,780.8055001938234,3.481113227163286,783.416198997581,767.2823817096098,100.0,4.172304798899019,0.1,0.009918928146362305,0.3153371810913086,0.040867914,0.016559219,780.203745138504,-0.006551340905126826,7.80136532576154,100.0,9600,2.0200397968292236,3.082773046715847e-05,3.11887120082885e-05,783.4331740044106,100.0
227,1.695662260055542,779.8035166455501,4.131276938999542,783.3984283871492,767.2407538925488,100.0,3.9248048058619562,0.1,0.007984161376953125,0.3076298236846924,0.041509118,0.015539954,780.1637222892086,-0.006571501381343658,7.791345165285324,100.0,9600,1.8097670078277588,4.077254304220313e-05,3.9526458687896267e-05,783.4792553889389,100.0
228,1.7823669910430908,780.8412608225784,3.579887424237455,783.3912901151772,767.3352082756131,100.0,3.649778137292819,0.1,0.012587547302246094,0.3438694477081299,0.04712576,0.021643497,780.2314761425456,-0.0066113248434461055,7.801722008489887,100.0,9600,1.7002286911010742,3.4326774525486745e-05,3.5390487307040896e-05,783.483739825949,100.0
229,1.7629430294036865,780.3886455398915,3.436826612822232,783.4139279938546,767.279379769798,100.0,4.60669706594967,0.1,0.012067079544067383,0.34047842025756836,0.04645582,0.018755682,780.2471930822802,-0.00655315668556164,7.797613509981105,100.0,9600,1.7492914199829102,3.5924355401216164e-05,3.3285232635348374e-05,783.4625445613614,100.0
230,1.7032017707824707,780.6828190400978,3.6514804327125203,783.4152223541815,771.3028469184193,100.0,3.5931370075901303,0.1,0.00981903076171875,0.3071436882019043,0.042755138,0.017794179,780.2907556780619,-0.006528766554508234,7.8001379001121585,100.0,9600,1.8172097206115723,3.646039829678509e-05,3.567452717103022e-05,783.4642617511882,100.0
231,1.8567373752593994,780.3913067008976,3.387424932627879,783.4168154273842,771.3148102153888,100.0,3.6993448211122772,0.1,0.009215116500854492,0.3027355670928955,0.04665206,0.023608835,780.3008107803455,-0.006526300749683438,7.797223699250317,100.0,9600,1.7594892978668213,3.294969785268705e-05,3.3007256655712915e-05,783.4633005548069,100.0
232,1.991373062133789,780.3090967978168,3.5098771139448393,783.4232194873279,771.3220137926527,100.0,4.1778653955255605,0.1,0.01036977767944336,0.30339550971984863,0.046902493,0.022016779,780.3016393820926,-0.006515313126333924,7.7964013535403325,100.0,9600,1.798581838607788,3.251923624996279e-05,3.150862302681205e-05,783.4368698013147,100.0
233,1.6640207767486572,780.7187103581354,3.519320131134565,783.4155724997437,767.2847450175894,100.0,3.6844143090710375,0.1,0.008347749710083008,0.3256967067718506,0.041772466,0.017952954,780.3433464796968,-0.006586612680868795,7.800496720652464,100.0,9600,1.755385398864746,2.8566109702598853e-05,3.218848174594283e-05,783.4859318628845,100.0
234,1.707585096359253,780.8516510008991,3.532914397272189,783.4161226312544,771.263468572732,100.0,3.779986919165205,0.1,0.011647939682006836,0.334522008895874,0.03905799,0.018434146,780.3941769318171,-0.006506376306119252,7.801826957027214,100.0,9600,1.7266721725463867,3.2413241581614525e-05,2.8720384117446193e-05,783.4596746915779,100.0
235,1.659475564956665,780.4363525916118,3.9430986109682324,783.416969348329,767.3375863594298,100.0,4.371779955235919,0.1,0.009354829788208008,0.28946638107299805,0.044326257,0.01893284,780.3983944977966,-0.006491618320019457,7.798091715013314,100.0,9600,1.854271411895752,3.674263804507498e-05,3.913835149802637e-05,783.4561136664208,100.0
236,1.8638627529144287,780.4399675531323,3.6825993662722114,783.419098522399,767.3415914021642,100.0,3.884813086632315,0.1,0.010142087936401367,0.29032135009765625,0.04776028,0.021464944,780.4025518033302,-0.00645676509630923,7.797709901570357,100.0,9600,1.7869327068328857,3.696739934674729e-05,3.678331283841282e-05,783.4790664371161,100.0
237,1.8807973861694336,780.0141382429819,3.916193026952431,783.4195024136632,767.3008431675684,100.0,3.77686500144914,0.1,0.008711576461791992,0.300966739654541,0.046952236,0.021201976,780.3637104472954,-0.006546784822596727,7.793453215177404,100.0,9600,2.0012238025665283,3.6751446195927565e-05,3.731251949860763e-05,783.4921665179686,100.0
238,1.6381595134735107,780.5671277428228,3.2350641687479484,783.4231054842292,771.313150069167,100.0,3.712277223474624,0.1,0.009841680526733398,0.3008263111114502,0.043322958,0.020091722,780.3840521768482,-0.0064344518929425575,7.798982214773724,100.0,9600,1.846738338470459,2.5694899972930233e-05,2.5673473178765497e-05,783.4594670160143,100.0
239,1.7444753646850586,780.1014356586807,3.190127440634547,783.4124414818609,771.3176335508091,100.0,3.532060186797455,0.1,0.011898279190063477,0.30003952980041504,0.04449857,0.023620196,780.3557905250314,-0.006507276363408976,7.794326056969925,100.0,9600,1.6187644004821777,2.7908696512253392e-05,3.885146340469669e-05,783.4588823696055,100.0
240,1.8452723026275635,780.1445908176665,3.49962803317355,783.4101509989498,767.3052682123732,100.0,4.625379745734143,0.1,0.011106014251708984,0.29299497604370117,0.04762089,0.020549973,780.3346705542949,-0.006494155211847641,7.794755844788152,100.0,9600,1.6849472522735596,4.599587963630122e-05,3.3018628163375396e-05,783.4430072956974,100.0
241,1.8340566158294678,780.189387625465,3.8401133770488287,783.4154171172864,767.3155572126434,100.0,4.0857915708000245,0.1,0.008591651916503906,0.29877686500549316,0.043736774,0.018239066,780.320142261412,-0.006463240385564425,7.795203426281103,100.0,9600,1.7827560901641846,2.8819527519182304e-05,3.490559280462051e-05,783.4698244746762,100.0
242,1.634497880935669,780.3539310252113,3.6152487429746984,783.4191015580485,767.3289037730276,100.0,3.61669729215183,0.1,0.030866622924804688,0.3255882263183594,0.03970165,0.022109466,780.3235211377919,-0.006484730914869383,7.796848602418463,100.0,9600,1.7396855354309082,3.8517948013534235e-05,3.85680032148757e-05,783.4412870011705,100.0
243,1.6790380477905273,781.3164618480854,2.8396322872894726,783.41191572687,771.2980719285435,100.0,4.007725448941842,0.1,0.010017633438110352,0.32883501052856445,0.046443928,0.020182297,780.4228152088212,-0.006441952209267345,7.806474714457399,100.0,9600,1.6245694160461426,3.269559899014788e-05,2.237620673719761e-05,783.4718208974258,100.0
244,1.655766487121582,780.4775314315101,3.9993794914147913,783.4312896280513,759.3081481721317,100.0,4.285270165860019,0.1,0.009781360626220703,0.28917956352233887,0.047319233,0.017204579,780.4282868310902,-0.006498193639389881,7.798085139693943,100.0,9600,1.8232040405273438,5.5971458872916725e-05,5.428303371415149e-05,783.4348108061124,100.0
245,1.7026488780975342,779.4737709417474,4.0707877646951545,783.4113976570691,771.293012959016,100.0,4.0584834076016865,0.1,0.008778810501098633,0.2970421314239502,0.041330613,0.019003915,780.332835242156,-0.006535320636162595,7.788048012697171,100.0,9600,1.764225959777832,4.414278988051223e-05,4.2893255434359066e-05,783.4673658081429,100.0
246,1.8485233783721924,780.5626131787639,3.6215247087401536,783.4227260475805,767.2828519324111,100.0,3.564587010262782,0.1,0.01044011116027832,0.31510210037231445,0.046385445,0.022220016,780.3558130358168,-0.006481111386659466,7.798935555280008,100.0,9600,1.7840962409973145,3.183497456812487e-05,3.066387452531452e-05,783.4945052261792,100.0
247,1.994229793548584,780.1035959042038,4.340937217213408,783.4246663808628,763.3102872308158,100.0,3.930986288373692,0.1,0.012223482131958008,0.3058767318725586,0.04048151,0.018698744,780.3305913226556,-0.006486899547407034,7.794346433785926,100.0,9600,1.6694872379302979,4.0938923321422385e-05,3.986567885968208e-05,783.4660188434091,100.0
248,1.8251373767852783,780.397268391392,3.9365806126748177,783.4217106200831,767.3154133278408,100.0,3.7863665310106107,0.1,0.010195016860961914,0.3068547248840332,0.03868677,0.015406597,780.3372590295293,-0.006467197631750726,7.797282802368248,100.0,9600,1.8102388381958008,3.688155092649429e-05,3.626346458562811e-05,783.4759829944428,100.0
249,1.8506414890289307,780.5184142099447,4.841379463883322,783.4102001587219,751.2750424444449,100.0,4.511773255461182,0.1,0.010555505752563477,0.3043961524963379,0.041401044,0.016453119,780.3553745475708,-0.006505254244896137,7.798494745755104,100.0,9600,1.7849071025848389,5.7801572356727434e-05,6.40582949467881e-05,783.4616059943093,100.0
250,1.7258942127227783,780.109002161748,3.850282848880844,783.4178420591701,763.2973964482247,100.0,4.327119042006082,0.1,0.010087966918945312,0.321791410446167,0.043524735,0.020759562,780.3307373089885,-0.006432785828944243,7.794400547504389,100.0,9600,1.9482839107513428,4.4963619849954455e-05,3.9353231372056965e-05,783.4408964403243,100.0
251,1.8028206825256348,780.3616446549004,4.811944520034897,783.4460399573178,763.3033833326425,100.0,3.988615248050959,0.1,0.011734485626220703,0.31455516815185547,0.043952636,0.01726253,780.3338280435797,-0.00640833667393436,7.796924996659399,100.0,9600,1.9020121097564697,5.3633981101247715e-05,5.704570884987543e-05,783.4664736040066,100.0
252,1.860018014907837,780.8605205215102,3.387680710358424,783.4235217959352,771.3049744736818,100.0,4.075897129583737,0.1,0.011654376983642578,0.29849839210510254,0.045296483,0.016850261,780.3864972913727,-0.006418030107660217,7.801915303225672,100.0,9600,1.9140880107879639,3.154128306545837e-05,3.522531388891165e-05,783.4813485103906,100.0
253,1.8374032974243164,780.5248580358617,3.835544173910598,783.4086157653092,767.3595580321427,100.0,3.142707785481253,0.1,0.010857582092285156,0.3460676670074463,0.03449591,0.017402682,780.4003333658217,-0.006441561131277501,7.798558438868722,100.0,9600,1.9617574214935303,4.3725174424349115e-05,4.7767249559582084e-05,783.4254339495902,100.0
254,1.7426197528839111,780.2310330567171,3.8908062031700146,783.4031583993559,767.3309317445963,100.0,4.143506035406462,0.1,0.01144099235534668,0.2952384948730469,0.04471726,0.020096915,780.3834033349112,-0.006462849914887765,7.795620483418446,100.0,9600,1.9743843078613281,4.911615351360771e-05,4.192299079640078e-05,783.4661867040613,100.0
255,2.0521068572998047,781.1497676427757,3.7896236705189286,783.4219444052501,763.3154823491772,100.0,4.496590012486634,0.1,0.011573076248168945,0.326479434967041,0.047965262,0.02012887,780.4600397656977,-0.006441763022972179,7.804808236977028,100.0,9600,1.8872196674346924,3.70197880539853e-05,3.0309207842700506e-05,783.4548579442359,100.0
256,1.703693151473999,780.4362720116125,3.8172192970721923,783.434079580184,767.3534729189469,100.0,4.355707003643946,0.1,0.010210275650024414,0.3299448490142822,0.043672804,0.022200434,780.4576629902892,-0.006492170646113346,7.797674496020554,100.0,9600,1.7909705638885498,3.800306297209183e-05,3.699965669603754e-05,783.4672003537144,100.0
257,1.966761589050293,780.7219315823073,3.6970765517099897,783.4009918065855,767.358537048784,100.0,4.485139406469313,0.1,0.012095451354980469,0.31714391708374023,0.04504046,0.017348113,780.484089849491,-0.00655297659261457,7.800530356740718,100.0,9600,1.7743220329284668,3.715263928802729e-05,3.586029290385069e-05,783.4606306748676,100.0
258,1.9707882404327393,781.3154227241547,3.113479417463503,783.4122915712264,771.3075648753277,100.0,3.555288839331283,0.1,0.011529207229614258,0.31778573989868164,0.039233636,0.016970241,780.5672231369574,-0.006453893947417597,7.80646277271925,100.0,9600,1.5893917083740234,2.9618054725185467e-05,3.1733966940553094e-05,783.4484228037134,100.0
259,1.8857343196868896,781.0998229838788,3.110987297600985,783.4176948179305,771.3056370403671,100.0,4.021109185303233,0.1,0.012243986129760742,0.30886173248291016,0.046805646,0.022333272,780.6204831216496,-0.006524416354452965,7.80430891697888,100.0,9600,1.830310344696045,2.7825773534534853e-05,2.726757964817196e-05,783.4474789639675,100.0
260,1.703176498413086,780.4306912629798,3.7290701107662665,783.4202042397424,763.3051475535945,100.0,4.224956362414075,0.1,0.011280298233032227,0.34357404708862305,0.04290924,0.012401766,780.6015039357826,-0.0065495758154914055,7.797617090851175,100.0,9600,1.8677403926849365,4.758118430461139e-05,3.897359059727515e-05,783.4545322762591,100.0
261,1.664473295211792,781.1018465038046,2.943549237683867,783.4157508221475,767.283098995987,100.0,4.25002624307968,0.1,0.011807441711425781,0.2879300117492676,0.044289988,0.019630415,780.6515381925848,-0.0065051684229255405,7.804328164910408,100.0,9600,1.8468401432037354,2.1616579283432743e-05,2.0946734996311862e-05,783.442947026693,100.0
262,1.8489115238189697,780.7676520954292,4.014176855419882,783.413156712569,763.245506477898,100.0,3.8352694589189835,0.1,0.012491226196289062,0.31543540954589844,0.042072233,0.017952552,780.6631495828692,-0.006512926796595872,7.800987073203404,100.0,9600,1.571495532989502,4.1226948736549013e-05,5.2654969842329805e-05,783.4574512680377,100.0
263,1.6696572303771973,781.1865480203618,2.76967055687047,783.4177851532178,775.3142720525055,100.0,4.242630322983795,0.1,0.009557962417602539,0.31746625900268555,0.04668156,0.020402158,780.7154894266185,-0.006491648710475179,7.805175017956191,100.0,9600,2.0162947177886963,3.9849110790132376e-05,2.4511641872006192e-05,783.4371155342416,100.0
264,1.6570422649383545,780.8949998885519,3.391917772914741,783.4183656891194,767.333882069508,100.0,3.551743564741991,0.1,0.010207414627075195,0.3188815116882324,0.04548371,0.02089424,780.7334404728119,-0.006489436533381278,7.802260563466618,100.0,9600,1.5813884735107422,2.760875216909051e-05,3.340849284783377e-05,783.4676579348055,100.0
265,1.8909006118774414,781.6037223896338,2.3721135923921355,783.4157862179193,775.3116608327506,100.0,3.6241504111538094,0.1,0.012117624282836914,0.3105502128601074,0.046773557,0.021135358,780.8204686644942,-0.00648506503650358,7.80934826829683,100.0,9600,1.5264666080474854,1.8483404914872623e-05,1.6338770460908792e-05,783.4745206521848,100.0
266,1.9188265800476074,780.9765764044026,3.739047037264886,783.4189056027523,767.2982809887894,100.0,3.9092748201574308,0.1,0.010452508926391602,0.32463550567626953,0.04313184,0.020357281,780.8360794384851,-0.006507064330491263,7.803076269002843,100.0,9600,1.6270134449005127,3.482617042356796e-05,3.487937421934582e-05,783.4254802784311,100.0
267,1.7246384620666504,780.9729799135717,2.807709890151958,783.3960194246914,775.2774952566094,100.0,4.363848683800715,0.1,0.01042795181274414,0.29984593391418457,0.033878308,0.01436541,780.8497694859938,-0.00654343456741998,7.803039898765913,100.0,9600,1.9173195362091064,2.4442878398247403e-05,2.6435097506645407e-05,783.4512007034946,100.0
268,1.7924368381500244,780.259048112725,4.426209312809137,783.4013804854172,755.2857171569667,100.0,4.782043745385662,0.1,0.010230541229248047,0.348238468170166,0.045991294,0.017065194,780.790697348667,-0.006598955772902788,7.795901044227097,100.0,9600,1.6166696548461914,5.546659144152763e-05,5.40371199150614e-05,783.457158758935,100.0
269,1.959791898727417,780.974212073277,3.3088214056697223,783.4177108769687,767.2735988335895,100.0,4.5452150987415605,0.1,0.009274721145629883,0.33614420890808105,0.045554616,0.016666926,780.8090488211279,-0.006531169174570601,7.803052164158763,100.0,9600,1.8535327911376953,2.9955287634794696e-05,3.632625206373992e-05,783.4415234352667,100.0
270,2.046599864959717,780.5560947597652,3.663509384089972,783.4033775403086,767.312296466366,100.0,4.377056738191518,0.1,0.010124921798706055,0.3014695644378662,0.040733434,0.016287398,780.7837534149917,-0.006546211080140487,7.798870455586527,100.0,9600,1.681861162185669,4.0400294832573326e-05,3.434896531163359e-05,783.4403347215723,100.0
271,1.7772047519683838,780.9351242794133,3.198181687957287,783.3970371760613,771.2926922806315,100.0,3.9929633290821656,0.1,0.010570764541625977,0.3200821876525879,0.034638654,0.016123457,780.7988905014338,-0.006505760072544731,7.802660906594123,100.0,9600,1.7128493785858154,2.399151742372501e-05,2.4161892870486298e-05,783.4407447549114,100.0
272,1.8981528282165527,781.2201553163246,3.2778062014201956,783.4216460372733,771.2916879365432,100.0,4.460502063577424,0.1,0.019054889678955078,0.32112836837768555,0.045215186,0.017266706,780.8410169829228,-0.006571875443317422,7.8055114578900175,100.0,9600,1.656750202178955,3.0555309698600174e-05,2.9503184588320186e-05,783.4384430300163,100.0
273,1.914743185043335,781.179329203144,3.0004429636740424,783.3951952077607,771.3031605989946,100.0,4.531089714966947,0.1,0.011072397232055664,0.34427666664123535,0.047440823,0.017909126,780.874848204945,-0.0065628997449187305,7.805103766921749,100.0,9600,1.8433897495269775,2.613580469431689e-05,3.090164028671123e-05,783.4148507005709,100.0
274,1.7600646018981934,781.3129608618968,3.066793734218807,783.4238739357683,763.2396306917291,100.0,3.8276192459690637,0.1,0.010015249252319336,0.3233625888824463,0.03830705,0.015703859,780.9186594706401,-0.006477800952924134,7.806438865713743,100.0,9600,1.7197520732879639,2.6818768430166174e-05,2.2248687686669062e-05,783.4162502651336,100.0
275,1.7582356929779053,780.8153196030675,3.5761225722140093,783.4131272907086,767.3027852311193,100.0,4.612433526853764,0.1,0.009911298751831055,0.3154478073120117,0.04700534,0.016210223,780.9083254838829,-0.006454673362408161,7.801461993304258,100.0,9600,1.6570768356323242,3.467030765154894e-05,3.494461012411414e-05,783.4133459293132,100.0
276,1.6300549507141113,781.3511775479377,2.8964610101001305,783.4120481528462,771.2803439844544,100.0,4.112805585187519,0.1,0.010300636291503906,0.30873799324035645,0.045371134,0.020661991,780.9526106902885,-0.006509366702575926,7.8072406332974245,100.0,9600,1.879847764968872,2.3512996595320392e-05,2.2765784887586294e-05,783.4101014886623,100.0
277,1.8465659618377686,780.8030074350751,3.1286042696125564,783.4219196167129,771.2693547831872,100.0,4.223786346689743,0.1,0.008289098739624023,0.2878382205963135,0.045821495,0.017769676,780.937650364767,-0.006577262476753962,7.801339404189913,100.0,9600,1.9721200466156006,2.5808883176048452e-05,2.9688094147251167e-05,783.4344608520039,100.0
278,1.9725468158721924,781.1820454356958,3.0022276195341986,783.4065600164577,771.305526158136,100.0,3.8479728283102963,0.1,0.014724254608154297,0.3276224136352539,0.044217493,0.018904675,780.9620898718599,-0.006536590406641685,7.805130076260025,100.0,9600,1.8426010608673096,2.5401645230157345e-05,2.2283689614050912e-05,783.4256611522314,100.0
279,1.6763865947723389,781.0157378327731,3.648967341400664,783.4396605247684,759.2872563877343,100.0,3.6777010993995085,0.1,0.00824737548828125,0.2630739212036133,0.034573592,0.013241902,780.9674546679513,-0.0065328598391644925,7.803467140160836,100.0,9600,1.6329457759857178,3.343154913854208e-05,3.3803847914903175e-05,783.4142632377029,100.0
280,1.6670808792114258,780.934371650873,3.301803182622317,783.4113604320177,767.2867282889451,100.0,5.0992808239118155,0.1,0.008868694305419922,0.29593467712402344,0.04424791,0.015463714,780.9641463662434,-0.00651311405190613,7.8026535526147605,100.0,9600,1.6690096855163574,3.2262811800141795e-05,3.344201869402576e-05,783.4395632422192,100.0
281,1.8438100814819336,781.1461696712369,3.111574851410393,783.4264130097768,771.2850516886019,100.0,4.740749373689943,0.1,0.008883476257324219,0.3251495361328125,0.04580334,0.014553665,780.9823486967427,-0.006477778708221236,7.804772221291778,100.0,9600,1.725785732269287,2.4264232331874625e-05,2.5419183019115578e-05,783.4195164126377,100.0
282,1.8541204929351807,780.8512424565661,3.435839865913777,783.4030542526124,763.3024267410867,100.0,3.7303829494294574,0.1,0.024137258529663086,0.30872440338134766,0.04037388,-0.00090523344,780.9692380727251,-0.0065114891028504205,7.801821844230484,100.0,9600,1.8164961338043213,2.70547068659434e-05,3.1489022576885365e-05,783.4443953977078,100.0
283,1.7471966743469238,781.352829339639,2.8942319186768657,783.4080255930444,771.2974835782019,100.0,4.942769373550836,0.1,0.008859872817993164,0.2957429885864258,0.048262067,0.017743982,781.0075971994166,-0.00649395067155031,7.806839382661782,100.0,9600,1.629199743270874,2.4087061333425103e-05,2.0629070786127267e-05,783.4243390152986,100.0
284,1.6256353855133057,780.9336641971073,3.19412435170181,783.3992408570232,771.3144522516606,100.0,4.683727027830975,0.1,0.010021448135375977,0.309734582901001,0.03986117,0.012894798,781.0002038991857,-0.0065199289741243276,7.802646737692544,100.0,9600,1.9549894332885742,2.245957899536278e-05,2.7947998659418516e-05,783.4290974757228,100.0
285,1.8262934684753418,781.0991719114281,2.8251587036335524,783.3913027477785,771.3209621201732,100.0,4.131999659181852,0.1,0.01063227653503418,0.2909047603607178,0.045176547,0.022141423,781.01010070041,-0.006530806289119212,7.804719193710881,100.0,9600,1.9284422397613525,2.880032295862127e-05,2.3217562047385404e-05,783.4063600590516,100.0
286,1.871258020401001,780.7669638030734,3.521735642969768,783.4273017402188,767.3247141385497,100.0,4.8956774199927855,0.1,0.018186569213867188,0.28751564025878906,0.03924356,0.01335501,780.9857870106764,-0.006520715343717158,7.800979284656283,100.0,9600,1.834343433380127,3.2541962140302114e-05,3.442540142572912e-05,783.4429310973163,100.0
287,1.8621175289154053,780.8858690188569,3.3909034339740196,783.4066253609707,771.322883903189,100.0,4.61912351044152,0.1,0.011448144912719727,0.32181739807128906,0.04718155,0.019493379,780.9757952114945,-0.006580380889769412,7.802169619110231,100.0,9600,1.7919411659240723,3.195002909974647e-05,3.4156276667313994e-05,783.4154787674275,100.0
288,1.7084565162658691,781.3523787707899,3.006938958949871,783.3933001471969,771.3406511479725,100.0,4.258205753418525,0.1,0.008960723876953125,0.30225324630737305,0.04924114,0.021414543,781.0134535674241,-0.006498529048547322,7.806834804284786,100.0,9600,1.779101848602295,2.4564138972409027e-05,2.3630651320063278e-05,783.4518646956866,100.0
289,1.6441237926483154,781.3939245864439,3.176160244009102,783.4243931478353,767.3004995432286,100.0,4.345319781221371,0.1,0.010138273239135742,0.3211393356323242,0.04912807,0.023662837,781.0515006693261,-0.006500271736328021,7.807249728263671,100.0,9600,1.679685115814209,2.8476260067477705e-05,2.681738862261202e-05,783.3975237805157,100.0
290,1.6965429782867432,781.2663119090079,2.9503399970396056,783.4094534059914,771.3150242790372,100.0,4.00771525736738,0.1,0.010742902755737305,0.3027665615081787,0.047504988,0.02084387,781.0729817932943,-0.006527338271897091,7.805972661728103,100.0,9600,1.4719431400299072,2.3237067872779328e-05,2.258046077708277e-05,783.4400894387828,100.0
291,1.7145400047302246,781.3053440605308,2.951755463751213,783.3958303353785,771.2970960542099,100.0,3.9402226473060145,0.1,0.011193990707397461,0.3043644428253174,0.047232024,0.020602072,781.096218020018,-0.006553572417610242,7.806363094249057,100.0,9600,1.8724842071533203,2.1654442420694162e-05,2.2280204048052062e-05,783.4033149452578,100.0
292,1.662855625152588,781.8080629957657,2.795610051207752,783.4116624440098,767.3077810531545,100.0,4.300421705517516,0.1,0.012427568435668945,0.3205685615539551,0.046925865,0.017588453,781.1674025175928,-0.006526268151981859,7.811390398514683,100.0,9600,1.9478957653045654,1.8669292489132866e-05,1.6092233013731538e-05,783.4403985598075,100.0
293,1.991152048110962,781.8116458807746,2.73863308407869,783.4167246235427,771.2848820823746,100.0,4.438848182594732,0.1,0.008042335510253906,0.30570268630981445,0.041948184,0.01616526,781.231826853911,-0.006489766318786584,7.811426900347879,100.0,9600,1.7490575313568115,2.2299175227764486e-05,2.4990537864854983e-05,783.4216202471682,100.0
294,1.8751399517059326,781.6025556016675,2.8259120578391412,783.4103911374528,771.3017928223018,100.0,4.326989262664094,0.1,0.010428667068481445,0.3264472484588623,0.04520051,0.017982107,781.2688997286867,-0.006497722823439693,7.809335610509893,100.0,9600,1.856332540512085,2.619152847258474e-05,2.2501264625947396e-05,783.4289448494994,100.0
295,1.7481040954589844,780.599955226881,3.5364033224956373,783.3943767330087,771.2985147245844,100.0,3.9221585709535822,0.1,0.010204792022705078,0.30741262435913086,0.046500403,0.022298967,781.2020052785062,-0.006523538190848891,7.799309795142484,100.0,9600,1.819105863571167,3.2043919007353214e-05,2.9293623078178024e-05,783.4643078560633,100.0
296,1.916668176651001,781.7325735774366,2.869436072200035,783.4147968140202,771.3071925335247,100.0,3.2156109329307627,0.1,0.010048627853393555,0.31891942024230957,0.047341526,0.016010184,781.2550621083993,-0.006446531022361121,7.810636802310971,100.0,9600,1.7243845462799072,1.9549149120164373e-05,1.899834242915241e-05,783.4378785630105,100.0
297,1.6749329566955566,781.1028444416361,3.841358628169256,783.4100001290496,763.2797248988908,100.0,3.498646619784569,0.1,0.009469985961914062,0.3212294578552246,0.041357737,0.019247504,781.239840341723,-0.00649688591828532,7.804336447415049,100.0,9600,1.8922810554504395,3.254671051266399e-05,3.3492793799464674e-05,783.410938116544,100.0
298,1.9040579795837402,781.2644946962137,2.712881359527143,783.4193261389581,771.3138930447474,100.0,4.825681046337354,0.1,0.010201692581176758,0.3258380889892578,0.04874752,0.02320155,781.2423057771721,-0.006544866681703007,7.805955133318296,100.0,9600,1.6284196376800537,2.4183880645653482e-05,2.4465614193931358e-05,783.3937737179276,100.0
299,1.8168132305145264,780.8088999011901,3.667592822430083,783.4161906209592,767.3073651798511,100.0,4.028103585256094,0.1,0.010922431945800781,0.3252832889556885,0.0386949,0.014553907,781.1989651895739,-0.006515422804096546,7.801401243862569,100.0,9600,1.8028287887573242,3.808961053908352e-05,3.701983427635281e-05,783.4490634063047,100.0
300,1.6909821033477783,781.1364190354258,3.516044502874647,783.3879011314369,767.2695622371344,100.0,3.6459632347217608,0.1,0.009960174560546875,0.33510804176330566,0.040152654,0.018601628,781.192710574159,-0.006574851495440816,7.80467514850456,100.0,9600,1.6813621520996094,3.380250539701784e-05,2.984316948244144e-05,783.3879234111153,100.0
301,1.9795069694519043,781.6416402672921,2.5710212297903143,783.3940693330526,775.2633797079008,100.0,4.461869956957824,0.1,0.008734464645385742,0.3349144458770752,0.04700394,0.017187996,781.2376035434725,-0.006522960963432554,7.8097270390365665,100.0,9600,2.000399112701416,2.0301973869200995e-05,2.155314831434913e-05,783.4356234190102,100.0
302,1.7703452110290527,780.642843781694,3.5423666277816874,783.401082728622,767.2940547706356,100.0,3.9602260292746236,0.1,0.010161399841308594,0.3154113292694092,0.038615357,0.014431237,781.1781275672946,-0.006511304131785022,7.799738695868214,100.0,9600,1.6305019855499268,3.657329059061653e-05,3.240438212634233e-05,783.4380580288353,100.0
303,1.725031852722168,781.2208149554167,3.5215183954663805,783.4125500494699,767.2991756616476,100.0,4.330530120849884,0.1,0.0101165771484375,0.3458120822906494,0.047593564,0.018332,781.1823963061069,-0.006564587921649649,7.805518745411683,100.0,9600,1.6509242057800293,2.84169111045832e-05,2.998497137170784e-05,783.4073528986304,100.0
304,1.786285161972046,781.7690170285942,2.5566655542549763,783.4199290282727,771.3406897587101,100.0,4.781588562132203,0.1,0.015324831008911133,0.3154783248901367,0.0450814,0.01612404,781.2410583783555,-0.006499259770690078,7.81100074022931,100.0,9600,1.5145092010498047,1.8510014829796622e-05,1.8292535182930426e-05,783.3910840685569,100.0
305,1.9188969135284424,780.4282656514366,3.7272279161340154,783.4056845117531,767.3426766940512,100.0,4.190709315024824,0.1,0.011578083038330078,0.2995479106903076,0.044801477,0.015009969,781.1597791056637,-0.006573115665029722,7.797593551001635,100.0,9600,1.8323204517364502,4.622007982803397e-05,4.085943220685048e-05,783.4535685293873,100.0
306,1.7691493034362793,781.1793153742261,2.945539452960161,783.4167301370643,771.3346249621841,100.0,4.487935134368864,0.1,0.012629508972167969,0.3489837646484375,0.047424722,0.013783005,781.1617327325199,-0.006562280068054115,7.805104386598612,100.0,9600,1.7586987018585205,2.6469333487609215e-05,2.370727361085568e-05,783.4176770405135,100.0
307,1.7020540237426758,781.3923954754364,2.8373325594691305,783.3951629310222,775.2865864664494,100.0,4.075737118432634,0.1,0.009595870971679688,0.32970738410949707,0.04362569,0.017816443,781.1847990068115,-0.006516294936024338,7.807233705063975,100.0,9600,1.908519983291626,1.9949480757911852e-05,2.7112525234214087e-05,783.4010898216023,100.0
308,1.7966506481170654,781.3051777368678,3.4748385837143987,783.4215197586446,767.2998648697313,100.0,4.3605258807715614,0.1,0.010883808135986328,0.30975890159606934,0.044100102,0.016768707,781.1968368798173,-0.00655506781993806,7.806361598846728,100.0,9600,1.748443841934204,3.6183880815911815e-05,2.850404213364174e-05,783.3934797083627,100.0
309,1.6716392040252686,781.6829265152004,2.5654462831241545,783.398561187885,771.3358828841203,100.0,4.100496673989319,0.1,0.012039422988891602,0.31639671325683594,0.04747485,0.018417515,781.2454458433556,-0.006527605883099592,7.810139060783567,100.0,9600,1.9546797275543213,1.762369774083006e-05,1.7315534178547732e-05,783.4217136780186,100.0
310,1.8711342811584473,781.1418048429814,3.606708433494194,783.4145064986488,767.343689583187,100.0,4.49380407768863,0.1,0.010160446166992188,0.31943702697753906,0.043339226,0.015563135,781.2350817433181,-0.006521663623708633,7.804728336376292,100.0,9600,1.6835336685180664,3.6595152908434095e-05,4.3677416864730305e-05,783.4224419600812,100.0
311,1.7832915782928467,780.1398879294851,3.7794788909603096,783.4129757779799,763.3427120449855,100.0,3.6502908067573623,0.1,0.010939359664916992,0.3142423629760742,0.04506857,0.024186987,781.1255623619347,-0.006541408673012356,7.794708591326987,100.0,9600,1.8200714588165283,4.368587949905254e-05,5.8013884911184085e-05,783.4180254926034,100.0
312,1.766312837600708,780.9290852770154,3.0352170930281908,783.3975007311059,771.3092983022138,100.0,3.960797219997317,0.1,0.009774208068847656,0.29320192337036133,0.043608207,0.017709203,781.1059146534428,-0.0065648470915767275,7.802601819575091,100.0,9600,1.7857234477996826,6.270823262829205e-05,2.6192358701572347e-05,783.4209040198177,100.0
313,1.8385992050170898,780.7576666688525,3.5694936297487625,783.3998348800269,767.2957760737968,100.0,4.072120224689365,0.1,0.008986949920654297,0.3031167984008789,0.0485035,0.020880822,781.0710898549838,-0.006613197977336199,7.800886802022664,100.0,9600,1.8603763580322266,3.4746314456393185e-05,3.669382341554963e-05,783.3915023581778,100.0
314,1.9404358863830566,782.0204412166171,2.2918387980721913,783.4108955444949,771.3081717881284,100.0,4.727820990949994,0.1,0.00964975357055664,0.33600711822509766,0.048022166,0.020263424,781.1660249911472,-0.006486026933683854,7.813513973066315,100.0,9600,1.9055640697479248,1.472249954728208e-05,1.59365283563822e-05,783.4216173976556,100.0
315,2.0710835456848145,781.4712262770039,3.062252350551607,783.4085070446217,767.2758026558275,100.0,3.862003846251241,0.1,0.007959604263305664,0.33551859855651855,0.03990296,0.01550733,781.1965451197328,-0.006561019196371595,7.808022314136962,100.0,9600,1.6798286437988281,2.5738759794714337e-05,2.913493684889719e-05,783.4530822076559,100.0
316,1.8578822612762451,781.2234021292702,3.0064328150482518,783.3992255124942,771.3180584507917,100.0,4.272399590937536,0.1,0.009143352508544922,0.3380112648010254,0.044591483,0.01956746,781.1992308206866,-0.0065369975674374825,7.8055463357658965,100.0,9600,1.9521722793579102,2.910529810151315e-05,2.644146613273298e-05,783.4543167354157,100.0
317,1.8322699069976807,780.640032163558,3.3533142358932735,783.404440825839,771.27348317172,100.0,4.1005501307030325,0.1,0.010501384735107422,0.3312046527862549,0.041583464,0.016918661,781.1433109549737,-0.006537512806067236,7.799712487193932,100.0,9600,1.6963322162628174,3.316945008337331e-05,3.199320457584089e-05,783.3877283232646,100.0
318,1.8335909843444824,780.5139983614449,3.924441680700207,783.4045810678998,759.2804688203645,100.0,4.188150211304393,0.1,0.010326385498046875,0.2968254089355469,0.047138754,0.019518603,781.0803796956208,-0.0065484793451959416,7.798451520654804,100.0,9600,1.7518515586853027,3.6802843171254616e-05,3.762015946986643e-05,783.4339653426813,100.0
319,1.742213487625122,781.1409011636052,3.420798891774392,783.4111565885662,771.2919987358459,100.0,4.131353299666392,0.1,0.00959634780883789,0.3097960948944092,0.041182574,0.01338418,781.0864318424193,-0.006531348741057143,7.804718651258942,100.0,9600,1.8129630088806152,2.9072058680734617e-05,2.9223148204676963e-05,783.4527719700515,100.0
320,1.796384572982788,781.5150368936871,2.8312681608765926,783.416147066962,771.3072633425004,100.0,4.7856873453180855,0.1,0.009699344635009766,0.32793712615966797,0.04792765,0.018971633,781.1292923475461,-0.00653992330321465,7.808460076696785,100.0,9600,1.8568987846374512,2.1599202782479865e-05,2.4814411675238674e-05,783.4408384840697,100.0
321,1.7102077007293701,781.0980463806069,3.614935793079556,783.4052824627878,763.2424222201874,100.0,4.702412273663934,0.1,0.010251045227050781,0.31125521659851074,0.03763081,0.011973485,781.1261677508522,-0.0065420122992794925,7.804291321034054,100.0,9600,1.9203698635101318,3.364562413047377e-05,3.498522065280543e-05,783.3941767440605,100.0
322,1.9146618843078613,781.5161773520422,2.7718804882546504,783.4209320579841,771.3096991994831,100.0,5.101346808432046,0.1,0.010994434356689453,0.31328868865966797,0.043784074,0.01478038,781.1651687109712,-0.006529011998016895,7.808887654668649,100.0,9600,1.7523465156555176,2.5443272634681595e-05,2.1596357293550758e-05,783.4458097025356,100.0
323,2.03609037399292,780.846578816845,3.807080558762946,783.4019167342296,763.3066050835952,100.0,4.082344117013221,0.1,0.010988950729370117,0.31194472312927246,0.042268068,0.016884485,781.1333097215586,-0.0065571353624983494,7.801776197970835,100.0,9600,1.8380842208862305,3.829053730548585e-05,3.67450417502674e-05,783.4024464687609,100.0
324,2.0343477725982666,781.6035278900263,2.44641101579222,783.4065537782707,771.2867576452161,100.0,3.9653614336978293,0.1,0.010301589965820312,0.3134934902191162,0.04671327,0.020430557,781.1803315384054,-0.00648804364647249,7.809345289686861,100.0,9600,1.9778766632080078,1.9738118869129478e-05,1.72111106357593e-05,783.4217322257464,100.0
325,1.6695032119750977,781.3471981372467,2.835369977246306,783.4002144484014,771.3069165590372,100.0,3.767252012766358,0.1,0.007864236831665039,0.32784342765808105,0.043255795,0.01984032,781.1970181982896,-0.0065515905716173745,7.806781742761717,100.0,9600,1.6334099769592285,1.806153286078292e-05,1.9247754722519283e-05,783.4522847991492,100.0
326,1.843135118484497,781.225327414506,3.00679076172585,783.4080063659175,771.3019842707556,100.0,5.24014443637525,0.1,0.00964975357055664,0.31830549240112305,0.046319995,0.014582124,781.1998491199113,-0.006519713549394592,7.805563619783939,100.0,9600,1.653174877166748,2.669642362525485e-05,2.753506349907343e-05,783.4124439687797,100.0
327,1.8432533740997314,781.4791344974133,2.8938650012551594,783.4038078612884,771.2764746207881,100.0,4.221893844379409,0.1,0.013340950012207031,0.2949674129486084,0.048064098,0.021389317,781.2277776576616,-0.0064815007628758635,7.8081018325704585,100.0,9600,1.7118332386016846,2.0193580259642955e-05,2.1641234869430662e-05,783.3733745375106,100.0
328,1.6455676555633545,781.7298833905326,3.1487315706689345,783.4085090237946,767.3138638944831,100.0,4.000897471068195,0.1,0.009145259857177734,0.3354380130767822,0.04745846,0.024496745,781.2779882309487,-0.006474616723873586,7.810608716609461,100.0,9600,1.767488956451416,2.5369065384069677e-05,2.356252134150147e-05,783.440930479178,100.0
329,1.7190814018249512,781.2714154718295,2.5866060665289274,783.3967022956709,775.3025199503112,100.0,3.4086763996521015,0.1,0.009900331497192383,0.30203914642333984,0.041430216,0.01973701,781.2773309550369,-0.006475229808006938,7.806024770191994,100.0,9600,1.5929632186889648,2.0698246512217144e-05,2.5603048147742533e-05,783.3773753424474,100.0
330,1.6611075401306152,781.1423052702772,3.1146823725450568,783.4184610010111,767.3285629367889,100.0,3.40254781812276,0.1,0.010929346084594727,0.2989041805267334,0.047954246,0.023130996,781.2638283865609,-0.006516277773077982,7.8047337222269215,100.0,9600,1.8777844905853271,2.8536074411176117e-05,2.192626553070568e-05,783.4062275956815,100.0
331,1.8688595294952393,780.9800255285217,3.3004176049523037,783.4151439772422,767.3519163912163,100.0,4.4127588449878745,0.1,0.011990547180175781,0.3002650737762451,0.046403863,0.016901176,781.2354481007569,-0.006472402142553113,7.80311093119078,100.0,9600,1.4823405742645264,2.5045056642368928e-05,2.4463489310146796e-05,783.4279490921572,100.0
332,1.707141637802124,781.8887678297551,2.462780043073363,783.40711261038,775.309333716165,100.0,4.5024377662958734,0.1,0.01584935188293457,0.3222053050994873,0.045895316,0.017433966,781.3007800736567,-0.006551943470147253,7.812198056529854,100.0,9600,1.6136939525604248,1.5478466898553328e-05,1.75000562825455e-05,783.4064937213102,100.0
333,1.8303940296173096,781.973988195096,2.5817369690954646,783.4080556860823,771.2352229301576,100.0,5.089109019771381,0.1,0.011976003646850586,0.3116772174835205,0.047666285,0.016238868,781.3681008858007,-0.0065328305979199435,7.813050502735415,100.0,9600,1.8418352603912354,2.035662783763268e-05,1.8924800022126237e-05,783.3935006143768,100.0
334,1.6605465412139893,781.102159401791,3.2688519701003163,783.4240325057481,767.3120818060105,100.0,4.467161310331959,0.1,0.021920442581176758,0.25940680503845215,0.047750417,0.019184666,781.3415067373996,-0.006501254625212602,7.804332078708121,100.0,9600,1.754295825958252,3.0385906076517205e-05,3.335683501762103e-05,783.4290058632855,100.0
335,1.6540117263793945,781.8491726744833,2.6693986178207005,783.4129881024974,767.2773719850114,100.0,4.179348422017338,0.1,0.007264375686645508,0.3059656620025635,0.050559595,0.01732982,781.3922733311081,-0.00653118836906729,7.811802144964266,100.0,9600,1.3667783737182617,2.5342392647092085e-05,1.669987261748535e-05,783.3788701817723,100.0
336,1.8745574951171875,781.3901203858882,2.7124263524345387,783.4090176655346,771.3732730986964,100.0,4.784457776768352,0.1,0.016439199447631836,0.2621161937713623,0.046644736,0.017833682,781.3920580365861,-0.006539811029522235,7.807210188970477,100.0,9600,2.083751916885376,2.3392467044647665e-05,1.9671650074294154e-05,783.4218000826727,100.0
337,1.7569580078125,781.3099875802218,3.0592620696895443,783.4000002947826,767.3115536739883,100.0,4.954512626180823,0.1,0.008972644805908203,0.32279062271118164,0.04715427,0.0170947,781.3838509909498,-0.006506904099788695,7.8064097625668785,100.0,9600,1.588045597076416,2.1560305519476346e-05,2.348553732093491e-05,783.3838390348095,100.0
338,1.8860766887664795,781.052479344337,3.4119273105823695,783.4057504050993,767.2691021872214,100.0,3.4662781595933883,0.1,0.00980997085571289,0.2844085693359375,0.044831213,0.01964835,781.3507138262885,-0.006579603820639913,7.803837062846026,100.0,9600,1.7615399360656738,3.297777145744772e-05,3.324725975982956e-05,783.4070041690642,100.0
339,1.7517478466033936,781.4728394312637,3.0078671080132118,783.4056341536653,767.3216605020349,100.0,4.375845336740042,0.1,0.010719060897827148,0.30465006828308105,0.045354698,0.019685954,781.3629263867861,-0.0065433668033056365,7.8080399665300275,100.0,9600,1.6804852485656738,2.388666311380257e-05,2.1310791582225093e-05,783.4150084116302,100.0
340,1.7485020160675049,781.4711672587365,2.5833404497331203,783.3915799858738,775.3036587771609,100.0,4.065227254543578,0.1,0.008931398391723633,0.2951533794403076,0.045411866,0.01998773,781.3737504739811,-0.0065606905207867315,7.808439309479213,100.0,9600,1.7783896923065186,1.517750699922583e-05,1.4914241858767875e-05,783.368651773229,100.0
341,1.8108551502227783,781.6372791996588,2.573908037132121,783.4200580285386,771.2677188841285,100.0,4.578592271725945,0.1,0.009574651718139648,0.3108978271484375,0.04531587,0.012585348,781.4001033465488,-0.006566116736623981,7.809683883263376,100.0,9600,1.581615924835205,1.5191309205813722e-05,1.5481744605159306e-05,783.4017937451733,100.0
342,1.890946388244629,781.1385725092268,3.1114222779014034,783.40443210393,771.3094725788426,100.0,4.528693478998927,0.1,0.010493755340576172,0.2890665531158447,0.046346884,0.016479136,781.3739502628166,-0.006552986096511966,7.804697013903488,100.0,9600,1.7344021797180176,2.2806092952475796e-05,3.12883025193317e-05,783.3711624307495,100.0
343,1.741102933883667,780.9725602818039,4.392337360152265,783.3983771784557,759.3050751978416,100.0,4.291926848520658,0.1,0.009813070297241211,0.32665371894836426,0.042418875,0.015943885,781.3338112647153,-0.006546857161503411,7.80303647617183,100.0,9600,1.710106372833252,5.4242080428336165e-05,4.9555990787883346e-05,783.370036290994,100.0
344,1.8842220306396484,781.6827788186738,2.9353137796288067,783.4106924379283,771.2983234531123,100.0,4.691198543642778,0.1,0.009147882461547852,0.3338654041290283,0.049010627,0.01934271,781.3687080201113,-0.006529384552925986,7.8101372821137405,100.0,9600,1.8179469108581543,2.440669680157986e-05,2.2801727978891938e-05,783.3788675763681,100.0
345,1.6811819076538086,781.3024449641571,2.8395005772211306,783.3946965161801,771.2984388169618,100.0,3.5912465003568967,0.1,0.015625715255737305,0.3268551826477051,0.046527788,0.022796825,781.3620817145159,-0.006581569238652957,7.806335097428014,100.0,9600,1.9200730323791504,1.9422885881964246e-05,1.8500728242537023e-05,783.3598164024961,100.0
346,1.9755682945251465,781.5583144663883,2.7027459390930133,783.4063031968542,771.3353383269439,100.0,4.232334388901619,0.1,0.010169267654418945,0.28484368324279785,0.04757703,0.018330334,781.3817049897032,-0.006522962868612268,7.808893703798056,100.0,9600,1.9515373706817627,1.5193621555034848e-05,1.6745762768247768e-05,783.3595433061391,100.0
