iteration,time_sampling,stoc_pol_mean,stoc_pol_std,stoc_pol_max,stoc_pol_min,rollout_success,alpha,delta,time_vpg,time_npg,kl_dist,surr_improvement,running_score,rwd_sparse,rwd_dense,success_percentage,num_samples,time_VF,VF_error_before,VF_error_after,eval_score,eval_success
0,2.2314491271972656,-549.4048296879281,4.91696265779002,-539.4021494757056,-566.5120805849199,0.0,0.41692591993116873,0.1,0.22682857513427734,0.4933161735534668,0.051303893,0.22564,-549.4048296879281,-0.1568065231697465,-2.538173993428325,0.0,1708,0.20514917373657227,0.9998473277657963,0.9758046595327096,-618.7199795930226,0.0
1,2.0372495651245117,-548.5149024771482,4.48092294677487,-540.4893798024301,-562.7038580689165,0.0,0.5249277717178634,0.1,0.011492252349853516,0.34833645820617676,0.047499686,0.18073007,-549.3158369668502,-0.15713192834836273,-2.533715275425384,0.0,1684,0.17083048820495605,0.9757538744698566,0.7519308946320743,-609.7468672667927,0.0
2,1.8330931663513184,-549.1608415499525,5.529176767110756,-538.4106682364769,-574.1939007515806,0.0,0.5319644714118186,0.1,0.026460886001586914,0.5266861915588379,0.053152073,0.18365584,-549.3003374251605,-0.15910881069336466,-2.53702698761782,0.0,1697,0.2554805278778076,0.75141894023081,0.205092395261207,-603.837716593235,0.0
3,1.7503166198730469,-549.0004641927818,4.073069370432752,-541.2854648573168,-560.6959874232222,0.0,0.6380874356220763,0.1,0.009251594543457031,0.3133554458618164,0.047843784,0.13901353,-549.2703501019226,-0.15515652975330618,-2.5361969005917775,0.0,1697,0.14072012901306152,0.20722732040109293,0.020967891279070904,-629.9514818240549,0.0
4,1.7918119430541992,-548.3926149374571,4.836539111239866,-539.4194267422491,-561.1061580302539,0.0,0.6028285211171172,0.1,0.015857696533203125,0.5459589958190918,0.05577164,0.15365104,-549.1825765854761,-0.15231668805938647,-2.5330876153198445,0.0,1710,0.340484619140625,0.02073855833460644,0.01900307310568153,-674.4361577666217,0.0
5,1.7924816608428955,-548.2913705812874,4.924454519289565,-540.4873635728779,-566.1739418606608,0.0,0.5410478185471416,0.1,0.04938006401062012,0.6253280639648438,0.051413752,0.13958594,-549.0934559850573,-0.1543979038477774,-2.5326431721293408,0.0,1710,0.3168909549713135,0.018789646762172835,0.01717581288780133,-616.650684804293,0.0
6,1.814795970916748,-548.682717995459,4.301403675113564,-539.8435492880068,-563.4287675418677,0.0,0.5906224943785958,0.1,0.03979635238647461,0.5179529190063477,0.053374488,0.14678563,-549.0523821860975,-0.15636855609500475,-2.534514357498244,0.0,1696,0.24665021896362305,0.017615924497012977,0.01568489216458771,-676.6362372819817,0.0
7,1.8833818435668945,-550.4881168533926,5.531344447655095,-536.4578390365027,-564.6454114929558,0.0,0.5822353750413157,0.1,0.042542219161987305,0.29357123374938965,0.053105228,0.15318516,-549.195955652827,-0.16097831544759697,-2.5434760228515056,0.0,1747,0.12104105949401855,0.016360762115675935,0.01379611071359028,-622.4519221782093,0.0
8,2.3614768981933594,-550.2739487620194,5.792124099512475,-540.8644778586053,-569.7392696849422,0.0,0.6332759862558117,0.1,0.026066064834594727,0.30953025817871094,0.05232979,0.15340056,-549.3037549637463,-0.1635720631809464,-2.542517316403085,0.0,1714,0.15698719024658203,0.01424726224139574,0.01139200868208116,-568.0566617428863,0.0
9,2.3498599529266357,-548.7447462991855,6.515312037079266,-536.5180047392347,-589.9679199903526,0.0,0.5722776119235499,0.1,0.025950908660888672,0.4060173034667969,0.04871605,0.12490636,-549.2478540972902,-0.15660591153352957,-2.5348415440402188,0.0,1733,0.13456225395202637,0.01082803566341486,0.008097109766593703,-569.0924837819309,0.0
10,1.9758155345916748,-547.3313386179158,4.233690843275492,-539.0189248969104,-557.8812510501547,0.0,0.6040718443743534,0.1,0.0341947078704834,0.2967550754547119,0.04962966,0.11397571,-549.0562025493527,-0.15254128784329643,-2.527911124053168,0.0,1675,0.2936229705810547,0.008146350916130371,0.00587727554624743,-568.8393576366269,0.0
11,2.1728060245513916,-547.9131014355736,4.981126317819949,-539.8477210179793,-563.8297603303048,0.0,0.5468342894681473,0.1,0.016243696212768555,0.38901782035827637,0.052415453,0.13698517,-548.9418924379748,-0.15032060968324248,-2.530849472430487,0.0,1703,0.25072216987609863,0.005767029474547059,0.003973200682015064,-590.1173533927264,0.0
12,1.8622524738311768,-547.312535066974,6.872557138782944,-539.756891899972,-598.6370209546795,0.0,0.5183359802663492,0.1,0.019057273864746094,0.40967512130737305,0.05178351,0.15073584,-548.7789567008748,-0.1530269073991575,-2.5277773491700923,0.0,1702,0.17705535888671875,0.003949255135389999,0.002696022048450491,-564.749103955322,0.0
13,2.0178475379943848,-547.7282201950198,4.329903638345304,-539.4316393238091,-560.6576222465956,0.0,0.5741902298260402,0.1,0.021031618118286133,0.31818437576293945,0.047688726,0.147399,-548.6738830502893,-0.15970646608865738,-2.529891231163502,0.0,1687,0.19051146507263184,0.0027733490760658355,0.0017766795024360758,-562.4387455905706,0.0
14,1.9455513954162598,-547.4432049713777,5.589883908980351,-537.8439873568026,-579.1728608448426,0.0,0.5855137601706492,0.1,0.041597604751586914,0.3361320495605469,0.052489538,0.14069898,-548.5508152423981,-0.1535436878507478,-2.528403594562213,0.0,1713,0.18596863746643066,0.0017412675817340979,0.001133044132330923,-564.1499110435361,0.0
15,2.0211009979248047,-547.7765854625723,5.188152744154101,-537.5030291939024,-566.3481931703353,0.0,0.5560824943520764,0.1,0.020500659942626953,0.3490724563598633,0.05105209,0.14907649,-548.4733922644156,-0.1524457154944846,-2.530174949586907,0.0,1727,0.22924160957336426,0.00113802968239627,0.0007593662526699788,-567.7944604524309,0.0
16,2.6117947101593018,-547.0136137957953,4.793182827443959,-536.9331411057696,-560.9967292332801,0.0,0.5880280930383659,0.1,0.02426433563232422,0.3307828903198242,0.05030696,0.16139881,-548.3274144175535,-0.15638036459688645,-2.5263435024276153,0.0,1703,0.19548654556274414,0.0007537573731608579,0.0005371816424581257,-562.9806487273389,0.0
17,2.058936595916748,-546.4393313250283,4.468428948058557,-537.5825022528094,-560.326892323765,0.0,0.6055426674618186,0.1,0.012335777282714844,0.32557129859924316,0.05035028,0.15914157,-548.138606108301,-0.15284498797166055,-2.523380291228378,0.0,1742,0.2302570343017578,0.0005891104674723734,0.00045967333840612014,-566.5433697934415,0.0
18,1.8994793891906738,-547.0641650803344,4.83565606921853,-537.3497250107586,-561.1533250633432,0.0,0.568789929805166,0.1,0.027872323989868164,0.3902289867401123,0.0507445,0.16573079,-548.0311620055044,-0.1517975490426473,-2.5265283796112725,0.0,1722,0.2942314147949219,0.00041000426670993224,0.00033728336833012607,-559.7944983566175,0.0
19,1.9896240234375,-546.9643339183673,5.323306684332094,-535.5341050807679,-561.574869050311,0.0,0.5725894876996259,0.1,0.036128997802734375,0.3718912601470947,0.05038461,0.18129292,-547.9244791967907,-0.15750175122893526,-2.526094297401107,0.0,1685,0.16500306129455566,0.00033602205077334804,0.0002887984959587051,-563.5112088807538,0.0
20,1.988861322402954,-546.3832883843005,5.235028259517959,-534.2278431839854,-560.1317420750077,0.0,0.5584305554337429,0.1,0.040506839752197266,0.40360498428344727,0.049265828,0.18268074,-547.7703601155417,-0.15453024180224356,-2.5231256479923005,0.0,1708,0.12743139266967773,0.0003277960718975547,0.000286319860883501,-555.7802488350917,0.0
21,2.0402896404266357,-545.1278296286703,5.009075288947639,-533.0643051729879,-559.9205037437706,0.0,0.5308357068968356,0.1,0.028337955474853516,0.2568092346191406,0.0502346,0.18961495,-547.5061070668546,-0.1507397143289154,-2.5169685316302925,0.0,1690,0.2462160587310791,0.0003322117755899175,0.00029853120551072616,-552.6835337078508,0.0
22,1.8247122764587402,-545.4060566627742,5.116267203182579,-532.7009635162493,-564.0331899471045,0.0,0.5481111739065475,0.1,0.028179407119750977,0.3780059814453125,0.051586315,0.18748744,-547.2961020264465,-0.14820591421060383,-2.518278190116382,0.0,1713,0.13840317726135254,0.00025166645928223713,0.00023198064293707572,-547.3310492300085,0.0
23,1.8977205753326416,-545.1457815100442,5.140572023531508,-536.7403668599342,-568.5559643033563,0.0,0.5570433476839063,0.1,0.027864456176757812,0.3464334011077881,0.049969036,0.18058166,-547.0810699748063,-0.15329616031992607,-2.516976463579429,0.0,1704,0.2116689682006836,0.0002735774815137943,0.00024567466091061804,-546.3027050374918,0.0
24,2.2357301712036133,-544.558793910493,5.200346039557092,-537.4260345763471,-574.7012506961007,0.0,0.5602652550268516,0.1,0.011250495910644531,0.3474135398864746,0.051458508,0.20256706,-546.8288423683749,-0.14707730322616805,-2.5140544398398332,0.0,1708,0.19225835800170898,0.00021064474645503576,0.0001926117114239238,-549.4532131745439,0.0
25,1.8767733573913574,-543.7594459727305,4.329614139813016,-535.0402723906752,-553.8942546075629,0.0,0.5517016211933279,0.1,0.015630245208740234,0.34963035583496094,0.049211044,0.1891269,-546.5219027288105,-0.14694644358252498,-2.51008967498441,0.0,1668,0.13151025772094727,0.00017451804445108412,0.00016117305479785684,-544.798667132502,0.0
26,1.7572510242462158,-542.499052191116,3.9341810146606004,-533.0088670716951,-553.333078966072,0.0,0.532129019151387,0.1,0.014043807983398438,0.35520172119140625,0.049523115,0.18465506,-546.119617675041,-0.14549093478699537,-2.5037692930772737,0.0,1628,0.24512314796447754,0.00016626923107188727,0.00015273112406771915,-536.9422297802516,0.0
27,1.8967714309692383,-543.2895472691366,4.39037383976477,-533.4412528560215,-557.5339441434653,0.0,0.5459016775511598,0.1,0.03795933723449707,0.3227095603942871,0.050917074,0.18782373,-545.8366106344506,-0.15059194380490368,-2.5077247252803985,0.0,1668,0.3172593116760254,0.00018352264789996942,0.00016569060288005048,-543.4420471569472,0.0
28,1.8389482498168945,-543.2886698324456,5.252640562759735,-534.4865665836999,-559.9073320563399,0.0,0.560864893008059,0.1,0.027978181838989258,0.457442045211792,0.049368333,0.17866111,-545.5818165542502,-0.14623814224654935,-2.507613783434762,0.0,1703,0.30507516860961914,0.00018400192883232498,0.00016733727815241854,-541.7617386963511,0.0
29,2.46122670173645,-542.305417912136,4.169098855135329,-533.9207560343436,-555.9027224355073,0.0,0.5658565175914124,0.1,0.03300356864929199,0.4098842144012451,0.050904494,0.18337625,-545.2541766900388,-0.14366141295395224,-2.5028468613035524,0.0,1684,0.24498939514160156,0.0001760586750276753,0.00016141935361540111,-565.9900785181055,0.0
30,1.8189635276794434,-541.5611331649054,3.405956935374276,-533.9936851763275,-552.029020153259,0.0,0.5435671824378653,0.1,0.009877443313598633,0.2920708656311035,0.049879327,0.19504601,-544.8848723375255,-0.141453552719192,-2.4989601302245945,0.0,1659,0.15374422073364258,0.0001597700400912947,0.00014015265970156746,-567.7944483129312,0.0
31,2.0013766288757324,-542.5728034941117,4.892566508119691,-533.3371249864911,-561.5140218203106,0.0,0.5496001532647156,0.1,0.03210735321044922,0.3675117492675781,0.049564198,0.17795466,-544.6536654531841,-0.14596076439955,-2.5041512554544103,0.0,1709,0.343733549118042,0.00014413147135806107,0.0001320596475501185,-569.1302192424098,0.0
32,2.1812808513641357,-542.3055943378382,3.7666466860948598,-533.6236815264642,-554.2171557788961,0.0,0.545659954332459,0.1,0.04603886604309082,0.30585289001464844,0.050115496,0.17894934,-544.4188583416495,-0.1446551067616646,-2.502779219999104,0.0,1699,0.31780385971069336,0.0001277161815410668,0.00011794765536206452,-580.4162969870532,0.0
33,1.9982595443725586,-540.8152411252404,3.2104301285755095,-530.9000597386851,-550.945342325074,0.0,0.5218952453281822,0.1,0.026485204696655273,0.3382587432861328,0.04874763,0.19293588,-544.0584966200086,-0.14113925678188344,-2.4953341872272152,0.0,1660,0.38814306259155273,0.00013595296333724917,0.00012747746581054207,-545.9913687155066,0.0
34,1.882458209991455,-541.3271782515767,3.297781053632684,-534.6702246468088,-551.826370347108,0.0,0.5331219383594984,0.1,0.02651071548461914,0.28505706787109375,0.051158197,0.19524746,-543.7853647831654,-0.14165324806579863,-2.4979068482641575,0.0,1673,0.28734540939331055,0.00010519856041597599,9.965928086640815e-05,-539.0609311929117,0.0
35,1.9643797874450684,-540.6438052856855,4.545144440290464,-530.3014445532137,-555.2844584185734,0.0,0.5178000485087826,0.1,0.06450939178466797,0.4197103977203369,0.05088507,0.19525011,-543.4712088334174,-0.14354318552953838,-2.49456004548467,0.0,1645,0.30684542655944824,0.00010824674628288441,0.0001023720814886466,-541.0274683884392,0.0
36,1.9629201889038086,-540.3633525950943,3.2681511828718723,-532.6440371416126,-548.784765135822,0.0,0.5309978927926648,0.1,0.01669144630432129,0.22644567489624023,0.04963339,0.18731757,-543.1604232095851,-0.142426396740548,-2.4931120170460868,0.0,1670,0.36574864387512207,0.00010201614371388021,9.242080932856677e-05,-545.3779767500021,0.0
37,1.9212408065795898,-540.603634289573,3.8916237230454493,-533.1548802514446,-556.1499571743908,0.0,0.5519696335356137,0.1,0.024033308029174805,0.30835604667663574,0.05134397,0.18570068,-542.9047443175839,-0.1442591262660583,-2.494208360784036,0.0,1675,0.3476135730743408,9.724554652276664e-05,9.437079035067375e-05,-549.9266592317639,0.0
38,2.1576945781707764,-540.4875539040098,6.494906142283893,-530.2260456778714,-593.3122307115389,0.0,0.5226269300329689,0.1,0.05496096611022949,0.3186328411102295,0.05106085,0.17636429,-542.6630252762266,-0.13905996655317707,-2.4937800549452995,0.0,1699,0.32443785667419434,0.00013634319007225482,0.00011761682165762057,-557.0928404830692,0.0
39,1.9386303424835205,-539.7119633870789,3.9685352345323883,-530.0527431837129,-554.8381721748344,0.0,0.5099205374042701,0.1,0.0243682861328125,0.38195228576660156,0.050507296,0.21231759,-542.3679190873117,-0.1439167442388846,-2.4898667301006387,0.0,1640,0.3093883991241455,0.00010071132436266499,9.25854268402946e-05,-541.2748440629119,0.0
40,2.913296937942505,-539.3909628911102,3.368396175572894,-532.5565006347152,-549.0319315055981,0.0,0.5133807654716502,0.1,0.022572755813598633,0.41251611709594727,0.05133721,0.18637393,-542.0702234676916,-0.1414906084575388,-2.4881968898538847,0.0,1645,0.3195667266845703,0.00011128763482563906,0.00010293537470479335,-563.3821174830973,0.0
41,1.998317003250122,-539.6155165645034,3.764394125584668,-532.6472338560369,-560.2909943408426,0.0,0.5259023717998677,0.1,0.019399642944335938,0.35833144187927246,0.050089926,0.19054744,-541.8247527773727,-0.13869306513789392,-2.4892844348285457,0.0,1668,0.3680884838104248,0.00010710415669369019,9.96750067392714e-05,-555.2095673725371,0.0
42,1.9674043655395508,-539.2622900522357,3.4979116437140205,-531.3760222130952,-553.7988525354754,0.0,0.555297800036783,0.1,0.01796245574951172,0.3175992965698242,0.050403733,0.17480952,-541.5685065048591,-0.13622322790408883,-2.487616539753843,0.0,1694,0.3982887268066406,0.00010492605656002793,9.604902267107236e-05,-561.9350956749,0.0
43,1.7710185050964355,-538.8258478434504,3.397189145075991,-531.0175717817579,-548.9733223829023,0.0,0.5204818878225379,0.1,0.013782501220703125,0.3101766109466553,0.050506808,0.19184144,-541.2942406387182,-0.13612926323554997,-2.485324783590521,0.0,1659,0.3923640251159668,8.404795176153577e-05,8.076953990283996e-05,-569.7208932649847,0.0
44,2.0790822505950928,-538.513619158698,3.198505862558176,-532.1480368577153,-551.7619188306653,0.0,0.5412330620596233,0.1,0.02112412452697754,0.3851196765899658,0.04983183,0.17555384,-541.0161784907161,-0.13619264942843082,-2.483777377992752,0.0,1651,0.36696314811706543,0.00011492827814886221,0.00010179650592359506,-567.8618370120022,0.0
45,2.5323421955108643,-538.6685832168572,3.367795172840908,-531.2366639799164,-547.3359824646049,0.0,0.50618058098148,0.1,0.04182291030883789,0.25809669494628906,0.050385047,0.17829962,-540.7814189633302,-0.132735257538152,-2.484594576325579,0.0,1682,0.4301578998565674,0.00010427111590542452,9.461473815951435e-05,-563.5430370143104,0.0
46,1.835026741027832,-539.0715894385762,3.707627365123687,-532.3574179243445,-554.148716603427,0.0,0.5176143133799369,0.1,0.010143280029296875,0.3624145984649658,0.04992595,0.18821634,-540.6104360108549,-0.13406035203873787,-2.4866242703881674,0.0,1717,0.41409730911254883,0.00011631135313275946,9.82695637815112e-05,-561.9442554673864,0.0
47,2.4136996269226074,-538.4721185606367,3.3531578678359235,-531.3466918637562,-546.6829839591242,0.0,0.5065926062174974,0.1,0.012319326400756836,0.35231947898864746,0.0500706,0.19163193,-540.396604265833,-0.1327057164536741,-2.4835989241217256,0.0,1687,0.4161069393157959,8.90573788767588e-05,8.74430133574008e-05,-545.0514323255538,0.0
48,1.8230760097503662,-539.9187343081185,3.7866751793278395,-532.2711722826947,-559.2850600243717,0.0,0.5300651012645343,0.1,0.03468608856201172,0.3147773742675781,0.05023112,0.17859194,-540.3488172700617,-0.13232070873653426,-2.490800986123324,0.0,1763,0.3824002742767334,0.0001098433648530553,9.518825374298954e-05,-551.5297184237608,0.0
49,1.7966735363006592,-539.0309355295931,4.714422835742281,-530.6334883784042,-558.6146054444276,0.0,0.5415833599797342,0.1,0.03200507164001465,0.3377954959869385,0.04983899,0.18954466,-540.2170290960148,-0.13633174140594095,-2.4863902045107786,0.0,1697,0.312563419342041,0.0001070068796407073,9.19342662225634e-05,-545.1354282564545,0.0
50,1.9434173107147217,-538.2323748817778,3.9206232650105077,-531.5437375798467,-552.4997690177574,0.0,0.5247824103340535,0.1,0.040056705474853516,0.38730382919311523,0.05053028,0.19735463,-540.0185636745912,-0.13283202143723657,-2.4825438821590047,0.0,1678,0.4225013256072998,0.0001002126084268299,9.07970657889555e-05,-542.4675237425342,0.0
51,1.9015827178955078,-539.0238220096597,3.3461963794237928,-531.7241030082262,-551.1503893607768,0.0,0.5691761296105052,0.1,0.04514622688293457,0.40684962272644043,0.04978378,0.1823063,-539.9190895080981,-0.13329740629856243,-2.4863886591117015,0.0,1731,0.4315662384033203,8.603125798181483e-05,8.092298740809434e-05,-542.2311601096588,0.0
52,2.0170905590057373,-538.3731849468213,3.5544608275173206,-528.7383293960169,-550.9199745558813,0.0,0.5380437414627339,0.1,0.015683650970458984,0.3148057460784912,0.049665052,0.18234935,-539.7644990519705,-0.1320849728939768,-2.4831109445804427,0.0,1704,0.3880016803741455,9.187502569244406e-05,8.791536919574874e-05,-541.8115078311389,0.0
53,1.9596903324127197,-538.774855571791,3.1487949926647962,-530.1406798775489,-547.5730196648457,0.0,0.5277210279371801,0.1,0.013275623321533203,0.4773857593536377,0.050314754,0.18932267,-539.6655347039525,-0.13382154986489989,-2.485090793969795,0.0,1720,0.3973226547241211,8.20779048425999e-05,7.865898451990278e-05,-541.5074012131445,0.0
54,1.930509090423584,-538.0540012294377,3.2866796813803942,-528.5333271159278,-550.7954143067026,0.0,0.5385681451981652,0.1,0.04952836036682129,0.2557220458984375,0.050235823,0.17628366,-539.5043813565011,-0.13225935352252036,-2.481562625559851,0.0,1685,0.4735720157623291,8.024752949896788e-05,7.41567390397986e-05,-541.3183474617275,0.0
55,2.0793745517730713,-538.4479448392212,3.42010324881729,-528.9024104191853,-552.404625878692,0.0,0.5459121502748054,0.1,0.012330055236816406,0.3675100803375244,0.05053697,0.17601162,-539.3987377047731,-0.13279599057558414,-2.4834648933891135,0.0,1723,0.43978404998779297,9.063814856156548e-05,8.490112629613573e-05,-540.8322749491581,0.0
56,2.3425099849700928,-539.5840436411294,4.611264288767429,-531.9093443229284,-563.9908231263286,0.0,0.5374881926693599,0.1,0.01564502716064453,0.28408288955688477,0.050834313,0.17575844,-539.4172682984088,-0.13303684004128438,-2.489155120879074,0.0,1786,0.426067590713501,8.798996560994979e-05,7.774039449455887e-05,-544.3898464874767,0.0
57,2.001211643218994,-538.2635492826205,3.307658241567602,-530.8756419587514,-548.2369730991277,0.0,0.5348100749587428,0.1,0.025547266006469727,0.32540082931518555,0.0504915,0.19258659,-539.30189639683,-0.13218924332171214,-2.482612827805005,0.0,1727,0.41919684410095215,9.198588862247935e-05,8.304234807567619e-05,-544.7150293027485,0.0
58,2.074350357055664,-538.2568265758599,3.3372659680041443,-529.7904167515311,-547.7556253941581,0.0,0.5496317708702744,0.1,0.012486934661865234,0.25994253158569336,0.052099265,0.18820684,-539.197389414733,-0.13357934976189414,-2.4826352989467404,0.0,1722,0.347048282623291,8.263450625613147e-05,7.740294009350965e-05,-544.7778378539116,0.0
59,2.0267791748046875,-539.1395285110226,3.8471297377675135,-531.8434379710039,-553.298990208963,0.0,0.5498874850593086,0.1,0.009345293045043945,0.4019510746002197,0.049942486,0.18043306,-539.1916033243621,-0.1335341296553327,-2.48685868079226,0.0,1768,0.3613605499267578,8.786391529437557e-05,7.839946177716816e-05,-545.1666028027627,0.0
60,1.848008632659912,-538.8196434517853,4.13891978485344,-531.0568200497406,-558.2118565077672,0.0,0.5707165061796031,0.1,0.041983842849731445,0.32441186904907227,0.04993974,0.17345695,-539.1544073371044,-0.1315922531155461,-2.4853433655500794,0.0,1759,0.476024866104126,8.644967980697039e-05,7.97047770834094e-05,-550.5713003236767,0.0
61,1.8900928497314453,-538.1326030159154,3.803263012545196,-530.148141899989,-551.4618113168464,0.0,0.5373966818893005,0.1,0.031438350677490234,0.4743361473083496,0.050123256,0.18108797,-539.0522269049856,-0.13315057747643433,-2.4820399332263734,0.0,1736,0.39510011672973633,7.852273285840648e-05,7.213728488200182e-05,-551.3389624991629,0.0
62,1.85508394241333,-537.7913989008151,2.661586984816391,-530.3374599108739,-543.2686205227949,0.0,0.5525775178222723,0.1,0.027833938598632812,0.3856689929962158,0.048879623,0.17278163,-538.9261441045685,-0.1317365497790623,-2.4802024317174385,0.0,1720,0.3668229579925537,8.276201977587266e-05,7.781197893861407e-05,-547.0124764359327,0.0
63,1.9239740371704102,-538.1130870073001,3.896276118022808,-526.262587434649,-550.0178052602497,0.0,0.5707218523749563,0.1,0.033797264099121094,0.4450371265411377,0.050808497,0.17671785,-538.8448383948416,-0.133306458071781,-2.4818277392335832,0.0,1744,0.3921701908111572,6.780340924249926e-05,6.446628221428116e-05,-544.8978641286197,0.0
64,1.822373390197754,-539.4345012996764,3.6621188841126937,-529.85449873762,-550.8182948824021,0.0,0.563803149096164,0.1,0.028052091598510742,0.48619675636291504,0.049761068,0.16946995,-538.9038046853251,-0.13214816084882378,-2.4883898627875065,0.0,1814,0.4304168224334717,6.858130825165262e-05,6.392760996867046e-05,-547.4611745218747,0.0
65,1.7680003643035889,-539.0458343123322,4.388649779224147,-531.4996157911618,-558.6340724724482,0.0,0.5282034108590645,0.1,0.0281369686126709,0.3396470546722412,0.05107661,0.17804487,-538.9180076480259,-0.1328322980212058,-2.4865787711082117,0.0,1785,0.46169209480285645,9.171624380174972e-05,8.622458406266773e-05,-549.8022052238665,0.0
66,1.9599559307098389,-539.0932980570361,4.267169905802146,-530.8624543915582,-557.3832168024388,0.0,0.5527108437788921,0.1,0.031078338623046875,0.36061811447143555,0.050232455,0.17164327,-538.935536688927,-0.13092986426654118,-2.4866886304145415,0.0,1798,0.4980144500732422,8.486355861208602e-05,7.399342182800222e-05,-550.089587761694,0.0
67,1.8232448101043701,-539.0144096882822,3.416283581357516,-531.9002414496135,-551.3672098271404,0.0,0.5551414837673293,0.1,0.031237125396728516,0.3778383731842041,0.05063645,0.18862855,-538.9434239888625,-0.13236191974609648,-2.4863064920421176,0.0,1802,0.4348287582397461,7.79983217225106e-05,6.794658009262635e-05,-548.2986765444668,0.0
68,1.8854262828826904,-538.767129058139,4.031782680837338,-529.6526014646583,-557.2796146191937,0.0,0.5391551923148676,0.1,0.011869668960571289,0.24421405792236328,0.051028002,0.19069429,-538.9257944957901,-0.12885572900999545,-2.4850650586096776,0.0,1792,0.42646074295043945,7.195429769070687e-05,6.532824573986596e-05,-546.0050906623592,0.0
69,1.952930212020874,-538.4188249806867,3.79014129692358,-530.5485449341157,-551.0512053265634,0.0,0.5839466639354581,0.1,0.029445171356201172,0.3452284336090088,0.049955793,0.17248169,-538.8750975442798,-0.12652944851643108,-2.4833469223601106,0.0,1804,0.45461535453796387,7.282777422503665e-05,7.090488526094037e-05,-550.7752729278277,0.0
70,1.857879638671875,-538.4222166339208,3.6403275077841877,-531.0686432313566,-550.6208055786616,0.0,0.5645373561860721,0.1,0.028902053833007812,0.3825676441192627,0.050541494,0.17536244,-538.8298094532439,-0.12865460481722846,-2.4833291276422575,0.0,1804,0.40622997283935547,8.876923910770742e-05,8.11426958630623e-05,-553.5970099916826,0.0
71,2.272874355316162,-538.7650412824228,3.2315587982704086,-530.4198314582734,-551.2306786455265,0.0,0.5478310505916385,0.1,0.021411895751953125,0.2685582637786865,0.05088837,0.17674388,-538.8233326361618,-0.127540172559103,-2.4851447269964084,0.0,1818,0.40546441078186035,7.733976874030997e-05,7.117731257519014e-05,-552.0576877125109,0.0
72,2.072873592376709,-539.8330270631602,5.851160837865261,-532.0527773340366,-581.7139538786276,0.0,0.595184831400734,0.1,0.027271032333374023,0.41948461532592773,0.05020948,0.16803218,-538.9243020788617,-0.1307252127690155,-2.490537650212548,0.0,1869,0.501133918762207,7.464449747582518e-05,6.743331958312067e-05,-555.9441990279189,0.0
73,2.103858232498169,-539.4190344404407,4.788061605834848,-530.0312728557182,-556.650987468576,0.0,0.569358330772965,0.1,0.011745929718017578,0.4112210273742676,0.05034825,0.18800248,-538.9737753150197,-0.13120017012011137,-2.48823500415695,0.0,1841,0.41971397399902344,6.955834594413932e-05,6.398073434624863e-05,-558.5157788027816,0.0
74,2.105355978012085,-539.2501688039644,4.341716518698897,-531.2051318687221,-556.9070018542868,0.0,0.5632472670097165,0.1,0.024837017059326172,0.2878694534301758,0.049994133,0.18606323,-539.0014146639141,-0.12921984104236595,-2.487609977633689,0.0,1842,0.5567536354064941,7.698657434279754e-05,7.011540567029236e-05,-551.4420545278464,0.0
75,2.4928672313690186,-539.0540902260522,3.8988937262222065,-529.9845700529115,-549.8162469244382,0.0,0.5852394296166304,0.1,0.027750015258789062,0.32332372665405273,0.05041827,0.16989699,-539.0066822201279,-0.12802385840639116,-2.4864944601788532,0.0,1843,0.3522822856903076,7.583878015536808e-05,6.574587145159717e-05,-543.6219740406497,0.0
76,2.105417490005493,-539.6130393756498,4.404812786717072,-530.6129348774637,-554.3005080128459,0.0,0.5878756018141583,0.1,0.030714750289916992,0.5154812335968018,0.049582895,0.16095386,-539.0673179356801,-0.12988756545808394,-2.4892290594324593,0.0,1862,0.46593618392944336,7.122053693135804e-05,6.602029756376053e-05,-543.75222064457,0.0
77,2.1248884201049805,-539.5106306902957,4.680321751719354,-530.8784662541455,-553.3479434130949,0.0,0.5817804730032585,0.1,0.028386831283569336,0.3588745594024658,0.050279226,0.16599263,-539.1116492111416,-0.12822850324115687,-2.488837471416357,0.0,1863,0.49254751205444336,8.929796675482648e-05,7.246760180435884e-05,-544.037877602994,0.0
78,2.1077609062194824,-538.7796459548873,4.148716743905962,-530.1291801637607,-551.3610870311297,0.0,0.5760293401322524,0.1,0.024508237838745117,0.3603174686431885,0.050349794,0.17246173,-539.0784488855162,-0.12861927491844366,-2.485211503939406,0.0,1833,0.39914989471435547,7.0923103457141e-05,6.533636549991876e-05,-542.2448373561448,0.0
79,1.8930363655090332,-539.8670098438835,4.418788981027808,-530.3130104359217,-557.5105563771835,0.0,0.5672561642994609,0.1,0.02360701560974121,0.39560651779174805,0.05062024,0.17163607,-539.1573049813529,-0.12969838131479974,-2.49058794290263,0.0,1883,0.47831296920776367,8.085156833933302e-05,6.49524416233583e-05,-542.3257262624796,0.0
80,1.9469070434570312,-539.9137980375586,5.376869886326713,-530.7232280236924,-554.671442740162,0.0,0.5856388882155369,0.1,0.013020515441894531,0.4251255989074707,0.049461924,0.17020206,-539.2329542869735,-0.128498460373574,-2.490859619399337,0.0,1882,0.5280675888061523,7.810598784771133e-05,6.917014341045256e-05,-542.9513960289797,0.0
81,2.0779476165771484,-539.7685544285695,4.587382666511676,-531.1010129078088,-555.7377845432267,0.0,0.592002590829996,0.1,0.02673792839050293,0.36100101470947266,0.05025434,0.17160055,-539.2865143011331,-0.12969971250190002,-2.4900913466803236,0.0,1871,0.4672822952270508,6.898553565355128e-05,6.145655902102095e-05,-544.6452344968568,0.0
82,2.0195658206939697,-539.6385972217556,5.043842326701145,-530.358230224783,-558.3924748800756,0.0,0.5841299420918943,0.1,0.048575401306152344,0.40926432609558105,0.050122373,0.17117274,-539.3217225931954,-0.12785850356454478,-2.4894890433426746,0.0,1886,0.4627492427825928,5.630933454833625e-05,5.037968986463017e-05,-544.8647163860759,0.0
83,1.8920516967773438,-540.5817112155961,5.47422902309742,-529.3454402392944,-573.7054001939669,0.0,0.5531883734974246,0.1,0.01326894760131836,0.3627333641052246,0.04869348,0.18489066,-539.4477214554355,-0.1302101757456814,-2.494186257612524,0.0,1926,0.5073428153991699,5.352339931970894e-05,5.089136390727514e-05,-540.7994740800663,0.0
84,2.1308083534240723,-540.3710448325037,6.684667730148433,-530.0433850450016,-579.1286641433281,0.0,0.5991966816839588,0.1,0.013097047805786133,0.36013031005859375,0.050183192,0.16611007,-539.5400537931423,-0.12876908783139326,-2.4931051108317477,0.0,1926,0.49962377548217773,6.27134520027455e-05,6.02116726562802e-05,-542.6308041135754,0.0
85,2.1556711196899414,-539.7978640427438,5.445640328841659,-529.1575730842753,-566.7904033645096,0.0,0.5599468875161405,0.1,0.011608123779296875,0.22831058502197266,0.050412107,0.17569496,-539.5658348181025,-0.12903339083311396,-2.4901737883565307,0.0,1894,0.4427914619445801,5.9521510060316223e-05,5.611530843816882e-05,-545.2155449535404,0.0
86,2.1708829402923584,-539.6804104243253,4.560094683303373,-531.517221764248,-555.6373995303697,0.0,0.5827827570935747,0.1,0.01887035369873047,0.3599851131439209,0.0511065,0.17429674,-539.5772923787248,-0.13038685124783414,-2.489667203485314,0.0,1876,0.5212047100067139,6.206120436191723e-05,5.539781051020649e-05,-544.2802798239005,0.0
87,1.8673343658447266,-540.1033536422642,6.450651276125378,-530.4835053219092,-570.8392185667938,0.0,0.6080918976131551,0.1,0.011520862579345703,0.3615903854370117,0.049494334,0.1603016,-539.6298985050787,-0.13070684642878502,-2.4918109297281803,0.0,1908,0.5056190490722656,7.363525428216663e-05,6.584779786873486e-05,-544.3337781738973,0.0
88,1.993978500366211,-540.4485251874165,5.281113380253641,-530.7128684010718,-554.9540538593017,0.0,0.5876380005951547,0.1,0.012036800384521484,0.29190921783447266,0.05041805,0.1777481,-539.7117611733124,-0.12885878678576598,-2.4935342331950743,0.0,1934,0.5273940563201904,6.963645138003682e-05,6.16765989168587e-05,-543.9886266315052,0.0
89,2.3252675533294678,-539.5965233009528,4.698891977911586,-530.2518558960063,-557.2873275053555,0.0,0.5990589144442061,0.1,0.04027724266052246,0.31505823135375977,0.0500219,0.16378726,-539.7002373860764,-0.125983917722921,-2.489338475283786,0.0,1907,0.5007829666137695,5.6158059362196006e-05,4.734402473088681e-05,-552.4879999513515,0.0
90,2.220046043395996,-540.7438309905086,6.271787429893983,-530.1746697968845,-566.938259889154,0.0,0.6086044221164743,0.1,0.011959075927734375,0.3313891887664795,0.0499264,0.17430787,-539.8045967465197,-0.13028879318465247,-2.49498905582525,0.0,1957,0.43819189071655273,7.278959067772743e-05,6.330723647187345e-05,-552.5998417809352,0.0
91,2.0863211154937744,-541.4753484827826,5.358606379315846,-531.7540275588744,-566.2168714798205,0.0,0.6019165016646252,0.1,0.030568361282348633,0.35009336471557617,0.05041093,0.1604428,-539.9716719201459,-0.12896020757788484,-2.4985425282446303,0.0,2005,0.4204239845275879,4.851044127926312e-05,4.306435101266187e-05,-553.6136457498071,0.0
92,2.230512857437134,-540.6174010279084,5.758826346189125,-530.844550539953,-557.8349296952631,0.0,0.6200615750036232,0.1,0.03395676612854004,0.33160996437072754,0.050277185,0.16101076,-540.0362448309222,-0.1323787547255734,-2.494499167123887,0.0,1945,0.4633657932281494,6.228751041248673e-05,5.4342791893680305e-05,-556.0474478532133,0.0
93,2.2033917903900146,-541.5537470130448,5.237546624884361,-532.4439277338895,-556.9080523344503,0.0,0.650250114005429,0.1,0.012212514877319336,0.6398069858551025,0.050047997,0.15099333,-540.1879950491345,-0.1299940300395335,-2.49897945602074,0.0,2016,0.4793558120727539,5.867435783001987e-05,5.702612535762172e-05,-557.833360096988,0.0
94,2.3446226119995117,-541.578116750814,6.388186559469367,-531.3529266848442,-566.5410902395532,0.0,0.642937839952164,0.1,0.0215301513671875,0.3299863338470459,0.05032595,0.15403892,-540.3270072193025,-0.13050614359550186,-2.4990667238522217,0.0,1999,0.38313746452331543,7.015913533875326e-05,5.917449199228298e-05,-558.3839502831154,0.0
95,2.2622814178466797,-541.0589526722487,5.460574995133098,-530.936081686138,-562.8461279829625,0.0,0.6241188781312522,0.1,0.03072834014892578,0.34100842475891113,0.049919702,0.1625232,-540.4002017645971,-0.12925722440736087,-2.496623612153981,0.0,2000,0.4857199192047119,6.466174193903949e-05,5.926943459278964e-05,-551.9282447336544,0.0
96,2.163606643676758,-541.4448656122436,6.180119599670721,-531.1115906515281,-566.472044641028,0.0,0.6157420600261045,0.1,0.018944263458251953,0.33615589141845703,0.05063179,0.15987739,-540.5046681493618,-0.12951897942343402,-2.4985123361450032,0.0,2017,0.47481346130371094,5.250045449853095e-05,4.726300346450191e-05,-555.980680702152,0.0
97,2.2204458713531494,-542.917336870679,5.95927971387453,-531.9098558966996,-567.5127740252626,0.0,0.6844262642772264,0.1,0.024590730667114258,0.2824394702911377,0.050022237,0.14561555,-540.7459350214936,-0.1306667775420796,-2.5058107589640852,0.0,2096,0.5306582450866699,4.882514773119243e-05,4.6084799394954414e-05,-552.3707644462411,0.0
98,2.114161968231201,-543.0485643300602,6.7712501916601076,-530.6286628233362,-566.8637412372093,0.0,0.7127037818520964,0.1,0.021883487701416016,0.30466651916503906,0.050704878,0.13592431,-540.9761979523503,-0.12959908420714392,-2.506470233535199,0.0,2125,0.5945308208465576,6.849289610900087e-05,6.39743236760822e-05,-549.5173523966669,0.0
99,2.0463504791259766,-542.2068365945169,6.769000501977139,-531.4313994520509,-561.6527912897805,0.0,0.6400678818921087,0.1,0.012605667114257812,0.3023359775543213,0.0500932,0.15743439,-541.0992618165669,-0.1317099370110585,-2.502274982596876,0.0,2071,0.5107736587524414,6.170355588735351e-05,5.123110533478294e-05,-549.2817612183031,0.0
100,2.2103991508483887,-543.7969828768347,6.825618193113983,-530.7192792120637,-568.9655199967696,0.0,0.6779664319398134,0.1,0.03414273262023926,0.32514095306396484,0.05042037,0.14799194,-541.3690339225936,-0.13170298546212547,-2.5103215389123466,0.0,2163,0.5808815956115723,5.771764853124355e-05,5.35601230076739e-05,-544.7549318351878,0.0
101,2.343540906906128,-543.0781689196562,6.285718626364574,-531.9438747078801,-560.0587441851652,0.0,0.6620395781040448,0.1,0.022467851638793945,0.27286481857299805,0.0507138,0.15067755,-541.5399474223,-0.13102705072006857,-2.506681574338461,0.0,2134,0.47316646575927734,5.971933358480546e-05,5.5630951228273085e-05,-542.2833563362091,0.0
102,2.131974697113037,-542.8859734457906,5.918715036489422,-531.6174869910269,-563.7442733921437,0.0,0.6521835768088802,0.1,0.041983604431152344,0.33270859718322754,0.050172728,0.15414794,-541.6745500246491,-0.1306742708635442,-2.50562083710233,0.0,2146,0.6026318073272705,7.439935604306857e-05,6.788516492141335e-05,-549.2314242384563,0.0
103,2.32161545753479,-543.4804363233801,7.940695679095558,-531.9104616254295,-580.384904616474,0.0,0.6617956093157437,0.1,0.04028654098510742,0.3552124500274658,0.050545126,0.15718967,-541.8551386545222,-0.13552198872574314,-2.508710794363925,0.0,2155,0.5442650318145752,8.745657507246079e-05,8.237167368652918e-05,-549.0847820357505,0.0
104,2.847482442855835,-546.3501031747031,6.759716687540517,-532.162875013234,-571.2205136392054,0.0,0.720931204910775,0.1,0.02272200584411621,0.29432225227355957,0.04970889,0.14076008,-542.3046351065403,-0.13260157748052004,-2.52294053237976,0.0,2346,0.6764864921569824,0.00011050826317800587,0.0001007005528574829,-548.619269274725,0.0
105,2.444190740585327,-543.7044714261253,7.479270420667344,-530.6533740704667,-563.6977517213553,0.0,0.6617229094998618,0.1,0.059188127517700195,0.27872610092163086,0.049951486,0.14965108,-542.4446187384988,-0.13149958225983163,-2.5097992831679248,0.0,2192,0.5633594989776611,8.347116794362467e-05,7.316855550037836e-05,-554.6178340454952,0.0
106,2.4109742641448975,-544.666015747196,6.687388328063787,-529.0669007774884,-563.3336673576699,0.0,0.6421754165941086,0.1,0.012453317642211914,0.3351116180419922,0.050584853,0.15320654,-542.6667584393686,-0.13638818019566257,-2.5146258133690025,0.0,2241,0.5729925632476807,9.014887922879526e-05,8.189356279234167e-05,-555.4599017651034,0.0
107,2.3443546295166016,-544.4880025526033,9.034104888438826,-531.8805875322254,-603.3776743254745,0.0,0.6944978485236974,0.1,0.01250147819519043,0.3219418525695801,0.049855247,0.14848958,-542.848882850692,-0.13725111403317733,-2.5138193372746236,0.0,2230,0.5871737003326416,9.379815782462063e-05,8.22031469136439e-05,-559.7494669423152,0.0
108,2.545414924621582,-545.4082425076232,9.231452279116125,-529.6063816237996,-579.8391507912336,0.0,0.708012907030567,0.1,0.029764890670776367,0.300020694732666,0.050800167,0.14137259,-543.1048188163851,-0.13771722680337375,-2.518428379450454,0.0,2266,0.7031526565551758,8.980745157861954e-05,8.498291096309896e-05,-559.2062072835943,0.0
109,2.4251976013183594,-545.224712867443,7.587653313064102,-531.4609360696785,-569.4010514250876,0.0,0.7329841907375481,0.1,0.012230634689331055,0.32030463218688965,0.050287712,0.13794017,-543.3168082214909,-0.13582703564295087,-2.5174488653266676,0.0,2302,0.5926704406738281,9.73914361939937e-05,9.26371410515709e-05,-553.2175633031343,0.0
110,2.3325443267822266,-545.3443419560444,7.685462944044896,-532.6604688656713,-581.1019227247799,0.0,0.6967823090421239,0.1,0.02500462532043457,0.349820613861084,0.051041182,0.15237164,-543.5195615949463,-0.1395764574750987,-2.5180667018431393,0.0,2284,0.5737500190734863,9.97529504834096e-05,9.225402884689045e-05,-560.6591525087376,0.0
111,2.484649658203125,-548.0269498635886,8.217195709965358,-534.4615299227657,-567.3453193533824,0.0,0.7525198493814234,0.1,0.01962900161743164,0.4259345531463623,0.050694007,0.13260387,-543.9703004218105,-0.13935845683208922,-2.5313526724275266,0.0,2448,0.5787210464477539,9.774427732863986e-05,8.188106455400319e-05,-553.4353313387993,0.0
112,2.3044090270996094,-546.5809083707843,9.147257590898057,-530.892536126118,-577.0602268871812,0.0,0.7246921209734476,0.1,0.013995647430419922,0.4422037601470947,0.050463613,0.13622688,-544.2313612167079,-0.137697081976179,-2.524315620034865,0.0,2408,0.6528818607330322,9.436343396300304e-05,8.44638794370474e-05,-554.0071204651574,0.0
113,2.315053939819336,-546.5868881032764,8.040136534357059,-531.2586919816167,-576.5163865489872,0.0,0.7183490140905496,0.1,0.017655134201049805,0.37183117866516113,0.049908493,0.13645378,-544.4669139053648,-0.1374512552095102,-2.52430435348007,0.0,2378,0.6618049144744873,0.00010010867359511981,9.014768634360405e-05,-554.2618351019416,0.0
114,2.5847837924957275,-549.1620509667769,7.383225042120319,-535.3765321376707,-568.5937827308787,0.0,0.7576383660941448,0.1,0.027695894241333008,0.4162137508392334,0.049184114,0.13492115,-544.936427611506,-0.1406567106632445,-2.537120004431767,0.0,2571,0.6281166076660156,0.00011858360609240635,8.500041298620604e-05,-554.3922929779609,0.0
115,2.72611403465271,-548.7793539671123,8.17977120556856,-533.1421539368561,-571.2881448698614,0.0,0.7273926031714276,0.1,0.03344893455505371,0.3241298198699951,0.05009172,0.1380344,-545.3207202470667,-0.1390740927919009,-2.535223216169436,0.0,2571,0.5584108829498291,0.00010189063667079,9.289325473503743e-05,-555.6051801870094,0.0
116,2.9069459438323975,-549.4024229042567,8.86553541092593,-535.8443057631347,-591.623745846513,0.0,0.763264943329066,0.1,0.03279757499694824,0.22601819038391113,0.05089698,0.1291574,-545.7288905127857,-0.1390646882349093,-2.5383193237477055,0.0,2645,0.6310427188873291,9.940193424261561e-05,8.64860895568047e-05,-555.9274516833987,0.0
117,2.7224223613739014,-549.951651505471,9.28724490388574,-534.1111285781697,-576.4085400500804,0.0,0.778209323009473,0.1,0.013796091079711914,0.2866244316101074,0.050484948,0.124836154,-546.1511666120542,-0.13919552827065396,-2.5410989521684173,0.0,2679,0.629030704498291,0.00013609343612143676,0.00012322220299879823,-559.3603178087583,0.0
118,3.005592107772827,-552.0132894464125,9.722011004804049,-533.7185197810044,-586.4783137761275,0.0,0.8118179314442939,0.1,0.0393373966217041,0.4052848815917969,0.05043048,0.12516662,-546.73737889549,-0.13887552183042565,-2.5513099006577256,0.0,2831,0.7439563274383545,0.000183743277233986,0.0001609358104666682,-558.3964829572226,0.0
119,2.9312751293182373,-551.4209357646308,9.443554696882018,-533.1640658771877,-579.8661443671984,0.0,0.7753214507831712,0.1,0.0546109676361084,0.49423861503601074,0.050825324,0.12340431,-547.2057345824041,-0.13982319809244914,-2.548482765983543,0.0,2794,0.6600935459136963,0.00014131774387195862,0.00013750125822628944,-560.53301774158,0.0
120,3.133331060409546,-552.9842211500021,10.86454863249164,-533.0643136698886,-590.1372277747264,0.0,0.8647183974618617,0.1,0.050090789794921875,0.3085815906524658,0.050252534,0.112908155,-547.7835832391639,-0.14434489160931194,-2.556267956718817,0.0,2908,0.6911370754241943,0.0002033341286670806,0.0001756390909246765,-563.4495832205846,0.0
121,2.868786334991455,-553.9704269886088,11.943259019192553,-532.0872291619688,-599.1709380085092,0.0,0.8173642994887406,0.1,0.04986071586608887,0.3404719829559326,0.048523225,0.11957247,-548.4022676141084,-0.14381594229205394,-2.561217201360328,0.0,2953,0.5977523326873779,0.00021519195344951183,0.00020316206209510388,-558.81139393105,0.0
122,2.8322410583496094,-553.3631812420798,12.01581848995204,-534.365193666537,-599.8271928545814,0.0,0.8088152378201762,0.1,0.02075481414794922,0.31110501289367676,0.049400225,0.12134259,-548.8983589769056,-0.14653320815935134,-2.558209784186697,0.0,2887,0.67958664894104,0.0002046427134236656,0.00019524335074042886,-566.7300223758042,0.0
123,2.8748533725738525,-554.4457690756329,12.385959127455278,-531.0177422738369,-611.1152717557819,0.0,0.8449643308048495,0.1,0.014472484588623047,0.38434576988220215,0.049687073,0.119262256,-549.4530999867783,-0.14609987729267224,-2.563491307242993,0.0,2990,0.7593903541564941,0.00023225386091287102,0.00020012238729213646,-575.2445079952706,0.0
124,2.853224039077759,-554.4166896526812,10.040916632223482,-535.107591406987,-582.0523128564157,0.0,0.8822181972776475,0.1,0.026036977767944336,0.435089111328125,0.047625955,0.11044192,-549.9494589533685,-0.14513479868928159,-2.563491984491865,0.0,3039,0.8383395671844482,0.0001803299392578687,0.00017390919744815855,-568.3561050449082,0.0
125,3.177248954772949,-557.8862547892187,15.673877321491506,-531.5881743848367,-633.7139002219138,0.0,0.8803301307094104,0.1,0.03488945960998535,0.2941882610321045,0.048393454,0.10826856,-550.7431385369536,-0.14694742070210928,-2.5806769442330837,0.0,3245,0.7129025459289551,0.00039430354029823566,0.0003645867623238976,-574.9948305819395,0.0
126,3.3675119876861572,-559.7185449462627,14.333966341065763,-534.7713453245455,-624.491378368539,0.0,0.9789656008579276,0.1,0.03408503532409668,0.5066936016082764,0.050535046,0.1027389,-551.6406791778845,-0.1494280746731338,-2.589914598518019,0.0,3385,0.9567756652832031,0.00030015742360985504,0.0003126980153382536,-591.0589691570539,0.0
127,3.2241573333740234,-559.3579065895412,13.492284385722746,-534.5395563414182,-594.1102406131392,0.0,0.894002809715641,0.1,0.03686261177062988,0.716768741607666,0.050081544,0.1103794,-552.4124019190502,-0.15275185996127572,-2.588128789543124,0.0,3358,0.8232173919677734,0.00043769292866861157,0.00038999219906185915,-583.1051840267721,0.0
128,3.4319777488708496,-557.2246648086875,11.895310850241666,-533.2663177218817,-587.2997288209365,0.0,0.9321726053532339,0.1,0.043987274169921875,0.37114763259887695,0.05045889,0.105926655,-552.893628208014,-0.14837986431779623,-2.5775208611783147,0.0,3271,0.7561426162719727,0.00022860153183028794,0.00021332468421776966,-574.0016930183779,0.0
129,3.775071620941162,-560.3933905918542,13.799343232056684,-536.0304687965823,-606.3418558061691,0.0,0.9417399394815497,0.1,0.031082630157470703,0.5235261917114258,0.05003763,0.09672335,-553.6436044463981,-0.1556415184527495,-2.5933282116425986,0.0,3453,0.744849681854248,0.0003026050288447177,0.0002705558481342726,-564.3837336363681,0.0
130,3.5366976261138916,-563.7731720218159,13.866235608673362,-537.4251866980374,-610.5150694342585,0.0,0.9817051053657959,0.1,0.03860330581665039,0.6864883899688721,0.050785612,0.10324915,-554.6565612039399,-0.15371801247422334,-2.6102074159982545,0.0,3771,0.8019282817840576,0.0005100316528331232,0.00042924210705539296,-569.5142906577375,0.0
131,3.3884270191192627,-563.83627773817,13.680867574966715,-536.6191960515946,-614.0634505583332,0.0,1.0361580322271866,0.1,0.05094766616821289,0.5726315975189209,0.04980483,0.097181484,-555.5745328573629,-0.15614539733256902,-2.6104876314290415,0.0,3707,0.783513069152832,0.0003543215255577487,0.0003346605281047129,-572.2510306795805,0.0
132,3.2456507682800293,-563.7996994560507,18.502611153208107,-536.8290185078893,-682.0324367172851,0.0,0.9131794550253036,0.1,0.031308889389038086,0.4342763423919678,0.049433373,0.11613159,-556.3970495172316,-0.15253993015882655,-2.6103579186012418,0.0,3748,0.7847671508789062,0.0009092284138147662,0.0007375660330893502,-570.7887158097728,0.0
133,4.079582691192627,-566.3575114072097,18.148147963150663,-537.6219862489706,-646.4887664433113,0.0,1.0671587242427827,0.1,0.02950000762939453,0.6545114517211914,0.049917642,0.09383261,-557.3930957062294,-0.15618536901760469,-2.623164305019934,0.0,3951,0.8099629878997803,0.0005777549043527909,0.0005005377522125521,-564.7155920651704,0.0
134,3.93701434135437,-564.0132414840941,15.202414931158971,-533.975344165859,-637.8704067293795,0.0,1.0581707178240947,0.1,0.035460710525512695,0.5995240211486816,0.049885366,0.09183627,-558.0551102840159,-0.15703335772476665,-2.61143587187389,0.0,3765,0.923525333404541,0.0003921820717414975,0.00034681102848216995,-566.5873585329292,0.0
135,4.134044885635376,-566.888298177308,17.242171484326395,-540.4871215937926,-636.783961594365,0.0,1.022591670695451,0.1,0.03739571571350098,0.43137288093566895,0.0503586,0.09801617,-558.9384290733451,-0.15731633459182628,-2.62579374600727,0.0,4014,0.8543803691864014,0.0006583086726740631,0.0006705074776653502,-565.4933540330142,0.0
136,3.153921127319336,-564.1038027860914,17.065021740205935,-535.263144030008,-628.0138002376093,0.0,0.9850334790546528,0.1,0.027944326400756836,0.2814347743988037,0.05010137,0.101700276,-559.4549664446198,-0.1558849344178646,-2.6118570579850378,0.0,3774,0.9764273166656494,0.0007168263697148976,0.0005553314177293701,-569.1323264543869,0.0
137,3.990506410598755,-566.2955163727978,14.143306814157338,-530.7584126546825,-605.1485330821241,0.0,1.0293959531426171,0.1,0.030685901641845703,0.3745729923248291,0.049575925,0.09584701,-560.1390214374376,-0.15846236392160645,-2.6228637640690984,0.0,3943,0.8450362682342529,0.0003991015268608744,0.0003570774957053886,-568.3499879252913,0.0
138,4.046605587005615,-571.6669388123616,28.998499823236756,-537.6626528307946,-757.893603092725,0.0,1.0694234927119264,0.1,0.05821871757507324,0.6629207134246826,0.04871017,0.09363785,-561.29181317493,-0.15621626552664578,-2.6496740401588212,0.0,4393,1.1244089603424072,0.002550724729253026,0.001699712900204271,-565.9179468226387,0.0
139,4.161160469055176,-566.4270916776273,15.734280184250341,-534.5658044724831,-618.5359505675243,0.0,1.02081385234801,0.1,0.011423587799072266,0.5920453071594238,0.049908668,0.09671933,-561.8053410251997,-0.15703227271374307,-2.6234511780753067,0.0,4050,0.9509820938110352,0.0007723781655236526,0.0006383282581158082,-577.2172460262746,0.0
140,3.8385982513427734,-564.9390176932847,13.402245330142856,-535.379101762097,-598.9423751137198,0.0,1.00467038337108,0.1,0.04210352897644043,0.48608970642089844,0.050678413,0.09473672,-562.1187086920082,-0.15651392078705859,-2.6160366775250545,0.0,3891,1.0870299339294434,0.00047850347588063847,0.00040639613644992547,-582.6077603885929,0.0
141,3.5831727981567383,-567.0090935982034,15.717264723369455,-536.8822499893602,-610.9719651329584,0.0,1.0262138386795556,0.1,0.014925718307495117,0.6865732669830322,0.048840128,0.09632795,-562.6077471826277,-0.15750228926099977,-2.626422838889028,0.0,4046,1.0188307762145996,0.0004595400052609593,0.00041883785518350385,-580.8683723784015,0.0
142,4.407219648361206,-564.2443209856605,35.00334283754286,-266.38805899973283,-635.2066541665718,0.0,1.0217032701765583,0.1,0.06451988220214844,0.6824061870574951,0.04807039,0.15753005,-562.7714045629309,-0.15671604787656543,-2.612530970735492,0.0,4277,1.2037954330444336,0.034531259876274506,0.022314609546414687,-597.8406130511883,0.0
143,3.6330976486206055,-574.6735094100435,28.577838284928397,-548.3432846621046,-769.3076328715006,0.0,1.0914812767574091,0.1,0.057897090911865234,0.5433461666107178,0.049517263,0.08575529,-563.9616150476422,-0.16111038716346957,-2.6646629539168534,0.0,4610,1.104137659072876,0.006412873244030485,0.002215122848024707,-583.0268412571611,0.0
144,4.41832971572876,-566.3301546516858,36.70553336015402,-264.6046650030315,-657.3625724690885,0.0,0.9782392149068287,0.1,0.040778160095214844,0.3219630718231201,0.04996074,0.16871256,-564.1984690080466,-0.15969905777468094,-2.6230235888974343,0.0,4410,0.8757588863372803,0.027150623145635305,0.019927315037448934,-573.3911488633858,0.0
145,4.460569143295288,-571.0022432839078,21.162904311648866,-532.7915093712812,-704.4631829503667,0.0,1.0970474359193607,0.1,0.01714944839477539,0.5763185024261475,0.050243646,0.08546572,-564.8788464356327,-0.1562656182641638,-2.646375527471365,0.0,4451,1.1571850776672363,0.004761238572615067,0.0018668903273789887,-569.5437212084466,0.0
146,4.371870756149292,-569.2840362952284,20.796880875915676,-541.4798392627462,-663.6703904982335,0.0,1.022336621765471,0.1,0.01543283462524414,0.46413660049438477,0.049506914,0.09349267,-565.3193654215922,-0.15548560181638704,-2.6378072971876003,0.0,4304,1.0771350860595703,0.0017495371453663511,0.001592419301313251,-579.6462331706889,0.0
147,4.34754204750061,-568.4491382027658,21.179141930973824,-536.9350443955507,-710.3382206076026,0.0,1.0438844250085864,0.1,0.04250311851501465,0.6801505088806152,0.046604834,0.091512375,-565.6323426997096,-0.1593107909649077,-2.6335766772612765,0.0,4220,1.1578106880187988,0.0014328355375366013,0.0012734179914290278,-580.9695883988587,0.0
148,4.564810276031494,-571.5809622138968,21.103618945311627,-540.0383798816912,-701.955813930531,0.0,1.13546893988846,0.1,0.037313222885131836,0.6391792297363281,0.048848882,0.082191065,-566.2272046511283,-0.1562082353240645,-2.6493093501419516,0.0,4543,0.921872615814209,0.0014340969859820178,0.0011765969311356306,-582.5862716211223,0.0
149,4.983403444290161,-563.6124747374294,46.663602428208506,-253.09443694648783,-619.296623935953,0.0,1.1027869013987743,0.1,0.05782461166381836,0.3951389789581299,0.048648704,0.12665191,-565.9657316597584,-0.15888176353204184,-2.60940675686293,0.0,4654,1.172788143157959,0.04921577732942095,0.024356405860173184,-578.3960333623896,0.0
150,3.980372905731201,-570.8348470237783,16.607395392554608,-539.8184857000401,-639.931285985116,0.0,1.1065332285436411,0.1,0.017461538314819336,0.3967728614807129,0.050468754,0.08479039,-566.4526431961604,-0.15907660698458018,-2.645510776300405,0.0,4423,1.0755951404571533,0.007490627589863786,0.0016032948119675554,-567.601048594748,0.0
151,3.8759210109710693,-567.3548676029809,16.824298582102703,-536.3019954425399,-630.8679732284675,0.0,1.0871397735581103,0.1,0.07242918014526367,1.1446387767791748,0.050556682,0.09290295,-566.5428656368424,-0.15589503198352925,-2.628120870621625,0.0,4165,1.0402874946594238,0.00142550939252122,0.0011522691215236423,-591.43197869895,0.0
152,4.857323408126831,-570.1168271414704,22.66245839261056,-533.7625449251154,-697.769872676231,0.0,1.0976517350188657,0.1,0.03611040115356445,0.6069989204406738,0.050807953,0.088475235,-566.9002617873052,-0.15456644600124173,-2.6419475552499176,0.0,4391,1.084258794784546,0.0025855490481550454,0.0020572075153963837,-583.7080964871267,0.0
153,4.72431492805481,-569.5790487525646,40.61526026957624,-282.23922093563743,-727.0693498049371,0.0,1.1690167077705607,0.1,0.04645705223083496,0.5440497398376465,0.049282335,0.08707167,-567.1681404838312,-0.15568610550572426,-2.6392622983702263,0.0,4703,1.0373892784118652,0.02252186799599074,0.02023357860556839,-591.2124338016779,0.0
154,3.9479598999023438,-566.5073486787843,14.464544018178367,-541.8874154610245,-617.4363417449922,0.0,1.0884697404445731,0.1,0.05439281463623047,0.4865837097167969,0.05093363,0.09089095,-567.1020613033264,-0.15388116282023348,-2.6238945303383105,0.0,4161,0.8677465915679932,0.002903319216981563,0.0009483089246513638,-601.2379022334712,0.0
155,3.8083643913269043,-566.3978123228369,36.80617702353663,-266.13169349060007,-683.887279077981,0.0,0.9690931032770398,0.1,0.034560441970825195,0.5899796485900879,0.050481983,0.12993494,-567.0316364052775,-0.15975237448323842,-2.6233850230154707,0.0,4440,0.9870960712432861,0.019167068163817625,0.016235831856287457,-613.4308945904291,0.0
156,4.903664588928223,-568.8267170250407,38.45390591145512,-268.1410360413878,-673.8977605445134,0.0,1.177584240486364,0.1,0.05408215522766113,0.48612117767333984,0.049446143,0.08774669,-567.2111444672538,-0.1584982289685266,-2.635411734401005,0.0,4646,1.0359971523284912,0.01384015540980818,0.011871901411738075,-616.8965560524141,0.0
157,4.50983190536499,-562.9864174319572,50.65942648613291,-259.97224612327017,-747.5261757798139,0.0,1.115858169049147,0.1,0.043299198150634766,0.5294249057769775,0.05012683,0.09116372,-566.7886717637241,-0.15627208786640187,-2.6324217461324726,0.0,4612,1.0764613151550293,0.049130318008406115,0.03773025846162225,-596.7337656286181,0.0
158,5.319795370101929,-566.0709525777321,58.648993965358464,-267.45410939529654,-747.9778945871928,0.0,1.1311065974749606,0.1,0.025754451751708984,0.5574328899383545,0.049050502,0.08543311,-566.7168998451249,-0.16050299018633132,-2.6216081733083194,0.0,5127,0.965437650680542,0.03682337844509646,0.034642063002143605,-247.62042488484286,0.0
159,4.463755369186401,-565.2805767786566,45.04344274808145,-266.09662293237335,-621.1842957872362,0.0,1.042348944261387,0.1,0.03364133834838867,0.5198853015899658,0.049664233,0.09327475,-566.5732675384781,-0.1616319775374028,-2.617743040760737,0.0,4685,1.0605747699737549,0.020390784717332223,0.017900634870205785,-246.34611751721624,0.0
160,4.226525068283081,-570.9400382061631,18.74108159706688,-546.8733871110599,-691.0179304811711,0.0,1.0347333490215973,0.1,0.014616966247558594,0.7002274990081787,0.04984777,0.08718453,-567.0099446052466,-0.15796169502306964,-2.646076559083239,0.0,4422,1.0500571727752686,0.010075872154067862,0.0039247767116469415,-249.36451095334994,0.0
161,4.160971403121948,-566.2034541041592,36.550045797418385,-272.9494061669585,-680.0953984874103,0.0,1.0518685571384603,0.1,0.03342175483703613,0.5635700225830078,0.048937924,0.099535406,-566.9292955551379,-0.15930162547917318,-2.648414452281848,0.0,4406,1.1434962749481201,0.012344267951963582,0.01034283562031954,-247.89441982131865,0.0
162,5.594874382019043,-562.2003913535082,55.41493670689723,-261.680179527661,-625.613522621818,0.0,1.2669983913805225,0.1,0.04758572578430176,0.590742826461792,0.049486913,0.078891404,-566.4564051349748,-0.15891260689721934,-2.6023559548542745,0.0,4939,1.218102216720581,0.028714614501927794,0.022510616607181653,-250.39767902174884,0.0
163,5.54919695854187,-556.3141596492522,62.56166895158535,-258.3212497025491,-627.3318252935378,0.0,1.2217854618468897,0.1,0.0416102409362793,0.5227875709533691,0.049298365,0.08603653,-565.4421805864026,-0.15717478980579566,-2.5729009110044614,0.0,4835,0.9519720077514648,0.030016583915145525,0.028235568089475367,-250.97086349464348,0.0
164,5.174912214279175,-558.3014299558622,64.2201306369807,-261.5510322832468,-719.7725800595658,0.0,1.2059147501695797,0.1,0.05900382995605469,0.44354844093322754,0.049254946,0.0857126,-564.7281055233486,-0.15789679848229551,-2.5827673952599315,0.0,5012,1.1274676322937012,0.040884463472376203,0.036213178829617304,-255.10239959538316,0.0
165,4.495191812515259,-571.4595793274216,38.993181468066744,-282.213921294887,-751.9766025569281,0.0,1.1713747623722128,0.1,0.055776119232177734,0.4435555934906006,0.049677037,0.072449885,-565.4012529037559,-0.16108059929257193,-2.6486746129379974,0.0,4759,0.8679020404815674,0.030703828170989773,0.022085554303751993,-257.82676817675576,0.0
166,5.10198712348938,-571.0403045083486,47.96600431147418,-270.5829386398224,-648.4361218324909,0.0,1.2527139846920479,0.1,0.05612325668334961,0.6313538551330566,0.048856802,0.076580495,-565.9651580642152,-0.16362657903733605,-2.6465710000160567,0.0,5020,1.0217783451080322,0.02674413072485925,0.02369376080130311,-249.171389744489,0.0
167,4.305242300033569,-573.628281691772,19.412866793278006,-536.9937777400856,-668.9704657227746,0.0,1.0682485932014,0.1,0.03563070297241211,0.6339445114135742,0.04960531,0.0837548,-566.7314704269709,-0.16193149576342722,-2.659433154841258,0.0,4521,1.0143156051635742,0.006939723880467591,0.0037366248592784956,-247.51538951364202,0.0
168,5.3847527503967285,-558.2269740359785,69.42150483225399,-258.05376595055594,-615.4557990437261,0.0,1.1459426378857993,0.1,0.06741499900817871,0.5716381072998047,0.049442522,0.09093325,-565.8810207878716,-0.16303955016054839,-2.5824143879504935,0.0,5264,1.0031156539916992,0.06412219856348418,0.0352174011908692,-257.13327407075474,0.0
169,4.968242883682251,-569.7534075102545,50.20269728417286,-258.188480330104,-702.2883271108765,0.0,1.1858692044347843,0.1,0.015472888946533203,0.44894957542419434,0.04927082,0.07970591,-566.26825946011,-0.16072962314661568,-2.6401074544950647,0.0,4958,0.9892027378082275,0.03341940406722441,0.025767780875638427,-251.757744093719,0.0
170,4.748672008514404,-566.2597630583165,46.70109185559945,-263.0373607278171,-635.8132978025069,0.0,1.1419511907631266,0.1,0.047789812088012695,0.38184642791748047,0.049289536,0.088144705,-566.2674098199307,-0.16205867026119522,-2.648714465574627,0.0,4621,0.9961254596710205,0.022061590207951898,0.01958751259869057,-254.22275662943355,0.0
171,5.346743822097778,-556.2645982797704,76.06101134047114,-266.26071197833994,-619.5199826728433,0.0,1.3020673562834466,0.1,0.01891636848449707,0.612311840057373,0.049725235,0.075211704,-565.2671286659147,-0.16107311553294454,-2.598732621327033,0.0,5494,1.1513824462890625,0.04717737916714505,0.04378780608127164,-605.7115563456437,0.0
172,5.504920959472656,-560.5454756377296,70.58805681718076,-262.94408504694104,-640.6169045636505,0.0,1.320456283641357,0.1,0.03985118865966797,0.39661121368408203,0.049435098,0.07544828,-564.7949633630961,-0.16093903745944052,-2.594094251137812,0.0,5448,1.416501522064209,0.036208842431926715,0.03516625227576454,-256.4332812177814,0.0
173,4.95169734954834,-565.5217763076702,56.2110238583601,-264.88723580489557,-636.5951862354518,0.0,1.2136355563143073,0.1,0.03644704818725586,0.5870025157928467,0.050117254,0.080907024,-564.8676446575536,-0.15916700740074455,-2.618914223477056,0.0,5090,1.021606683731079,0.02600744207126305,0.02517886412504421,-592.9447851811269,0.0
174,5.594162225723267,-570.6153496595481,57.6773728521875,-268.97575582474065,-700.9451392024347,0.0,1.1898247499772525,0.1,0.04150390625,0.4482550621032715,0.049469244,0.0788975,-565.442415157753,-0.16144345562736742,-2.6444301881279575,0.0,5366,0.9739735126495361,0.03145681645116602,0.029043645950356193,-264.0806486198576,0.0
175,7.343824148178101,-556.8405203991232,84.33948739610462,-260.94184033823257,-749.9751893890334,0.0,1.3265807946193504,0.1,0.0800468921661377,0.39685964584350586,0.04930926,0.076618165,-564.58222568189,-0.16155754386713927,-2.5755000901001943,0.0,5887,1.1614103317260742,0.0566959620753689,0.0498147836873472,-277.16672334574787,0.0
176,4.9725260734558105,-572.3317006567135,51.94545983303054,-265.801491013049,-766.849898902637,0.0,1.1289239626587464,0.1,0.05788111686706543,0.44283032417297363,0.05053264,0.082756035,-565.3571731793724,-0.16446401852367246,-2.6530102138771,0.0,5050,1.0393669605255127,0.029181412239949012,0.02383177489547806,-601.394878102229,0.0
177,5.588242292404175,-543.6280472723016,94.51903845046071,-265.58716374117324,-629.408306958281,0.0,1.373619599093282,0.1,0.017753124237060547,0.40250444412231445,0.04987554,0.07195125,-563.1842605886653,-0.1602017130434968,-2.509444320149595,0.0,6093,1.2281742095947266,0.0842952985184911,0.062281051622224824,-580.0912182256424,0.0
178,5.7252113819122314,-554.5026912411545,82.57169015225764,-266.7657335237943,-731.585787708805,0.0,1.368346442808372,0.1,0.04094529151916504,0.4520251750946045,0.049746744,0.07209735,-562.3161036539143,-0.16152503227673934,-2.5899207178722263,0.0,5703,1.3297865390777588,0.05502656142596488,0.053038397678347844,-585.2336616092397,0.0
179,6.026217222213745,-554.5951772797309,88.3524374132078,-263.61329613824574,-646.4253451046172,0.0,1.3540410783834556,0.1,0.021287918090820312,0.36162757873535156,0.04951532,0.07563941,-561.5440110164959,-0.16261986129889353,-2.616413029320857,0.0,6107,1.067997932434082,0.05542252104144757,0.052731298552048146,-566.1464550125665,0.0
180,5.87532377243042,-556.6605750820823,76.26068193068312,-261.10816683867455,-609.9422457458795,0.0,1.2931355206520185,0.1,0.06117129325866699,0.3898792266845703,0.04919145,0.07549892,-561.0556674230546,-0.15951790941952834,-2.6007390750198063,0.0,5549,1.3316845893859863,0.04137582690540381,0.040349808188446724,-571.3559068439017,0.0
181,5.523024320602417,-575.2683052661279,49.86517353980468,-266.0170814748028,-716.8405008639844,0.0,1.1737769641211946,0.1,0.07670259475708008,0.6199548244476318,0.04937386,0.07713158,-562.476931207362,-0.16402725316732855,-2.6676771579727308,0.0,5301,1.2308928966522217,0.03177825118450926,0.023521211990993853,-570.9267976847518,0.0
182,5.1368489265441895,-570.7813710284887,59.81242674549926,-263.18258084493584,-717.2166001217979,0.0,1.213686302944245,0.1,0.051006317138671875,0.4713103771209717,0.049148247,0.07947793,-563.3073751894747,-0.16053116610853554,-2.6713134891614403,0.0,5413,1.0400185585021973,0.036033960726594934,0.03534735928358232,-572.912330657463,0.0
183,5.797130823135376,-562.4029908646621,71.89347645806654,-263.93660277291406,-686.5930675528557,0.0,1.3076269048254063,0.1,0.04067635536193848,0.7471034526824951,0.04909681,0.07511038,-563.2169367569934,-0.16115674582508036,-2.603297632616363,0.0,5564,1.2376506328582764,0.04401562420475956,0.03986154292581281,-564.4778420050684,0.0
184,7.045033931732178,-557.3374484020202,89.81399894934792,-262.63279487097697,-696.3705003681434,0.0,1.4112649858827757,0.1,0.013023853302001953,0.37952709197998047,0.04890955,0.067010954,-562.6289879214961,-0.16356012255533214,-2.6041147624650676,0.0,6297,1.2829577922821045,0.05734740848470588,0.05651561973862462,-568.5236768404874,0.0
185,6.751458644866943,-556.3949350440066,90.1211234884874,-262.46159551883653,-753.4883435231534,0.0,1.4285118246160704,0.1,0.016402721405029297,0.3847081661224365,0.048233442,0.06213814,-562.0055826337472,-0.1643350781380387,-2.573235092043937,0.0,6260,1.249079704284668,0.06437873301407014,0.06219322943160075,-574.2327351520925,0.0
186,7.192553997039795,-541.755878003477,105.01406722334455,-263.74460254347423,-694.3766268661682,0.0,1.497027815254958,0.1,0.017694473266601562,0.36762022972106934,0.046789844,0.06381243,-559.9806121707202,-0.16342665691982414,-2.552279447821125,0.0,6667,1.1662397384643555,0.08263025305339251,0.07520243635166476,-561.4968447061855,0.0
187,6.080324411392212,-562.9794213789874,70.84296863163259,-265.7630761028055,-621.1836803357968,0.0,1.296158237217509,0.1,0.029135942459106445,0.4906468391418457,0.050638262,0.07772535,-560.2804930915469,-0.1660364505847974,-2.606243801506784,0.0,5494,1.4006028175354004,0.03544067676600438,0.033129558391808735,-557.2423611249042,0.0
188,6.575059175491333,-551.6197435778548,99.4707957197184,-264.17230944976836,-743.3072973759288,0.0,1.4241083622220945,0.1,0.011765241622924805,0.4118642807006836,0.049098916,0.06703426,-559.4144181401778,-0.16259281889733204,-2.57543790513642,0.0,6632,1.6173450946807861,0.07937834137079099,0.0754596240308921,-559.8161022021072,0.0
189,7.063557863235474,-563.5123566003854,78.17393975305028,-267.171807120391,-695.5207364629622,0.0,1.3519578449028389,0.1,0.022053956985473633,0.3860650062561035,0.04898055,0.07214577,-559.8242119861985,-0.16228847282374378,-2.6610130835822594,0.0,5938,1.3465397357940674,0.05013627626885937,0.04675141625673465,-570.2554576555626,0.0
190,6.50049090385437,-558.9950685865914,76.74422345857198,-264.60469691196056,-615.8485681819305,0.0,1.2691444794600502,0.1,0.05678582191467285,0.5419573783874512,0.04966698,0.08130949,-559.7412976462379,-0.16068126668005744,-2.5863293288985076,0.0,5614,1.3111011981964111,0.04090876678190965,0.03889483078086116,-560.7230998473979,0.0
191,6.497378826141357,-560.334154679408,83.274591190734,-266.8662247269889,-636.6464888754145,0.0,1.3297457313483187,0.1,0.019878625869750977,0.3818209171295166,0.04879492,0.072490744,-559.8005833495548,-0.1603069526309394,-2.5929678276828585,0.0,6100,1.14408540725708,0.0479914833404272,0.04596646474298138,-565.7515438447687,0.0
192,6.653724193572998,-559.0179371214526,88.84128336153829,-264.6922360446879,-660.5647878444709,0.0,1.3637214013273202,0.1,0.013318538665771484,0.38696813583374023,0.049428497,0.073796965,-559.7223187267446,-0.1618213094829718,-2.6124817871860984,0.0,6345,1.4108667373657227,0.05153749672185335,0.050288725878650006,-561.5307997991137,0.0
193,6.74614691734314,-557.2616994024193,88.30009046089408,-265.4260452480917,-645.7398878694503,0.0,1.4280645671906262,0.1,0.02005934715270996,0.39374351501464844,0.04924681,0.067716405,-559.476256794312,-0.16416257018938588,-2.5775969454261163,0.0,6221,1.252124309539795,0.05016393089390864,0.04893968466461577,-564.8903649516803,0.0
194,7.893761396408081,-538.7689959715859,122.3975543379848,-265.38127195097024,-748.356047832478,0.0,1.6309401782337687,0.1,0.020663976669311523,0.49193859100341797,0.049230114,0.057419993,-557.4055307120394,-0.16103395418658448,-2.4851753456039942,0.0,7991,1.8234963417053223,0.10817343401466976,0.10265198510251314,-559.8597855552331,0.0
195,7.391899585723877,-551.0772676233469,108.05637692238294,-265.55852905570765,-643.0154817927398,0.0,1.529676164104967,0.1,0.016667604446411133,0.4178602695465088,0.049235735,0.06500888,-556.7727044031702,-0.1615983152714302,-2.5727704903090145,0.0,7298,1.6267127990722656,0.07394095126409823,0.07064107428229803,-561.4719328616819,0.0
196,8.073869943618774,-542.0611933413502,119.02465131764828,-267.0807039435475,-704.2552696058356,0.0,1.5283262911352948,0.1,0.016583919525146484,0.39321088790893555,0.04985399,0.06367332,-555.3015532969882,-0.16189303913515116,-2.501618657346997,0.0,7748,1.6773898601531982,0.0953132122099621,0.09338731224845098,-558.3608045274506,0.0
197,5.6785478591918945,-560.4387587444785,95.27723059995982,-265.9499230047043,-663.6873222428885,0.0,1.4378822158531588,0.1,0.016095399856567383,0.39579272270202637,0.05014358,0.07041266,-555.8152738417373,-0.15880539452647455,-2.619607134314398,0.0,6865,1.3853449821472168,0.06420833673434903,0.05950086553276523,-558.9550832840325,0.0
198,7.412410736083984,-558.8513794413356,100.68493507717447,-266.8903964771972,-682.0700054621,0.0,1.5285246129760086,0.1,0.015719890594482422,0.4303860664367676,0.049986012,0.06283815,-556.1188844016971,-0.15905678266793294,-2.6116604284747287,0.0,7094,1.5034866333007812,0.06994188498799282,0.06817838208218624,-559.0752346448029,0.0
199,7.432333707809448,-552.7230781379902,104.41200607754416,-267.98729498846524,-742.0509358557114,0.0,1.3968901962664366,0.1,0.019068241119384766,0.3773956298828125,0.050352506,0.06942696,-555.7793037753264,-0.1581107750827376,-2.5810188734765247,0.0,7024,1.3205723762512207,0.08032670388652292,0.07621893287237365,-561.0598294954655,0.0
200,8.062300443649292,-552.689582380173,114.8758209888453,-264.6705928184473,-759.8661287954114,0.0,1.5564855072445891,0.1,0.017671823501586914,0.39739513397216797,0.049575314,0.062001884,-555.470331635811,-0.1596814811919236,-2.606955463617933,0.0,7779,1.7134029865264893,0.08965636713489146,0.08735283622028146,-559.7508038822061,0.0
201,8.018273830413818,-556.2873483555053,100.01571001211849,-263.40574883259603,-696.7564079042221,0.0,1.4643243618769897,0.1,0.016325950622558594,0.4213271141052246,0.04913921,0.06743765,-555.5520333077804,-0.15801379060464574,-2.572753783498373,0.0,6899,1.470900297164917,0.0685563147718046,0.06609462340687348,-554.904288794553,0.0
202,7.591248273849487,-541.5879902698692,123.43070715417868,-264.5169950551483,-707.4918115208045,0.0,1.5788561934652698,0.1,0.01841282844543457,0.44211339950561523,0.051069688,0.06198202,-554.1556290039894,-0.16007417940670376,-2.551436646063603,0.0,8069,1.798344612121582,0.10582881650477663,0.09914165385456446,-556.7733005248488,0.0
203,6.131150484085083,-575.1400984139009,81.59856205696937,-265.30735683714556,-701.1808178194766,0.0,1.448729596728176,0.1,0.012682199478149414,0.4008059501647949,0.047651753,0.06607852,-556.2540759449805,-0.1607043112618923,-2.6670705598742894,0.0,6677,1.6801867485046387,0.054105341555793905,0.04559861628612995,-556.1662776510631,0.0
204,7.588144302368164,-558.0041094944783,106.28553439030524,-263.4460328376477,-762.9627962896712,0.0,1.581739843523563,0.1,0.01696014404296875,0.35874032974243164,0.04670919,0.06084055,-556.4290792999303,-0.16026522243729613,-2.5813039654175802,0.0,7401,1.6594791412353516,0.08142147367475383,0.07724505155481355,-556.7578071678756,0.0
205,7.034465789794922,-572.4586306392298,93.59324036417236,-267.43815143614484,-698.1644181923269,0.0,1.4816554817459686,0.1,0.02361321449279785,0.39696502685546875,0.04999909,0.067342505,-558.0320344338603,-0.1620978630652767,-2.653614809455942,0.0,7274,1.5167937278747559,0.05769402747733605,0.05371459753062505,-556.582063690744,0.0
206,9.62220811843872,-527.986897438138,137.49802150639124,-265.6568131113774,-660.0973635586854,0.0,1.5788721750903678,0.1,0.01917123794555664,0.4455530643463135,0.04982266,0.06368545,-555.0275207342881,-0.15845545906378172,-2.457327807247491,0.0,9023,2.0733118057250977,0.12731863331713353,0.10713962112199034,-556.287041470719,0.0
207,8.894227743148804,-544.5182689514047,124.93254737430046,-264.0590318894373,-665.3101029624514,0.0,1.5715580202115593,0.1,0.030868053436279297,0.47529149055480957,0.04899426,0.061590724,-553.9765955559999,-0.15689853105651355,-2.513937012794577,0.0,8348,2.1222071647644043,0.09683445554494007,0.09396502734854434,-556.7749402959278,0.0
208,7.940479278564453,-561.6053985283911,106.77096735253473,-263.39254939674896,-664.6837772005947,0.0,1.6158995593430434,0.1,0.02033066749572754,0.45568084716796875,0.050747328,0.059700873,-554.739475853239,-0.15902751655360345,-2.6254628958249238,0.0,7621,1.9233362674713135,0.06630174168662281,0.06464626893275141,-556.5472324393158,0.0
209,9.015984058380127,-545.9246401197862,134.35540238119862,-267.3752181969816,-737.3543421185693,0.0,1.68313078321424,0.1,0.020665884017944336,0.41744017601013184,0.04916245,0.057731517,-553.8579922798938,-0.15779076474212064,-2.5731243466027185,0.0,9153,1.8749456405639648,0.10944559365232787,0.10176810137467933,-554.8059675904972,0.0
210,7.916512966156006,-560.8562187158287,111.07802447587696,-265.6793717891598,-664.4290454526009,0.0,1.5636411212479806,0.1,0.02829742431640625,0.43137216567993164,0.049776193,0.06297464,-554.5578149234873,-0.15819620673355309,-2.6477747221463557,0.0,7946,1.8335943222045898,0.07406661669628802,0.06888139563434323,-556.9093543870811,0.0
211,8.652748107910156,-559.2356386527805,122.12536680594279,-258.8233788206883,-717.9001476872083,0.0,1.7045287461628917,0.1,0.023216724395751953,0.4392976760864258,0.049230423,0.05877574,-555.0255972964167,-0.1579633586256293,-2.6136165426996567,0.0,8644,2.166546583175659,0.09216470353609249,0.08874573452015602,-557.3560228240805,0.0
212,9.838578462600708,-536.7865342415718,138.0817096218601,-266.15185133122014,-707.3671172716228,0.0,1.767434131330154,0.1,0.018973588943481445,0.4241056442260742,0.048444156,0.054546673,-553.2016909909322,-0.15677962027880435,-2.5273951501947476,0.0,9263,2.1193301677703857,0.11726826348189823,0.1087669643698818,-558.1949750603022,0.0
213,8.942044496536255,-533.1619727079616,139.4936673580034,-262.868447437882,-694.4189103179318,0.0,1.7208472068032534,0.1,0.02458953857421875,0.4850027561187744,0.04868764,0.056138545,-551.1977191626352,-0.15717965063262304,-2.4571726712256536,0.0,9343,2.012861728668213,0.1164868545228564,0.11402410255283697,-558.2690491650054,0.0
214,9.462532043457031,-518.9177586343225,152.25831634462804,-262.00631857775164,-677.3533110852841,0.0,1.8980331713632619,0.1,0.016060829162597656,0.4280834197998047,0.04952885,0.051325373,-547.9697231098039,-0.15799704509973989,-2.4902582251563405,0.0,10236,2.455775260925293,0.14042502045815006,0.13578322258444767,-560.1392088939451,0.0
215,8.275365352630615,-567.3759116318332,109.36840155129761,-263.00393120907455,-707.0429310404284,0.0,1.701452144433013,0.1,0.021415233612060547,0.42122578620910645,0.049513713,0.057577737,-549.9103419620069,-0.16051769984106332,-2.654231308934556,0.0,7971,1.7336626052856445,0.08966528299085605,0.06992545345566571,-559.4561127881343,0.0
216,10.266093492507935,-543.0463577822869,141.46782168553625,-267.0498904334486,-722.409248866392,0.0,1.7897872184343429,0.1,0.013947010040283203,0.4358069896697998,0.049529515,0.053865347,-549.2239435440349,-0.15869289349475146,-2.5326124958880434,0.0,9721,2.194739580154419,0.1165974712568046,0.10955631844145196,-560.585015749569,0.0
217,7.952145338058472,-559.7929453775498,126.2516055525408,-267.77693648804916,-674.7733317081141,0.0,1.7613631635691764,0.1,0.02094435691833496,0.4524106979370117,0.049698517,0.056559138,-550.2808437273864,-0.15738064098418994,-2.6163907676046616,0.0,9015,2.183725118637085,0.08619396532388192,0.0842555685365137,-561.3157871184036,0.0
218,11.226215124130249,-509.6193611189456,158.57835575811418,-265.4779564756375,-711.1391059864642,0.0,1.9524779808283346,0.1,0.02367997169494629,0.47942447662353516,0.049825475,0.05052958,-546.2146954665423,-0.15735622190575252,-2.44375438649965,0.0,10772,2.2453560829162598,0.16318132920591555,0.15045800691102512,-563.1840759058462,0.0
219,10.16355848312378,-510.8941277875919,155.40627418052946,-263.76505282483964,-674.0654681404577,0.0,1.9052629276180364,0.1,0.019663572311401367,0.47957539558410645,0.04982761,0.05060852,-542.6826386986472,-0.15851519213052112,-2.371874601991947,0.0,10396,2.092705488204956,0.14369921366652874,0.13991319674123032,-563.3771386166952,0.0
220,11.27894926071167,-521.1939359226757,154.77684325275334,-266.176917717051,-714.8694450000348,0.0,1.8252288713410691,0.1,0.02037978172302246,0.4740171432495117,0.0488929,0.054061543,-540.5337684210501,-0.15580069273482158,-2.4755352081703426,0.0,10419,1.9259710311889648,0.14745346602247086,0.14089462982667422,-563.322016565106,0.0
221,11.188982248306274,-516.5273851339253,159.81863370000968,-265.7276578591748,-675.4243704106086,0.0,1.9994345024451792,0.1,0.021622419357299805,0.4593236446380615,0.04963038,0.048030805,-538.1331300923376,-0.15787934856721655,-2.426110542670687,0.0,10847,2.2938151359558105,0.1476255113277033,0.1441152914261186,-563.7168371416041,0.0
222,10.748707294464111,-521.8760691544684,160.03912547936977,-265.36542905732415,-746.9949513132274,0.0,1.8972247453375668,0.1,0.023398637771606445,0.5257680416107178,0.051021796,0.052850373,-536.5074239985507,-0.15431432939404208,-2.452876812795276,0.0,10934,2.40315580368042,0.16130924917469447,0.155508131477172,-564.8275538829688,0.0
223,9.949334859848022,-564.375033055559,136.1084208806114,-266.83735528148037,-763.0883053551486,0.0,1.5903556222488824,0.1,0.023087501525878906,0.459151029586792,0.048996948,0.059890646,-539.2941849042516,-0.15652493958520214,-2.6393041918878475,0.0,9797,2.2293825149536133,0.1257899475844194,0.10542283875171665,-564.3737039533022,0.0
224,9.714691638946533,-518.5708622537509,161.81901108054643,-265.60261033158747,-769.0246634126474,0.0,1.8899232944995616,0.1,0.025946378707885742,0.47484445571899414,0.0498956,0.05009997,-537.2218526392015,-0.15536439165648674,-2.4624269254952456,0.0,11025,2.552671432495117,0.16901134600413842,0.15346453015892286,-571.7523279602094,0.0
225,10.267242908477783,-527.5381671664591,159.38672787671567,-265.83349786687097,-741.7262611454497,0.0,1.969118267493151,0.1,0.028697490692138672,0.447479248046875,0.050465293,0.049818657,-536.2534840919272,-0.15463245610969348,-2.455097930086255,0.0,10959,2.0023629665374756,0.15462517257783137,0.14985034074942025,-591.7220371762284,0.0
226,9.164634943008423,-542.6164880095707,146.28766910890053,-261.97680699552467,-707.1313930145669,0.0,1.7348763567188261,0.1,0.025627613067626953,0.4617328643798828,0.047646116,0.05399549,-536.8897844836916,-0.15752700894246544,-2.556553754281468,0.0,10030,2.1720235347747803,0.1254712036933062,0.1216354067146545,-602.3136979610705,0.0
227,12.832350969314575,-483.43308543273133,177.89939828174107,-259.3735755097988,-708.3742663106661,0.0,2.077615505396663,0.1,0.013915538787841797,0.5019028186798096,0.04959239,0.046363633,-531.5441145785957,-0.1565136939285486,-2.3128245099740314,0.0,12727,2.629544734954834,0.2138842346291069,0.19058199485096813,-668.5571745586564,0.0
228,10.40814733505249,-549.4257306427861,158.28959170151666,-263.7328100365681,-773.0111981377108,0.0,1.8428561910990473,0.1,0.024668455123901367,0.4785614013671875,0.04941243,0.050741214,-533.3322761850147,-0.15558205801822322,-2.590584980105088,0.0,11023,2.1973588466644287,0.16924241808594764,0.13734444874877802,-621.8391010537185,0.0
229,11.98510193824768,-537.6716166003365,165.5301241904846,-267.0367808181594,-758.3015393415586,0.0,1.9309524364915107,0.1,0.018972396850585938,0.5578978061676025,0.04878567,0.05066752,-533.766210226547,-0.1566021696855549,-2.531824285896509,0.0,11645,2.437983274459839,0.14910871911982865,0.14201510887809388,-602.7299925594187,0.0
230,10.006150722503662,-552.0271233977991,157.81401659705767,-262.9471649755766,-748.6399430109425,0.0,1.9180591285668631,0.1,0.021167516708374023,0.4872591495513916,0.048900794,0.0502381,-535.5923015436722,-0.15405040315034288,-2.5775497506812215,0.0,11278,1.930201768875122,0.1403185164285622,0.13972701893766104,-603.9173432848878,0.0
231,11.53606915473938,-532.1684274868434,171.55992680606695,-264.58922832513673,-721.0037436372075,0.0,1.921284021282623,0.1,0.024694442749023438,0.5703647136688232,0.050582666,0.05335137,-535.2499141379893,-0.15599878754170596,-2.5043712989939966,0.0,12053,2.4923202991485596,0.1730415915744265,0.15484969083291864,-672.1727821654893,0.0
232,11.367000579833984,-538.4492052214335,170.34923113835617,-264.5426587691752,-752.6885944977842,0.0,2.030687621004909,0.1,0.021281003952026367,0.4922506809234619,0.04981881,0.04696267,-535.5698432463337,-0.15500253020571594,-2.587899719813237,0.0,12104,2.710265636444092,0.1593118105728041,0.1550873674056993,-677.0815410729589,0.0
233,11.567556858062744,-544.9442856166106,163.39462824307975,-262.6480895117425,-741.1163400014512,0.0,1.9973845318511396,0.1,0.022760868072509766,0.48395609855651855,0.049685888,0.04754117,-536.5072874833614,-0.1558763419959103,-2.5681639327403682,0.0,11442,2.4779298305511475,0.14580857595337549,0.1434783859517584,-671.980938986822,0.0
234,11.835289239883423,-542.0124131698498,174.36188874878465,-267.10178228435063,-772.4153765093838,0.0,2.1424210215154913,0.1,0.014386653900146484,0.5267832279205322,0.04992346,0.04506272,-537.0578000520103,-0.1568489248299331,-2.5274256748324757,0.0,12388,2.393916606903076,0.16902170993135934,0.161928060132453,-677.3566144951157,0.0
235,12.288628339767456,-510.00527473390656,176.79513064024678,-261.92711472681384,-757.430825771913,0.0,2.1148678343206693,0.1,0.027479171752929688,0.5769178867340088,0.050330255,0.04746589,-534.3525475202,-0.15416161442993492,-2.4457144733278238,0.0,12336,2.619265079498291,0.19361814186522502,0.183689757006623,-586.2814513134356,0.0
236,12.988397598266602,-512.0482054812318,186.16979370185015,-265.507546588318,-770.449298743498,0.0,2.094133690551548,0.1,0.03356790542602539,0.4921407699584961,0.049063176,0.045876637,-532.1221133163032,-0.1552496792283832,-2.5080583114713697,0.0,13210,2.850504159927368,0.20889828602826083,0.20394794731084082,-576.8102258142444,0.0
237,12.153656482696533,-499.47194510326227,175.29854753394378,-263.40429004841576,-736.3476650229849,0.0,2.0860208446382624,0.1,0.02986931800842285,0.6068708896636963,0.049944457,0.04553894,-528.857096494999,-0.15612874709071106,-2.366962056772389,0.0,12278,2.656489133834839,0.19902450041246153,0.18447119579458954,-581.5739477502428,0.0
238,13.794955015182495,-486.20254401819255,201.29904338846697,-264.5997292953454,-766.2417719125438,0.0,2.2453469627623646,0.1,0.028959989547729492,0.6178562641143799,0.050466146,0.043342445,-524.5916412473184,-0.15309989110196115,-2.300600087593074,0.0,14827,2.9735851287841797,0.25612217765833933,0.23402408479406345,-594.9080366931838,0.0
239,13.120747327804565,-506.99225448764446,186.84858930069942,-264.01002875467094,-778.0185147808137,0.0,2.0932808890394066,0.1,0.02096271514892578,0.5368187427520752,0.047715347,0.043914575,-522.831702571351,-0.15484111893786975,-2.3784413720457933,0.0,13239,2.775177478790283,0.21370251611287475,0.2022254846726191,-601.5280522440835,0.0
240,12.655892133712769,-484.635426129807,191.12424008606345,-264.29963795383145,-772.5643957408215,0.0,2.2335695510091256,0.1,0.027086734771728516,0.5515563488006592,0.049291708,0.04399508,-519.0120749271966,-0.15548815088969445,-2.3449218108421666,0.0,13650,2.8485920429229736,0.24260024239676226,0.2256379885418431,-602.1597205429581,0.0
241,13.453440427780151,-454.44023287981173,195.38164859664542,-261.4481531843371,-769.0033753106611,0.0,2.1768583927417726,0.1,0.04294753074645996,0.6031372547149658,0.049382422,0.04365134,-512.5548907224581,-0.1566196776732092,-2.1678285506611163,0.0,14782,2.707736015319824,0.26574896238016116,0.2547536001046393,-595.2190606547108,0.0
242,12.316179752349854,-441.9636977501393,187.05455113430955,-261.4903904003733,-768.6518248714038,0.0,2.2258290289718556,0.1,0.023147106170654297,0.5818865299224854,0.0503881,0.043580525,-505.4957714252263,-0.1542235446709844,-2.157643720034642,0.0,14299,2.5486319065093994,0.2701844400021804,0.264308657897566,-596.0562328780275,0.0
243,15.307609796524048,-398.7213043552636,181.3252504601715,-263.2740266362747,-766.4610210561146,0.0,2.2194660411603504,0.1,0.027334213256835938,0.5221619606018066,0.050157502,0.04263949,-494.81832471823003,-0.1544660451297931,-1.9153639711752615,0.0,15833,3.704124689102173,0.28159473598358353,0.26173636755868235,-594.7851598049831,0.0
244,14.247959852218628,-393.2575505154394,163.5075203357815,-256.23757265344983,-728.4499054216781,0.0,2.0883760202423494,0.1,0.0337834358215332,0.5589511394500732,0.05056169,0.046505693,-484.66224729795096,-0.15645554485784605,-1.7837127762032567,0.0,14551,3.3589959144592285,0.2387994522352035,0.2283507755037429,-597.0458566585779,0.0
245,15.947172403335571,-342.78834869965914,146.98017740980612,-262.2493689175833,-755.2838098678046,0.0,2.165856296171392,0.1,0.03659963607788086,0.7863523960113525,0.04862136,0.043436456,-470.4748574381218,-0.15512186202953127,-1.635723106448659,0.0,17051,4.216674327850342,0.29650756511780924,0.24820972147137474,-592.4552648395617,0.0
246,16.18900203704834,-337.76192762780397,143.53939970175605,-264.7330727063094,-767.5131307948623,0.0,2.1288432447403083,0.1,0.022641658782958984,0.6304666996002197,0.048731077,0.043675516,-457.20356445709,-0.15457193005034012,-1.6366716930582283,0.0,17415,4.146145343780518,0.2443214969635961,0.24071668285812983,-666.954170166317,0.0
247,15.46520471572876,-319.238445160704,120.57223294062314,-261.8387857160541,-761.2928133024881,0.0,2.059672477113803,0.1,0.036138057708740234,0.6420271396636963,0.0498925,0.041534342,-443.4070525274514,-0.15405440384098937,-1.57012463878689,0.0,17564,4.031779050827026,0.21375161756163982,0.20480476758013283,-679.6392346626501,0.0
248,15.619290113449097,-325.68731727212617,127.6520690600564,-261.0888129151156,-762.1765654437904,0.0,2.458380306192224,0.1,0.027536869049072266,0.6014618873596191,0.049135298,0.03798738,-431.6350790019189,-0.1527655984963268,-1.6284649916763785,0.0,17355,3.4971179962158203,0.2421684365427058,0.22632512209813735,-606.0349549212284,0.0
249,14.389721155166626,-330.1979562011947,123.68626242154944,-264.25600121960593,-634.7509340935932,0.0,2.362557767856324,0.1,0.0304567813873291,0.5509450435638428,0.050144732,0.037725564,-421.4913667218465,-0.1521203993488375,-1.598854581682741,0.0,16559,3.2867369651794434,0.20614714687050786,0.1965512493645979,-594.0286025033995,0.0
250,15.689328670501709,-326.58429660763136,128.56400111915372,-265.9543668073807,-767.9788572624537,0.0,2.2981848781508667,0.1,0.02973628044128418,0.627150297164917,0.049575888,0.03983812,-412.000659710425,-0.1542642533765305,-1.632948887078724,0.0,17354,3.4029290676116943,0.23314186366226056,0.20345119667833483,-594.2834846905662,0.0
251,15.459626913070679,-323.8826542687976,121.28874462899667,-261.1755609409358,-735.8501081674776,0.0,2.341932295448098,0.1,0.027895450592041016,0.5542957782745361,0.04819494,0.03998387,-403.18885916626226,-0.15462252422524858,-1.5672831040618294,0.0,17149,3.3923850059509277,0.19141919137818045,0.17972990221113389,-692.4530257878204,0.0
252,15.925658464431763,-313.64105718147283,104.65477083566365,-267.880794618135,-603.9809721774905,0.0,2.2937772676202663,0.1,0.022277355194091797,0.5847184658050537,0.04992846,0.03707605,-394.2340789677833,-0.15349910871793288,-1.4899905777155797,0.0,17183,3.6194357872009277,0.1653353490682081,0.14200486025872713,-601.4082625027762,0.0
253,15.497907876968384,-329.52070809647125,120.4277034499703,-266.63910211515037,-658.6376504443873,0.0,2.290245169090259,0.1,0.03287553787231445,0.6168441772460938,0.048858523,0.038397696,-387.76274188065213,-0.1544531040398747,-1.5954770295539429,0.0,16671,3.545841693878174,0.17879993726493226,0.16484936680296658,-661.5195792735221,0.0
254,15.192659616470337,-325.52498910530915,117.87780884321968,-266.05994435449634,-659.332897626521,0.0,2.2707930451450618,0.1,0.030184507369995117,0.609389066696167,0.0481887,0.03676816,-381.53896660311784,-0.15386490022805663,-1.6015756705521316,0.0,16842,3.446305990219116,0.17049236452161795,0.16397563747028424,-663.6485466990719,0.0
255,13.102849006652832,-316.3957318103954,108.56705672493386,-268.4803975431568,-662.5200581523632,0.0,2.359563617627837,0.1,0.030457496643066406,0.6670553684234619,0.048730712,0.034973532,-375.02464312384564,-0.15384170823712903,-1.5559135203408505,0.0,17267,2.944974422454834,0.16094458559727393,0.1545558665199035,-663.3981965603757,0.0
256,13.3953537940979,-307.08361924472837,100.81875935992757,-264.5157844858009,-713.6290792980152,0.0,2.3789850119443714,0.1,0.026344776153564453,0.5855603218078613,0.05094553,0.036559273,-368.2305407359339,-0.15365479487278966,-1.5093593207743654,0.0,17800,3.4813592433929443,0.1617908233269704,0.15589718634535937,-668.5450970244916,0.0
257,15.733190298080444,-321.695958595714,114.10350482857254,-265.54456321041545,-660.2874326876021,0.0,2.432792026563814,0.1,0.02769756317138672,0.5962088108062744,0.048610076,0.03683829,-363.57708252191196,-0.1530652657687298,-1.5823999105389737,0.0,16943,3.0503273010253906,0.16642904289453825,0.15914663993830155,-683.5343746645451,0.0
258,15.752519845962524,-307.76175564061725,102.05011948281472,-262.61977532288233,-699.2278573690068,0.0,2.0907245516675337,0.1,0.025971412658691406,0.6115076541900635,0.049802292,0.039393574,-357.9955498337825,-0.15257144866824845,-1.5388352600368977,0.0,17575,3.0725226402282715,0.1535011272176002,0.12843629095954898,-704.7606631912656,0.0
259,15.898524045944214,-321.2212158038263,123.47797813629263,-264.08481989103,-719.3652788425339,0.0,2.356612269122032,0.1,0.0344538688659668,0.6191444396972656,0.04810799,0.037743807,-354.31811643078686,-0.15197669828257054,-1.5800652287012908,0.0,17463,3.7638819217681885,0.204620649228052,0.18741102924795774,-743.22159002372,0.0
260,15.61721396446228,-300.1613519181371,92.53550040428907,-264.9263947463611,-629.3872368758358,0.0,2.4353096887388705,0.1,0.04500770568847656,0.687767744064331,0.049032755,0.036288623,-348.9024399795219,-0.1522445891972204,-1.4747612387288356,0.0,17860,3.4191460609436035,0.1296706511493616,0.12419435255385491,-735.4402562978521,0.0
261,14.061105251312256,-307.99948494333904,102.94526922697754,-260.5990403959112,-626.2751461449207,0.0,2.3383958236343885,0.1,0.04841184616088867,0.6005101203918457,0.04842742,0.03686296,-344.81214447590366,-0.15306642459686207,-1.4878834804060872,0.0,17624,3.721872091293335,0.11265335373146357,0.10686371318848732,-685.8149466851451,0.0
262,15.777721166610718,-297.7604082026891,88.73819975366166,-264.94444429605085,-654.2892362893883,0.0,2.2357063598783333,0.1,0.018681764602661133,0.6075224876403809,0.04745274,0.037696466,-340.10697084858225,-0.1524875572416815,-1.462758386352985,0.0,18036,3.4240779876708984,0.11265194132972599,0.10483885265680142,-714.8690329315722,0.0
263,16.1322922706604,-305.0526213778956,95.63898262660341,-264.5389214479855,-600.666634362125,0.0,2.1523204601211767,0.1,0.029397249221801758,0.7025265693664551,0.049086895,0.033984542,-336.60153590151356,-0.15249401613086522,-1.5252885219582446,0.0,17434,3.241457223892212,0.1098714523649299,0.10458224057657557,-682.6703522008625,0.0
264,16.297016859054565,-288.2337756978662,70.32366731446467,-265.26278335462155,-612.3063046944469,0.0,2.430757131386082,0.1,0.02741098403930664,0.7593808174133301,0.04785744,0.033014484,-331.7647598811488,-0.15363537165922309,-1.4411903722182817,0.0,18469,4.014753103256226,0.07683617354875664,0.07805178421426849,-666.0709116447754,0.0
265,15.644650936126709,-302.6672016328519,96.06410622804549,-265.2493738965447,-666.7793528155196,0.0,2.4258171087444027,0.1,0.032982826232910156,0.6200335025787354,0.049362108,0.038794365,-328.8550040563191,-0.15354734896229086,-1.4872743473144918,0.0,17936,3.966456174850464,0.16651649583997297,0.14496073666550766,-684.0943847995982,0.0
266,15.746410369873047,-315.42594039437614,116.28139533057727,-266.6184416474016,-772.5317487492737,0.0,2.2567744663461875,0.1,0.03290724754333496,0.7450919151306152,0.048313163,0.036397733,-327.51209769012485,-0.15379355534372766,-1.5510683517387998,0.0,17669,3.816384792327881,0.20523489650840274,0.1742699518263093,-706.5954164519537,0.0
267,16.78662919998169,-308.44350707110976,102.00778508073626,-261.4996910318098,-608.8701352226398,0.0,2.4485669726244033,0.1,0.02491593360900879,0.6874470710754395,0.049589194,0.03244244,-325.60523862822333,-0.15320394919919483,-1.5422420386152291,0.0,17604,3.870314836502075,0.13353690577499874,0.10309917443572178,-709.0549417968823,0.0
268,15.737805843353271,-303.5517879103287,96.9127775094482,-267.6695576310299,-652.6340495522079,0.0,2.5831101497997686,0.1,0.027962207794189453,0.6828067302703857,0.04802192,0.033987496,-323.3998935564339,-0.15361590563614985,-1.4656346837898313,0.0,17960,3.608562707901001,0.13544334863809349,0.12777158739642314,-708.0919068738292,0.0
269,15.7673819065094,-291.49610449665386,75.51769429517026,-263.4661209448194,-597.3580306566356,0.0,2.776523055550129,0.1,0.04550671577453613,0.7152447700500488,0.050230786,0.030870037,-320.2095146504559,-0.15355395336156438,-1.4314402676564055,0.0,18290,3.8596174716949463,0.0801446263053086,0.0726733761668512,-727.409651893372,0.0
270,17.647914171218872,-276.88020836039857,45.08469663205252,-260.15411849497195,-602.6606082848857,0.0,2.3052540199385168,0.1,0.024952411651611328,0.670562744140625,0.049771316,0.03473961,-315.8765840214502,-0.15312180002130713,-1.3844224095184992,0.0,18896,3.922907590866089,0.03852386936797139,0.03053666553166863,-627.1929200230485,0.0
271,17.011956214904785,-297.8361461591912,91.76305466302831,-257.22417696305,-748.6684636826642,0.0,2.0441397417476077,0.1,0.02910780906677246,0.6324384212493896,0.049583,0.03658008,-314.0725402352243,-0.15350768006125218,-1.4631273024814402,0.0,18070,3.754163980484009,0.12133452468058142,0.09653146402956997,-757.0219778614462,0.0
272,16.54489517211914,-320.66065701733254,119.76244708362442,-263.3148612594041,-744.9736015567963,0.0,2.6235853328153924,0.1,0.03154945373535156,0.6404733657836914,0.049768772,0.033549555,-314.73135191343516,-0.15024907581649616,-1.5511854481228025,0.0,17136,3.1369786262512207,0.21203846129629128,0.1746924727411527,-754.2898499153031,0.0
273,15.261857748031616,-294.5189072978985,84.12316030922763,-265.86203319449436,-636.728301744071,0.0,2.339099690869219,0.1,0.03541135787963867,0.6374170780181885,0.050010085,0.03770099,-312.7101074518815,-0.15141329657030603,-1.4726197463788921,0.0,18213,3.4645256996154785,0.1421038492034977,0.12068582109080539,-782.9068744043734,0.0
274,16.73611831665039,-301.9842356279043,95.10353368462133,-265.8033883884848,-631.5851931468503,0.0,2.6624697789431626,0.1,0.03376436233520508,0.665916919708252,0.05019204,0.035501715,-311.6375202694838,-0.15223070057124935,-1.4838807919107915,0.0,17946,3.210003614425659,0.1608280699707065,0.14474684239332986,-770.7387402063371,0.0
275,15.599299907684326,-319.8320966513432,113.39334564818041,-256.36036894570464,-638.4732374475334,0.0,2.42536933869012,0.1,0.03250384330749512,0.6250853538513184,0.049358383,0.035594326,-312.45697790766974,-0.15352423641907473,-1.5731252521377248,0.0,16926,3.044024705886841,0.15518117398803866,0.13917428049550679,-693.9461514508359,0.0
276,16.91619849205017,-296.2619451562751,83.00665511167605,-265.9731137432609,-605.436611632682,0.0,2.39276890386603,0.1,0.03173208236694336,0.6407647132873535,0.050298877,0.035655383,-310.8374746325303,-0.1530854780041017,-1.4552612465344528,0.0,17934,3.290560245513916,0.10471796891813773,0.09466920211219076,-709.5771399462867,0.0
277,16.58614182472229,-309.88802812923785,102.44028696766769,-261.05385853235765,-606.6657499926583,0.0,2.3823838014655094,0.1,0.026992082595825195,0.7491879463195801,0.04874422,0.037707098,-310.74252998220106,-0.15444201021237253,-1.5233830202000183,0.0,17363,3.3944530487060547,0.15099793625354965,0.13626396303228558,-607.2193786790672,0.0
278,16.262291431427002,-329.55327766395914,121.4359682299435,-265.1618015666745,-666.3223311808762,0.0,2.2089375920570755,0.1,0.0414738655090332,0.5831618309020996,0.050345868,0.04045292,-312.62360475037684,-0.1516270673046521,-1.5695693804232993,0.0,16498,3.1406142711639404,0.17125583984843198,0.1532559702061134,-746.3454825962478,0.0
279,16.688337564468384,-310.9711327075095,103.93191964315776,-266.0069341681845,-697.9270515972329,0.0,2.320406981317137,0.1,0.01977849006652832,0.5877172946929932,0.05007095,0.040307704,-312.45835754609016,-0.1533508160530125,-1.528809472361124,0.0,17394,3.3448591232299805,0.1368615408077399,0.1217608852360767,-284.9158240161354,0.0
280,15.87575650215149,-312.3766705888882,104.94639444163171,-262.1098812666716,-696.3792575948625,0.0,2.1306805927040218,0.1,0.020446300506591797,0.5441386699676514,0.050904375,0.03697016,-312.45018885036995,-0.15382760605609294,-1.5358279742185925,0.0,17164,3.102756977081299,0.14839365131153,0.1437652494885642,-746.1509946219619,0.0
281,15.41249394416809,-326.23855328735857,121.87236547382388,-265.9183215923203,-719.699681139181,0.0,2.506367217490789,0.1,0.03609299659729004,0.605675458908081,0.048038542,0.03384178,-313.82902529406886,-0.1532716756699689,-1.605146945207873,0.0,16935,3.0432205200195312,0.1958188682545894,0.18834183064899412,-771.445425399008,0.0
282,17.18697237968445,-288.5722683393242,69.79229502537498,-263.0188452366784,-615.9280743494074,0.0,2.4041431367855934,0.1,0.03098130226135254,0.6619675159454346,0.04929233,0.036384523,-311.3033495985944,-0.151898720630143,-1.4168100110550672,0.0,18473,3.425935983657837,0.11881078184567129,0.09490837276629974,-765.5411555217634,0.0
283,15.775464057922363,-305.0883383238363,95.92702850452366,-265.9461061450101,-605.3804731562735,0.0,2.6422165406407743,0.1,0.05631422996520996,0.6825804710388184,0.04987043,0.033622973,-310.6818484711186,-0.15289850037641728,-1.4472376250385224,0.0,17700,3.3336868286132812,0.13568205433351319,0.12395945419391491,-260.3829816284299,0.0
284,17.714611530303955,-281.4307967014581,54.47968735192653,-266.7310423456807,-608.7121970810861,0.0,2.290656768597422,0.1,0.038465023040771484,0.6712720394134521,0.049406048,0.038004637,-307.75674329415256,-0.15287853193825784,-1.4071854408483186,0.0,18751,3.256601572036743,0.06043765098705131,0.050215510210533505,-253.7205556438068,0.0
285,16.11178731918335,-291.4346837523471,76.17429192768691,-265.3325772622751,-600.4038214575023,0.0,2.0654529104489225,0.1,0.02637004852294922,0.6957216262817383,0.050292246,0.03738038,-306.124537339972,-0.15346191517600602,-1.457202080906906,0.0,18313,3.0527713298797607,0.059877487594090964,0.05104957329005077,-690.0752460909794,0.0
286,17.20650362968445,-304.5044072934574,103.01902846864611,-260.3874107176238,-764.6961101386379,0.0,2.250427375105197,0.1,0.055487632751464844,0.6968843936920166,0.04807882,0.035787195,-305.96252433532055,-0.15477609184303548,-1.522553640685149,0.0,18069,3.1935410499572754,0.19869035324524886,0.1373074798380645,-750.5606997970355,0.0
287,17.016592979431152,-294.52999282328824,85.47151495094086,-263.6833590453389,-711.598331854448,0.0,1.7672854442184085,0.1,0.026184558868408203,0.6706476211547852,0.048388578,0.08017884,-304.8192711841173,-0.1548673329207926,-1.4726702742748479,0.0,18457,3.4868249893188477,0.14497137343653557,0.10747542552372887,-269.53323523110157,0.0
288,16.893636465072632,-299.3296249144577,94.06780293438109,-267.2164397385397,-752.6740851569587,0.0,2.9362000095869334,0.1,0.026764392852783203,0.609795331954956,0.04987666,0.029533155,-304.2703065571514,-0.15426329089185395,-1.470576013765572,0.0,18370,3.131472110748291,0.16883144809164646,0.16108926292779088,-773.5164795478022,0.0
289,14.960707902908325,-289.63313571645375,68.7553983788672,-265.4325595892766,-608.6017308418712,0.0,2.1781921171883676,0.1,0.030344009399414062,0.6953485012054443,0.05063665,0.034852955,-302.8065894730816,-0.1541898597222651,-1.422104358672782,0.0,18426,3.091737985610962,0.05799069397231787,0.05101397319876612,-274.67696288144714,0.0
290,16.786284923553467,-302.3854708479744,95.48689989925629,-263.459586342198,-617.0395500138133,0.0,2.5257343621025363,0.1,0.0217740535736084,0.6137309074401855,0.04945322,0.03303565,-302.7644776105709,-0.15109517322479968,-1.4858741761785303,0.0,17963,2.9929051399230957,0.1566079292915433,0.13842030611736703,-274.81933244708915,0.0
291,17.255181789398193,-305.66724608429973,100.51034408907816,-261.5899277986349,-710.324078377648,0.0,2.343465961851428,0.1,0.04473876953125,0.6485922336578369,0.04920929,0.03645551,-303.05475445794383,-0.15163490859150733,-1.5283645287322773,0.0,17798,3.110776662826538,0.145613590790254,0.11752680552611247,-280.7442238330543,0.0
292,16.29329228401184,-306.81314588413744,102.44231383753721,-261.1891369279622,-682.7610042150918,0.0,2.3340362259396135,0.1,0.022357940673828125,0.6579930782318115,0.046473656,0.034243234,-303.43059360056316,-0.15154595406392943,-1.5340933058039177,0.0,17872,2.944671630859375,0.14435814170890052,0.13500472054873625,-589.4634323408497,0.0
293,17.135801792144775,-284.7415605108799,62.20742281758552,-262.2756214426088,-615.6242973450891,0.0,2.4966495611049186,0.1,0.02906656265258789,0.7081265449523926,0.048820112,0.036295313,-301.5616902915948,-0.15217954287561616,-1.423742322558436,0.0,18588,3.1852121353149414,0.0793533443736133,0.07183716661405766,-275.4817211010499,0.0
294,16.622968912124634,-288.6961548583909,69.18530297735994,-267.208830326367,-611.31934507952,0.0,2.542893320948563,0.1,0.03377175331115723,0.6536769866943359,0.050542504,0.031367425,-300.27513674827446,-0.1530908179225912,-1.4435109836588333,0.0,18452,3.117140293121338,0.09552405007337378,0.09023364154220337,-267.2736635484401,0.0
295,17.491342544555664,-278.5917791827329,42.627229090007695,-265.93820527721124,-581.5145248889141,0.0,2.1377975384875723,0.1,0.028296709060668945,0.6544139385223389,0.049369473,0.031536624,-298.1068009917203,-0.15400221732361577,-1.3929836937701807,0.0,18875,3.3395872116088867,0.03584656365874131,0.030567364489645893,-666.1319866340693,0.0
296,17.040632486343384,-297.0879670777597,85.1627303854213,-265.61421716852186,-604.4105670029323,0.0,2.154982252710297,0.1,0.04428744316101074,0.7006704807281494,0.05044459,0.03550884,-298.00491760032423,-0.1545540430872726,-1.4593974881151264,0.0,17963,3.038736343383789,0.08799869311210941,0.07672956088798799,-596.2129883930899,0.0
297,16.477859020233154,-274.7728899404708,32.21438487977803,-265.7934611168263,-588.110918389974,0.0,2.3784016449427146,0.1,0.024942636489868164,0.6397480964660645,0.0494022,0.03377334,-295.6817148343389,-0.15438488747591947,-1.3738906095488457,0.0,19055,3.257054328918457,0.021118077419894667,0.014703928775338526,-583.1787020029439,0.0
298,16.586698532104492,-292.7501103618327,84.82401202603515,-252.03057398297418,-750.9904208166943,0.0,2.252640765044429,0.1,0.044644832611083984,0.6940052509307861,0.050337702,0.036835663,-295.3885543870883,-0.1546985005692862,-1.38553970698008,0.0,18444,3.212035894393921,0.133419609055303,0.11848774308641453,-580.6299382007657,0.0
299,15.700186252593994,-277.2929442254163,42.443048635619895,-258.53034445882207,-575.6135075018921,0.0,2.5290703271160746,0.1,0.044420719146728516,0.6747524738311768,0.048500333,0.03123623,-293.57899337092107,-0.1547584664791398,-1.3864933885471313,0.0,18869,3.7998197078704834,0.037791254005907375,0.028572322944319124,-599.0908485662086,0.0
300,17.02190613746643,-291.32582866226636,75.63702176270573,-263.5577623462503,-619.7992240101223,0.0,2.538953816921106,0.1,0.04181194305419922,0.6592898368835449,0.049691435,0.031356182,-293.35367690005563,-0.1549898253290715,-1.4566646065712219,0.0,18283,3.1921000480651855,0.07469811104913134,0.05982281829843399,-585.4447045819376,0.0
301,17.109341859817505,-279.2111313107294,49.651733021628786,-262.0355367173357,-565.3076985101535,0.0,1.8148910838112329,0.1,0.028947830200195312,0.5923404693603516,0.049382135,0.033809762,-291.939422341123,-0.15485223667983503,-1.396081800413487,0.0,18673,3.285902261734009,0.02938794305368352,0.026913739650309194,-577.6048582382165,0.0
302,16.54900813102722,-277.86990221410196,57.628054696373404,-262.25722094232196,-742.7495851252102,0.0,2.7356601944290673,0.1,0.02839350700378418,0.6372125148773193,0.04914447,0.03249953,-290.5324703284209,-0.15340795872445265,-1.3632998183155054,0.0,19037,3.267112970352173,0.09268877216211871,0.09229471596011027,-580.4672740367342,0.0
303,17.030457973480225,-291.48918544103356,78.5385848849244,-259.88080188254014,-582.6883987083431,0.0,2.2458225881497955,0.1,0.03560352325439453,0.6681087017059326,0.04803974,0.034826543,-290.6281418396822,-0.15449563143402606,-1.4313886438202073,0.0,18063,3.0565202236175537,0.08924873490301086,0.07725596085842605,-595.6978086324747,0.0
304,17.21468758583069,-276.88095382626426,47.3987981183772,-257.29476450075913,-601.8202633430825,0.0,2.502245266360361,0.1,0.024003267288208008,0.6953427791595459,0.050377656,0.035735797,-289.25342303834043,-0.1532288734127887,-1.3844326177776434,0.0,18932,3.4423329830169678,0.04671760924390086,0.038066253774233234,-588.340872403953,0.0
305,17.047526836395264,-282.80554564780533,62.976412083118696,-258.0804835209641,-607.11034306821,0.0,2.231670273883435,0.1,0.02937912940979004,0.5763335227966309,0.050072815,0.03160445,-288.6086352992869,-0.15438763866061844,-1.414046727948847,0.0,18596,3.518324613571167,0.05130769324878195,0.05004047987630277,-548.381352650696,0.0
306,14.811556339263916,-301.1231330559108,99.58657995705707,-256.44706634640846,-715.1185490824805,0.0,2.430482836961197,0.1,0.03133201599121094,0.6454699039459229,0.049461655,0.036047656,-289.8600850749493,-0.15305898776647675,-1.4535007270694162,0.0,18027,3.7142152786254883,0.15843907381029101,0.14282066455261,-547.3317484662525,0.0
307,17.357343673706055,-277.3649385918014,53.96357116059,-256.8955676699067,-695.0369415674213,0.0,2.510139514512489,0.1,0.01998138427734375,0.6200587749481201,0.050486043,0.038526535,-288.6105704266345,-0.15379210242124838,-1.360760580196809,0.0,19004,4.003949165344238,0.09457359261676998,0.07973206178432421,-549.7044553581275,0.0
308,17.38245415687561,-279.5323122117014,54.07241586235956,-256.61348111974263,-589.5122940286187,0.0,3.00240527434859,0.1,0.037752628326416016,0.6845805644989014,0.049568474,0.02453071,-287.7027446051412,-0.1544444037021719,-1.3715976002909562,0.0,18729,3.9920639991760254,0.04955443754766108,0.04126512702752835,-547.286525040397,0.0
309,16.36966848373413,-307.7674261914388,100.99025383468913,-257.1248301431528,-693.2855420081203,0.0,2.020560517948847,0.1,0.04023480415344238,0.5981912612915039,0.051293496,0.03910194,-289.709212763771,-0.15232951669704373,-1.4867196056792291,0.0,17327,3.1812145709991455,0.13705513439625996,0.10997250298519484,-549.4246057246537,0.0
310,16.63552474975586,-290.74329208115614,80.51781662299173,-259.1911761277375,-678.8319668596478,0.0,2.41819919414016,0.1,0.0468754768371582,0.6103181838989258,0.050588936,0.033423103,-289.8126206955095,-0.1545941151342576,-1.4537490204242136,0.0,18374,3.810166120529175,0.11042335646482397,0.10395715786672853,-550.2183741516537,0.0
311,16.265986442565918,-284.87015843280125,67.24477774531252,-243.24392336685258,-590.5828262923235,0.0,2.03647356403198,0.1,0.029445648193359375,0.6692850589752197,0.050248418,0.038956206,-289.3183744692387,-0.15475948649297352,-1.4243880924057095,0.0,18389,4.090159893035889,0.057697316970722244,0.05123447313949577,-576.6711624415782,0.0
312,16.737178802490234,-286.7459797586211,77.92693490291997,-245.2464107157723,-758.3466305649745,0.0,2.53115155233236,0.1,0.038242340087890625,0.6251580715179443,0.050449356,0.029172387,-289.06113499817695,-0.1541731657423787,-1.4337576725725272,0.0,18551,3.8659567832946777,0.12175730273081573,0.11934455248412511,-573.9276612638981,0.0
313,16.20628786087036,-286.89637065922454,71.09954263354663,-252.06497879745754,-585.687138271202,0.0,1.9007972321038145,0.1,0.038729190826416016,0.638962984085083,0.0506287,0.036904354,-288.8446585642817,-0.15407306694421538,-1.4345056575770372,0.0,18182,3.6015729904174805,0.05698199231867542,0.053150863347541634,-549.8171836506184,0.0
314,15.487328290939331,-283.25427832652457,68.90149494522616,-251.04019158388002,-597.2050970871647,0.0,2.189101549546075,0.1,0.02855515480041504,0.685537576675415,0.049536206,0.039464246,-288.285620540506,-0.15217189619764013,-1.4163008021250116,0.0,18431,3.9440131187438965,0.05961276222772188,0.05257509227382683,-549.0349426903377,0.0
315,16.926308155059814,-281.25641986157893,70.62968561720966,-235.9795311155471,-714.676381441056,0.0,2.37675189135567,0.1,0.028685808181762695,0.6002695560455322,0.050729398,0.037327632,-287.58270047261334,-0.15330854528856505,-1.4063049943216617,0.0,18705,4.647659063339233,0.08764909555440854,0.0830937258852287,-548.6617209043758,0.0
316,14.07036280632019,-271.63801242486034,44.15825076709624,-248.6823935672751,-584.739001364677,0.0,2.36926867957348,0.1,0.03947043418884277,0.672126054763794,0.048312977,0.034288418,-285.9882316678381,-0.1534260433235039,-1.3582234672471747,0.0,18879,3.8444011211395264,0.04434939935518794,0.02564845780838256,-548.0694860518227,0.0
317,15.68217420578003,-299.01237695749336,110.45777690476041,-243.52156133667924,-755.9632106560641,0.0,2.445111152715248,0.1,0.04749488830566406,0.6283535957336426,0.04892381,0.034628633,-287.2906461968036,-0.15240344272872283,-1.4951067530478717,0.0,18256,4.482843399047852,0.23522309682459355,0.19280224167431018,-547.6811277049162,0.0
318,15.174901008605957,-276.70886894632054,68.08270706238314,-242.9960559869743,-729.1068907311407,0.0,2.3436136439445656,0.1,0.0525355339050293,0.7247555255889893,0.050011672,0.038962394,-286.23246847175534,-0.1534193156388195,-1.3835878121968233,0.0,18917,4.258468866348267,0.16060610421102683,0.11888413525907093,-546.1343738779767,0.0
319,16.543503284454346,-266.4125581203998,3.6485078170880847,-254.54518524994873,-274.2859011564756,0.0,2.65309827854498,0.1,0.02916741371154785,0.6442770957946777,0.049925253,0.038447294,-284.25047743661975,-0.15293415236431648,-1.3321007447242534,0.0,19200,4.203759431838989,0.00503939510960244,0.0016556045670286462,-550.0636871446172,0.0
320,14.944493293762207,-269.3121527293652,41.33237347703186,-237.81554834657297,-550.4155260864395,0.0,1.7923498202195942,0.1,0.03405332565307617,0.5966577529907227,0.050956916,0.03063288,-282.7566449658943,-0.15366217406612723,-1.3466081847354865,0.0,18841,4.2517945766448975,0.021438028121306744,0.018717795915528662,-558.43204597041,0.0
321,13.495322227478027,-286.24289290037194,87.67303049777684,-233.39607361606815,-659.55964922326,0.0,2.517138177935094,0.1,0.03211474418640137,0.6432416439056396,0.049625378,0.033941127,-283.10526975934204,-0.15344768917850174,-1.4312407766666446,0.0,18232,3.9683175086975098,0.13649986195215458,0.12000885284099677,-543.016500273094,0.0
322,16.01060199737549,-292.5978959032239,99.9845839810827,-233.25355113750513,-661.2421950920303,0.0,2.4838480448289166,0.1,0.03702521324157715,0.607088565826416,0.049756285,0.032704778,-284.05453237373024,-0.15296035207402936,-1.4369621101077812,0.0,18029,4.180923938751221,0.16599776292605153,0.15164380916521653,-544.1851613841401,0.0
323,16.00796937942505,-268.06124511444176,44.676036480557556,-240.967627555846,-589.6163358000694,0.0,2.22323850443017,0.1,0.027585744857788086,0.642831563949585,0.051243056,0.03863209,-282.4552036478014,-0.1534753087108203,-1.3142491455157226,0.0,18880,4.259709358215332,0.028851243469974096,0.021694728037771432,-543.9237834031918,0.0
324,15.975077390670776,-282.9988517602637,83.19567927102555,-234.2206232886488,-690.1461955094715,0.0,2.409609142915854,0.1,0.029753923416137695,0.615440845489502,0.04854324,0.03337375,-282.5095684590476,-0.15269096751908048,-1.4150377029843686,0.0,18417,4.356677532196045,0.1003219286292131,0.09338115493294685,-563.2949411294353,0.0
325,16.793118953704834,-274.49949422114815,64.28438267541024,-244.03885758752722,-612.1083066938484,0.0,2.360749814376994,0.1,0.0343630313873291,0.7074799537658691,0.04966715,0.031147052,-281.7085610352577,-0.15383471980762556,-1.3725499502197334,0.0,18593,4.126643896102905,0.06920968161465225,0.06438321682180624,-585.243090991175,0.0
326,16.29737901687622,-288.3491050296529,100.39522577208874,-232.25723073305844,-727.8644258129184,0.0,2.7101431490359453,0.1,0.046315908432006836,0.6836457252502441,0.049114164,0.029538546,-282.3726154346972,-0.1535481147376726,-1.4157206668442341,0.0,18532,4.529552936553955,0.21275870830638455,0.18973212574547088,-558.0114989397953,0.0
327,16.418046474456787,-265.8416735156049,30.658957940444676,-228.26951239677928,-559.0245598483424,0.0,2.3063987618758426,0.1,0.035193681716918945,0.7176766395568848,0.050228465,0.03067608,-280.71952124278795,-0.15298530710492933,-1.3292440716103817,0.0,19034,4.404078483581543,0.024351351725736523,0.01523079452762221,-567.0819457630938,0.0
328,15.884134769439697,-278.1524280346858,62.34872996447539,-254.55706390705583,-587.9051238517677,0.0,2.561214457406889,0.1,0.04814887046813965,0.6526601314544678,0.04860938,0.030764807,-280.46281192197773,-0.15309937252538805,-1.3908033156057247,0.0,18582,4.28938364982605,0.07371918745902457,0.06846351973568877,-588.1646603845006,0.0
329,15.959582805633545,-281.23022283284024,68.59332380287466,-254.32594741150436,-601.8514372463258,0.0,2.0870726258928336,0.1,0.02697467803955078,0.5580294132232666,0.050356455,0.035275735,-280.539553013064,-0.15329372700169203,-1.4062030762895474,0.0,18413,3.588829517364502,0.0555252886268103,0.04516509270532609,-559.5275600863489,0.0
330,15.425763607025146,-270.931608513678,44.51513086315269,-243.49201652866623,-594.5198459913427,0.0,2.66327114189225,0.1,0.024417638778686523,0.677865743637085,0.051215213,0.03351588,-279.5787585631254,-0.15282479164727938,-1.3546942633356096,0.0,18889,3.4944517612457275,0.04258164356720284,0.03634958039210635,-546.0121258491462,0.0
331,16.933729887008667,-270.22196933561503,49.5717485084186,-241.92690878570838,-752.2516535835417,0.0,3.3259724710826464,0.1,0.04572153091430664,0.6725106239318848,0.048420675,0.022750584,-278.64307964037437,-0.15279658904239202,-1.3511462615470655,0.0,19191,3.540147542953491,0.08705714636492436,0.08444936053562614,-555.0400045892159,0.0
332,17.363656520843506,-269.49405192754284,30.634527582130946,-260.66004099370235,-567.1602428955717,0.0,2.383884057352512,0.1,0.047243595123291016,0.6261680126190186,0.048192672,0.026772246,-277.7281768690912,-0.15338134169790987,-1.3475000972993447,0.0,19037,3.943849802017212,0.014654247754744627,0.013305265131379815,-550.3048036123718,0.0
333,17.087355136871338,-270.42598494771875,34.19700335035426,-255.85072919387585,-602.379772784795,0.0,2.944661785285429,0.1,0.0383143424987793,0.7578120231628418,0.05475691,0.026029015,-276.99795767695394,-0.15287076805265457,-1.352174309217503,0.0,19070,4.137216091156006,0.032820198638727496,0.031565235948358576,-546.2461418991861,0.0
334,17.138347148895264,-272.92198481538986,44.151336126590806,-259.37080393721726,-578.9741923801163,0.0,2.372532648381282,0.1,0.04645109176635742,0.7673602104187012,0.049691767,0.028640216,-276.59036039079757,-0.15329592773064696,-1.364662076545353,0.0,18886,3.678569793701172,0.029079854386715048,0.02507659718076475,-545.5329483680234,0.0
335,17.321957111358643,-270.2097966590997,33.67924388898569,-260.25390301659405,-597.5274664107379,0.0,2.3776977639955064,0.1,0.0368952751159668,0.7039554119110107,0.050071273,0.026711877,-275.9523040176278,-0.1533151969495203,-1.3510894384216003,0.0,19058,4.059745788574219,0.013519206844605686,0.009564461740113776,-547.1605078130791,0.0
336,13.976723670959473,-269.3822834828666,32.246883706263155,-258.07546521515627,-582.3793568969228,0.0,2.753614223180457,0.1,0.03082871437072754,0.6261100769042969,0.04851229,0.028548453,-275.2953019641517,-0.15284145427450338,-1.3469391421240235,0.0,19047,3.9367921352386475,0.02085698318295066,0.018334434912067977,-545.8353167733112,0.0
337,13.519773721694946,-275.6789083959782,59.28359534845729,-252.84587234088386,-610.7492353881703,0.0,2.908126405267893,0.1,0.027859926223754883,0.6650969982147217,0.049403775,0.027439311,-275.33366260733436,-0.1517396212401537,-1.378426827316045,0.0,18813,3.548060655593872,0.08898660368052293,0.07904891364521399,-574.4603506025861,0.0
338,17.43549394607544,-265.9371594033916,3.618691096833022,-250.5157008284212,-272.09788017082246,0.0,2.420403390190517,0.1,0.03515005111694336,0.6988868713378906,0.047410674,0.048720736,-274.3940122869401,-0.15299282584526158,-1.3297213181005196,0.0,19200,3.874189853668213,0.003498942425019876,0.001133382898218481,-259.06319582598275,0.0
339,16.758720636367798,-298.623840236871,96.14304492284279,-254.20181879069173,-648.3959975331917,0.0,2.5164940915308773,0.1,0.03214240074157715,0.6705267429351807,0.049759425,0.030266488,-276.8169950819332,-0.15508763516690202,-1.4671034690162257,0.0,17659,3.6451170444488525,0.1496638273997298,0.12282865511218354,-263.8965008320331,0.0
340,11.572936058044434,-284.2691551951004,74.44752258235748,-254.52920187828252,-697.2294140122779,0.0,2.684825687910915,0.1,0.03322768211364746,0.6994917392730713,0.048246,0.0317344,-277.56221109324997,-0.15483970427155716,-1.3953134175171016,0.0,18498,3.9853289127349854,0.10181897999872719,0.09949973489275987,-251.61747048490315,0.0
341,17.093846082687378,-271.7656396029733,43.11794198497528,-238.5146639117921,-580.9367196567731,0.0,2.125061292855797,0.1,0.04012107849121094,0.687049150466919,0.051150445,0.025551347,-276.98255394422233,-0.15402566833831244,-1.3588704075825777,0.0,18869,3.6611411571502686,0.04010769126526917,0.03093592079794346,-262.9724154250418,0.0
342,17.36670756340027,-268.73361218013116,32.51907394218879,-250.12795926442797,-582.9622457426125,0.0,2.4963104825931595,0.1,0.03674197196960449,0.6518857479095459,0.050452847,0.028673211,-276.15765976781324,-0.15402501831520948,-1.3437013258069743,0.0,19052,3.856449604034424,0.016063620922758533,0.01183150493970762,-263.1418776998577,0.0
343,17.509430408477783,-280.027863522558,76.52856239458133,-241.54932895746092,-728.7140697652997,0.0,2.7244465149806434,0.1,0.027475357055664062,0.6859228610992432,0.04746714,0.030145824,-276.54468014328774,-0.15462840999534488,-1.374119216386706,0.0,18820,4.055554389953613,0.1386533086352678,0.1271185658589314,-262.7613187789784,0.0
344,17.46168875694275,-269.53855519705917,52.1597482949462,-236.7710718513452,-685.7500756694249,0.0,2.377358946758077,0.1,0.04042696952819824,0.6312081813812256,0.050360892,0.028868178,-275.8440676486649,-0.1546683820080473,-1.3477282104301918,0.0,18959,4.2499401569366455,0.07094735072778273,0.06735705372567537,-263.09236304719445,0.0
345,17.239679098129272,-276.23865257567263,63.00937961577084,-250.01761514680595,-719.3124098539786,0.0,2.3148546357628974,0.1,0.03842782974243164,0.7451708316802979,0.049169596,0.030747738,-275.8835261413657,-0.15466419464165124,-1.3812267329366665,0.0,18848,4.4277544021606445,0.08485267054066498,0.05698461554548857,-264.6883116771917,0.0
346,12.172804832458496,-275.3815911420855,55.99283128719211,-241.45684663641364,-595.7741236413538,0.0,2.242651425673319,0.1,0.02542257308959961,0.6551954746246338,0.049604803,0.058240004,-275.83333264143766,-0.15491263392617688,-1.3769660486862128,0.0,18756,4.165150165557861,0.08271504236626576,0.03360095304148223,-264.0826439101188,0.0
347,16.560261011123657,-285.6217938011812,73.06719442728452,-244.08724255821406,-586.5676572115434,0.0,2.0921026841484487,0.1,0.02910637855529785,0.6703884601593018,0.04892792,0.031868216,-276.812178757412,-0.15541815210653362,-1.428151341538215,0.0,18222,4.054774522781372,0.04871579818466025,0.045456576994312284,-255.10659652732136,0.0
348,16.344671726226807,-289.0656143082053,80.44104476461158,-245.7053891788417,-589.7890524718903,0.0,2.0721334133590137,0.1,0.03523731231689453,0.602278470993042,0.051717527,0.04054998,-278.0375223124914,-0.15590174138436172,-1.4453627417698416,0.0,18100,4.55585789680481,0.0672920151432085,0.0615453403571706,-257.2313447825097,0.0
349,17.778284311294556,-273.30289870880875,56.46373211616446,-250.93222057757512,-735.0523359188762,0.0,2.255178948061219,0.1,0.033904314041137695,0.7203319072723389,0.052883454,0.032921903,-277.5640599521231,-0.1553455903492764,-1.3665465120472595,0.0,19018,4.199751615524292,0.08944192756416923,0.03389156030378911,-256.7310550099021,0.0
350,17.47903871536255,-284.70569996594014,82.83365043751694,-243.0775163961353,-717.1652323583373,0.0,2.567237451533631,0.1,0.030314207077026367,0.7191519737243652,0.050693735,0.035741605,-278.27822395350483,-0.1545420895625588,-1.4235680934032127,0.0,18695,3.6184797286987305,0.1652768138711043,0.14266686252602268,-254.8310767934668,0.0
351,18.80968713760376,-274.44322109087267,48.8486641371753,-246.54909197022914,-611.7168272528255,0.0,2.710213598444737,0.1,0.025501489639282227,0.6559429168701172,0.047776476,0.03001721,-277.89472366724164,-0.15514632375493406,-1.3722467783590162,0.0,18941,4.01502799987793,0.03756688378329304,0.025691087073596783,-600.6251458221631,0.0
