Iter | Sampling Pol | Evaluation Pol | Best (Sampled) 
   0 -226.19 -267.32 -100000000.00 
   1 -226.73 -307.89 -226.19 
   2 -225.65 -298.49 -226.19 
   3 -230.09 -288.67 -225.65 
   4 -225.78 -362.51 -225.65 
   5 -223.48 -318.82 -225.65 
   6 -225.32 -382.34 -223.48 
   7 -225.33 -379.48 -223.48 
   8 -224.02 -301.84 -223.48 
   9 -223.47 -329.31 -223.48 
  10 -222.68 -357.12 -223.47 
  11 -221.81 -333.54 -222.68 
  12 -220.65 -339.30 -221.81 
  13 -216.83 -366.30 -220.65 
  14 -219.42 -364.96 -216.83 
  15 -215.85 -374.77 -216.83 
  16 -216.57 -372.67 -215.85 
  17 -213.78 -443.71 -215.85 
  18 -217.21 -356.34 -213.78 
  19 -216.31 -328.49 -213.78 
  20 -213.22 -264.52 -213.78 
  21 -211.99 -248.97 -213.22 
  22 -211.40 -223.47 -211.99 
  23 -210.78 -236.08 -211.40 
  24 -206.46 -243.84 -210.78 
  25 -210.40 -233.38 -206.46 
  26 -209.93 -234.93 -206.46 
  27 -206.64 -242.01 -206.46 
  28 -205.56 -257.97 -206.46 
  29 -205.66 -199.85 -205.56 
  30 -202.59 -228.01 -205.56 
  31 -206.83 -217.81 -202.59 
  32 -204.34 -206.97 -202.59 
  33 -203.34 -201.34 -202.59 
  34 -206.01 -213.88 -202.59 
  35 -205.59 -197.97 -202.59 
  36 -203.51 -192.95 -202.59 
  37 -202.58 -205.74 -202.59 
  38 -203.51 -192.66 -202.58 
  39 -202.43 -201.15 -202.58 
  40 -198.19 -203.93 -202.43 
  41 -200.68 -188.34 -198.19 
  42 -197.12 -205.71 -198.19 
  43 -196.60 -179.80 -197.12 
  44 -197.19 -216.07 -196.60 
  45 -197.32 -190.58 -196.60 
  46 -195.50 -205.57 -196.60 
  47 -194.10 -211.56 -195.50 
  48 -195.53 -185.91 -194.10 
  49 -197.34 -194.85 -194.10 
  50 -194.69 -180.14 -194.10 
  51 -193.77 -177.86 -194.10 
  52 -192.75 -188.53 -193.77 
  53 -193.05 -175.15 -192.75 
  54 -193.43 -181.27 -192.75 
  55 -191.14 -183.86 -192.75 
  56 -193.02 -174.00 -191.14 
  57 -191.03 -192.59 -191.14 
  58 -189.80 -168.17 -191.03 
  59 -192.14 -179.03 -189.80 
  60 -188.68 -156.79 -189.80 
  61 -188.62 -193.56 -188.68 
  62 -187.45 -191.14 -188.62 
  63 -191.28 -184.44 -187.45 
  64 -191.93 -184.63 -187.45 
  65 -188.69 -175.38 -187.45 
  66 -188.19 -168.44 -187.45 
  67 -187.25 -194.02 -187.45 
  68 -188.49 -165.45 -187.25 
  69 -186.52 -159.97 -187.25 
  70 -186.47 -174.07 -186.52 
  71 -187.54 -155.37 -186.47 
  72 -186.05 -168.31 -186.47 
  73 -185.73 -184.98 -186.05 
  74 -184.58 -158.21 -185.73 
  75 -183.82 -164.39 -184.58 
  76 -182.38 -169.69 -183.82 
  77 -180.92 -182.52 -182.38 
  78 -177.75 -196.99 -180.92 
  79 -179.15 -207.61 -177.75 
  80 -176.06 -224.09 -177.75 
  81 -180.53 -218.08 -176.06 
  82 -178.11 -165.82 -176.06 
  83 -178.15 -174.35 -176.06 
  84 -177.29 -180.15 -176.06 
  85 -176.82 -187.31 -176.06 
  86 -176.82 -199.40 -176.06 
  87 -177.18 -228.91 -176.06 
  88 -172.55 -207.84 -176.06 
  89 -174.82 -184.35 -172.55 
  90 -172.69 -219.54 -172.55 
  91 -173.55 -174.55 -172.55 
  92 -173.03 -184.21 -172.55 
  93 -172.93 -186.10 -172.55 
  94 -173.52 -158.33 -172.55 
  95 -174.13 -210.60 -172.55 
  96 -171.51 -179.04 -172.55 
  97 -171.15 -148.54 -171.51 
  98 -169.77 -183.27 -171.15 
  99 -171.87 -169.84 -169.77 
 100 -168.31 -164.40 -169.77 
 101 -167.39 -180.49 -168.31 
 102 -167.24 -168.66 -167.39 
 103 -167.61 -158.97 -167.24 
 104 -167.98 -143.05 -167.24 
 105 -167.23 -161.33 -167.24 
 106 -168.03 -148.69 -167.23 
 107 -166.37 -166.21 -167.23 
 108 -165.81 -157.34 -166.37 
 109 -162.95 -151.18 -165.81 
 110 -168.26 -150.11 -162.95 
 111 -164.23 -138.34 -162.95 
 112 -164.66 -164.13 -162.95 
 113 -165.73 -144.33 -162.95 
 114 -163.50 -140.73 -162.95 
 115 -164.29 -156.59 -162.95 
 116 -162.83 -147.05 -162.95 
 117 -162.49 -147.01 -162.83 
 118 -162.33 -153.15 -162.49 
 119 -163.78 -147.54 -162.33 
 120 -162.48 -131.34 -162.33 
 121 -159.55 -138.58 -162.33 
 122 -160.02 -124.22 -159.55 
 123 -157.83 -124.37 -159.55 
 124 -157.79 -100.00 -157.83 
 125 -158.59 -118.62 -157.79 
 126 -153.45 -82.84 -157.79 
 127 -156.92 -100.97 -153.45 
 128 -158.37 -97.60 -153.45 
 129 -155.99 -142.41 -153.45 
 130 -156.11 -112.85 -153.45 
 131 -154.92 80.75 -153.45 
 132 -154.40 -132.94 -153.45 
 133 -150.29 -137.12 -153.45 
 134 -150.47 -163.93 -150.29 
 135 -149.26 -168.62 -150.29 
 136 -150.68 -174.72 -149.26 
 137 -152.19 -171.32 -149.26 
 138 -152.61 -140.51 -149.26 
 139 -144.88 -140.84 -149.26 
 140 -150.55 -89.44 -144.88 
 141 -147.93 34.51 -144.88 
 142 -145.82 -12.03 -144.88 
 143 -143.68 36.36 -144.88 
 144 -142.79 177.94 -143.68 
 145 -144.90 176.76 -142.79 
 146 -143.28 187.09 -142.79 
 147 -139.36 161.99 -142.79 
 148 -141.10 155.01 -139.36 
 149 -140.29 269.82 -139.36 
 150 -139.23 406.29 -139.36 
 151 -139.60 385.88 -139.23 
 152 -135.46 355.88 -139.23 
 153 -135.73  8.36 -135.46 
 154 -136.79 440.75 -135.46 
 155 -128.27 320.26 -135.46 
 156 -122.61 414.23 -128.27 
 157 -127.76 411.48 -122.61 
 158 -124.38 427.40 -122.61 
 159 -125.41 405.65 -122.61 
 160 -119.02 414.94 -122.61 
 161 -124.67 134.84 -119.02 
 162 -118.62 170.01 -119.02 
 163 -116.30 351.15 -118.62 
 164 -116.61 400.74 -116.30 
 165 -114.71 404.40 -116.30 
 166 -109.84 182.10 -114.71 
 167 -106.25 238.53 -109.84 
 168 -108.16 -139.36 -106.25 
 169 -111.31 -136.45 -106.25 
 170 -105.67 -117.44 -106.25 
 171 -105.82 -171.70 -105.67 
 172 -102.18 -166.43 -105.67 
 173 -99.26 -171.20 -102.18 
 174 -100.19 -164.90 -99.26 
 175 -99.87 -127.88 -99.26 
 176 -96.25 -137.61 -99.26 
 177 -87.11 -136.19 -96.25 
 178 -91.37 129.84 -87.11 
 179 -91.96 139.24 -87.11 
 180 -93.46 162.18 -87.11 
 181 -86.87 184.61 -87.11 
 182 -82.14 166.22 -86.87 
 183 -73.89 234.56 -82.14 
 184 -82.41 -74.05 -73.89 
 185 -77.43 268.70 -73.89 
 186 -84.68 232.61 -73.89 
 187 -72.42 242.32 -73.89 
 188 -66.10 258.17 -72.42 
 189 -66.85 233.51 -66.10 
 190 -63.01 227.23 -66.10 
 191 -68.35 220.37 -63.01 
 192 -66.06 230.37 -63.01 
 193 -64.50 220.26 -63.01 
 194 -62.57 218.15 -63.01 
 195 -59.39 199.76 -62.57 
 196 -43.54 107.84 -59.39 
 197 -61.01 51.61 -43.54 
 198 -48.81 -11.71 -43.54 
 199 -46.38 51.97 -43.54 
 200 -45.85 53.88 -43.54 
 201 -39.07 -130.14 -43.54 
 202 -35.39 -159.65 -39.07 
 203 -30.39 -54.71 -35.39 
 204 -42.55  4.92 -30.39 
 205 -35.71 -22.75 -30.39 
 206 -9.33  8.73 -30.39 
 207 -26.25 12.42 -9.33 
 208 -30.76 -17.99 -9.33 
 209 -10.41 -17.92 -9.33 
 210 -7.24 -13.46 -9.33 
 211 13.49 -26.60 -7.24 
 212 12.51 -28.40 13.49 
 213 20.96 -41.28 13.49 
 214 50.85 -40.79 20.96 
 215 47.49 -39.25 50.85 
 216 119.26 -19.13 50.85 
 217 108.67 16.52 119.26 
 218 106.77 -38.43 119.26 
 219 112.83 -47.49 119.26 
 220 117.49 -55.10 119.26 
 221 113.34 -61.66 119.26 
 222 120.28 -70.71 119.26 
 223 190.98 -71.06 120.28 
 224 146.85 -71.52 190.98 
 225 166.75 -73.01 190.98 
 226 164.93 -85.39 190.98 
 227 150.42 -93.49 190.98 
 228 208.33 -89.43 190.98 
 229 159.20 -78.60 208.33 
 230 172.04 -83.97 208.33 
 231 183.31 -82.86 208.33 
 232 160.83 -88.49 208.33 
 233 188.12 -84.50 208.33 
 234 199.03 -77.56 208.33 
 235 167.28 -82.23 208.33 
 236 173.86 -69.80 208.33 
 237 190.16 -69.49 208.33 
 238 250.74 -59.20 208.33 
 239 183.00 -59.22 250.74 
 240 222.67 -53.23 250.74 
 241 222.35 -57.03 250.74 
 242 188.00 -56.01 250.74 
 243 207.79 -60.23 250.74 
 244 236.57 -62.18 250.74 
 245 257.02 -52.72 250.74 
 246 255.72 -52.69 257.02 
 247 248.27 -57.63 257.02 
 248 212.50 -51.28 257.02 
 249 227.43 -65.30 257.02 
 250 263.40 -66.06 257.02 
 251 256.44 -66.88 263.40 
 252 258.54 -65.51 263.40 
 253 246.03 -45.83 263.40 
 254 252.85 -43.36 263.40 
 255 274.96 -45.30 263.40 
 256 259.00 -50.15 274.96 
 257 241.78 -53.44 274.96 
 258 230.51 -68.84 274.96 
 259 249.21 -67.26 274.96 
 260 258.38 -57.57 274.96 
 261 266.59 -55.69 274.96 
 262 244.09 -59.50 274.96 
 263 274.32 -63.01 274.96 
 264 264.61 -62.42 274.96 
 265 278.59 -62.83 274.96 
 266 262.63 -66.34 278.59 
 267 284.98 -55.28 278.59 
 268 300.72 -57.19 284.98 
 269 285.53 -55.86 300.72 
 270 308.07 -60.64 300.72 
 271 289.98 -55.68 308.07 
 272 268.72 -53.56 308.07 
 273 287.90 -54.92 308.07 
 274 279.35 -66.72 308.07 
 275 289.66 -60.56 308.07 
 276 281.76 -61.41 308.07 
 277 327.87 -62.05 308.07 
 278 329.08 -64.70 327.87 
 279 296.37 -58.43 329.08 
 280 292.95 -52.52 329.08 
 281 307.58 -50.28 329.08 
 282 298.75 -45.51 329.08 
 283 307.74 -40.14 329.08 
 284 322.55 -33.71 329.08 
 285 309.98 -44.28 329.08 
 286 271.07 -36.84 329.08 
 287 293.05 -42.13 329.08 
 288 301.21 -41.58 329.08 
 289 315.40 -42.68 329.08 
 290 340.09 -39.48 329.08 
 291 320.93 -36.19 340.09 
 292 315.13 -40.35 340.09 
 293 316.21 -38.50 340.09 
 294 318.88 -41.79 340.09 
 295 306.39 -47.03 340.09 
 296 353.05 -41.62 340.09 
 297 330.46 -41.52 353.05 
 298 321.45 -37.65 353.05 
 299 357.40 -37.59 353.05 
 300 327.34 -34.28 357.40 
 301 383.25 -34.02 357.40 
 302 343.44 -32.94 383.25 
 303 332.87 -25.85 383.25 
 304 347.63 -13.47 383.25 
 305 359.53 -14.50 383.25 
 306 343.04 -8.40 383.25 
 307 368.10 -16.16 383.25 
 308 341.29 -19.93 383.25 
 309 339.55 -19.76 383.25 
 310 363.01 -19.49 383.25 
 311 347.50 -18.62 383.25 
 312 344.14 -11.86 383.25 
 313 380.64 -12.02 383.25 
 314 377.70 -18.43 383.25 
 315 359.76 -13.82 383.25 
 316 342.75 -4.97 383.25 
 317 387.13 -5.62 383.25 
 318 362.37 -6.14 387.13 
 319 388.65  1.13 387.13 
 320 390.78 13.91 388.65 
 321 384.44 18.57 390.78 
 322 348.54 13.15 390.78 
 323 363.12 20.76 390.78 
 324 405.88 13.10 390.78 
 325 358.68 11.07 405.88 
 326 372.74 11.16 405.88 
 327 387.21 16.97 405.88 
 328 372.85 23.14 405.88 
 329 379.04 33.75 405.88 
 330 395.70 23.52 405.88 
 331 372.46 17.14 405.88 
 332 390.71 26.63 405.88 
 333 392.58 24.94 405.88 
 334 384.50 27.08 405.88 
 335 410.37 15.81 405.88 
 336 404.21  8.44 410.37 
 337 371.21  8.09 410.37 
 338 380.95 17.14 410.37 
 339 395.22  8.90 410.37 
 340 377.35 16.67 410.37 
 341 400.77 27.06 410.37 
 342 401.65 17.17 410.37 
 343 417.56  9.98 410.37 
 344 401.68  5.39 417.56 
 345 397.43 11.01 417.56 
 346 405.05 13.72 417.56 
 347 407.00  2.35 417.56 
 348 415.84  9.97 417.56 
 349 405.74 30.39 417.56 
 350 400.86 40.73 417.56 
 351 401.96 71.52 417.56 
 352 396.51 180.40 417.56 
 353 396.36 134.74 417.56 
 354 410.61 131.64 417.56 
 355 424.83 140.19 417.56 
 356 424.55 54.74 424.83 
 357 421.68 96.75 424.83 
 358 427.85 127.75 424.83 
 359 387.37 105.96 427.85 
 360 393.29 131.91 427.85 
 361 417.55 84.54 427.85 
 362 417.07 41.55 427.85 
 363 421.04 55.28 427.85 
 364 429.58 75.26 427.85 
 365 426.85 82.12 429.58 
 366 410.62 121.21 429.58 
 367 441.41 149.92 429.58 
 368 415.60 135.23 441.41 
 369 451.43 147.67 441.41 
 370 406.62 150.47 451.43 
 371 447.46 151.57 451.43 
 372 439.00 289.44 451.43 
 373 466.21 290.94 451.43 
 374 437.58 305.29 466.21 
 375 438.47 254.55 466.21 
 376 415.35 280.37 466.21 
 377 445.51 279.89 466.21 
 378 422.85 276.31 466.21 
 379 446.09 246.99 466.21 
 380 447.24 248.42 466.21 
 381 437.61 256.53 466.21 
 382 421.71 282.82 466.21 
 383 442.45 288.89 466.21 
 384 462.57 292.90 466.21 
 385 438.54 258.06 466.21 
 386 461.23 255.85 466.21 
 387 469.01 259.89 466.21 
 388 460.59 298.48 469.01 
 389 461.11 249.67 469.01 
 390 455.20 249.08 469.01 
 391 450.21 252.44 469.01 
 392 455.02 250.87 469.01 
 393 447.69 272.19 469.01 
 394 458.20 328.57 469.01 
 395 445.99 269.48 469.01 
 396 450.38 265.17 469.01 
 397 452.57 283.41 469.01 
 398 428.35 361.09 469.01 
 399 439.89 290.55 469.01 
 400 445.36 259.21 469.01 
 401 467.71 263.45 469.01 
 402 464.09 260.09 469.01 
 403 453.41 263.01 469.01 
 404 462.57 267.35 469.01 
 405 467.60 267.90 469.01 
 406 470.11 281.20 469.01 
 407 434.70 275.28 470.11 
 408 447.49 286.14 470.11 
 409 452.39 288.76 470.11 
 410 463.59 286.86 470.11 
 411 460.67 275.25 470.11 
 412 476.20 283.89 470.11 
 413 451.27 273.02 476.20 
 414 446.59 269.39 476.20 
 415 468.94 269.35 476.20 
 416 466.91 271.65 476.20 
 417 456.60 307.14 476.20 
 418 441.19 313.15 476.20 
 419 451.58 258.48 476.20 
 420 472.31 297.99 476.20 
 421 469.36 280.61 476.20 
 422 462.74 280.02 476.20 
 423 465.59 281.01 476.20 
 424 461.17 285.62 476.20 
 425 467.07 288.29 476.20 
 426 478.13 285.78 476.20 
 427 453.79 264.99 478.13 
 428 485.56 274.01 478.13 
 429 466.69 272.79 485.56 
 430 470.09 266.70 485.56 
 431 478.34 277.24 485.56 
 432 470.65 267.36 485.56 
 433 464.33 271.59 485.56 
 434 459.04 258.53 485.56 
 435 483.97 255.04 485.56 
 436 470.64 251.11 485.56 
 437 469.16 263.36 485.56 
 438 476.87 255.64 485.56 
 439 481.09 254.59 485.56 
 440 462.08 250.40 485.56 
 441 458.21 258.92 485.56 
 442 473.31 252.27 485.56 
 443 476.10 261.17 485.56 
 444 482.82 272.80 485.56 
 445 476.76 273.81 485.56 
 446 465.72 268.43 485.56 
 447 469.19 260.25 485.56 
 448 476.64 291.28 485.56 
 449 463.22 280.12 485.56 
 450 472.11 275.89 485.56 
 451 473.50 273.18 485.56 
 452 472.92 270.70 485.56 
 453 472.68 260.32 485.56 
 454 483.79 284.75 485.56 
 455 484.99 269.45 485.56 
 456 482.12 257.62 485.56 
 457 473.80 267.40 485.56 
 458 487.37 284.37 485.56 
 459 496.70 293.53 487.37 
 460 467.47 293.24 496.70 
 461 477.71 293.30 496.70 
 462 487.37 314.37 496.70 
 463 483.85 293.39 496.70 
 464 480.90 319.74 496.70 
 465 484.46 325.01 496.70 
 466 488.33 333.38 496.70 
 467 487.23 320.34 496.70 
 468 481.61 341.38 496.70 
 469 479.55 328.33 496.70 
 470 485.42 336.99 496.70 
 471 481.21 337.15 496.70 
 472 483.35 336.85 496.70 
 473 488.91 375.89 496.70 
 474 484.45 389.43 496.70 
 475 491.77 363.30 496.70 
 476 484.72 358.87 496.70 
 477 487.03 351.05 496.70 
 478 491.82 393.31 496.70 
 479 481.63 402.73 496.70 
 480 475.15 364.39 496.70 
 481 488.75 364.18 496.70 
 482 475.91 330.21 496.70 
 483 490.99 279.02 496.70 
 484 486.84 301.34 496.70 
 485 486.67 385.14 496.70 
 486 493.58 359.89 496.70 
 487 488.92 305.42 496.70 
 488 491.75 325.45 496.70 
 489 494.14 362.93 496.70 
 490 490.76 354.70 496.70 
 491 494.47 367.41 496.70 
 492 479.02 405.40 496.70 
 493 487.28 398.25 496.70 
 494 485.81 409.81 496.70 
 495 486.04 427.23 496.70 
 496 490.85 414.09 496.70 
 497 496.73 427.69 496.70 
 498 488.22 401.47 496.73 
 499 481.23 384.32 496.73 
 500 488.89 397.05 496.73 
 501 490.72 428.08 496.73 
 502 487.86 445.35 496.73 
 503 492.48 402.27 496.73 
 504 487.40 393.87 496.73 
 505 479.34 393.62 496.73 
 506 464.29 393.61 496.73 
 507 486.62 398.23 496.73 
 508 482.75 384.33 496.73 
 509 476.28 380.20 496.73 
 510 492.01 366.87 496.73 
 511 486.83 380.02 496.73 
 512 488.32 388.35 496.73 
 513 485.71 393.58 496.73 
 514 490.17 397.71 496.73 
 515 479.31 398.15 496.73 
 516 489.78 393.84 496.73 
 517 488.51 379.98 496.73 
 518 477.85 384.75 496.73 
 519 490.32 407.45 496.73 
 520 496.64 416.07 496.73 
 521 497.69 425.59 496.73 
 522 484.07 416.62 497.69 
 523 498.20 416.63 497.69 
 524 483.42 407.20 498.20 
 525 492.77 403.29 498.20 
 526 482.84 412.35 498.20 
 527 501.36 416.93 498.20 
 528 485.13 403.96 501.36 
 529 495.66 389.47 501.36 
 530 490.15 402.66 501.36 
 531 500.97 407.19 501.36 
 532 504.08 422.03 501.36 
 533 500.72 417.40 504.08 
 534 494.86 412.28 504.08 
 535 497.23 411.46 504.08 
 536 488.38 398.45 504.08 
 537 503.92 399.07 504.08 
 538 499.06 394.81 504.08 
 539 496.71 403.82 504.08 
 540 501.30 399.34 504.08 
 541 488.92 403.74 504.08 
 542 501.71 408.09 504.08 
 543 508.10 403.70 504.08 
 544 501.82 407.91 508.10 
 545 501.85 413.12 508.10 
 546 500.95 408.18 508.10 
 547 494.28 402.99 508.10 
 548 484.30 412.65 508.10 
 549 495.29 407.51 508.10 
 550 497.35 401.75 508.10 
 551 501.33 437.15 508.10 
 552 491.30 398.53 508.10 
 553 504.67 398.84 508.10 
 554 504.02 402.50 508.10 
 555 501.83 407.70 508.10 
 556 500.62 412.01 508.10 
 557 506.92 408.58 508.10 
 558 503.33 417.31 508.10 
 559 504.13 418.02 508.10 
 560 505.60 413.52 508.10 
 561 504.88 426.73 508.10 
 562 498.98 418.19 508.10 
 563 493.68 417.71 508.10 
 564 503.41 422.40 508.10 
 565 502.15 422.94 508.10 
 566 500.80 418.10 508.10 
 567 507.95 417.72 508.10 
 568 492.00 417.64 508.10 
 569 505.79 413.07 508.10 
 570 500.88 412.77 508.10 
 571 502.36 411.58 508.10 
 572 488.83 407.55 508.10 
 573 497.00 440.14 508.10 
 574 504.14 431.52 508.10 
 575 507.65 448.34 508.10 
 576 500.85 463.83 508.10 
 577 500.70 463.90 508.10 
 578 498.41 448.17 508.10 
 579 510.38 417.29 508.10 
 580 503.72 440.58 510.38 
 581 507.57 442.52 510.38 
 582 496.13 424.73 510.38 
 583 506.26 413.56 510.38 
 584 509.21 412.62 510.38 
 585 507.50 404.78 510.38 
 586 510.34 491.91 510.38 
 587 488.64 391.70 510.38 
 588 509.32 391.37 510.38 
 589 497.75 421.39 510.38 
 590 509.06 422.25 510.38 
 591 499.24 442.63 510.38 
 592 489.06 459.43 510.38 
 593 496.33 454.93 510.38 
 594 502.53 427.29 510.38 
 595 503.83 453.42 510.38 
 596 500.57 486.90 510.38 
 597 510.97 430.94 510.38 
 598 510.68 432.16 510.97 
 599 500.59 448.84 510.97 
 600 502.64 432.25 510.97 
 601 494.17 436.52 510.97 
 602 503.98 436.00 510.97 
 603 504.17 426.83 510.97 
 604 510.52 431.57 510.97 
 605 504.37 428.22 510.97 
 606 507.25 444.83 510.97 
 607 503.52 427.37 510.97 
 608 508.58 422.97 510.97 
 609 511.91 428.31 510.97 
 610 501.99 419.62 511.91 
 611 510.67 416.45 511.91 
 612 499.31 427.23 511.91 
 613 505.81 425.83 511.91 
 614 510.94 433.01 511.91 
 615 492.60 464.83 511.91 
 616 512.61 446.18 511.91 
 617 512.36 446.43 512.61 
 618 513.36 481.56 512.61 
 619 504.69 467.64 513.36 
 620 510.63 465.40 513.36 
 621 507.97 453.94 513.36 
 622 513.53 483.36 513.36 
 623 504.29 485.15 513.53 
 624 492.21 482.69 513.53 
 625 503.18 491.60 513.53 
 626 509.11 453.52 513.53 
 627 508.47 445.00 513.53 
 628 511.26 458.64 513.53 
 629 514.95 490.96 513.53 
 630 503.08 495.64 514.95 
 631 514.54 497.53 514.95 
 632 507.58 497.69 514.95 
 633 505.75 494.77 514.95 
 634 505.53 495.47 514.95 
 635 501.16 495.69 514.95 
 636 503.96 495.91 514.95 
 637 516.07 482.77 514.95 
 638 503.50 486.46 516.07 
 639 514.54 476.80 516.07 
 640 516.53 494.62 516.07 
 641 508.23 509.75 516.53 
 642 505.17 511.25 516.53 
 643 509.29 511.56 516.53 
 644 517.67 514.91 516.53 
 645 513.11 499.14 517.67 
 646 502.06 514.29 517.67 
 647 515.73 476.51 517.67 
 648 506.29 495.48 517.67 
 649 515.03 494.56 517.67 
 650 513.14 494.58 517.67 
 651 503.20 494.50 517.67 
 652 503.94 494.25 517.67 
 653 506.16 499.82 517.67 
 654 501.36 493.20 517.67 
 655 513.84 494.21 517.67 
 656 503.40 492.63 517.67 
 657 508.81 467.82 517.67 
 658 503.76 493.05 517.67 
 659 507.12 489.85 517.67 
 660 511.17 483.44 517.67 
 661 513.05 460.17 517.67 
 662 508.70 468.79 517.67 
 663 501.24 492.54 517.67 
 664 505.84 493.07 517.67 
 665 513.35 493.00 517.67 
 666 513.09 492.50 517.67 
 667 512.33 495.60 517.67 
 668 507.45 496.11 517.67 
 669 511.25 496.53 517.67 
 670 509.28 498.38 517.67 
 671 505.65 514.45 517.67 
 672 506.17 513.25 517.67 
 673 508.11 516.54 517.67 
 674 506.93 517.21 517.67 
 675 505.97 468.77 517.67 
 676 509.06 512.39 517.67 
 677 506.66 510.12 517.67 
 678 511.23 429.74 517.67 
 679 508.86 510.21 517.67 
 680 505.44 476.84 517.67 
 681 506.51 489.14 517.67 
 682 509.16 490.29 517.67 
 683 507.88 495.25 517.67 
 684 514.42 496.59 517.67 
 685 514.27 475.05 517.67 
 686 516.28 498.91 517.67 
 687 507.38 498.45 517.67 
 688 512.43 498.82 517.67 
 689 506.23 500.01 517.67 
 690 511.94 499.19 517.67 
 691 509.80 480.81 517.67 
 692 510.30 494.59 517.67 
 693 505.53 515.66 517.67 
 694 515.29 521.41 517.67 
 695 510.47 514.71 517.67 
 696 517.58 523.64 517.67 
 697 496.01 515.18 517.67 
 698 516.73 499.13 517.67 
 699 513.95 499.85 517.67 
 700 516.31 499.98 517.67 
 701 511.61 491.91 517.67 
 702 507.75 496.27 517.67 
 703 512.26 496.71 517.67 
 704 514.96 500.17 517.67 
 705 490.72 495.78 517.67 
 706 507.40 497.50 517.67 
 707 516.47 496.53 517.67 
 708 511.75 495.37 517.67 
 709 516.45 495.52 517.67 
 710 506.30 495.35 517.67 
 711 504.39 494.06 517.67 
 712 503.40 494.68 517.67 
 713 506.57 494.58 517.67 
 714 510.64 495.16 517.67 
 715 509.10 495.35 517.67 
 716 512.97 495.07 517.67 
 717 516.80 498.88 517.67 
 718 516.86 512.65 517.67 
 719 517.81 484.51 517.67 
 720 518.50 474.88 517.81 
 721 513.28 474.70 518.50 
 722 491.97 477.13 518.50 
 723 513.65 473.20 518.50 
 724 510.56 465.99 518.50 
 725 512.49 456.07 518.50 
 726 509.79 487.39 518.50 
 727 516.22 512.27 518.50 
 728 511.68 464.83 518.50 
 729 514.12 477.82 518.50 
 730 512.02 499.55 518.50 
 731 518.12 499.97 518.50 
 732 513.08 501.22 518.50 
 733 517.09 513.35 518.50 
 734 513.95 501.74 518.50 
 735 514.18 501.95 518.50 
 736 518.45 502.04 518.50 
 737 517.68 502.20 518.50 
 738 518.59 502.90 518.50 
 739 511.63 502.08 518.59 
 740 518.09 502.35 518.59 
 741 511.63 502.98 518.59 
 742 515.59 502.43 518.59 
 743 496.48 501.52 518.59 
 744 509.10 501.64 518.59 
 745 515.46 501.79 518.59 
 746 512.65 516.16 518.59 
 747 519.48 518.71 518.59 
 748 517.35 519.62 519.48 
 749 522.27 502.86 519.48 
 750 517.54 518.59 522.27 
 751 516.10 506.88 522.27 
 752 520.83 503.04 522.27 
 753 518.05 508.26 522.27 
 754 516.15 503.86 522.27 
 755 521.11 503.02 522.27 
 756 510.03 504.26 522.27 
 757 505.04 504.96 522.27 
 758 515.50 506.24 522.27 
 759 504.27 506.30 522.27 
 760 506.58 505.86 522.27 
 761 506.84 505.77 522.27 
 762 512.80 505.75 522.27 
 763 509.51 506.58 522.27 
 764 509.92 507.85 522.27 
 765 514.53 506.80 522.27 
 766 515.24 501.04 522.27 
 767 498.18 505.23 522.27 
 768 495.07 505.38 522.27 
 769 516.35 505.56 522.27 
 770 514.02 506.31 522.27 
 771 515.38 506.88 522.27 
 772 513.72 506.16 522.27 
 773 498.91 506.06 522.27 
 774 516.12 504.02 522.27 
 775 519.47 503.33 522.27 
 776 512.76 502.03 522.27 
 777 513.25 501.17 522.27 
 778 514.33 500.23 522.27 
 779 516.75 500.19 522.27 
 780 514.17 500.63 522.27 
 781 514.50 498.65 522.27 
 782 519.66 499.20 522.27 
 783 514.92 500.80 522.27 
 784 520.72 499.89 522.27 
 785 508.90 500.65 522.27 
 786 522.33 498.23 522.27 
 787 506.78 497.71 522.33 
 788 503.78 476.71 522.33 
 789 506.27 498.08 522.33 
 790 505.15 472.82 522.33 
 791 505.55 472.82 522.33 
 792 516.14 477.32 522.33 
 793 503.16 485.78 522.33 
 794 504.29 497.92 522.33 
 795 515.56 498.36 522.33 
 796 510.68 486.33 522.33 
 797 504.74 477.90 522.33 
 798 513.21 473.55 522.33 
 799 517.46 451.60 522.33 
 800 514.10 460.84 522.33 
 801 518.71 473.19 522.33 
 802 515.88 468.82 522.33 
 803 519.88 485.98 522.33 
 804 516.22 481.51 522.33 
 805 514.71 468.29 522.33 
 806 510.90 468.56 522.33 
 807 519.64 454.87 522.33 
 808 515.53 434.13 522.33 
 809 514.60 459.54 522.33 
 810 500.21 480.42 522.33 
 811 513.31 484.15 522.33 
 812 510.68 497.88 522.33 
 813 506.85 496.88 522.33 
 814 516.71 497.21 522.33 
 815 512.11 495.90 522.33 
 816 517.27 496.23 522.33 
 817 519.75 497.01 522.33 
 818 520.49 496.47 522.33 
 819 505.76 447.84 522.33 
 820 514.70 496.17 522.33 
 821 514.86 496.69 522.33 
 822 512.63 498.33 522.33 
 823 509.88 498.70 522.33 
 824 521.09 500.12 522.33 
 825 517.21 500.64 522.33 
 826 518.73 500.19 522.33 
 827 512.44 497.96 522.33 
 828 521.43 499.69 522.33 
 829 517.57 497.53 522.33 
 830 517.69 498.55 522.33 
 831 521.92 497.41 522.33 
 832 518.05 498.01 522.33 
 833 515.54 497.26 522.33 
 834 523.28 498.61 522.33 
 835 511.12 499.04 523.28 
 836 522.29 501.91 523.28 
 837 519.34 504.43 523.28 
 838 514.64 503.06 523.28 
 839 520.44 503.23 523.28 
 840 518.37 502.33 523.28 
 841 513.33 501.78 523.28 
 842 521.92 503.88 523.28 
 843 520.38 503.40 523.28 
 844 511.66 503.19 523.28 
 845 505.99 502.31 523.28 
 846 519.52 503.97 523.28 
 847 506.93 502.78 523.28 
 848 518.06 503.14 523.28 
 849 490.50 501.48 523.28 
 850 512.40 501.24 523.28 
 851 510.15 498.97 523.28 
 852 504.17 498.85 523.28 
 853 516.87 498.81 523.28 
 854 511.63 498.28 523.28 
 855 510.33 500.03 523.28 
 856 515.27 499.49 523.28 
 857 519.49 500.19 523.28 
 858 518.71 500.50 523.28 
 859 513.85 501.39 523.28 
 860 510.52 499.79 523.28 
 861 511.40 497.58 523.28 
 862 519.23 498.33 523.28 
 863 505.41 499.07 523.28 
 864 505.11 500.63 523.28 
 865 515.96 502.88 523.28 
 866 512.54 502.91 523.28 
 867 520.35 501.05 523.28 
 868 511.38 500.27 523.28 
 869 515.04 501.32 523.28 
 870 518.16 502.20 523.28 
 871 515.16 498.16 523.28 
 872 517.39 450.77 523.28 
 873 511.33 408.07 523.28 
 874 500.37 344.45 523.28 
 875 518.54 348.04 523.28 
 876 521.76 424.43 523.28 
 877 522.20 447.45 523.28 
 878 503.54 424.40 523.28 
 879 516.02 445.18 523.28 
 880 517.14 428.35 523.28 
 881 522.36 448.07 523.28 
 882 520.19 426.61 523.28 
 883 518.18 440.24 523.28 
 884 506.89 379.96 523.28 
 885 523.39 379.44 523.28 
 886 520.95 418.35 523.39 
 887 519.21 432.44 523.39 
 888 519.85 438.32 523.39 
 889 511.58 454.96 523.39 
 890 507.03 456.79 523.39 
 891 522.21 461.24 523.39 
 892 517.44 500.48 523.39 
 893 522.88 501.79 523.39 
 894 520.70 502.37 523.39 
 895 512.41 502.21 523.39 
 896 516.92 491.21 523.39 
 897 520.33 500.58 523.39 
 898 518.07 501.28 523.39 
 899 519.14 501.98 523.39 
 900 520.31 503.36 523.39 
 901 517.97 502.52 523.39 
 902 517.63 475.72 523.39 
 903 517.79 500.03 523.39 
 904 512.65 472.32 523.39 
 905 518.18 502.74 523.39 
 906 504.69 462.10 523.39 
 907 523.01 462.83 523.39 
 908 524.81 450.28 523.39 
 909 524.15 459.27 524.81 
 910 525.84 468.31 524.81 
 911 523.90 438.67 525.84 
 912 522.50 441.33 525.84 
 913 525.09 445.60 525.84 
 914 510.85 446.25 525.84 
 915 512.35 454.52 525.84 
 916 512.64 457.95 525.84 
 917 515.63 430.77 525.84 
 918 524.02 443.86 525.84 
 919 518.45 422.11 525.84 
 920 523.60 452.61 525.84 
 921 519.59 500.41 525.84 
 922 525.21 502.18 525.84 
 923 523.76 472.76 525.84 
 924 515.90 453.84 525.84 
 925 519.55 454.43 525.84 
 926 518.66 512.07 525.84 
 927 521.11 504.51 525.84 
 928 520.31 503.88 525.84 
 929 523.25 458.34 525.84 
 930 522.83 484.55 525.84 
 931 521.20 447.63 525.84 
 932 525.78 465.55 525.84 
 933 526.83 491.20 525.84 
 934 525.01 481.19 526.83 
 935 522.86 480.93 526.83 
 936 519.25 482.06 526.83 
 937 521.94 511.66 526.83 
 938 526.78 510.06 526.83 
 939 513.04 513.93 526.83 
 940 521.44 515.56 526.83 
 941 522.80 518.15 526.83 
 942 526.05 519.99 526.83 
 943 518.76 519.02 526.83 
 944 525.71 446.52 526.83 
 945 521.68 448.05 526.83 
 946 517.93 456.43 526.83 
 947 527.07 503.93 526.83 
 948 522.99 478.80 527.07 
 949 520.29 512.27 527.07 
 950 527.54 515.04 527.07 
 951 527.68 514.02 527.54 
 952 499.77 505.96 527.68 
 953 520.63 516.12 527.68 
 954 522.17 514.03 527.68 
 955 523.30 507.15 527.68 
 956 527.29 509.73 527.68 
 957 516.01 511.57 527.68 
 958 514.53 510.94 527.68 
 959 530.28 511.86 527.68 
 960 522.03 511.60 530.28 
 961 520.45 510.92 530.28 
 962 529.88 512.04 530.28 
 963 530.09 514.99 530.28 
 964 531.76 515.27 530.28 
 965 511.16 516.45 531.76 
 966 513.10 516.16 531.76 
 967 520.58 513.48 531.76 
 968 517.06 514.07 531.76 
 969 521.13 513.59 531.76 
 970 526.17 513.73 531.76 
 971 518.32 514.63 531.76 
 972 527.70 515.41 531.76 
 973 529.76 515.16 531.76 
 974 530.60 516.05 531.76 
 975 519.85 516.90 531.76 
 976 512.21 515.87 531.76 
 977 524.98 515.01 531.76 
 978 530.16 515.54 531.76 
 979 521.50 516.43 531.76 
 980 528.11 516.58 531.76 
 981 529.41 517.55 531.76 
 982 525.66 514.76 531.76 
 983 517.01 513.31 531.76 
 984 530.42 514.36 531.76 
 985 521.77 515.30 531.76 
 986 532.09 513.58 531.76 
 987 531.17 514.62 532.09 
 988 523.97 515.93 532.09 
 989 531.48 516.14 532.09 
 990 527.98 517.55 532.09 
 991 531.89 518.84 532.09 
 992 525.78 519.05 532.09 
 993 532.99 516.79 532.09 
 994 521.44 515.34 532.99 
 995 529.72 517.38 532.99 
 996 518.74 517.46 532.99 
 997 524.82 518.41 532.99 
 998 532.20 518.06 532.99 
 999 520.29 517.90 532.99 
1000 524.43 518.60 532.99 
1001 533.10 517.95 532.99 
1002 528.18 519.13 533.10 
1003 532.47 519.98 533.10 
1004 532.63 518.40 533.10 
1005 525.14 520.26 533.10 
1006 515.19 517.60 533.10 
1007 532.19 516.61 533.10 
1008 524.84 515.73 533.10 
1009 514.48 516.45 533.10 
1010 516.38 515.98 533.10 
1011 531.16 516.26 533.10 
1012 532.62 515.72 533.10 
1013 526.24 518.64 533.10 
1014 533.83 519.20 533.10 
1015 533.03 518.71 533.83 
1016 521.68 519.60 533.83 
1017 529.84 519.81 533.83 
1018 527.90 518.57 533.83 
1019 519.04 519.20 533.83 
1020 523.14 518.95 533.83 
1021 521.00 518.74 533.83 
1022 507.68 517.49 533.83 
1023 521.10 516.78 533.83 
1024 532.72 517.38 533.83 
1025 523.45 516.10 533.83 
1026 532.01 517.61 533.83 
1027 531.01 517.77 533.83 
1028 533.15 520.41 533.83 
1029 532.11 521.44 533.83 
1030 521.41 520.63 533.83 
1031 527.60 522.63 533.83 
1032 534.38 524.25 533.83 
1033 533.69 523.99 534.38 
1034 533.85 522.69 534.38 
1035 534.95 521.86 534.38 
1036 523.56 521.62 534.95 
1037 529.33 520.79 534.95 
1038 528.39 522.22 534.95 
1039 515.45 520.35 534.95 
1040 532.07 518.48 534.95 
1041 521.64 517.57 534.95 
1042 533.43 518.31 534.95 
1043 533.75 518.44 534.95 
1044 535.36 517.75 534.95 
1045 521.66 517.69 535.36 
1046 525.96 518.53 535.36 
1047 514.04 518.21 535.36 
1048 534.92 517.65 535.36 
1049 528.65 517.12 535.36 
1050 534.30 516.83 535.36 
1051 529.33 515.86 535.36 
1052 512.68 514.78 535.36 
1053 527.14 512.74 535.36 
1054 533.35 513.11 535.36 
1055 533.68 513.12 535.36 
1056 532.49 513.08 535.36 
1057 522.06 511.50 535.36 
1058 526.56 511.70 535.36 
1059 532.80 512.61 535.36 
1060 529.36 511.15 535.36 
1061 533.08 511.78 535.36 
1062 528.22 512.96 535.36 
1063 532.97 512.87 535.36 
1064 533.52 513.68 535.36 
1065 526.21 513.19 535.36 
1066 533.16 514.54 535.36 
1067 527.38 516.63 535.36 
1068 533.98 517.36 535.36 
1069 529.88 517.53 535.36 
1070 532.80 518.95 535.36 
1071 525.74 517.29 535.36 
1072 532.82 516.28 535.36 
1073 532.38 515.42 535.36 
1074 533.72 515.94 535.36 
1075 535.07 517.02 535.36 
1076 534.12 517.04 535.36 
1077 533.72 516.78 535.36 
1078 534.39 515.55 535.36 
1079 535.31 514.39 535.36 
1080 528.71 515.60 535.36 
1081 530.50 515.27 535.36 
1082 529.66 515.35 535.36 
1083 535.38 513.89 535.36 
1084 535.47 517.30 535.38 
1085 529.51 516.68 535.47 
1086 535.51 514.89 535.47 
1087 527.06 514.80 535.51 
1088 529.41 515.76 535.51 
1089 531.55 515.34 535.51 
1090 535.48 517.03 535.51 
1091 529.46 515.04 535.51 
1092 535.83 515.87 535.51 
1093 533.48 516.52 535.83 
1094 535.68 516.36 535.83 
1095 529.06 516.57 535.83 
1096 531.07 517.24 535.83 
1097 529.97 516.04 535.83 
1098 535.60 517.32 535.83 
1099 534.92 522.08 535.83 
1100 534.27 518.99 535.83 
1101 535.23 518.74 535.83 
1102 529.62 517.88 535.83 
1103 534.91 515.37 535.83 
1104 528.25 516.23 535.83 
1105 534.42 518.39 535.83 
1106 534.78 521.01 535.83 
1107 529.75 518.23 535.83 
1108 536.00 517.75 535.83 
1109 535.82 519.03 536.00 
1110 536.34 519.38 536.00 
1111 535.77 517.20 536.34 
1112 536.81 518.13 536.34 
1113 536.54 519.62 536.81 
1114 536.76 519.45 536.81 
1115 535.66 518.96 536.81 
1116 537.60 517.50 536.81 
1117 525.13 517.92 537.60 
1118 527.72 517.66 537.60 
1119 537.12 517.30 537.60 
1120 536.90 517.60 537.60 
1121 537.17 519.07 537.60 
1122 537.75 519.17 537.60 
1123 537.58 518.63 537.75 
1124 536.03 521.06 537.75 
1125 533.86 521.78 537.75 
1126 532.78 522.13 537.75 
1127 537.06 523.22 537.75 
1128 536.82 523.88 537.75 
1129 524.99 522.49 537.75 
1130 536.54 523.54 537.75 
1131 531.46 525.53 537.75 
1132 536.19 523.13 537.75 
1133 536.63 521.32 537.75 
1134 536.82 522.91 537.75 
1135 536.15 521.73 537.75 
1136 537.09 524.18 537.75 
1137 528.77 524.95 537.75 
1138 535.44 525.48 537.75 
1139 523.07 521.73 537.75 
1140 531.02 523.59 537.75 
1141 531.06 522.72 537.75 
1142 536.60 520.03 537.75 
1143 537.08 522.56 537.75 
1144 531.29 522.35 537.75 
1145 536.99 522.55 537.75 
1146 537.46 524.18 537.75 
1147 537.41 523.29 537.75 
1148 537.18 524.21 537.75 
1149 533.29 525.59 537.75 
1150 533.24 523.46 537.75 
1151 536.70 526.82 537.75 
1152 528.09 523.53 537.75 
1153 535.78 523.06 537.75 
1154 536.41 523.03 537.75 
1155 535.73 522.64 537.75 
1156 537.01 524.27 537.75 
1157 537.52 523.54 537.75 
1158 536.36 525.85 537.75 
1159 534.05 527.01 537.75 
1160 536.54 525.60 537.75 
1161 537.59 526.30 537.75 
1162 530.17 526.25 537.75 
1163 532.03 523.76 537.75 
1164 538.34 523.95 537.75 
1165 537.89 524.05 538.34 
1166 538.54 523.96 538.34 
1167 526.07 522.44 538.54 
1168 538.43 525.68 538.54 
1169 537.91 524.72 538.54 
1170 538.89 525.66 538.54 
1171 534.78 526.35 538.89 
1172 537.19 525.69 538.89 
1173 538.53 526.72 538.89 
1174 538.32 526.98 538.89 
1175 524.91 526.64 538.89 
1176 538.33 525.25 538.89 
1177 534.05 523.68 538.89 
1178 530.86 521.83 538.89 
1179 526.45 522.69 538.89 
1180 538.37 521.89 538.89 
1181 534.35 521.03 538.89 
1182 537.59 520.79 538.89 
1183 536.32 519.82 538.89 
1184 537.24 519.51 538.89 
1185 536.29 520.57 538.89 
1186 537.59 522.21 538.89 
1187 536.53 521.65 538.89 
1188 537.40 520.39 538.89 
1189 537.56 522.28 538.89 
1190 537.69 521.33 538.89 
1191 531.49 519.53 538.89 
1192 537.72 519.17 538.89 
1193 537.57 518.17 538.89 
1194 531.81 518.99 538.89 
1195 537.29 519.52 538.89 
1196 537.83 520.36 538.89 
1197 531.39 520.99 538.89 
1198 532.85 520.06 538.89 
1199 538.45 521.33 538.89 
1200 531.85 522.61 538.89 
1201 538.45 522.12 538.89 
1202 533.99 521.08 538.89 
1203 537.58 521.60 538.89 
1204 537.18 522.09 538.89 
1205 538.47 523.52 538.89 
1206 532.83 525.62 538.89 
1207 538.48 525.69 538.89 
1208 538.61 525.39 538.89 
1209 538.70 523.37 538.89 
1210 538.56 526.19 538.89 
1211 538.64 526.64 538.89 
1212 538.75 524.00 538.89 
1213 539.55 523.90 538.89 
1214 533.74 522.14 539.55 
1215 539.13 522.30 539.55 
1216 533.68 519.82 539.55 
1217 539.21 519.42 539.55 
1218 538.85 520.32 539.55 
1219 534.80 521.59 539.55 
1220 539.32 521.11 539.55 
1221 539.37 521.64 539.55 
1222 539.15 520.13 539.55 
1223 533.33 518.95 539.55 
1224 528.23 517.13 539.55 
1225 539.21 519.51 539.55 
1226 539.37 520.85 539.55 
1227 531.36 520.90 539.55 
1228 538.63 521.21 539.55 
1229 539.42 519.85 539.55 
1230 530.69 520.85 539.55 
1231 538.38 519.88 539.55 
1232 538.70 521.99 539.55 
1233 538.91 521.23 539.55 
1234 539.22 520.09 539.55 
1235 539.14 518.54 539.55 
1236 539.35 518.87 539.55 
1237 539.09 518.99 539.55 
1238 539.57 519.50 539.55 
1239 532.48 520.10 539.57 
1240 539.18 519.79 539.57 
1241 539.59 518.88 539.57 
1242 539.85 518.58 539.59 
1243 538.66 518.38 539.85 
1244 539.55 518.58 539.85 
1245 539.77 519.09 539.85 
1246 539.23 520.45 539.85 
1247 540.05 520.27 539.85 
1248 540.02 519.99 540.05 
1249 539.89 520.75 540.05 
1250 539.70 520.39 540.05 
1251 538.16 520.32 540.05 
1252 540.14 521.14 540.05 
1253 539.91 523.35 540.14 
1254 534.69 523.62 540.14 
1255 539.96 522.34 540.14 
1256 533.33 521.97 540.14 
1257 539.84 521.50 540.14 
1258 533.14 521.73 540.14 
1259 540.04 520.76 540.14 
1260 538.00 522.26 540.14 
1261 540.31 523.14 540.14 
1262 539.45 522.20 540.31 
1263 539.21 521.46 540.31 
1264 539.16 521.88 540.31 
1265 540.40 523.72 540.31 
1266 539.75 523.50 540.40 
1267 533.00 523.08 540.40 
1268 539.28 521.29 540.40 
1269 539.15 521.53 540.40 
1270 540.07 520.56 540.40 
1271 536.09 520.27 540.40 
1272 540.15 520.41 540.40 
1273 539.37 521.29 540.40 
1274 539.02 520.97 540.40 
1275 532.30 519.81 540.40 
1276 540.18 521.12 540.40 
1277 539.87 520.57 540.40 
1278 539.33 522.06 540.40 
1279 539.23 521.35 540.40 
1280 539.95 522.40 540.40 
1281 539.97 520.07 540.40 
1282 540.07 520.45 540.40 
1283 540.21 521.22 540.40 
1284 540.06 519.70 540.40 
1285 540.86 520.72 540.40 
1286 539.87 520.59 540.86 
1287 537.80 520.96 540.86 
1288 540.39 521.69 540.86 
1289 534.97 522.40 540.86 
1290 539.96 521.89 540.86 
1291 537.41 522.41 540.86 
1292 539.45 521.06 540.86 
1293 536.35 520.76 540.86 
1294 540.09 522.07 540.86 
1295 539.50 520.37 540.86 
1296 539.82 521.52 540.86 
1297 539.65 521.64 540.86 
1298 539.26 523.27 540.86 
1299 540.01 524.67 540.86 
1300 540.35 524.82 540.86 
1301 539.91 525.21 540.86 
1302 540.28 524.83 540.86 
1303 539.49 524.81 540.86 
1304 536.70 524.05 540.86 
1305 540.14 524.37 540.86 
1306 534.76 524.02 540.86 
1307 540.10 524.28 540.86 
1308 539.24 523.44 540.86 
1309 539.64 523.73 540.86 
1310 540.04 523.50 540.86 
1311 540.26 524.54 540.86 
1312 534.06 524.44 540.86 
1313 539.47 523.62 540.86 
1314 538.36 524.46 540.86 
1315 539.91 525.30 540.86 
1316 540.55 526.57 540.86 
1317 540.48 527.16 540.86 
1318 540.53 526.34 540.86 
1319 540.41 524.90 540.86 
1320 540.14 524.91 540.86 
1321 535.94 524.71 540.86 
1322 540.83 525.00 540.86 
1323 540.50 525.29 540.86 
1324 539.29 525.85 540.86 
1325 540.12 526.43 540.86 
1326 540.76 525.75 540.86 
1327 540.63 525.75 540.86 
1328 540.46 525.29 540.86 
1329 540.45 525.45 540.86 
1330 540.37 525.99 540.86 
1331 540.08 525.17 540.86 
1332 540.90 525.76 540.86 
1333 540.62 525.33 540.90 
1334 535.75 524.74 540.90 
1335 540.46 524.30 540.90 
1336 540.42 525.04 540.90 
1337 538.02 525.54 540.90 
1338 540.45 526.33 540.90 
1339 540.63 526.61 540.90 
1340 540.61 526.98 540.90 
1341 539.93 526.40 540.90 
1342 540.53 526.74 540.90 
1343 540.83 526.41 540.90 
1344 540.83 525.98 540.90 
1345 535.48 525.81 540.90 
1346 535.69 526.30 540.90 
1347 538.49 524.78 540.90 
1348 540.86 524.62 540.90 
1349 540.99 524.87 540.90 
1350 538.28 524.49 540.99 
1351 540.21 523.94 540.99 
1352 536.74 524.49 540.99 
1353 537.59 524.73 540.99 
1354 536.27 526.55 540.99 
1355 540.50 526.77 540.99 
1356 540.48 528.23 540.99 
1357 540.56 528.24 540.99 
1358 540.64 527.12 540.99 
1359 541.06 526.86 540.99 
1360 536.40 527.37 541.06 
1361 539.85 528.02 541.06 
1362 540.83 528.42 541.06 
1363 541.35 528.90 541.06 
1364 537.69 528.84 541.35 
1365 540.83 528.99 541.35 
1366 540.80 528.81 541.35 
1367 540.71 529.60 541.35 
1368 540.46 530.11 541.35 
1369 539.80 530.73 541.35 
1370 535.09 529.99 541.35 
1371 540.74 528.96 541.35 
1372 541.26 530.34 541.35 
1373 541.17 530.36 541.35 
1374 540.30 529.96 541.35 
1375 539.54 529.92 541.35 
1376 541.24 529.91 541.35 
1377 535.36 529.68 541.35 
1378 540.85 529.00 541.35 
1379 538.77 528.92 541.35 
1380 541.08 529.84 541.35 
1381 540.90 529.02 541.35 
1382 540.70 528.59 541.35 
1383 539.90 528.65 541.35 
1384 538.90 528.47 541.35 
1385 540.02 528.41 541.35 
1386 541.06 529.27 541.35 
1387 540.46 528.12 541.35 
1388 540.87 527.92 541.35 
1389 540.96 526.99 541.35 
1390 540.04 527.55 541.35 
1391 540.90 528.19 541.35 
1392 541.30 529.62 541.35 
1393 541.15 528.61 541.35 
1394 540.67 528.12 541.35 
1395 540.27 527.91 541.35 
1396 541.51 527.58 541.35 
1397 540.71 527.74 541.51 
1398 538.19 528.27 541.51 
1399 540.90 528.07 541.51 
1400 536.13 527.67 541.51 
1401 540.16 529.13 541.51 
1402 541.38 529.39 541.51 
1403 541.19 528.60 541.51 
1404 541.01 528.54 541.51 
1405 541.25 528.95 541.51 
1406 541.28 528.84 541.51 
1407 534.82 528.16 541.51 
1408 540.58 527.93 541.51 
1409 540.87 529.68 541.51 
1410 541.39 529.62 541.51 
1411 540.26 529.38 541.51 
1412 540.83 529.54 541.51 
1413 535.01 529.61 541.51 
1414 540.89 528.80 541.51 
1415 540.95 529.46 541.51 
1416 540.99 529.22 541.51 
1417 541.74 529.63 541.51 
1418 541.70 529.68 541.74 
1419 537.74 530.47 541.74 
1420 535.67 529.95 541.74 
1421 541.73 530.17 541.74 
1422 541.46 530.05 541.74 
1423 541.46 530.29 541.74 
1424 540.07 530.34 541.74 
1425 541.76 530.94 541.74 
1426 541.34 530.64 541.76 
1427 539.23 530.43 541.76 
1428 536.97 529.98 541.76 
1429 541.77 529.63 541.76 
1430 541.78 529.47 541.77 
1431 540.59 529.91 541.78 
1432 541.69 529.74 541.78 
1433 541.10 529.96 541.78 
1434 541.53 529.64 541.78 
1435 542.08 530.26 541.78 
1436 537.96 529.88 542.08 
1437 541.81 530.54 542.08 
1438 538.74 529.96 542.08 
1439 541.60 530.72 542.08 
1440 541.89 531.65 542.08 
1441 542.22 530.71 542.08 
1442 538.30 530.47 542.22 
1443 541.43 529.87 542.22 
1444 541.68 530.23 542.22 
1445 541.98 530.63 542.22 
1446 532.28 530.91 542.22 
1447 541.94 531.21 542.22 
1448 540.88 530.92 542.22 
1449 542.16 531.97 542.22 
1450 542.21 533.46 542.22 
1451 541.52 533.49 542.22 
1452 540.86 532.46 542.22 
1453 541.95 532.06 542.22 
1454 542.07 532.44 542.22 
1455 541.85 532.62 542.22 
1456 542.43 532.32 542.22 
1457 542.06 532.62 542.43 
1458 541.48 533.07 542.43 
1459 542.17 531.96 542.43 
1460 542.38 533.96 542.43 
1461 541.21 536.32 542.43 
1462 542.47 535.97 542.43 
1463 541.30 536.20 542.47 
1464 538.26 535.93 542.47 
1465 542.53 536.01 542.47 
1466 542.60 535.82 542.53 
1467 542.39 536.83 542.60 
1468 542.73 536.77 542.60 
1469 542.79 537.15 542.73 
1470 543.18 538.27 542.79 
1471 542.91 538.43 543.18 
1472 543.03 537.88 543.18 
1473 542.92 538.21 543.18 
1474 538.96 538.05 543.18 
1475 542.79 537.44 543.18 
1476 540.76 538.35 543.18 
1477 541.49 538.54 543.18 
1478 542.70 538.74 543.18 
1479 542.65 538.99 543.18 
1480 542.37 539.17 543.18 
1481 542.83 538.52 543.18 
1482 538.34 538.32 543.18 
1483 543.04 537.65 543.18 
1484 542.65 537.93 543.18 
1485 542.43 538.07 543.18 
1486 542.94 538.14 543.18 
1487 542.61 538.62 543.18 
1488 542.98 539.55 543.18 
1489 543.00 539.61 543.18 
1490 543.36 539.52 543.18 
1491 538.64 539.28 543.36 
1492 542.55 538.74 543.36 
1493 542.32 539.21 543.36 
1494 537.18 539.14 543.36 
1495 542.94 538.95 543.36 
1496 542.75 539.65 543.36 
1497 543.27 539.47 543.36 
1498 542.94 538.95 543.36 
1499 542.70 538.96 543.36 
1500 543.17 539.21 543.36 
1501 542.96 539.70 543.36 
1502 540.97 539.11 543.36 
1503 542.86 539.04 543.36 
1504 543.01 539.89 543.36 
1505 542.83 539.73 543.36 
1506 543.24 540.13 543.36 
1507 543.32 540.64 543.36 
1508 543.42 540.65 543.36 
1509 543.35 540.06 543.42 
1510 539.17 538.98 543.42 
1511 539.73 538.78 543.42 
1512 543.14 539.13 543.42 
1513 543.10 539.14 543.42 
1514 543.11 538.63 543.42 
1515 543.11 539.91 543.42 
1516 543.22 540.40 543.42 
1517 543.60 540.14 543.42 
1518 543.42 539.95 543.60 
1519 543.37 540.47 543.60 
1520 541.83 540.58 543.60 
1521 542.41 540.79 543.60 
1522 543.20 540.75 543.60 
1523 543.13 540.35 543.60 
1524 543.63 540.68 543.60 
1525 543.41 540.62 543.63 
1526 543.36 540.31 543.63 
1527 539.18 540.46 543.63 
1528 543.72 540.59 543.63 
1529 543.05 540.49 543.72 
1530 539.39 540.57 543.72 
1531 543.26 540.55 543.72 
1532 543.44 540.33 543.72 
1533 543.58 539.92 543.72 
1534 543.47 540.06 543.72 
1535 543.64 540.27 543.72 
1536 543.47 539.52 543.72 
1537 543.75 540.10 543.72 
1538 543.78 539.77 543.75 
1539 543.99 539.76 543.78 
1540 540.88 539.54 543.99 
1541 543.74 540.00 543.99 
1542 538.40 540.09 543.99 
1543 543.43 540.39 543.99 
1544 543.85 540.67 543.99 
1545 543.45 539.97 543.99 
1546 543.41 539.10 543.99 
1547 539.61 539.16 543.99 
1548 543.32 539.12 543.99 
1549 541.41 539.06 543.99 
1550 543.51 539.06 543.99 
1551 543.37 538.36 543.99 
1552 543.71 538.72 543.99 
1553 543.65 538.88 543.99 
1554 538.81 538.90 543.99 
1555 543.89 539.46 543.99 
1556 541.81 539.78 543.99 
1557 539.59 539.50 543.99 
1558 543.83 539.22 543.99 
1559 543.97 539.00 543.99 
1560 543.75 539.23 543.99 
1561 543.87 538.98 543.99 
1562 543.89 538.86 543.99 
1563 543.88 539.11 543.99 
1564 543.81 539.28 543.99 
1565 544.22 538.83 543.99 
1566 544.17 538.89 544.22 
1567 543.83 539.46 544.22 
1568 543.99 539.92 544.22 
1569 544.27 539.67 544.22 
1570 544.36 539.68 544.27 
1571 544.36 539.41 544.36 
1572 544.28 539.60 544.36 
1573 544.52 539.65 544.36 
1574 544.62 539.58 544.52 
1575 544.38 539.54 544.62 
1576 544.57 539.43 544.62 
1577 544.40 539.60 544.62 
1578 544.30 539.73 544.62 
1579 544.42 539.57 544.62 
1580 542.36 539.79 544.62 
1581 544.39 539.57 544.62 
1582 542.73 539.47 544.62 
1583 544.62 540.07 544.62 
1584 536.19 539.82 544.62 
1585 544.26 540.08 544.62 
1586 544.29 540.05 544.62 
1587 544.45 539.90 544.62 
1588 544.58 539.96 544.62 
1589 544.57 539.93 544.62 
1590 544.60 540.04 544.62 
1591 544.18 539.99 544.62 
1592 544.39 539.46 544.62 
1593 544.66 539.21 544.62 
1594 544.57 539.27 544.66 
1595 544.69 539.40 544.66 
1596 544.72 539.70 544.69 
1597 543.69 539.69 544.72 
1598 544.69 539.90 544.72 
1599 544.73 539.73 544.72 
1600 544.81 539.98 544.73 
1601 539.33 539.74 544.81 
1602 544.36 540.02 544.81 
1603 543.59 539.81 544.81 
1604 544.50 539.79 544.81 
1605 544.65 539.84 544.81 
1606 544.79 539.72 544.81 
1607 544.76 539.51 544.81 
1608 544.65 539.71 544.81 
1609 544.67 539.52 544.81 
1610 544.71 539.72 544.81 
1611 544.91 540.30 544.81 
1612 544.03 539.66 544.91 
1613 544.67 540.03 544.91 
1614 544.94 540.68 544.91 
1615 544.83 540.73 544.94 
1616 544.44 540.75 544.94 
1617 544.67 540.44 544.94 
1618 544.61 540.57 544.94 
1619 544.60 540.34 544.94 
1620 544.87 540.58 544.94 
1621 544.85 540.59 544.94 
1622 539.49 540.49 544.94 
1623 540.15 540.45 544.94 
1624 544.58 540.68 544.94 
1625 539.18 540.91 544.94 
1626 544.73 540.45 544.94 
1627 540.37 540.33 544.94 
1628 539.13 539.76 544.94 
1629 544.74 540.55 544.94 
1630 544.11 540.96 544.94 
1631 544.46 541.07 544.94 
1632 538.49 540.35 544.94 
1633 544.43 540.61 544.94 
1634 544.54 540.92 544.94 
1635 544.66 540.62 544.94 
1636 544.45 541.27 544.94 
1637 544.72 541.51 544.94 
1638 542.08 541.87 544.94 
1639 542.58 541.85 544.94 
1640 543.45 542.22 544.94 
1641 544.51 542.31 544.94 
1642 544.44 542.27 544.94 
1643 544.45 541.96 544.94 
1644 544.58 542.36 544.94 
1645 544.29 542.26 544.94 
1646 544.84 541.80 544.94 
1647 545.00 541.85 544.94 
1648 540.91 542.27 545.00 
1649 544.93 541.89 545.00 
1650 544.93 541.58 545.00 
1651 544.97 541.70 545.00 
1652 539.64 541.77 545.00 
1653 545.10 541.73 545.00 
1654 538.97 541.61 545.10 
1655 545.07 541.00 545.10 
1656 544.55 541.10 545.10 
1657 544.82 540.90 545.10 
1658 544.48 540.73 545.10 
1659 544.53 541.61 545.10 
1660 544.49 541.77 545.10 
1661 545.07 542.03 545.10 
1662 538.01 542.04 545.10 
1663 545.22 541.89 545.10 
1664 539.17 541.57 545.22 
1665 545.27 541.41 545.22 
1666 545.24 541.04 545.27 
1667 540.80 541.09 545.27 
1668 544.83 540.39 545.27 
1669 544.79 540.67 545.27 
1670 544.87 540.86 545.27 
1671 544.86 541.08 545.27 
1672 545.03 541.33 545.27 
1673 544.99 540.85 545.27 
1674 542.82 540.80 545.27 
1675 545.15 540.84 545.27 
1676 545.15 541.25 545.27 
1677 545.29 541.19 545.27 
1678 545.23 541.22 545.29 
1679 545.04 541.96 545.29 
1680 545.06 541.51 545.29 
1681 545.21 541.34 545.29 
1682 545.34 541.78 545.29 
1683 545.24 541.68 545.34 
1684 544.55 541.84 545.34 
1685 545.24 541.52 545.34 
1686 545.45 542.10 545.34 
1687 545.26 541.90 545.45 
1688 543.98 541.86 545.45 
1689 545.38 542.07 545.45 
1690 545.39 541.87 545.45 
1691 544.67 541.44 545.45 
1692 545.46 541.38 545.45 
1693 545.29 541.26 545.46 
1694 545.58 541.01 545.46 
1695 541.51 541.26 545.58 
1696 545.21 541.71 545.58 
1697 545.10 542.05 545.58 
1698 545.15 542.01 545.58 
1699 545.22 541.43 545.58 
1700 545.55 541.09 545.58 
1701 545.32 541.56 545.58 
1702 543.66 541.47 545.58 
1703 545.53 541.78 545.58 
1704 545.19 541.27 545.58 
1705 545.32 541.33 545.58 
1706 545.23 541.39 545.58 
1707 545.59 541.42 545.58 
1708 545.38 541.53 545.59 
1709 545.83 541.48 545.59 
1710 545.61 541.50 545.83 
1711 545.69 541.66 545.83 
1712 545.61 541.40 545.83 
1713 545.60 541.31 545.83 
1714 545.67 541.80 545.83 
1715 545.67 541.60 545.83 
1716 545.51 541.75 545.83 
1717 541.11 541.05 545.83 
1718 545.38 540.91 545.83 
1719 545.48 541.18 545.83 
1720 545.34 541.06 545.83 
1721 545.35 540.83 545.83 
1722 545.69 541.34 545.83 
1723 545.52 540.88 545.83 
1724 544.55 541.11 545.83 
1725 545.65 541.16 545.83 
1726 545.68 540.71 545.83 
1727 545.86 540.77 545.83 
1728 545.67 540.81 545.86 
1729 545.72 540.83 545.86 
1730 545.88 541.08 545.86 
1731 545.95 541.21 545.88 
1732 545.86 540.88 545.95 
1733 545.79 541.13 545.95 
1734 545.64 541.45 545.95 
1735 545.77 541.40 545.95 
1736 540.99 541.23 545.95 
1737 546.00 541.21 545.95 
1738 545.70 541.07 546.00 
1739 545.52 541.14 546.00 
1740 545.86 541.14 546.00 
1741 545.82 541.28 546.00 
1742 545.79 541.03 546.00 
1743 545.87 541.43 546.00 
1744 545.74 541.99 546.00 
1745 545.90 542.11 546.00 
1746 545.88 542.22 546.00 
1747 545.70 542.27 546.00 
1748 545.86 542.37 546.00 
1749 546.04 542.63 546.00 
1750 545.86 542.36 546.04 
1751 545.91 542.25 546.04 
1752 546.14 542.47 546.04 
1753 542.08 542.14 546.14 
1754 541.83 542.33 546.14 
1755 542.65 542.33 546.14 
1756 546.11 542.32 546.14 
1757 546.06 542.30 546.14 
1758 545.84 542.21 546.14 
1759 543.03 542.03 546.14 
1760 546.11 541.97 546.14 
1761 545.59 541.92 546.14 
1762 545.95 541.60 546.14 
1763 545.85 541.70 546.14 
1764 539.80 541.30 546.14 
1765 545.70 541.52 546.14 
1766 545.76 541.25 546.14 
1767 539.95 541.26 546.14 
1768 545.88 541.40 546.14 
1769 545.44 541.60 546.14 
1770 545.61 542.16 546.14 
1771 545.84 542.38 546.14 
1772 545.73 542.39 546.14 
1773 545.96 542.27 546.14 
1774 545.91 541.89 546.14 
1775 545.88 542.08 546.14 
1776 546.00 541.57 546.14 
1777 545.89 541.64 546.14 
1778 546.04 541.61 546.14 
1779 545.96 541.40 546.14 
1780 545.94 541.52 546.14 
1781 546.11 541.52 546.14 
1782 544.32 542.01 546.14 
1783 542.49 541.75 546.14 
1784 535.85 541.81 546.14 
1785 545.96 541.62 546.14 
1786 545.91 541.56 546.14 
1787 545.98 541.54 546.14 
1788 546.05 540.15 546.14 
1789 545.88 542.09 546.14 
1790 546.07 542.05 546.14 
1791 546.13 542.01 546.14 
1792 545.86 539.37 546.14 
1793 545.97 539.31 546.14 
1794 542.75 541.84 546.14 
1795 546.26 541.82 546.14 
1796 545.94 542.24 546.26 
1797 546.13 541.99 546.26 
1798 546.20 542.16 546.26 
1799 545.76 539.39 546.26 
1800 544.97 539.14 546.26 
1801 546.07 542.73 546.26 
1802 544.65 542.81 546.26 
1803 540.18 542.78 546.26 
1804 545.39 542.84 546.26 
1805 545.42 543.24 546.26 
1806 545.69 542.98 546.26 
1807 541.76 543.41 546.26 
1808 542.05 543.25 546.26 
1809 541.17 543.13 546.26 
1810 545.16 542.89 546.26 
1811 545.08 542.49 546.26 
1812 545.62 542.68 546.26 
1813 543.87 542.73 546.26 
1814 545.71 542.71 546.26 
1815 546.02 542.42 546.26 
1816 545.61 542.20 546.26 
1817 539.89 542.27 546.26 
1818 544.71 538.78 546.26 
1819 545.69 540.15 546.26 
1820 545.49 539.92 546.26 
1821 545.86 539.98 546.26 
1822 546.01 539.13 546.26 
1823 540.41 539.52 546.26 
1824 544.06 542.66 546.26 
1825 537.40 539.92 546.26 
1826 545.40 543.11 546.26 
1827 545.59 543.17 546.26 
1828 545.81 543.40 546.26 
1829 545.89 543.05 546.26 
1830 545.96 539.77 546.26 
1831 545.95 543.04 546.26 
1832 545.98 543.11 546.26 
1833 540.59 542.86 546.26 
1834 538.09 542.99 546.26 
1835 545.83 542.86 546.26 
1836 538.93 542.73 546.26 
1837 545.27 542.67 546.26 
1838 544.80 542.40 546.26 
1839 545.63 542.40 546.26 
1840 545.81 541.99 546.26 
1841 545.69 542.40 546.26 
1842 540.10 542.35 546.26 
1843 543.37 542.34 546.26 
1844 538.83 542.45 546.26 
1845 545.68 542.32 546.26 
1846 545.39 542.39 546.26 
1847 545.67 542.17 546.26 
1848 545.84 542.47 546.26 
1849 545.86 542.41 546.26 
1850 539.30 542.35 546.26 
1851 545.88 542.57 546.26 
1852 546.10 542.49 546.26 
1853 546.04 542.41 546.26 
1854 546.19 542.59 546.26 
1855 545.73 542.71 546.26 
1856 546.07 542.43 546.26 
1857 545.71 542.45 546.26 
1858 546.23 542.92 546.26 
1859 546.07 542.92 546.26 
1860 546.19 542.90 546.26 
1861 546.37 543.08 546.26 
1862 546.14 543.17 546.37 
1863 546.17 543.20 546.37 
1864 545.36 543.05 546.37 
1865 546.10 543.14 546.37 
1866 545.44 542.95 546.37 
1867 546.09 542.91 546.37 
1868 545.98 542.92 546.37 
1869 546.04 542.93 546.37 
1870 546.25 543.12 546.37 
1871 546.18 542.78 546.37 
1872 542.19 543.14 546.37 
1873 546.15 543.04 546.37 
1874 546.04 543.21 546.37 
1875 545.88 543.16 546.37 
1876 546.05 543.00 546.37 
1877 546.17 543.12 546.37 
1878 546.18 543.35 546.37 
1879 537.43 543.46 546.37 
1880 546.26 543.34 546.37 
1881 546.16 543.29 546.37 
1882 545.99 543.24 546.37 
1883 545.76 543.54 546.37 
1884 545.83 543.56 546.37 
1885 545.92 543.75 546.37 
1886 546.26 543.90 546.37 
1887 546.27 544.29 546.37 
1888 546.16 543.94 546.37 
1889 546.18 543.98 546.37 
1890 541.04 544.16 546.37 
1891 546.28 544.12 546.37 
1892 546.33 544.24 546.37 
1893 546.27 544.07 546.37 
1894 545.97 543.95 546.37 
1895 546.22 544.11 546.37 
1896 546.26 544.15 546.37 
1897 546.11 544.09 546.37 
1898 546.27 544.21 546.37 
1899 546.29 544.29 546.37 
1900 546.10 544.43 546.37 
1901 546.42 544.18 546.37 
1902 546.40 544.01 546.42 
1903 546.32 544.26 546.42 
1904 546.17 544.16 546.42 
1905 546.25 544.24 546.42 
1906 540.90 544.31 546.42 
1907 546.26 544.25 546.42 
1908 546.45 544.43 546.42 
1909 546.40 544.31 546.45 
1910 546.46 544.10 546.45 
1911 541.82 544.34 546.46 
1912 543.44 544.32 546.46 
1913 540.71 543.95 546.46 
1914 542.85 544.10 546.46 
1915 546.13 544.08 546.46 
1916 545.97 543.92 546.46 
1917 545.94 544.04 546.46 
1918 546.41 544.00 546.46 
1919 542.03 543.77 546.46 
1920 546.16 543.72 546.46 
1921 546.25 543.84 546.46 
1922 546.19 543.71 546.46 
1923 546.22 543.55 546.46 
1924 546.30 543.92 546.46 
1925 546.14 543.83 546.46 
1926 546.43 543.87 546.46 
1927 546.39 543.93 546.46 
1928 546.23 543.62 546.46 
1929 546.27 543.74 546.46 
1930 546.30 543.84 546.46 
1931 546.54 543.94 546.46 
1932 546.41 544.04 546.54 
1933 544.36 544.31 546.54 
1934 546.19 544.12 546.54 
1935 546.30 544.22 546.54 
1936 546.32 544.34 546.54 
1937 546.40 543.91 546.54 
1938 546.34 543.84 546.54 
1939 546.33 543.92 546.54 
1940 546.46 543.59 546.54 
1941 546.35 543.60 546.54 
1942 546.31 543.85 546.54 
1943 546.52 543.76 546.54 
1944 546.23 543.59 546.54 
1945 546.29 543.45 546.54 
1946 546.27 543.67 546.54 
1947 541.44 543.50 546.54 
1948 546.44 543.66 546.54 
1949 546.64 543.44 546.54 
1950 540.26 543.31 546.64 
1951 546.39 543.53 546.64 
1952 546.34 543.56 546.64 
1953 546.24 543.43 546.64 
1954 540.64 543.34 546.64 
1955 546.37 543.76 546.64 
1956 546.40 543.71 546.64 
1957 546.34 543.77 546.64 
1958 546.34 543.77 546.64 
1959 541.45 543.70 546.64 
1960 545.93 543.97 546.64 
1961 546.15 544.00 546.64 
1962 546.28 544.22 546.64 
1963 546.54 544.15 546.64 
1964 540.92 544.08 546.64 
1965 546.38 544.03 546.64 
1966 542.97 544.01 546.64 
1967 546.24 544.21 546.64 
1968 546.45 544.11 546.64 
1969 546.60 544.25 546.64 
1970 546.38 544.12 546.64 
1971 546.26 544.23 546.64 
1972 546.49 544.06 546.64 
1973 546.44 544.00 546.64 
1974 546.44 544.03 546.64 
1975 541.84 544.15 546.64 
1976 546.38 544.07 546.64 
1977 546.20 544.07 546.64 
1978 546.16 544.09 546.64 
1979 542.08 544.35 546.64 
1980 546.22 544.54 546.64 
1981 545.15 544.10 546.64 
1982 546.13 544.19 546.64 
1983 546.18 544.10 546.64 
1984 541.24 543.85 546.64 
1985 546.22 543.91 546.64 
1986 545.79 544.08 546.64 
1987 546.15 543.91 546.64 
1988 546.33 543.99 546.64 
1989 546.20 544.02 546.64 
1990 546.16 543.82 546.64 
1991 546.49 543.77 546.64 
1992 546.28 543.91 546.64 
1993 546.31 543.80 546.64 
1994 546.38 543.67 546.64 
1995 540.86 544.13 546.64 
1996 546.45 544.11 546.64 
1997 546.27 544.08 546.64 
1998 546.23 544.25 546.64 
1999 546.38 544.24 546.64 
2000 546.42 544.33 546.64 
2001 546.49 544.35 546.64 
2002 546.50 544.26 546.64 
2003 546.53 544.26 546.64 
2004 546.27 544.02 546.64 
2005 546.49 543.93 546.64 
2006 546.07 543.97 546.64 
2007 546.52 544.22 546.64 
2008 546.35 543.93 546.64 
2009 546.61 543.86 546.64 
2010 546.58 544.11 546.64 
2011 546.50 544.13 546.64 
2012 546.41 544.07 546.64 
2013 546.74 544.21 546.64 
2014 546.47 543.92 546.74 
2015 546.52 543.71 546.74 
2016 546.56 543.91 546.74 
2017 541.37 543.93 546.74 
2018 546.44 544.27 546.74 
2019 546.46 544.25 546.74 
2020 546.59 544.26 546.74 
2021 546.43 544.14 546.74 
2022 546.41 544.20 546.74 
2023 546.40 544.09 546.74 
2024 546.60 543.99 546.74 
2025 546.48 543.89 546.74 
2026 546.57 543.92 546.74 
2027 546.47 543.86 546.74 
2028 546.68 543.84 546.74 
2029 546.69 544.02 546.74 
2030 546.68 543.97 546.74 
2031 546.66 544.12 546.74 
2032 546.60 543.84 546.74 
2033 546.57 543.91 546.74 
2034 546.41 543.88 546.74 
2035 546.66 544.03 546.74 
2036 546.47 543.99 546.74 
2037 542.04 544.09 546.74 
2038 546.20 543.95 546.74 
2039 546.71 544.10 546.74 
2040 546.67 544.21 546.74 
2041 546.49 544.31 546.74 
2042 546.75 544.33 546.74 
2043 546.41 544.41 546.75 
2044 546.59 544.10 546.75 
2045 541.32 543.96 546.75 
2046 546.92 543.74 546.75 
2047 546.89 544.00 546.92 
2048 546.56 544.06 546.92 
2049 546.67 544.02 546.92 
2050 546.61 544.14 546.92 
2051 546.69 544.15 546.92 
2052 546.73 544.07 546.92 
2053 546.74 544.21 546.92 
2054 546.76 544.30 546.92 
2055 546.74 544.37 546.92 
2056 546.57 544.33 546.92 
2057 546.62 544.19 546.92 
2058 546.56 544.07 546.92 
2059 546.92 544.15 546.92 
2060 546.82 544.13 546.92 
2061 546.72 544.19 546.92 
2062 546.89 544.20 546.92 
2063 542.37 544.23 546.92 
2064 546.72 544.30 546.92 
2065 546.87 544.30 546.92 
2066 546.94 544.16 546.92 
2067 546.92 544.20 546.94 
2068 546.79 544.17 546.94 
2069 546.86 544.15 546.94 
2070 546.87 544.33 546.94 
2071 546.92 544.20 546.94 
2072 546.76 544.24 546.94 
2073 546.81 544.40 546.94 
2074 547.03 544.35 546.94 
2075 546.03 544.52 547.03 
2076 546.94 544.48 547.03 
2077 546.68 544.37 547.03 
2078 546.98 544.44 547.03 
2079 546.87 544.52 547.03 
2080 546.95 544.57 547.03 
2081 546.87 544.45 547.03 
2082 546.89 544.60 547.03 
2083 546.94 544.50 547.03 
2084 544.15 544.55 547.03 
2085 546.78 544.55 547.03 
2086 546.79 544.57 547.03 
2087 546.83 544.53 547.03 
2088 546.65 544.51 547.03 
2089 546.83 544.49 547.03 
2090 546.74 544.28 547.03 
2091 546.83 544.53 547.03 
2092 546.78 544.54 547.03 
2093 546.81 544.54 547.03 
2094 546.85 544.49 547.03 
2095 546.84 544.59 547.03 
2096 546.68 544.48 547.03 
2097 546.91 544.46 547.03 
2098 546.91 544.43 547.03 
2099 542.89 544.14 547.03 
2100 546.82 544.19 547.03 
2101 546.81 544.40 547.03 
2102 546.90 544.15 547.03 
2103 546.84 544.48 547.03 
2104 546.59 544.62 547.03 
2105 542.43 544.88 547.03 
2106 546.89 545.15 547.03 
2107 546.66 545.06 547.03 
2108 545.61 545.20 547.03 
2109 546.61 545.00 547.03 
2110 546.47 544.80 547.03 
2111 546.66 544.75 547.03 
2112 546.90 544.82 547.03 
2113 546.90 544.60 547.03 
2114 546.85 544.84 547.03 
2115 546.74 544.49 547.03 
2116 546.91 544.55 547.03 
2117 546.69 544.55 547.03 
2118 546.93 544.77 547.03 
2119 546.69 544.65 547.03 
2120 546.92 544.66 547.03 
2121 546.87 544.67 547.03 
2122 547.02 544.76 547.03 
2123 546.97 544.99 547.03 
2124 542.30 545.05 547.03 
2125 546.98 544.85 547.03 
2126 547.09 544.82 547.03 
2127 542.43 544.76 547.09 
2128 542.11 544.41 547.09 
2129 546.99 544.45 547.09 
2130 546.79 544.46 547.09 
2131 546.94 544.80 547.09 
2132 546.93 544.80 547.09 
2133 546.87 545.04 547.09 
2134 547.06 545.02 547.09 
2135 546.92 544.99 547.09 
2136 546.99 545.08 547.09 
2137 541.95 545.13 547.09 
2138 546.77 545.02 547.09 
2139 541.46 545.04 547.09 
2140 546.94 544.97 547.09 
2141 546.83 545.07 547.09 
2142 546.71 545.09 547.09 
2143 546.90 544.89 547.09 
2144 544.92 544.85 547.09 
2145 546.85 544.85 547.09 
2146 546.69 544.77 547.09 
2147 546.84 544.15 547.09 
2148 546.70 544.29 547.09 
2149 546.94 544.48 547.09 
2150 546.86 544.50 547.09 
2151 546.85 544.73 547.09 
2152 546.79 544.89 547.09 
2153 546.82 544.73 547.09 
2154 546.74 544.92 547.09 
2155 546.90 544.80 547.09 
2156 546.88 544.73 547.09 
2157 547.02 544.71 547.09 
2158 546.85 544.80 547.09 
2159 546.03 544.71 547.09 
2160 546.95 544.69 547.09 
2161 546.92 544.61 547.09 
2162 546.92 544.30 547.09 
2163 546.93 544.59 547.09 
2164 547.02 544.56 547.09 
2165 546.86 544.68 547.09 
2166 546.70 544.65 547.09 
2167 546.93 544.65 547.09 
2168 546.97 544.73 547.09 
2169 546.91 544.66 547.09 
2170 546.93 544.54 547.09 
2171 546.86 544.65 547.09 
2172 546.92 544.52 547.09 
2173 543.12 544.64 547.09 
2174 546.83 544.80 547.09 
2175 547.02 544.84 547.09 
2176 546.91 544.84 547.09 
2177 547.03 544.80 547.09 
2178 546.98 544.58 547.09 
2179 547.05 544.52 547.09 
2180 546.95 544.49 547.09 
2181 547.03 544.71 547.09 
2182 546.87 544.96 547.09 
2183 546.85 544.69 547.09 
2184 546.86 544.76 547.09 
2185 547.04 544.77 547.09 
2186 547.13 544.68 547.09 
2187 546.97 544.70 547.13 
2188 547.00 544.83 547.13 
2189 542.41 544.86 547.13 
2190 546.72 544.94 547.13 
2191 547.01 544.96 547.13 
2192 546.82 544.97 547.13 
2193 546.78 544.83 547.13 
2194 546.86 544.83 547.13 
2195 546.92 544.84 547.13 
2196 546.81 544.86 547.13 
2197 547.02 544.74 547.13 
2198 547.03 544.79 547.13 
2199 547.00 544.62 547.13 
2200 547.02 544.63 547.13 
2201 546.99 544.71 547.13 
2202 546.92 544.60 547.13 
2203 546.90 544.53 547.13 
2204 546.93 544.58 547.13 
2205 546.94 544.55 547.13 
2206 547.03 544.40 547.13 
2207 546.91 544.12 547.13 
2208 547.04 544.37 547.13 
2209 547.05 544.47 547.13 
2210 547.06 544.38 547.13 
2211 547.09 544.38 547.13 
2212 547.02 544.09 547.13 
2213 547.05 544.24 547.13 
2214 547.00 544.22 547.13 
2215 547.06 544.34 547.13 
2216 547.22 544.62 547.13 
2217 547.17 544.47 547.22 
2218 547.09 544.43 547.22 
2219 547.12 544.66 547.22 
2220 547.24 544.70 547.22 
2221 547.14 544.72 547.24 
2222 546.99 544.61 547.24 
2223 547.02 544.37 547.24 
2224 547.06 544.37 547.24 
2225 547.23 544.41 547.24 
2226 547.16 544.33 547.24 
2227 547.24 544.19 547.24 
2228 545.63 544.14 547.24 
2229 547.11 544.27 547.24 
2230 547.05 544.60 547.24 
2231 547.12 544.63 547.24 
2232 546.87 544.51 547.24 
2233 545.93 544.43 547.24 
2234 546.95 544.28 547.24 
2235 546.83 544.64 547.24 
2236 547.10 544.33 547.24 
2237 547.04 544.44 547.24 
2238 547.08 544.19 547.24 
2239 547.29 544.23 547.24 
2240 542.18 544.52 547.29 
2241 547.13 544.59 547.29 
2242 547.21 544.59 547.29 
2243 547.15 544.46 547.29 
2244 547.05 544.17 547.29 
2245 547.29 544.08 547.29 
2246 547.02 544.03 547.29 
2247 547.18 544.20 547.29 
2248 547.18 543.90 547.29 
2249 546.19 543.86 547.29 
2250 542.34 544.00 547.29 
2251 547.27 544.24 547.29 
2252 547.18 544.19 547.29 
2253 547.15 544.29 547.29 
2254 547.03 544.33 547.29 
2255 543.00 544.20 547.29 
2256 547.25 544.18 547.29 
2257 541.93 544.04 547.29 
2258 547.22 543.52 547.29 
2259 547.11 543.43 547.29 
2260 547.14 543.33 547.29 
2261 547.22 543.66 547.29 
2262 546.98 543.95 547.29 
2263 547.09 544.02 547.29 
2264 547.15 543.68 547.29 
2265 547.10 543.64 547.29 
2266 547.12 543.63 547.29 
2267 541.44 543.69 547.29 
2268 547.12 543.98 547.29 
2269 547.18 543.73 547.29 
2270 547.14 543.62 547.29 
2271 547.41 543.70 547.29 
2272 546.94 543.73 547.41 
2273 547.30 543.96 547.41 
2274 547.30 543.98 547.41 
2275 547.20 544.09 547.41 
2276 547.14 544.33 547.41 
2277 547.14 544.25 547.41 
2278 547.17 544.29 547.41 
2279 547.11 544.22 547.41 
2280 547.26 544.51 547.41 
2281 547.32 544.43 547.41 
2282 547.33 544.53 547.41 
2283 547.15 544.48 547.41 
2284 547.27 544.49 547.41 
2285 547.33 544.43 547.41 
2286 547.28 544.50 547.41 
2287 547.28 544.50 547.41 
2288 547.44 544.32 547.41 
2289 547.28 544.31 547.44 
2290 547.32 544.29 547.44 
2291 547.26 544.36 547.44 
2292 547.33 544.28 547.44 
2293 547.33 544.13 547.44 
2294 547.22 544.24 547.44 
2295 547.13 543.93 547.44 
2296 547.14 543.97 547.44 
2297 547.28 543.51 547.44 
2298 547.17 543.76 547.44 
2299 547.16 543.61 547.44 
2300 547.13 543.63 547.44 
2301 547.12 543.85 547.44 
2302 547.20 544.20 547.44 
2303 547.20 544.05 547.44 
2304 542.65 544.23 547.44 
2305 547.28 544.17 547.44 
2306 547.08 544.29 547.44 
2307 547.04 544.13 547.44 
2308 547.19 544.34 547.44 
2309 547.20 544.32 547.44 
2310 547.04 544.18 547.44 
2311 547.05 544.29 547.44 
2312 539.80 544.07 547.44 
2313 547.23 544.17 547.44 
2314 547.19 544.04 547.44 
2315 547.25 544.11 547.44 
2316 547.27 544.00 547.44 
2317 547.28 543.86 547.44 
2318 547.33 543.37 547.44 
2319 547.16 543.49 547.44 
2320 547.14 543.62 547.44 
2321 547.20 543.52 547.44 
2322 547.06 543.82 547.44 
2323 547.23 544.06 547.44 
2324 547.24 544.20 547.44 
2325 547.13 544.14 547.44 
2326 547.11 544.25 547.44 
2327 543.06 544.42 547.44 
2328 547.09 544.55 547.44 
2329 547.00 544.60 547.44 
2330 547.21 544.79 547.44 
2331 547.07 544.69 547.44 
2332 547.12 544.43 547.44 
2333 547.22 544.39 547.44 
2334 547.05 544.51 547.44 
2335 547.26 544.34 547.44 
2336 547.36 544.26 547.44 
2337 547.53 544.40 547.44 
2338 542.90 544.48 547.53 
2339 547.24 544.32 547.53 
2340 547.38 544.32 547.53 
2341 547.36 544.36 547.53 
2342 547.17 544.21 547.53 
2343 547.21 544.23 547.53 
2344 547.23 544.34 547.53 
2345 547.13 544.54 547.53 
2346 547.40 544.61 547.53 
2347 547.18 544.73 547.53 
2348 547.31 544.72 547.53 
2349 547.27 544.60 547.53 
2350 547.37 544.54 547.53 
2351 547.24 544.50 547.53 
2352 542.60 544.24 547.53 
2353 547.30 544.15 547.53 
2354 547.26 544.21 547.53 
2355 547.23 544.35 547.53 
2356 540.92 544.16 547.53 
2357 547.16 544.37 547.53 
2358 547.05 544.26 547.53 
2359 541.70 544.23 547.53 
2360 547.46 543.92 547.53 
2361 547.20 544.26 547.53 
2362 547.24 544.24 547.53 
2363 547.22 544.00 547.53 
2364 547.13 544.02 547.53 
2365 547.09 543.86 547.53 
2366 545.70 543.83 547.53 
2367 547.28 544.22 547.53 
2368 547.22 543.97 547.53 
2369 547.19 544.05 547.53 
2370 547.22 544.16 547.53 
2371 547.30 544.06 547.53 
2372 541.61 543.89 547.53 
2373 547.11 543.93 547.53 
2374 546.94 543.84 547.53 
2375 546.93 543.62 547.53 
2376 547.11 543.79 547.53 
2377 547.13 543.54 547.53 
2378 547.12 543.46 547.53 
2379 547.06 543.66 547.53 
2380 547.15 543.87 547.53 
2381 547.19 543.82 547.53 
2382 547.34 543.90 547.53 
2383 547.29 543.96 547.53 
2384 542.36 543.94 547.53 
2385 547.30 543.82 547.53 
2386 547.03 543.86 547.53 
2387 547.07 543.93 547.53 
2388 547.14 543.94 547.53 
2389 547.36 544.12 547.53 
2390 547.14 544.08 547.53 
2391 547.06 544.21 547.53 
2392 547.31 544.16 547.53 
2393 547.38 543.74 547.53 
2394 547.30 543.61 547.53 
2395 547.32 543.81 547.53 
2396 547.36 543.71 547.53 
2397 547.37 543.72 547.53 
2398 547.41 543.74 547.53 
2399 547.34 543.82 547.53 
2400 547.53 543.86 547.53 
2401 547.27 543.71 547.53 
2402 547.58 543.87 547.53 
2403 547.28 543.85 547.58 
2404 547.38 543.84 547.58 
2405 547.35 538.69 547.58 
2406 547.37 543.56 547.58 
2407 545.18 544.07 547.58 
2408 547.30 543.98 547.58 
2409 547.34 540.53 547.58 
2410 547.48 535.63 547.58 
2411 547.43 539.65 547.58 
2412 547.27 539.35 547.58 
2413 547.37 537.87 547.58 
2414 547.32 543.61 547.58 
2415 547.34 543.83 547.58 
2416 547.39 543.91 547.58 
2417 547.48 543.82 547.58 
2418 547.43 543.40 547.58 
2419 547.47 543.66 547.58 
2420 547.50 543.56 547.58 
2421 532.58 543.75 547.58 
2422 542.14 543.58 547.58 
2423 537.44 543.69 547.58 
2424 545.60 543.76 547.58 
2425 546.59 543.69 547.58 
2426 547.23 542.22 547.58 
2427 547.27 542.48 547.58 
2428 547.15 543.69 547.58 
2429 547.21 543.71 547.58 
2430 547.19 543.58 547.58 
2431 547.21 543.56 547.58 
2432 547.26 543.74 547.58 
2433 547.28 541.65 547.58 
2434 547.27 542.78 547.58 
2435 547.32 542.21 547.58 
2436 547.32 543.33 547.58 
2437 547.42 543.23 547.58 
2438 546.96 543.09 547.58 
2439 547.30 543.41 547.58 
2440 547.44 543.07 547.58 
2441 547.41 543.10 547.58 
2442 547.35 543.52 547.58 
2443 547.44 543.50 547.58 
2444 547.48 543.21 547.58 
2445 547.52 542.86 547.58 
2446 547.48 543.07 547.58 
2447 547.61 543.56 547.58 
2448 547.55 543.36 547.61 
2449 547.65 543.46 547.61 
2450 547.59 543.51 547.65 
2451 547.44 543.31 547.65 
2452 547.46 543.33 547.65 
2453 547.66 543.60 547.65 
2454 547.60 543.65 547.66 
2455 545.11 543.66 547.66 
2456 547.43 544.02 547.66 
2457 547.49 544.31 547.66 
2458 547.25 544.39 547.66 
2459 547.34 544.32 547.66 
2460 547.25 544.36 547.66 
2461 547.67 544.32 547.66 
2462 547.50 544.17 547.67 
2463 547.50 544.15 547.67 
2464 547.42 544.19 547.67 
2465 545.04 544.14 547.67 
2466 547.54 544.06 547.67 
2467 547.67 544.25 547.67 
2468 547.45 544.21 547.67 
2469 543.55 544.22 547.67 
2470 547.50 543.70 547.67 
2471 547.53 543.65 547.67 
2472 547.48 543.98 547.67 
2473 547.31 543.93 547.67 
2474 547.14 543.75 547.67 
2475 547.32 543.58 547.67 
2476 547.39 543.75 547.67 
2477 547.60 543.78 547.67 
2478 547.51 543.83 547.67 
2479 547.56 543.84 547.67 
2480 547.57 542.86 547.67 
2481 547.59 543.20 547.67 
2482 542.95 542.56 547.67 
2483 547.61 541.74 547.67 
2484 547.66 541.80 547.67 
2485 547.52 542.12 547.67 
2486 547.58 542.86 547.67 
2487 547.63 543.18 547.67 
2488 547.48 542.69 547.67 
2489 542.63 542.80 547.67 
2490 547.71 542.71 547.67 
2491 547.50 542.74 547.71 
2492 547.68 542.23 547.71 
2493 547.64 542.88 547.71 
2494 543.34 542.99 547.71 
2495 547.41 543.59 547.71 
2496 547.65 543.43 547.71 
2497 547.64 543.54 547.71 
2498 547.74 543.74 547.71 
2499 547.59 543.71 547.74 
2500 547.64 543.61 547.74 
2501 547.70 543.59 547.74 
2502 547.64 543.65 547.74 
2503 547.68 543.49 547.74 
2504 547.69 543.57 547.74 
2505 547.51 543.34 547.74 
2506 543.44 543.01 547.74 
2507 542.67 543.26 547.74 
2508 547.59 543.13 547.74 
2509 547.64 543.33 547.74 
2510 547.64 543.29 547.74 
2511 547.54 543.48 547.74 
2512 547.64 543.48 547.74 
2513 547.65 543.90 547.74 
2514 539.74 543.79 547.74 
2515 542.08 544.00 547.74 
2516 547.55 544.02 547.74 
2517 547.52 544.14 547.74 
2518 547.35 544.18 547.74 
2519 547.46 544.06 547.74 
2520 547.63 543.93 547.74 
2521 547.42 543.96 547.74 
2522 547.46 543.78 547.74 
2523 543.08 543.51 547.74 
2524 547.68 543.69 547.74 
2525 547.63 543.45 547.74 
2526 547.67 543.53 547.74 
2527 547.67 543.43 547.74 
2528 547.55 543.24 547.74 
2529 547.45 543.32 547.74 
2530 543.54 543.66 547.74 
2531 547.73 543.69 547.74 
2532 547.63 543.56 547.74 
2533 547.72 543.62 547.74 
2534 547.46 543.69 547.74 
2535 547.69 543.70 547.74 
2536 547.77 543.76 547.74 
2537 547.39 543.76 547.77 
2538 547.62 543.72 547.77 
2539 547.01 543.74 547.77 
2540 547.56 543.78 547.77 
2541 547.71 543.65 547.77 
2542 543.19 543.49 547.77 
2543 547.73 542.88 547.77 
2544 543.30 542.68 547.77 
2545 546.14 542.94 547.77 
2546 547.51 542.53 547.77 
2547 547.47 541.69 547.77 
2548 547.35 541.46 547.77 
2549 547.31 541.48 547.77 
2550 547.17 541.10 547.77 
2551 547.35 541.18 547.77 
2552 543.12 542.38 547.77 
2553 547.45 542.50 547.77 
2554 547.41 542.15 547.77 
2555 547.36 542.16 547.77 
2556 542.15 542.03 547.77 
2557 547.49 541.69 547.77 
2558 547.34 542.16 547.77 
2559 547.62 541.64 547.77 
2560 547.53 540.32 547.77 
2561 547.72 541.65 547.77 
2562 547.68 541.78 547.77 
2563 547.71 540.87 547.77 
2564 547.67 539.73 547.77 
2565 547.73 537.92 547.77 
2566 547.65 537.73 547.77 
2567 547.84 538.53 547.77 
2568 547.81 539.59 547.84 
2569 547.79 537.90 547.84 
2570 543.28 536.24 547.84 
2571 547.83 536.74 547.84 
2572 545.90 540.30 547.84 
2573 547.60 540.21 547.84 
2574 547.61 540.63 547.84 
2575 547.63 541.32 547.84 
2576 546.34 541.32 547.84 
2577 547.53 541.55 547.84 
2578 547.57 540.98 547.84 
2579 547.55 541.55 547.84 
2580 547.39 541.02 547.84 
2581 547.59 540.40 547.84 
2582 547.50 540.06 547.84 
2583 547.65 540.33 547.84 
2584 547.51 538.31 547.84 
2585 547.61 538.92 547.84 
2586 547.83 538.86 547.84 
2587 547.70 539.25 547.84 
2588 547.84 538.29 547.84 
2589 547.84 537.63 547.84 
2590 546.33 536.92 547.84 
2591 547.75 537.60 547.84 
2592 547.84 539.16 547.84 
2593 547.77 539.63 547.84 
2594 547.82 539.74 547.84 
2595 542.12 539.82 547.84 
2596 547.72 539.79 547.84 
2597 547.78 540.73 547.84 
2598 547.73 540.17 547.84 
2599 547.72 540.23 547.84 
2600 547.69 540.29 547.84 
2601 542.03 540.31 547.84 
2602 541.71 539.52 547.84 
2603 547.58 538.09 547.84 
2604 547.55 538.39 547.84 
2605 547.66 538.99 547.84 
2606 547.80 538.01 547.84 
2607 547.90 538.41 547.84 
2608 547.49 538.26 547.90 
2609 547.70 537.08 547.90 
2610 547.70 538.01 547.90 
2611 547.61 539.90 547.90 
2612 547.71 539.26 547.90 
2613 547.60 538.36 547.90 
2614 547.55 537.94 547.90 
2615 547.63 537.78 547.90 
2616 541.94 537.74 547.90 
2617 547.63 538.52 547.90 
2618 543.04 538.56 547.90 
2619 547.58 537.23 547.90 
2620 547.44 536.10 547.90 
2621 547.42 536.19 547.90 
2622 547.61 536.71 547.90 
2623 547.46 538.95 547.90 
2624 547.46 538.01 547.90 
2625 547.65 538.98 547.90 
2626 547.72 538.94 547.90 
2627 542.19 539.46 547.90 
2628 547.39 539.20 547.90 
2629 547.64 539.16 547.90 
2630 547.47 538.27 547.90 
2631 547.72 538.33 547.90 
2632 547.68 539.05 547.90 
2633 547.65 539.27 547.90 
2634 547.60 539.07 547.90 
2635 543.32 538.19 547.90 
2636 547.58 538.45 547.90 
2637 547.60 537.68 547.90 
2638 541.59 537.37 547.90 
2639 547.21 536.25 547.90 
2640 547.08 535.31 547.90 
2641 547.24 535.52 547.90 
2642 547.44 536.44 547.90 
2643 547.35 536.64 547.90 
2644 547.43 535.03 547.90 
2645 547.24 535.02 547.90 
2646 547.14 534.84 547.90 
2647 547.48 537.41 547.90 
2648 543.08 537.35 547.90 
2649 547.64 534.86 547.90 
2650 547.44 536.61 547.90 
2651 547.23 537.73 547.90 
2652 547.69 538.75 547.90 
2653 547.48 539.70 547.90 
2654 542.31 537.30 547.90 
2655 542.67 538.24 547.90 
2656 547.49 539.33 547.90 
2657 547.41 539.44 547.90 
2658 547.73 539.72 547.90 
2659 547.61 538.82 547.90 
2660 547.45 538.83 547.90 
2661 547.64 539.75 547.90 
2662 538.34 540.47 547.90 
2663 547.24 540.24 547.90 
2664 547.45 540.12 547.90 
2665 547.63 539.94 547.90 
2666 547.52 539.42 547.90 
2667 547.41 538.57 547.90 
2668 547.58 538.29 547.90 
2669 546.19 538.18 547.90 
2670 547.46 538.74 547.90 
2671 547.47 539.46 547.90 
2672 547.54 538.34 547.90 
2673 547.58 538.39 547.90 
2674 547.59 538.40 547.90 
2675 547.33 537.06 547.90 
2676 547.49 535.54 547.90 
2677 547.57 533.66 547.90 
2678 547.79 533.68 547.90 
2679 547.69 530.73 547.90 
2680 547.65 529.41 547.90 
2681 547.61 530.23 547.90 
2682 547.66 530.49 547.90 
2683 547.86 531.70 547.90 
2684 547.75 530.47 547.90 
2685 547.84 530.29 547.90 
2686 547.74 531.39 547.90 
2687 547.78 535.04 547.90 
2688 547.77 537.17 547.90 
2689 547.79 533.77 547.90 
2690 547.85 537.48 547.90 
2691 547.67 536.47 547.90 
2692 547.72 537.65 547.90 
2693 547.82 535.43 547.90 
2694 547.87 531.60 547.90 
2695 547.98 533.04 547.90 
2696 547.83 534.82 547.98 
2697 548.03 531.53 547.98 
2698 547.90 530.40 548.03 
2699 547.79 528.35 548.03 
2700 547.93 530.12 548.03 
2701 547.62 533.31 548.03 
2702 547.90 531.79 548.03 
2703 547.95 535.11 548.03 
2704 547.76 534.91 548.03 
2705 547.76 532.15 548.03 
2706 547.82 530.45 548.03 
2707 547.83 527.81 548.03 
2708 547.78 530.45 548.03 
2709 547.84 534.17 548.03 
2710 547.77 531.25 548.03 
2711 547.84 530.40 548.03 
2712 547.79 530.54 548.03 
2713 542.10 530.37 548.03 
2714 547.93 529.75 548.03 
2715 547.82 503.55 548.03 
2716 547.87 517.34 548.03 
2717 547.65 527.32 548.03 
2718 547.95 530.05 548.03 
2719 542.92 529.06 548.03 
2720 542.30 530.56 548.03 
2721 547.88 528.95 548.03 
2722 547.90 531.58 548.03 
2723 547.80 531.52 548.03 
2724 547.86 531.91 548.03 
2725 547.98 534.44 548.03 
2726 547.92 533.30 548.03 
2727 547.94 536.60 548.03 
2728 548.06 533.68 548.03 
2729 547.97 531.93 548.06 
2730 547.93 536.25 548.06 
2731 547.99 536.78 548.06 
2732 548.08 535.91 548.06 
2733 548.06 538.48 548.08 
2734 547.87 537.12 548.08 
2735 547.83 539.78 548.08 
2736 547.88 538.91 548.08 
2737 548.04 538.20 548.08 
2738 543.63 538.01 548.08 
2739 548.05 536.98 548.08 
2740 547.89 536.53 548.08 
2741 547.91 536.68 548.08 
2742 547.94 537.20 548.08 
2743 547.93 537.03 548.08 
2744 547.55 537.90 548.08 
2745 547.90 537.23 548.08 
2746 547.90 535.18 548.08 
2747 547.91 534.38 548.08 
2748 547.91 534.35 548.08 
2749 547.91 529.94 548.08 
2750 547.83 533.96 548.08 
2751 547.99 536.43 548.08 
2752 547.90 532.82 548.08 
2753 547.82 531.89 548.08 
2754 547.95 530.38 548.08 
2755 547.93 530.35 548.08 
2756 547.95 537.08 548.08 
2757 547.99 536.09 548.08 
2758 548.03 536.50 548.08 
2759 548.05 535.81 548.08 
2760 543.27 538.00 548.08 
2761 547.88 537.74 548.08 
2762 547.78 537.88 548.08 
2763 547.84 539.11 548.08 
2764 547.66 539.24 548.08 
2765 547.76 541.02 548.08 
2766 547.96 541.12 548.08 
2767 547.93 541.14 548.08 
2768 548.09 541.94 548.08 
2769 548.02 540.71 548.09 
2770 547.91 541.09 548.09 
2771 547.82 540.42 548.09 
2772 548.02 540.55 548.09 
2773 547.91 540.86 548.09 
2774 548.08 541.06 548.09 
2775 548.03 541.48 548.09 
2776 548.01 542.09 548.09 
2777 548.00 542.11 548.09 
2778 548.05 542.22 548.09 
2779 548.12 541.22 548.09 
2780 548.10 540.92 548.12 
2781 548.01 541.26 548.12 
2782 548.05 540.63 548.12 
2783 547.97 541.02 548.12 
2784 547.81 539.02 548.12 
2785 547.92 537.77 548.12 
2786 547.86 539.71 548.12 
2787 548.11 540.80 548.12 
2788 543.29 538.82 548.12 
2789 548.02 538.24 548.12 
2790 547.80 538.83 548.12 
2791 547.93 540.59 548.12 
2792 547.94 540.60 548.12 
2793 547.78 540.34 548.12 
2794 543.24 541.76 548.12 
2795 547.93 542.44 548.12 
2796 547.71 541.95 548.12 
2797 547.82 542.10 548.12 
2798 547.97 542.53 548.12 
2799 547.87 542.82 548.12 
2800 543.57 543.17 548.12 
2801 547.75 543.27 548.12 
2802 547.60 542.53 548.12 
2803 547.77 542.60 548.12 
2804 547.74 543.08 548.12 
2805 547.68 543.20 548.12 
2806 547.75 542.65 548.12 
2807 547.89 542.63 548.12 
2808 547.82 541.80 548.12 
2809 547.80 541.78 548.12 
2810 547.79 542.02 548.12 
2811 547.79 542.01 548.12 
2812 547.90 542.28 548.12 
2813 547.97 542.87 548.12 
2814 547.87 542.56 548.12 
2815 548.03 542.71 548.12 
2816 547.88 541.69 548.12 
2817 547.88 541.87 548.12 
2818 547.96 541.99 548.12 
2819 547.96 541.74 548.12 
2820 547.88 542.06 548.12 
2821 543.47 541.86 548.12 
2822 547.88 541.93 548.12 
2823 548.00 541.92 548.12 
2824 547.97 541.86 548.12 
2825 548.03 541.62 548.12 
2826 547.86 541.08 548.12 
2827 548.09 541.69 548.12 
2828 548.04 540.75 548.12 
2829 547.89 540.83 548.12 
2830 548.00 541.57 548.12 
2831 548.02 541.59 548.12 
2832 547.83 541.78 548.12 
2833 547.89 541.67 548.12 
2834 547.99 541.36 548.12 
2835 547.95 540.52 548.12 
2836 543.52 540.43 548.12 
2837 548.08 539.42 548.12 
2838 548.09 539.59 548.12 
2839 548.08 539.85 548.12 
2840 548.10 537.67 548.12 
2841 548.05 537.63 548.12 
2842 548.04 538.63 548.12 
2843 548.07 540.34 548.12 
2844 548.08 540.78 548.12 
2845 548.08 540.02 548.12 
2846 548.11 537.85 548.12 
2847 548.10 538.88 548.12 
2848 548.18 537.63 548.12 
2849 548.09 534.96 548.18 
2850 548.16 537.36 548.18 
2851 548.06 537.16 548.18 
2852 548.07 538.42 548.18 
2853 547.96 534.95 548.18 
2854 548.15 535.98 548.18 
2855 548.15 537.55 548.18 
2856 548.18 537.92 548.18 
2857 548.22 536.24 548.18 
2858 548.22 536.07 548.22 
2859 548.27 536.58 548.22 
2860 548.21 535.49 548.27 
2861 548.11 534.94 548.27 
2862 548.12 533.86 548.27 
2863 548.05 534.94 548.27 
2864 548.13 536.99 548.27 
2865 548.12 535.64 548.27 
2866 548.14 534.78 548.27 
2867 548.26 535.27 548.27 
2868 548.21 536.26 548.27 
2869 548.18 537.97 548.27 
2870 548.18 539.41 548.27 
2871 548.30 535.91 548.27 
2872 548.34 534.16 548.30 
2873 548.27 534.84 548.34 
2874 548.11 538.17 548.34 
2875 548.25 539.54 548.34 
2876 548.25 539.29 548.34 
2877 548.18 538.87 548.34 
2878 548.28 537.82 548.34 
2879 548.33 537.47 548.34 
2880 548.23 538.20 548.34 
2881 548.19 538.03 548.34 
2882 543.74 538.67 548.34 
2883 548.19 535.48 548.34 
2884 548.14 535.73 548.34 
2885 548.04 535.38 548.34 
2886 548.12 537.65 548.34 
2887 548.15 539.32 548.34 
2888 548.10 537.99 548.34 
2889 548.05 536.11 548.34 
2890 548.18 537.17 548.34 
2891 548.14 536.26 548.34 
2892 548.12 533.10 548.34 
2893 548.17 531.90 548.34 
2894 548.22 530.56 548.34 
2895 548.37 531.12 548.34 
2896 548.17 531.26 548.37 
2897 548.09 532.01 548.37 
2898 548.17 534.93 548.37 
2899 542.81 535.56 548.37 
2900 548.17 537.51 548.37 
2901 548.30 537.79 548.37 
2902 548.15 540.47 548.37 
2903 548.09 541.01 548.37 
2904 547.93 541.37 548.37 
2905 547.94 539.74 548.37 
2906 547.95 539.49 548.37 
2907 548.07 536.42 548.37 
2908 548.02 537.72 548.37 
2909 543.59 541.31 548.37 
2910 548.00 538.85 548.37 
2911 548.08 537.96 548.37 
2912 548.11 538.16 548.37 
2913 547.70 537.72 548.37 
2914 547.99 541.72 548.37 
2915 547.97 541.72 548.37 
2916 548.06 542.48 548.37 
2917 548.05 542.97 548.37 
2918 548.11 541.57 548.37 
2919 548.15 538.75 548.37 
2920 548.17 537.51 548.37 
2921 548.25 537.89 548.37 
2922 548.11 537.04 548.37 
2923 548.11 538.40 548.37 
2924 548.12 539.36 548.37 
2925 548.25 538.89 548.37 
2926 548.10 538.90 548.37 
2927 548.22 539.02 548.37 
2928 548.15 539.07 548.37 
2929 548.18 539.88 548.37 
2930 548.18 541.02 548.37 
2931 548.13 540.40 548.37 
2932 548.22 539.88 548.37 
2933 548.38 537.52 548.37 
2934 548.18 538.07 548.38 
2935 548.19 538.37 548.38 
2936 548.27 538.52 548.38 
2937 548.26 537.17 548.38 
2938 548.21 538.04 548.38 
2939 548.23 538.49 548.38 
2940 548.17 534.14 548.38 
2941 548.22 533.39 548.38 
2942 548.22 533.64 548.38 
2943 548.22 536.49 548.38 
2944 548.14 539.28 548.38 
2945 548.15 536.30 548.38 
2946 548.14 538.01 548.38 
2947 548.17 539.00 548.38 
2948 548.30 536.82 548.38 
2949 543.83 538.17 548.38 
2950 548.21 536.68 548.38 
2951 548.19 536.88 548.38 
2952 548.16 539.53 548.38 
2953 548.23 539.57 548.38 
2954 548.22 538.30 548.38 
2955 548.18 536.01 548.38 
2956 548.16 530.13 548.38 
2957 548.02 528.92 548.38 
2958 548.15 528.98 548.38 
2959 547.97 530.09 548.38 
2960 548.12 530.00 548.38 
2961 548.20 530.32 548.38 
2962 548.10 530.51 548.38 
2963 548.26 534.62 548.38 
2964 542.77 535.50 548.38 
2965 547.68 537.78 548.38 
2966 547.98 531.56 548.38 
2967 548.23 530.97 548.38 
2968 541.62 531.55 548.38 
2969 548.22 531.28 548.38 
2970 548.26 531.89 548.38 
2971 548.21 532.71 548.38 
2972 547.46 531.44 548.38 
2973 548.19 531.33 548.38 
2974 548.29 531.41 548.38 
2975 548.23 530.37 548.38 
2976 548.24 531.25 548.38 
2977 548.09 530.15 548.38 
2978 548.24 530.90 548.38 
2979 548.15 530.94 548.38 
2980 548.23 531.49 548.38 
2981 548.33 534.77 548.38 
2982 548.28 537.30 548.38 
2983 548.24 537.97 548.38 
2984 548.34 537.10 548.38 
2985 548.25 537.46 548.38 
2986 548.26 538.74 548.38 
2987 543.74 539.09 548.38 
2988 548.35 539.39 548.38 
2989 548.11 536.00 548.38 
2990 548.27 536.32 548.38 
2991 548.15 536.07 548.38 
2992 548.19 531.22 548.38 
2993 548.28 530.77 548.38 
2994 547.99 535.11 548.38 
2995 548.08 536.99 548.38 
2996 548.16 536.58 548.38 
2997 548.03 535.61 548.38 
2998 548.02 535.94 548.38 
2999 548.18 536.53 548.38 
3000 548.29 537.44 548.38 
3001 543.25 536.65 548.38 
3002 548.25 533.45 548.38 
3003 548.26 530.81 548.38 
3004 548.17 532.85 548.38 
3005 548.23 534.84 548.38 
3006 548.21 537.20 548.38 
3007 548.22 539.39 548.38 
3008 548.12 539.21 548.38 
3009 548.13 538.22 548.38 
3010 548.22 537.50 548.38 
3011 548.12 538.80 548.38 
3012 546.44 539.37 548.38 
3013 548.16 537.59 548.38 
3014 548.08 537.23 548.38 
3015 548.02 536.70 548.38 
3016 548.10 537.41 548.38 
3017 548.14 538.90 548.38 
3018 548.12 539.68 548.38 
3019 548.16 540.57 548.38 
3020 547.89 540.21 548.38 
3021 548.03 541.11 548.38 
3022 548.06 540.99 548.38 
3023 548.03 540.44 548.38 
3024 548.14 541.04 548.38 
3025 548.09 539.79 548.38 
3026 542.39 539.92 548.38 
3027 548.14 538.31 548.38 
3028 548.13 538.32 548.38 
3029 548.13 538.61 548.38 
3030 543.23 536.65 548.38 
3031 548.07 536.58 548.38 
3032 542.55 534.24 548.38 
3033 548.00 532.40 548.38 
3034 547.97 534.76 548.38 
3035 547.94 533.23 548.38 
3036 548.18 530.98 548.38 
3037 548.05 530.27 548.38 
3038 542.81 530.00 548.38 
3039 547.98 531.02 548.38 
3040 547.98 531.80 548.38 
3041 548.07 531.06 548.38 
3042 543.22 536.85 548.38 
3043 547.97 536.24 548.38 
3044 547.85 532.37 548.38 
3045 547.84 531.92 548.38 
3046 547.93 531.71 548.38 
3047 543.89 532.00 548.38 
3048 539.00 536.93 548.38 
3049 547.75 530.88 548.38 
3050 547.87 531.49 548.38 
3051 547.86 530.72 548.38 
3052 547.84 530.33 548.38 
3053 547.86 531.64 548.38 
3054 541.84 530.94 548.38 
3055 547.91 531.85 548.38 
3056 537.08 538.04 548.38 
3057 547.83 533.57 548.38 
3058 547.56 537.73 548.38 
3059 547.80 536.88 548.38 
3060 547.72 531.94 548.38 
3061 547.71 531.14 548.38 
3062 547.80 531.93 548.38 
3063 547.83 532.03 548.38 
3064 547.72 531.93 548.38 
3065 547.84 531.78 548.38 
3066 547.94 532.17 548.38 
3067 548.02 529.58 548.38 
3068 548.00 530.35 548.38 
3069 548.17 531.60 548.38 
3070 541.22 531.86 548.38 
3071 542.88 530.96 548.38 
3072 547.85 533.36 548.38 
3073 547.81 531.19 548.38 
3074 548.00 531.33 548.38 
3075 548.12 531.97 548.38 
3076 547.88 531.40 548.38 
3077 547.94 531.16 548.38 
3078 548.02 531.02 548.38 
3079 548.17 531.28 548.38 
3080 548.00 531.32 548.38 
3081 548.01 531.54 548.38 
3082 547.95 530.24 548.38 
3083 548.01 530.56 548.38 
3084 547.95 530.47 548.38 
3085 548.00 530.87 548.38 
3086 548.05 531.54 548.38 
3087 548.15 530.64 548.38 
3088 548.03 530.64 548.38 
3089 548.24 532.03 548.38 
3090 548.00 533.06 548.38 
3091 548.10 532.59 548.38 
3092 548.11 534.02 548.38 
3093 548.02 536.04 548.38 
3094 548.01 536.16 548.38 
3095 548.09 536.89 548.38 
3096 548.02 534.74 548.38 
3097 548.08 534.70 548.38 
3098 548.13 536.04 548.38 
3099 548.10 536.44 548.38 
3100 548.09 537.38 548.38 
3101 548.15 539.48 548.38 
3102 548.19 538.76 548.38 
3103 548.16 539.90 548.38 
3104 548.02 540.84 548.38 
3105 548.07 539.45 548.38 
3106 548.04 540.53 548.38 
3107 548.07 541.02 548.38 
3108 548.21 540.68 548.38 
3109 542.59 540.64 548.38 
3110 548.14 538.73 548.38 
3111 547.99 539.29 548.38 
3112 548.16 538.64 548.38 
3113 548.06 538.08 548.38 
3114 548.06 536.86 548.38 
3115 548.10 537.33 548.38 
3116 548.15 536.94 548.38 
3117 548.07 536.59 548.38 
3118 543.11 537.27 548.38 
3119 548.15 535.29 548.38 
3120 548.15 535.89 548.38 
3121 548.08 536.75 548.38 
3122 548.06 537.51 548.38 
3123 547.91 537.71 548.38 
3124 548.01 537.97 548.38 
3125 548.10 537.97 548.38 
3126 547.95 538.31 548.38 
3127 548.14 537.39 548.38 
3128 548.00 537.46 548.38 
3129 548.10 538.19 548.38 
3130 548.08 538.08 548.38 
3131 547.99 538.37 548.38 
3132 548.18 539.12 548.38 
3133 548.07 538.56 548.38 
3134 548.16 538.88 548.38 
3135 548.14 538.47 548.38 
3136 548.08 538.69 548.38 
3137 548.19 540.42 548.38 
3138 548.21 538.45 548.38 
3139 548.25 536.58 548.38 
3140 548.22 537.06 548.38 
3141 542.94 539.62 548.38 
3142 548.13 538.04 548.38 
3143 548.15 538.57 548.38 
3144 548.23 539.35 548.38 
3145 548.12 538.34 548.38 
3146 548.15 537.96 548.38 
3147 548.27 538.38 548.38 
3148 548.25 540.28 548.38 
3149 548.18 540.20 548.38 
3150 548.22 539.32 548.38 
3151 548.15 539.86 548.38 
3152 548.26 540.64 548.38 
3153 548.17 539.48 548.38 
3154 548.35 539.30 548.38 
3155 548.26 539.64 548.38 
3156 548.31 539.77 548.38 
3157 548.23 540.95 548.38 
3158 548.27 540.32 548.38 
3159 548.40 539.66 548.38 
3160 548.32 540.11 548.40 
3161 548.31 540.16 548.40 
3162 548.22 540.93 548.40 
3163 548.26 540.73 548.40 
3164 548.35 539.66 548.40 
3165 548.24 539.89 548.40 
3166 544.20 540.20 548.40 
3167 548.34 540.73 548.40 
3168 548.27 540.67 548.40 
3169 548.13 541.14 548.40 
3170 548.14 541.45 548.40 
3171 548.05 541.23 548.40 
3172 548.01 540.30 548.40 
3173 548.18 540.80 548.40 
3174 548.22 540.75 548.40 
3175 548.36 539.53 548.40 
3176 548.26 539.98 548.40 
3177 548.26 539.17 548.40 
3178 548.28 539.25 548.40 
3179 548.34 538.54 548.40 
3180 542.83 537.84 548.40 
3181 548.30 536.96 548.40 
3182 548.20 534.87 548.40 
3183 548.41 535.65 548.40 
3184 548.26 535.77 548.41 
3185 548.26 537.70 548.41 
3186 548.24 537.11 548.41 
3187 548.35 537.73 548.41 
3188 548.27 537.51 548.41 
3189 548.31 537.15 548.41 
3190 548.41 537.63 548.41 
3191 548.37 537.97 548.41 
3192 548.26 538.91 548.41 
3193 548.32 539.23 548.41 
3194 547.09 540.24 548.41 
3195 548.41 540.10 548.41 
3196 548.40 540.02 548.41 
3197 548.18 539.82 548.41 
3198 548.20 539.51 548.41 
3199 548.14 538.93 548.41 
3200 548.24 539.31 548.41 
3201 548.27 538.70 548.41 
3202 548.25 538.16 548.41 
3203 548.28 538.56 548.41 
3204 548.20 538.30 548.41 
3205 543.67 538.61 548.41 
3206 548.12 536.86 548.41 
3207 548.19 536.86 548.41 
3208 548.13 537.38 548.41 
3209 548.17 537.51 548.41 
3210 548.13 537.39 548.41 
3211 548.22 537.92 548.41 
3212 548.21 537.95 548.41 
3213 548.18 536.96 548.41 
3214 548.04 536.73 548.41 
3215 548.16 536.46 548.41 
3216 548.15 537.67 548.41 
3217 545.02 537.62 548.41 
3218 548.12 538.45 548.41 
3219 548.03 536.62 548.41 
3220 548.19 537.22 548.41 
3221 548.22 537.48 548.41 
3222 548.19 538.75 548.41 
3223 548.12 539.24 548.41 
3224 548.23 538.25 548.41 
3225 548.17 538.27 548.41 
3226 548.18 538.67 548.41 
3227 548.26 539.50 548.41 
3228 548.32 540.69 548.41 
3229 548.20 541.05 548.41 
3230 548.34 540.40 548.41 
3231 548.33 540.06 548.41 
3232 548.26 540.05 548.41 
3233 548.01 539.05 548.41 
3234 548.33 538.20 548.41 
3235 548.15 537.54 548.41 
3236 548.18 537.08 548.41 
3237 548.21 537.44 548.41 
3238 548.20 537.89 548.41 
3239 548.35 538.45 548.41 
3240 548.38 537.54 548.41 
3241 548.31 538.18 548.41 
3242 548.28 537.35 548.41 
3243 548.43 536.68 548.41 
3244 548.37 536.86 548.43 
3245 548.39 537.60 548.43 
3246 548.46 536.61 548.43 
3247 548.26 537.55 548.46 
3248 548.26 537.77 548.46 
3249 548.47 537.48 548.46 
3250 548.34 538.92 548.47 
3251 548.32 538.54 548.47 
3252 548.31 537.07 548.47 
3253 548.49 537.92 548.47 
3254 548.31 538.61 548.49 
3255 548.37 539.12 548.49 
3256 548.39 538.07 548.49 
3257 548.24 539.37 548.49 
3258 548.29 539.29 548.49 
3259 548.31 539.65 548.49 
3260 548.31 537.02 548.49 
3261 548.40 538.79 548.49 
3262 543.68 538.57 548.49 
3263 548.36 537.26 548.49 
3264 548.34 537.06 548.49 
3265 548.28 537.25 548.49 
3266 548.26 537.05 548.49 
3267 548.19 536.60 548.49 
3268 548.29 538.47 548.49 
3269 548.18 539.04 548.49 
3270 548.27 538.74 548.49 
3271 548.27 538.88 548.49 
3272 548.21 538.56 548.49 
3273 548.32 539.66 548.49 
3274 548.41 538.76 548.49 
3275 548.42 538.86 548.49 
3276 547.41 538.08 548.49 
3277 548.37 537.74 548.49 
3278 548.27 539.07 548.49 
3279 548.27 538.38 548.49 
3280 548.33 538.01 548.49 
3281 548.38 538.91 548.49 
3282 548.32 539.33 548.49 
3283 548.39 539.53 548.49 
3284 548.27 539.27 548.49 
3285 548.41 539.65 548.49 
3286 543.15 539.13 548.49 
3287 548.37 538.82 548.49 
3288 548.26 539.21 548.49 
3289 548.35 539.79 548.49 
3290 548.23 542.41 548.49 
3291 548.42 539.19 548.49 
3292 548.32 539.68 548.49 
3293 548.43 540.28 548.49 
3294 548.36 539.95 548.49 
3295 548.31 539.08 548.49 
3296 548.38 537.81 548.49 
3297 548.37 538.68 548.49 
3298 548.40 539.10 548.49 
3299 548.42 539.31 548.49 
3300 548.39 539.51 548.49 
3301 548.33 538.44 548.49 
3302 548.35 539.52 548.49 
3303 548.39 540.28 548.49 
3304 548.38 539.72 548.49 
3305 548.40 539.14 548.49 
3306 548.46 537.82 548.49 
3307 548.32 535.33 548.49 
3308 548.30 534.36 548.49 
3309 548.25 534.76 548.49 
3310 548.24 536.92 548.49 
3311 548.35 538.13 548.49 
3312 548.38 537.24 548.49 
3313 548.33 536.33 548.49 
3314 548.35 535.89 548.49 
3315 543.16 536.52 548.49 
3316 548.38 534.27 548.49 
3317 548.28 533.61 548.49 
3318 548.35 531.31 548.49 
3319 548.20 534.80 548.49 
3320 548.11 534.43 548.49 
3321 548.19 536.27 548.49 
3322 548.23 536.31 548.49 
3323 548.39 536.07 548.49 
3324 548.24 536.09 548.49 
3325 548.29 536.22 548.49 
3326 542.86 536.71 548.49 
3327 548.33 536.48 548.49 
3328 548.46 538.10 548.49 
3329 548.32 538.61 548.49 
3330 548.28 537.43 548.49 
3331 548.52 539.53 548.49 
3332 548.39 539.58 548.52 
3333 548.23 538.68 548.52 
3334 548.27 538.56 548.52 
3335 548.27 538.27 548.52 
3336 548.17 537.74 548.52 
3337 548.24 539.07 548.52 
3338 548.21 536.89 548.52 
3339 548.23 536.33 548.52 
3340 548.24 534.75 548.52 
3341 548.25 532.97 548.52 
3342 548.23 532.36 548.52 
3343 548.24 532.13 548.52 
3344 548.35 529.83 548.52 
3345 548.11 528.45 548.52 
3346 548.22 532.88 548.52 
3347 548.40 534.94 548.52 
3348 548.35 534.68 548.52 
3349 548.17 537.60 548.52 
3350 548.21 532.82 548.52 
3351 548.29 533.01 548.52 
3352 548.34 536.81 548.52 
3353 548.35 537.49 548.52 
3354 548.38 538.57 548.52 
3355 548.35 536.90 548.52 
3356 548.35 536.27 548.52 
3357 548.31 538.00 548.52 
3358 548.45 539.05 548.52 
3359 548.29 537.69 548.52 
3360 548.30 537.31 548.52 
3361 548.34 538.05 548.52 
3362 548.39 537.81 548.52 
3363 548.21 539.46 548.52 
3364 548.34 539.56 548.52 
3365 548.32 539.98 548.52 
3366 548.43 538.84 548.52 
3367 548.31 539.16 548.52 
3368 548.26 538.29 548.52 
3369 548.31 538.32 548.52 
3370 548.10 537.88 548.52 
3371 548.24 537.17 548.52 
3372 548.27 537.25 548.52 
3373 548.31 537.12 548.52 
3374 548.29 539.41 548.52 
3375 548.34 540.02 548.52 
3376 548.42 539.85 548.52 
3377 548.34 543.65 548.52 
3378 548.41 545.81 548.52 
3379 548.45 544.04 548.52 
3380 548.21 542.39 548.52 
3381 548.26 544.86 548.52 
3382 548.36 542.65 548.52 
3383 548.44 540.81 548.52 
3384 548.38 538.41 548.52 
3385 548.41 538.10 548.52 
3386 548.36 539.97 548.52 
3387 548.35 541.50 548.52 
3388 548.45 540.02 548.52 
3389 548.46 539.79 548.52 
3390 548.34 539.43 548.52 
3391 548.37 538.21 548.52 
3392 544.66 536.19 548.52 
3393 548.49 536.73 548.52 
3394 548.45 537.84 548.52 
3395 548.53 536.14 548.52 
3396 548.50 537.03 548.53 
3397 548.40 538.70 548.53 
3398 548.50 538.21 548.53 
3399 548.41 537.70 548.53 
3400 548.42 537.26 548.53 
3401 542.82 536.62 548.53 
3402 548.43 535.32 548.53 
3403 548.37 536.54 548.53 
3404 548.38 537.43 548.53 
3405 548.31 537.08 548.53 
3406 548.45 535.77 548.53 
3407 548.38 535.74 548.53 
3408 548.30 535.59 548.53 
3409 548.41 536.54 548.53 
3410 548.39 536.45 548.53 
3411 548.35 537.39 548.53 
3412 548.41 538.09 548.53 
3413 548.29 538.47 548.53 
3414 548.37 540.27 548.53 
3415 543.50 540.08 548.53 
3416 543.69 540.72 548.53 
3417 548.46 540.61 548.53 
3418 543.81 540.71 548.53 
3419 543.00 540.42 548.53 
3420 548.38 540.26 548.53 
3421 548.32 540.02 548.53 
3422 548.21 540.11 548.53 
3423 548.38 539.30 548.53 
3424 548.30 539.31 548.53 
3425 548.34 538.02 548.53 
3426 548.23 540.98 548.53 
3427 544.80 543.31 548.53 
3428 548.30 540.82 548.53 
3429 548.23 541.30 548.53 
3430 548.19 544.11 548.53 
3431 548.25 540.68 548.53 
3432 548.24 541.31 548.53 
3433 548.22 541.64 548.53 
3434 548.16 542.51 548.53 
3435 548.19 541.46 548.53 
3436 548.07 541.05 548.53 
3437 548.34 539.89 548.53 
3438 542.60 539.44 548.53 
3439 548.25 541.48 548.53 
3440 548.21 539.70 548.53 
3441 548.06 539.08 548.53 
3442 548.08 541.82 548.53 
3443 548.08 543.79 548.53 
3444 543.35 543.99 548.53 
3445 547.93 543.98 548.53 
3446 548.00 545.27 548.53 
3447 547.92 546.09 548.53 
3448 547.90 545.42 548.53 
3449 542.72 543.09 548.53 
3450 548.10 545.34 548.53 
3451 547.87 544.60 548.53 
3452 543.44 544.91 548.53 
3453 547.93 544.09 548.53 
3454 547.82 543.97 548.53 
3455 548.13 542.28 548.53 
3456 547.99 541.88 548.53 
3457 548.09 542.39 548.53 
3458 548.14 541.32 548.53 
3459 548.27 541.43 548.53 
3460 548.23 541.56 548.53 
3461 548.04 541.33 548.53 
3462 548.21 541.96 548.53 
3463 548.26 540.44 548.53 
3464 548.30 540.48 548.53 
3465 548.18 540.78 548.53 
3466 548.29 540.53 548.53 
3467 548.25 541.31 548.53 
3468 548.18 540.60 548.53 
3469 548.05 540.47 548.53 
3470 548.19 542.44 548.53 
3471 548.20 542.44 548.53 
3472 542.47 541.58 548.53 
3473 548.13 540.40 548.53 
3474 548.16 539.42 548.53 
3475 548.14 539.11 548.53 
3476 548.17 539.48 548.53 
3477 548.07 538.59 548.53 
3478 548.10 538.62 548.53 
3479 547.64 539.06 548.53 
3480 547.81 539.61 548.53 
3481 547.75 539.82 548.53 
3482 547.87 540.02 548.53 
3483 548.03 540.28 548.53 
3484 547.93 541.79 548.53 
3485 548.18 542.47 548.53 
3486 548.10 543.32 548.53 
3487 547.97 542.98 548.53 
3488 548.17 543.15 548.53 
3489 548.21 542.35 548.53 
3490 548.30 542.67 548.53 
3491 548.20 542.81 548.53 
3492 548.23 542.39 548.53 
3493 548.15 542.33 548.53 
3494 548.14 541.83 548.53 
3495 548.12 541.24 548.53 
3496 548.09 542.12 548.53 
3497 548.16 541.53 548.53 
3498 543.29 540.95 548.53 
3499 547.96 540.65 548.53 
3500 548.08 539.97 548.53 
3501 548.23 539.45 548.53 
3502 548.17 539.38 548.53 
3503 547.90 540.78 548.53 
3504 548.06 538.76 548.53 
3505 547.95 538.42 548.53 
3506 547.94 539.72 548.53 
3507 548.00 540.73 548.53 
3508 547.83 541.40 548.53 
3509 547.88 540.56 548.53 
3510 548.00 540.46 548.53 
3511 548.03 540.83 548.53 
3512 547.89 540.78 548.53 
3513 548.05 540.54 548.53 
3514 548.15 541.75 548.53 
3515 548.16 542.28 548.53 
3516 548.15 541.95 548.53 
3517 548.10 541.31 548.53 
3518 548.18 540.10 548.53 
3519 548.20 539.95 548.53 
3520 548.12 540.25 548.53 
3521 548.27 540.21 548.53 
3522 548.04 540.65 548.53 
3523 548.22 540.50 548.53 
3524 548.26 539.21 548.53 
3525 548.07 539.67 548.53 
3526 548.05 538.41 548.53 
3527 548.23 538.28 548.53 
3528 548.17 539.76 548.53 
3529 548.18 540.22 548.53 
3530 548.20 538.83 548.53 
3531 548.20 539.27 548.53 
3532 548.30 538.53 548.53 
3533 548.06 540.00 548.53 
3534 548.21 539.75 548.53 
3535 548.06 540.47 548.53 
3536 548.19 540.33 548.53 
3537 548.25 541.22 548.53 
3538 548.19 541.22 548.53 
3539 548.03 541.08 548.53 
3540 548.09 541.07 548.53 
3541 548.24 540.79 548.53 
3542 548.30 541.10 548.53 
3543 548.24 540.55 548.53 
3544 544.30 540.76 548.53 
3545 548.35 540.95 548.53 
3546 548.27 539.82 548.53 
3547 548.33 539.34 548.53 
3548 548.32 540.03 548.53 
3549 548.11 539.96 548.53 
3550 548.20 540.68 548.53 
3551 548.14 539.42 548.53 
3552 548.18 540.38 548.53 
3553 548.19 540.11 548.53 
3554 548.16 540.89 548.53 
3555 548.12 540.29 548.53 
3556 548.07 540.65 548.53 
3557 548.18 540.18 548.53 
3558 548.21 540.48 548.53 
3559 548.08 540.65 548.53 
3560 548.20 540.52 548.53 
3561 548.20 540.34 548.53 
3562 548.13 540.82 548.53 
3563 548.30 541.31 548.53 
3564 548.38 541.99 548.53 
3565 548.30 541.36 548.53 
3566 548.22 542.03 548.53 
3567 548.33 541.18 548.53 
3568 543.55 541.66 548.53 
3569 548.28 541.58 548.53 
3570 548.30 540.47 548.53 
3571 548.30 539.01 548.53 
3572 543.39 538.88 548.53 
3573 548.15 537.46 548.53 
3574 548.02 537.13 548.53 
3575 548.11 538.05 548.53 
3576 548.13 538.98 548.53 
3577 548.11 538.38 548.53 
3578 547.69 538.74 548.53 
3579 548.14 537.98 548.53 
3580 548.05 536.98 548.53 
3581 548.16 538.70 548.53 
3582 548.14 540.26 548.53 
3583 548.03 540.74 548.53 
3584 548.04 539.94 548.53 
3585 545.93 542.34 548.53 
3586 547.92 541.85 548.53 
3587 548.13 542.31 548.53 
3588 548.07 541.72 548.53 
3589 548.14 541.81 548.53 
3590 548.22 540.30 548.53 
3591 548.21 542.56 548.53 
3592 548.20 543.75 548.53 
3593 548.19 540.40 548.53 
3594 548.14 542.69 548.53 
3595 548.23 543.30 548.53 
3596 548.27 544.08 548.53 
3597 545.29 543.71 548.53 
3598 544.22 542.99 548.53 
3599 548.20 544.53 548.53 
3600 548.19 542.13 548.53 
3601 547.57 540.68 548.53 
3602 547.08 540.75 548.53 
3603 548.15 541.13 548.53 
3604 548.10 541.27 548.53 
3605 548.19 545.24 548.53 
3606 548.14 545.41 548.53 
3607 548.11 543.26 548.53 
3608 548.21 544.58 548.53 
3609 548.18 542.75 548.53 
3610 548.19 542.21 548.53 
3611 548.13 543.20 548.53 
3612 548.26 543.19 548.53 
3613 547.07 542.97 548.53 
3614 548.25 542.94 548.53 
3615 543.41 543.56 548.53 
3616 548.12 544.05 548.53 
3617 548.09 543.68 548.53 
3618 548.12 543.51 548.53 
3619 548.13 542.00 548.53 
3620 548.21 542.09 548.53 
3621 548.27 542.22 548.53 
3622 547.93 542.28 548.53 
3623 548.18 545.07 548.53 
3624 548.12 543.42 548.53 
3625 548.22 547.22 548.53 
3626 548.13 543.01 548.53 
3627 548.13 544.24 548.53 
3628 548.17 543.61 548.53 
3629 548.08 542.66 548.53 
3630 548.07 543.35 548.53 
3631 548.12 544.21 548.53 
3632 548.25 544.17 548.53 
3633 548.03 544.97 548.53 
3634 548.15 543.69 548.53 
3635 548.16 544.91 548.53 
3636 548.02 544.51 548.53 
3637 548.23 544.22 548.53 
3638 548.27 544.80 548.53 
3639 548.21 543.94 548.53 
3640 548.20 543.72 548.53 
3641 548.12 543.81 548.53 
3642 548.20 544.47 548.53 
3643 548.24 543.71 548.53 
3644 548.21 543.85 548.53 
3645 548.10 543.31 548.53 
3646 548.08 543.46 548.53 
3647 548.13 543.18 548.53 
3648 540.55 543.16 548.53 
3649 548.07 543.01 548.53 
3650 548.17 542.56 548.53 
3651 548.01 543.41 548.53 
3652 548.05 543.27 548.53 
3653 548.14 544.17 548.53 
3654 548.15 544.06 548.53 
3655 548.19 545.03 548.53 
3656 548.32 547.25 548.53 
3657 544.14 543.73 548.53 
3658 542.39 543.44 548.53 
3659 546.81 542.80 548.53 
3660 548.26 546.54 548.53 
3661 548.17 543.86 548.53 
3662 548.18 547.20 548.53 
3663 548.16 543.30 548.53 
3664 548.05 544.11 548.53 
3665 548.26 545.04 548.53 
3666 548.07 545.35 548.53 
3667 548.16 545.73 548.53 
3668 548.15 545.55 548.53 
3669 548.14 545.37 548.53 
3670 548.20 545.53 548.53 
3671 548.12 545.39 548.53 
3672 548.15 545.12 548.53 
3673 543.73 545.41 548.53 
3674 548.08 545.82 548.53 
3675 547.95 545.66 548.53 
3676 548.04 544.89 548.53 
3677 542.13 547.43 548.53 
3678 548.12 545.33 548.53 
3679 548.00 546.38 548.53 
3680 548.09 545.80 548.53 
3681 547.92 544.10 548.53 
3682 548.11 544.09 548.53 
3683 543.92 544.05 548.53 
3684 548.15 545.04 548.53 
3685 548.16 544.17 548.53 
3686 548.18 544.05 548.53 
3687 548.20 543.82 548.53 
3688 548.22 544.10 548.53 
3689 548.23 542.90 548.53 
3690 548.07 543.20 548.53 
3691 548.13 542.81 548.53 
3692 548.12 543.47 548.53 
3693 548.08 542.61 548.53 
3694 548.15 542.81 548.53 
3695 548.18 543.44 548.53 
3696 548.08 542.79 548.53 
3697 548.24 542.63 548.53 
3698 548.16 543.71 548.53 
3699 548.10 542.46 548.53 
3700 548.13 542.60 548.53 
3701 548.15 543.25 548.53 
3702 547.98 542.22 548.53 
3703 548.24 542.57 548.53 
3704 548.17 542.23 548.53 
3705 548.12 541.99 548.53 
3706 548.05 542.00 548.53 
3707 548.13 542.81 548.53 
3708 548.08 543.77 548.53 
3709 547.99 542.61 548.53 
3710 547.95 542.71 548.53 
3711 548.06 543.64 548.53 
3712 547.91 541.77 548.53 
3713 548.07 540.79 548.53 
3714 548.00 542.39 548.53 
3715 548.02 541.49 548.53 
3716 548.05 541.23 548.53 
3717 547.96 540.40 548.53 
3718 548.15 540.70 548.53 
3719 548.12 540.82 548.53 
3720 548.04 541.24 548.53 
3721 548.13 541.04 548.53 
3722 548.06 544.95 548.53 
3723 542.99 540.35 548.53 
3724 548.09 542.18 548.53 
3725 548.14 542.00 548.53 
3726 548.18 543.81 548.53 
3727 548.00 542.52 548.53 
3728 542.93 543.51 548.53 
3729 547.93 542.29 548.53 
3730 546.26 542.27 548.53 
3731 547.90 541.15 548.53 
3732 547.95 541.14 548.53 
3733 547.98 540.66 548.53 
3734 548.02 540.77 548.53 
3735 547.89 541.31 548.53 
3736 548.03 541.72 548.53 
3737 544.04 541.36 548.53 
3738 548.06 540.94 548.53 
3739 536.90 541.10 548.53 
3740 548.06 540.67 548.53 
3741 547.69 540.31 548.53 
3742 547.78 539.72 548.53 
3743 547.94 540.14 548.53 
3744 548.11 539.44 548.53 
3745 547.95 539.74 548.53 
3746 548.02 539.39 548.53 
3747 547.98 540.08 548.53 
3748 547.92 540.91 548.53 
3749 548.00 540.83 548.53 
3750 542.75 540.16 548.53 
3751 547.81 540.22 548.53 
3752 547.73 540.72 548.53 
3753 547.63 539.87 548.53 
3754 547.75 540.00 548.53 
3755 547.75 540.12 548.53 
3756 547.82 540.72 548.53 
3757 547.87 540.17 548.53 
3758 547.91 541.23 548.53 
3759 547.96 541.41 548.53 
3760 547.94 541.98 548.53 
3761 547.98 542.13 548.53 
3762 547.86 544.26 548.53 
3763 547.91 547.54 548.53 
3764 547.83 544.24 548.53 
3765 547.92 543.31 548.53 
3766 543.40 547.30 548.53 
3767 548.03 544.46 548.53 
3768 547.76 544.39 548.53 
3769 547.90 544.37 548.53 
3770 542.54 543.78 548.53 
3771 548.02 544.27 548.53 
3772 547.76 544.60 548.53 
3773 548.01 547.76 548.53 
3774 547.87 548.03 548.53 
3775 547.85 548.65 548.53 
3776 547.84 544.94 548.53 
3777 548.01 545.55 548.53 
3778 547.94 548.28 548.53 
3779 548.00 544.64 548.53 
3780 547.90 546.68 548.53 
3781 548.06 545.19 548.53 
3782 548.00 546.69 548.53 
3783 547.88 545.58 548.53 
3784 547.91 545.92 548.53 
3785 548.08 546.51 548.53 
3786 548.03 545.83 548.53 
3787 542.65 546.05 548.53 
3788 547.98 546.59 548.53 
3789 547.90 546.32 548.53 
3790 547.72 546.24 548.53 
3791 547.74 546.26 548.53 
3792 547.80 546.82 548.53 
3793 547.99 546.42 548.53 
3794 547.99 545.66 548.53 
3795 547.98 545.85 548.53 
3796 547.96 545.29 548.53 
3797 547.97 545.51 548.53 
3798 548.10 545.07 548.53 
3799 548.03 546.26 548.53 
3800 547.84 546.55 548.53 
3801 548.00 546.68 548.53 
3802 547.96 546.93 548.53 
3803 547.97 545.02 548.53 
3804 548.04 546.06 548.53 
3805 547.91 546.36 548.53 
3806 548.00 547.17 548.53 
3807 546.05 546.69 548.53 
3808 547.92 546.75 548.53 
3809 547.81 546.47 548.53 
3810 547.75 547.82 548.53 
3811 548.12 546.21 548.53 
3812 548.08 547.69 548.53 
3813 547.92 548.76 548.53 
3814 547.94 547.55 548.53 
3815 547.91 548.12 548.53 
3816 547.95 547.95 548.53 
3817 547.77 548.70 548.53 
3818 547.99 548.15 548.53 
3819 548.00 548.01 548.53 
3820 548.20 548.38 548.53 
3821 548.08 547.08 548.53 
3822 548.05 548.36 548.53 
3823 548.05 548.50 548.53 
3824 548.07 548.57 548.53 
3825 548.06 546.93 548.53 
3826 548.23 546.23 548.53 
3827 548.05 548.74 548.53 
3828 548.14 549.04 548.53 
3829 548.11 548.79 548.53 
3830 548.14 548.76 548.53 
3831 548.12 547.38 548.53 
3832 548.01 547.83 548.53 
3833 547.96 545.95 548.53 
3834 548.08 546.39 548.53 
3835 548.04 547.86 548.53 
3836 548.11 546.47 548.53 
3837 548.14 547.65 548.53 
3838 548.14 546.98 548.53 
3839 548.03 547.04 548.53 
3840 547.93 547.85 548.53 
3841 548.20 547.09 548.53 
3842 548.07 547.56 548.53 
3843 548.28 547.75 548.53 
3844 548.09 547.19 548.53 
3845 548.24 546.96 548.53 
3846 548.22 547.60 548.53 
3847 548.19 547.45 548.53 
3848 543.18 547.93 548.53 
3849 548.14 547.28 548.53 
3850 548.11 547.47 548.53 
3851 548.14 546.28 548.53 
3852 548.17 547.07 548.53 
3853 548.14 546.32 548.53 
3854 548.05 546.46 548.53 
3855 548.17 546.98 548.53 
3856 543.85 547.90 548.53 
3857 548.17 547.58 548.53 
3858 548.07 547.29 548.53 
3859 548.07 547.02 548.53 
3860 548.09 546.85 548.53 
3861 548.09 546.97 548.53 
3862 548.13 546.00 548.53 
3863 548.05 545.56 548.53 
3864 548.12 546.05 548.53 
3865 548.01 547.87 548.53 
3866 547.82 548.16 548.53 
3867 542.84 547.17 548.53 
3868 548.09 546.32 548.53 
3869 547.80 547.30 548.53 
3870 547.85 547.25 548.53 
3871 547.80 545.93 548.53 
3872 544.08 545.27 548.53 
3873 548.03 546.50 548.53 
3874 548.16 547.70 548.53 
3875 548.01 546.50 548.53 
3876 547.92 546.80 548.53 
3877 547.97 546.62 548.53 
3878 542.72 545.19 548.53 
3879 548.05 545.63 548.53 
3880 548.10 545.96 548.53 
3881 548.09 546.03 548.53 
3882 548.01 545.46 548.53 
3883 548.06 546.41 548.53 
3884 547.94 545.89 548.53 
3885 548.04 545.73 548.53 
3886 546.84 544.44 548.53 
3887 548.10 545.40 548.53 
3888 547.89 545.93 548.53 
3889 548.04 545.40 548.53 
3890 547.93 546.20 548.53 
3891 547.83 545.29 548.53 
3892 547.91 544.73 548.53 
3893 547.91 545.05 548.53 
3894 548.00 544.17 548.53 
3895 548.04 544.82 548.53 
3896 548.02 542.71 548.53 
3897 548.00 542.35 548.53 
3898 548.00 543.05 548.53 
3899 548.04 543.73 548.53 
3900 548.09 543.53 548.53 
3901 548.16 544.20 548.53 
3902 548.06 544.61 548.53 
3903 548.09 545.14 548.53 
3904 548.15 544.92 548.53 
3905 548.14 545.73 548.53 
3906 548.11 545.01 548.53 
3907 548.16 545.66 548.53 
3908 543.86 546.38 548.53 
3909 548.11 545.79 548.53 
3910 548.17 545.46 548.53 
3911 548.22 545.94 548.53 
3912 548.19 545.85 548.53 
3913 548.27 545.88 548.53 
3914 548.16 545.23 548.53 
3915 548.16 544.67 548.53 
3916 548.14 545.29 548.53 
3917 547.96 545.06 548.53 
3918 542.70 545.23 548.53 
3919 548.01 544.53 548.53 
3920 548.06 544.70 548.53 
3921 547.98 544.36 548.53 
3922 548.08 544.31 548.53 
3923 546.32 543.39 548.53 
3924 548.03 543.61 548.53 
3925 548.08 543.25 548.53 
3926 548.18 543.51 548.53 
3927 548.06 544.12 548.53 
3928 547.98 543.53 548.53 
3929 548.17 543.19 548.53 
3930 548.13 542.93 548.53 
3931 548.13 543.07 548.53 
3932 548.14 543.78 548.53 
3933 548.20 544.30 548.53 
3934 548.16 544.98 548.53 
3935 548.18 544.01 548.53 
3936 548.15 543.89 548.53 
3937 548.22 544.19 548.53 
3938 548.12 544.16 548.53 
3939 548.11 544.84 548.53 
3940 548.26 544.85 548.53 
3941 548.15 544.93 548.53 
3942 548.16 544.56 548.53 
3943 548.21 544.38 548.53 
3944 548.22 544.65 548.53 
3945 548.16 544.12 548.53 
3946 548.14 544.04 548.53 
3947 548.22 544.51 548.53 
3948 548.08 544.40 548.53 
3949 548.17 544.22 548.53 
3950 548.11 543.64 548.53 
3951 548.17 543.57 548.53 
3952 548.15 543.73 548.53 
3953 548.23 543.95 548.53 
3954 548.18 543.97 548.53 
3955 548.13 543.20 548.53 
3956 548.28 543.37 548.53 
3957 548.20 543.71 548.53 
3958 548.13 543.78 548.53 
3959 545.18 544.16 548.53 
3960 543.47 543.72 548.53 
3961 548.10 543.42 548.53 
3962 547.94 543.07 548.53 
3963 548.13 543.20 548.53 
3964 548.05 543.56 548.53 
3965 548.13 543.47 548.53 
3966 548.05 543.40 548.53 
3967 548.16 543.26 548.53 
3968 545.54 543.31 548.53 
3969 548.21 543.42 548.53 
3970 548.08 543.05 548.53 
3971 548.20 543.07 548.53 
3972 543.53 543.20 548.53 
3973 538.37 542.51 548.53 
3974 543.17 542.84 548.53 
3975 548.17 542.52 548.53 
3976 548.11 542.69 548.53 
3977 548.02 542.66 548.53 
3978 548.11 543.02 548.53 
3979 542.70 542.34 548.53 
3980 548.07 542.34 548.53 
3981 548.00 542.67 548.53 
3982 548.01 543.18 548.53 
3983 548.09 544.18 548.53 
3984 548.11 543.21 548.53 
3985 548.07 543.85 548.53 
3986 542.81 543.49 548.53 
3987 548.14 543.34 548.53 
3988 547.92 542.40 548.53 
3989 547.97 542.43 548.53 
3990 547.94 542.32 548.53 
3991 542.97 542.68 548.53 
3992 547.97 543.27 548.53 
3993 547.84 543.25 548.53 
3994 547.86 542.99 548.53 
3995 547.81 542.35 548.53 
3996 547.93 542.46 548.53 
3997 547.82 543.13 548.53 
3998 544.99 543.43 548.53 
3999 547.83 542.81 548.53 
4000 547.82 543.36 548.53 
4001 547.63 542.63 548.53 
4002 545.98 542.33 548.53 
4003 547.63 541.52 548.53 
4004 547.54 542.68 548.53 
4005 547.50 542.37 548.53 
4006 547.59 543.55 548.53 
4007 547.56 543.75 548.53 
4008 547.65 543.72 548.53 
4009 547.78 543.35 548.53 
4010 547.76 543.11 548.53 
4011 547.81 544.29 548.53 
4012 543.35 544.02 548.53 
4013 547.95 544.72 548.53 
4014 546.62 545.42 548.53 
4015 547.66 545.54 548.53 
4016 547.68 545.65 548.53 
4017 547.87 545.84 548.53 
4018 547.94 546.47 548.53 
4019 546.48 546.31 548.53 
4020 547.96 545.81 548.53 
4021 547.90 545.56 548.53 
4022 547.80 545.21 548.53 
4023 547.93 544.94 548.53 
4024 547.94 545.55 548.53 
4025 547.94 545.61 548.53 
4026 547.82 546.10 548.53 
4027 547.90 547.06 548.53 
4028 547.81 546.61 548.53 
4029 547.91 546.30 548.53 
4030 547.95 546.30 548.53 
4031 547.94 546.88 548.53 
4032 547.87 546.80 548.53 
4033 547.98 547.07 548.53 
4034 547.90 547.12 548.53 
4035 543.40 546.97 548.53 
4036 548.00 547.53 548.53 
4037 547.91 547.73 548.53 
4038 547.82 548.30 548.53 
4039 547.85 548.39 548.53 
4040 547.91 548.49 548.53 
4041 543.37 547.27 548.53 
4042 547.77 547.67 548.53 
4043 541.66 547.22 548.53 
4044 547.73 547.08 548.53 
4045 547.76 546.73 548.53 
4046 547.80 546.26 548.53 
4047 547.89 545.86 548.53 
4048 547.78 545.11 548.53 
4049 547.51 545.26 548.53 
4050 547.78 544.86 548.53 
4051 547.82 544.36 548.53 
4052 547.78 544.85 548.53 
4053 543.48 543.89 548.53 
4054 542.37 544.36 548.53 
4055 546.42 544.35 548.53 
4056 547.56 544.20 548.53 
4057 547.68 544.55 548.53 
4058 547.80 545.04 548.53 
4059 547.63 544.89 548.53 
4060 547.62 544.91 548.53 
4061 547.87 545.84 548.53 
4062 547.72 546.18 548.53 
4063 547.73 545.23 548.53 
4064 543.92 545.63 548.53 
4065 547.75 546.37 548.53 
4066 547.82 545.88 548.53 
4067 542.56 544.92 548.53 
4068 547.67 544.62 548.53 
4069 547.57 543.84 548.53 
4070 547.72 544.87 548.53 
4071 547.61 545.13 548.53 
4072 547.77 545.17 548.53 
4073 547.79 545.30 548.53 
4074 547.80 546.86 548.53 
4075 547.84 546.32 548.53 
4076 547.82 547.97 548.53 
4077 547.98 547.33 548.53 
4078 536.40 546.46 548.53 
4079 547.81 546.55 548.53 
4080 547.65 545.93 548.53 
4081 547.73 545.34 548.53 
4082 547.61 544.36 548.53 
4083 547.58 545.28 548.53 
4084 547.64 543.98 548.53 
4085 547.82 547.11 548.53 
4086 547.37 546.10 548.53 
4087 547.70 545.46 548.53 
4088 547.59 543.90 548.53 
4089 547.40 545.34 548.53 
4090 547.68 544.76 548.53 
4091 546.82 543.88 548.53 
4092 547.76 543.99 548.53 
4093 542.98 545.56 548.53 
4094 547.73 544.58 548.53 
4095 547.72 544.44 548.53 
4096 546.19 544.03 548.53 
4097 547.55 544.33 548.53 
4098 547.60 543.60 548.53 
4099 547.56 543.91 548.53 
4100 547.56 543.14 548.53 
4101 543.54 543.48 548.53 
4102 547.49 543.87 548.53 
4103 547.45 544.19 548.53 
4104 546.93 543.93 548.53 
4105 547.48 544.22 548.53 
4106 547.43 544.43 548.53 
4107 543.67 545.57 548.53 
4108 547.48 545.59 548.53 
4109 547.45 545.93 548.53 
4110 547.33 545.45 548.53 
4111 547.40 545.41 548.53 
4112 547.38 546.91 548.53 
4113 542.02 546.72 548.53 
4114 547.34 546.29 548.53 
4115 547.25 546.04 548.53 
4116 547.29 545.91 548.53 
4117 547.58 544.65 548.53 
4118 547.50 544.66 548.53 
4119 547.59 544.02 548.53 
4120 547.63 544.44 548.53 
4121 547.40 544.27 548.53 
4122 547.57 544.46 548.53 
4123 547.70 545.40 548.53 
4124 547.62 545.21 548.53 
4125 547.72 545.30 548.53 
4126 547.69 544.64 548.53 
4127 541.98 544.06 548.53 
4128 547.59 544.22 548.53 
4129 547.61 544.99 548.53 
4130 547.37 544.03 548.53 
4131 547.45 544.51 548.53 
4132 547.47 544.85 548.53 
4133 547.41 543.37 548.53 
4134 543.82 543.84 548.53 
4135 542.55 544.00 548.53 
4136 547.25 543.96 548.53 
4137 547.11 543.23 548.53 
4138 547.24 543.22 548.53 
4139 547.49 543.21 548.53 
4140 547.45 542.95 548.53 
4141 547.19 542.86 548.53 
4142 542.36 543.30 548.53 
4143 547.28 543.12 548.53 
4144 547.29 543.98 548.53 
4145 547.40 544.13 548.53 
4146 547.22 544.00 548.53 
4147 547.15 543.76 548.53 
4148 547.46 543.73 548.53 
4149 547.47 544.36 548.53 
4150 547.43 544.27 548.53 
4151 547.28 542.30 548.53 
4152 540.53 540.93 548.53 
4153 541.91 541.66 548.53 
4154 543.51 541.15 548.53 
4155 547.41 540.63 548.53 
4156 547.26 541.11 548.53 
4157 547.43 542.03 548.53 
4158 547.47 543.22 548.53 
4159 547.58 543.18 548.53 
4160 542.20 544.70 548.53 
4161 547.46 543.78 548.53 
4162 547.43 543.95 548.53 
4163 547.59 544.37 548.53 
4164 547.26 544.23 548.53 
4165 547.42 545.49 548.53 
4166 539.60 544.58 548.53 
4167 540.80 544.98 548.53 
4168 547.46 544.65 548.53 
4169 547.56 544.80 548.53 
4170 547.49 543.76 548.53 
4171 540.84 544.57 548.53 
4172 547.47 544.06 548.53 
4173 547.58 543.18 548.53 
4174 547.46 544.32 548.53 
4175 547.58 543.85 548.53 
4176 547.76 541.83 548.53 
4177 547.74 543.33 548.53 
4178 547.85 541.72 548.53 
4179 547.73 542.57 548.53 
4180 547.76 543.22 548.53 
4181 547.83 544.30 548.53 
4182 547.85 544.09 548.53 
4183 547.52 541.21 548.53 
4184 547.63 541.40 548.53 
4185 547.75 541.68 548.53 
4186 547.81 542.72 548.53 
4187 547.76 542.58 548.53 
4188 547.64 542.65 548.53 
4189 547.72 544.29 548.53 
4190 547.89 545.13 548.53 
4191 547.71 544.59 548.53 
4192 547.78 545.92 548.53 
4193 547.73 546.44 548.53 
4194 542.30 546.93 548.53 
4195 547.82 546.88 548.53 
4196 547.68 546.27 548.53 
4197 547.65 546.68 548.53 
4198 547.79 545.62 548.53 
4199 547.66 545.79 548.53 
4200 547.72 546.48 548.53 
4201 547.67 547.07 548.53 
4202 547.69 544.94 548.53 
4203 542.69 544.53 548.53 
4204 545.95 544.10 548.53 
4205 543.30 543.41 548.53 
4206 547.49 543.84 548.53 
4207 547.52 544.06 548.53 
4208 547.53 544.17 548.53 
4209 547.56 543.92 548.53 
4210 547.55 544.59 548.53 
4211 547.52 544.17 548.53 
4212 547.41 543.69 548.53 
4213 544.54 543.55 548.53 
4214 547.40 542.90 548.53 
4215 547.38 543.34 548.53 
4216 547.20 543.63 548.53 
4217 547.32 544.07 548.53 
4218 547.25 544.49 548.53 
4219 547.26 544.19 548.53 
4220 547.46 544.30 548.53 
4221 547.53 544.15 548.53 
4222 547.68 544.79 548.53 
4223 547.39 544.73 548.53 
4224 542.73 544.81 548.53 
4225 547.81 544.61 548.53 
4226 547.51 544.21 548.53 
4227 542.70 544.34 548.53 
4228 547.60 544.21 548.53 
4229 547.22 543.91 548.53 
4230 547.33 543.65 548.53 
4231 547.55 543.88 548.53 
4232 547.41 543.56 548.53 
4233 547.51 543.83 548.53 
4234 547.43 543.69 548.53 
4235 547.52 543.52 548.53 
4236 547.39 543.64 548.53 
4237 542.91 543.66 548.53 
4238 547.40 544.73 548.53 
4239 547.36 545.07 548.53 
4240 547.29 545.10 548.53 
4241 547.22 545.90 548.53 
4242 547.19 546.25 548.53 
4243 547.20 546.07 548.53 
4244 547.11 546.73 548.53 
4245 547.06 546.20 548.53 
4246 547.21 546.48 548.53 
4247 547.16 546.89 548.53 
4248 547.33 545.68 548.53 
4249 541.43 546.08 548.53 
4250 541.85 546.00 548.53 
4251 546.55 546.10 548.53 
4252 546.90 546.67 548.53 
4253 534.70 546.36 548.53 
4254 547.07 546.11 548.53 
4255 546.87 544.99 548.53 
4256 546.83 543.59 548.53 
4257 547.03 543.57 548.53 
4258 547.11 543.49 548.53 
4259 546.98 544.57 548.53 
4260 546.86 544.27 548.53 
4261 546.99 543.56 548.53 
4262 546.99 543.58 548.53 
4263 547.03 543.78 548.53 
4264 541.96 546.32 548.53 
4265 547.18 545.25 548.53 
4266 546.96 546.07 548.53 
4267 547.03 545.21 548.53 
4268 547.21 545.20 548.53 
4269 547.09 544.23 548.53 
4270 547.34 544.28 548.53 
4271 547.09 542.49 548.53 
4272 547.20 542.73 548.53 
4273 546.99 543.20 548.53 
4274 542.08 542.65 548.53 
4275 547.19 541.52 548.53 
4276 547.01 541.77 548.53 
4277 546.85 542.59 548.53 
4278 546.86 542.32 548.53 
4279 546.98 542.38 548.53 
4280 547.14 541.06 548.53 
4281 547.12 541.17 548.53 
4282 546.90 541.52 548.53 
4283 547.03 541.75 548.53 
4284 541.76 542.15 548.53 
4285 537.29 540.37 548.53 
4286 546.99 539.54 548.53 
4287 542.40 538.72 548.53 
4288 546.85 539.44 548.53 
4289 546.71 539.03 548.53 
4290 546.80 538.64 548.53 
4291 541.15 538.98 548.53 
4292 546.86 537.70 548.53 
4293 546.80 542.03 548.53 
4294 546.83 541.61 548.53 
4295 546.43 541.70 548.53 
4296 540.55 542.73 548.53 
4297 542.88 542.70 548.53 
4298 546.97 544.24 548.53 
4299 547.04 544.74 548.53 
4300 546.93 543.87 548.53 
4301 543.59 544.74 548.53 
4302 546.71 543.88 548.53 
4303 546.74 543.88 548.53 
4304 546.88 543.26 548.53 
4305 546.81 543.84 548.53 
4306 541.89 543.71 548.53 
4307 542.19 543.19 548.53 
4308 546.73 542.53 548.53 
4309 546.71 543.16 548.53 
4310 546.64 540.20 548.53 
4311 546.58 543.63 548.53 
4312 546.65 544.68 548.53 
4313 545.35 544.02 548.53 
4314 546.71 543.66 548.53 
4315 546.55 546.02 548.53 
4316 532.41 545.81 548.53 
4317 541.34 543.96 548.53 
4318 532.20 546.00 548.53 
4319 546.51 546.60 548.53 
4320 543.92 545.70 548.53 
4321 546.69 543.85 548.53 
4322 546.52 543.81 548.53 
4323 546.59 545.71 548.53 
4324 536.34 545.03 548.53 
4325 543.26 545.13 548.53 
4326 541.77 544.06 548.53 
4327 542.60 543.46 548.53 
4328 541.11 543.85 548.53 
4329 535.95 543.50 548.53 
4330 546.40 543.66 548.53 
4331 546.31 545.90 548.53 
4332 540.92 544.98 548.53 
4333 546.48 545.38 548.53 
4334 546.31 543.91 548.53 
4335 546.35 544.75 548.53 
4336 546.67 545.29 548.53 
4337 534.96 545.41 548.53 
4338 546.50 545.35 548.53 
4339 546.56 545.48 548.53 
4340 541.88 545.08 548.53 
4341 546.49 543.81 548.53 
4342 546.11 543.43 548.53 
4343 546.66 543.90 548.53 
4344 546.46 543.74 548.53 
4345 546.72 545.12 548.53 
4346 541.36 543.72 548.53 
4347 546.38 543.40 548.53 
4348 546.34 544.44 548.53 
4349 546.48 544.84 548.53 
4350 546.38 544.23 548.53 
4351 546.46 543.82 548.53 
4352 546.15 543.68 548.53 
4353 546.48 543.64 548.53 
4354 541.40 544.08 548.53 
4355 546.30 543.37 548.53 
4356 546.39 542.49 548.53 
4357 546.21 542.96 548.53 
4358 546.40 542.51 548.53 
4359 546.42 542.53 548.53 
4360 546.51 542.72 548.53 
4361 544.73 542.13 548.53 
4362 546.30 541.42 548.53 
4363 546.19 541.30 548.53 
4364 546.20 540.56 548.53 
4365 546.33 540.88 548.53 
4366 546.17 540.39 548.53 
4367 534.57 539.82 548.53 
4368 546.31 540.87 548.53 
4369 546.14 540.77 548.53 
4370 540.35 542.01 548.53 
4371 545.81 540.99 548.53 
4372 545.78 541.27 548.53 
4373 546.42 541.31 548.53 
4374 536.08 542.21 548.53 
4375 539.62 541.79 548.53 
4376 543.00 541.23 548.53 
4377 546.24 542.36 548.53 
4378 546.25 542.70 548.53 
4379 541.90 542.03 548.53 
4380 546.61 542.31 548.53 
4381 540.44 542.34 548.53 
4382 546.27 542.52 548.53 
4383 546.40 542.13 548.53 
4384 546.44 541.74 548.53 
4385 546.59 542.80 548.53 
4386 546.48 542.78 548.53 
4387 546.75 542.08 548.53 
4388 546.63 541.97 548.53 
4389 546.90 542.60 548.53 
4390 546.61 544.55 548.53 
4391 546.95 542.98 548.53 
4392 547.10 543.12 548.53 
4393 546.83 541.36 548.53 
4394 546.78 541.99 548.53 
4395 546.86 542.62 548.53 
4396 546.90 542.70 548.53 
4397 546.84 544.31 548.53 
4398 546.83 544.64 548.53 
4399 546.74 544.29 548.53 
4400 547.00 544.30 548.53 
4401 545.48 544.22 548.53 
4402 546.95 544.50 548.53 
4403 546.89 544.32 548.53 
4404 546.64 544.09 548.53 
4405 542.16 543.88 548.53 
4406 542.28 544.70 548.53 
4407 546.65 543.28 548.53 
4408 546.66 544.90 548.53 
4409 546.35 542.93 548.53 
4410 546.32 543.66 548.53 
4411 546.11 544.21 548.53 
4412 546.53 543.03 548.53 
4413 546.54 543.56 548.53 
4414 546.66 543.09 548.53 
4415 546.47 543.48 548.53 
4416 546.82 540.92 548.53 
4417 546.80 542.39 548.53 
4418 546.75 542.61 548.53 
4419 546.58 542.62 548.53 
4420 546.70 544.38 548.53 
4421 542.63 542.46 548.53 
4422 541.84 543.09 548.53 
4423 546.63 542.39 548.53 
4424 546.69 542.95 548.53 
4425 546.52 543.42 548.53 
