Iter | Sampling Pol | Evaluation Pol | Best (Sampled) 
   0 -14.44  3.63 -100000000.00 
   1 -14.21  2.84 -14.44 
   2 -14.43  1.21 -14.21 
   3 -14.46  2.33 -14.21 
   4 -12.06  1.24 -14.21 
   5 -14.41  0.11 -12.06 
   6 -13.87  6.83 -12.06 
   7 -12.26  9.66 -12.06 
   8 -8.03  4.28 -12.06 
   9 -12.80  4.39 -8.03 
  10 -10.52 10.76 -8.03 
  11 -10.67 26.15 -8.03 
  12 -12.18  8.25 -8.03 
  13 -11.70  6.06 -8.03 
  14 -11.48  5.94 -8.03 
  15 -3.01  5.90 -8.03 
  16 -9.38 11.81 -3.01 
  17 -8.86  5.90 -3.01 
  18 -5.95  6.35 -3.01 
  19 -9.07  5.75 -3.01 
  20 -8.93  5.88 -3.01 
  21 -10.61  7.73 -3.01 
  22 -5.39  6.10 -3.01 
  23 -8.37  5.76 -3.01 
  24 -5.66  6.46 -3.01 
  25 -8.96  6.74 -3.01 
  26 -6.47  7.49 -3.01 
  27 -6.44  6.93 -3.01 
  28 -6.97  7.82 -3.01 
  29 -2.96  8.91 -3.01 
  30 -1.14  8.74 -2.96 
  31 -6.81  8.02 -1.14 
  32 -3.15  8.08 -1.14 
  33 -4.35  8.00 -1.14 
  34 -7.42  9.47 -1.14 
  35 -6.52 10.04 -1.14 
  36 -5.72 11.88 -1.14 
  37  1.32 31.21 -1.14 
  38 -5.16 30.82  1.32 
  39 -4.75  8.95  1.32 
  40 -3.08  8.98  1.32 
  41 -2.81  9.70  1.32 
  42 -3.99  8.93  1.32 
  43 -4.44 18.12  1.32 
  44 -6.26  7.08  1.32 
  45 -4.73  7.93  1.32 
  46 -4.89  8.25  1.32 
  47 -4.00  9.15  1.32 
  48 -8.01  9.04  1.32 
  49 -4.57  9.75  1.32 
  50  2.10  9.05  1.32 
  51 -1.36  9.05  2.10 
  52 -7.43  9.07  2.10 
  53  0.46  9.03  2.10 
  54 -4.84  9.19  2.10 
  55  1.40  8.12  2.10 
  56 10.81  6.39  2.10 
  57 -4.35  5.67 10.81 
  58 -6.61  5.43 10.81 
  59  2.99  5.38 10.81 
  60  3.09  7.98 10.81 
  61  9.35  7.87 10.81 
  62 -5.20  7.42 10.81 
  63 10.60  6.56 10.81 
  64 -0.53  8.47 10.81 
  65 10.98  7.92 10.81 
  66 11.85  9.40 10.98 
  67 15.04 11.19 11.85 
  68  2.74 11.12 15.04 
  69 28.81  9.84 15.04 
  70 65.17  9.59 28.81 
  71 20.85 10.12 65.17 
  72 54.47  8.93 65.17 
  73 28.71  9.05 65.17 
  74  2.44 10.43 65.17 
  75 21.85  9.88 65.17 
  76 44.79  8.52 65.17 
  77 27.77  8.50 65.17 
  78 23.64  8.33 65.17 
  79 80.43  8.25 65.17 
  80 -7.59  8.16 80.43 
  81 35.31  7.60 80.43 
  82 44.13  8.13 80.43 
  83 34.55  7.64 80.43 
  84 12.83 10.18 80.43 
  85 49.68  7.53 80.43 
  86 23.98 14.03 80.43 
  87 37.04 13.60 80.43 
  88 46.15  9.58 80.43 
  89 48.67 13.38 80.43 
  90 29.85  7.43 80.43 
  91 49.22  7.10 80.43 
  92 56.53  8.10 80.43 
  93 24.04 10.10 80.43 
  94 29.56 10.21 80.43 
  95 72.76 10.13 80.43 
  96 40.41 13.79 80.43 
  97 23.23 10.11 80.43 
  98 50.91 10.00 80.43 
  99 21.36 10.07 80.43 
 100 21.28  9.94 80.43 
 101 77.11  9.99 80.43 
 102 16.53 10.02 80.43 
 103 30.95  9.99 80.43 
 104 56.03 10.16 80.43 
 105  6.92 10.21 80.43 
 106 32.68 10.20 80.43 
 107 12.44 10.12 80.43 
 108 102.31  8.67 80.43 
 109 74.20 10.11 102.31 
 110 28.39 10.13 102.31 
 111 45.71 10.12 102.31 
 112 42.96 10.16 102.31 
 113 26.78  9.61 102.31 
 114 46.09  8.18 102.31 
 115 34.91  9.46 102.31 
 116 56.44  9.40 102.31 
 117 60.36  9.42 102.31 
 118 22.30  9.51 102.31 
 119 44.10  9.35 102.31 
 120 41.27  8.93 102.31 
 121 110.57  9.02 102.31 
 122 56.29 10.25 110.57 
 123 70.80 10.44 110.57 
 124 75.01 11.07 110.57 
 125 69.24 10.31 110.57 
 126 108.08 10.12 110.57 
 127 81.78 10.07 110.57 
 128 61.86  9.47 110.57 
 129 62.64  8.23 110.57 
 130 140.45  8.76 110.57 
 131 37.04  9.53 140.45 
 132 78.34 10.88 140.45 
 133 79.64 10.21 140.45 
 134 61.20 11.46 140.45 
 135 62.13 11.34 140.45 
 136 52.25 14.49 140.45 
 137 98.70 10.62 140.45 
 138 66.21  8.77 140.45 
 139 54.95  8.72 140.45 
 140 74.80  7.75 140.45 
 141 107.25  7.88 140.45 
 142 42.93  7.47 140.45 
 143 52.20  8.10 140.45 
 144 37.45  8.66 140.45 
 145 115.23  8.16 140.45 
 146 102.22 10.18 140.45 
 147 169.37  8.63 140.45 
 148 89.51  9.97 169.37 
 149 52.69  9.33 169.37 
 150 102.15  9.27 169.37 
 151 163.40 10.06 169.37 
 152 172.59  9.29 169.37 
 153 181.76  9.28 172.59 
 154 124.81 10.01 181.76 
 155 74.80 10.04 181.76 
 156 94.45  9.39 181.76 
 157 88.31  8.65 181.76 
 158 118.91  8.53 181.76 
 159 74.72  8.60 181.76 
 160 109.14  9.40 181.76 
 161 125.15  9.46 181.76 
 162 109.38 10.13 181.76 
 163 132.78 10.23 181.76 
 164 112.01 10.06 181.76 
 165 87.72 10.05 181.76 
 166 150.99  9.94 181.76 
 167 168.93  9.15 181.76 
 168 141.80  9.18 181.76 
 169 118.11  9.18 181.76 
 170 86.15  9.13 181.76 
 171 79.96  9.08 181.76 
 172 116.19  9.77 181.76 
 173 60.86  9.84 181.76 
 174 109.17  9.88 181.76 
 175 283.26  9.93 181.76 
 176 165.32  9.95 283.26 
 177 163.88  9.92 283.26 
 178 169.95 13.69 283.26 
 179 178.41 10.04 283.26 
 180 200.55 13.76 283.26 
 181 83.34 13.65 283.26 
 182 246.69 13.58 283.26 
 183 201.88 14.20 283.26 
 184 147.86 14.18 283.26 
 185 112.95 14.86 283.26 
 186 207.55 14.82 283.26 
 187 105.42 14.89 283.26 
 188 199.78 10.48 283.26 
 189 195.99 10.54 283.26 
 190 149.17 10.61 283.26 
 191 126.83 15.63 283.26 
 192 124.96  9.91 283.26 
 193 114.76  9.85 283.26 
 194 71.25  9.80 283.26 
 195 178.35  9.90 283.26 
 196 170.25 13.62 283.26 
 197 138.22 13.73 283.26 
 198 88.19 13.76 283.26 
 199 209.99 15.03 283.26 
 200 212.30 13.71 283.26 
 201 209.68 14.26 283.26 
 202 143.86 11.12 283.26 
 203 198.96 11.15 283.26 
 204 193.17 10.53 283.26 
 205 224.59 15.51 283.26 
 206 192.97 14.28 283.26 
 207 274.35 95.64 283.26 
 208 181.21 104.94 283.26 
 209 247.13 107.50 283.26 
 210 130.75 101.85 283.26 
 211 260.85 114.53 283.26 
 212 203.54 108.30 283.26 
 213 223.96 15.81 283.26 
 214 263.99 11.41 283.26 
 215 259.64 11.40 283.26 
 216 295.58 10.11 283.26 
 217 345.71  9.98 295.58 
 218 232.77  9.93 345.71 
 219 179.88 13.08 345.71 
 220 231.02 13.11 345.71 
 221 285.44  9.74 345.71 
 222 191.77  9.82 345.71 
 223 256.25  9.74 345.71 
 224 228.16  9.80 345.71 
 225 139.20  9.76 345.71 
 226 99.07  9.69 345.71 
 227 152.96  9.55 345.71 
 228 334.51  9.55 345.71 
 229 244.57  9.49 345.71 
 230 214.41  9.45 345.71 
 231 225.65  9.43 345.71 
 232 213.65  9.47 345.71 
 233 191.14  9.53 345.71 
 234 328.02  9.50 345.71 
 235 325.86 12.75 345.71 
 236 210.08 12.73 345.71 
 237 256.72 10.25 345.71 
 238 326.09 12.67 345.71 
 239 162.23 12.66 345.71 
 240 272.80 10.11 345.71 
 241 399.89 13.19 345.71 
 242 299.38 13.18 399.89 
 243 316.77 12.57 399.89 
 244 342.01 13.71 399.89 
 245 278.52 13.09 399.89 
 246 339.16 13.10 399.89 
 247 205.20 13.18 399.89 
 248 305.27 13.18 399.89 
 249 293.32 13.24 399.89 
 250 249.79 13.31 399.89 
 251 342.04 13.23 399.89 
 252 430.87 13.28 399.89 
 253 280.98 13.22 430.87 
 254 249.79 13.16 430.87 
 255 211.87 13.18 430.87 
 256 188.69 13.17 430.87 
 257 304.66 13.17 430.87 
 258 262.80 13.07 430.87 
 259 216.84 13.10 430.87 
 260 190.25 13.07 430.87 
 261 242.23 13.00 430.87 
 262 277.43 12.96 430.87 
 263 274.73 12.97 430.87 
 264 313.94  9.20 430.87 
 265 255.25  9.16 430.87 
 266 262.73 12.96 430.87 
 267 356.70  9.22 430.87 
 268 326.63 12.98 430.87 
 269 372.90  9.20 430.87 
 270 397.87  9.15 430.87 
 271 354.98  9.18 430.87 
 272 246.11  9.18 430.87 
 273 321.93  9.18 430.87 
 274 301.07 12.36 430.87 
 275 297.15 12.32 430.87 
 276 158.59 12.41 430.87 
 277 323.52 16.14 430.87 
 278 275.85 12.27 430.87 
 279 449.20  9.21 430.87 
 280 267.98 12.27 449.20 
 281 248.65  9.16 449.20 
 282 162.92  9.14 449.20 
 283 273.60  9.13 449.20 
 284 466.10  9.10 449.20 
 285 397.67  9.15 466.10 
 286 455.26  9.14 466.10 
 287 185.43  9.08 466.10 
 288 213.14  9.04 466.10 
 289 482.50  8.99 466.10 
 290 205.47 10.26 482.50 
 291 403.75 10.81 482.50 
 292 292.50 10.20 482.50 
 293 395.41 10.21 482.50 
 294 287.65 10.81 482.50 
 295 434.73 10.80 482.50 
 296 247.74 14.55 482.50 
 297 345.56 24.00 482.50 
 298 432.85 10.87 482.50 
 299 383.30 10.87 482.50 
 300 442.56 10.22 482.50 
 301 461.36 10.23 482.50 
 302 435.72 10.26 482.50 
 303 277.56  9.74 482.50 
 304 386.51 10.46 482.50 
 305 381.57  9.74 482.50 
 306 370.53  9.76 482.50 
 307 490.17 10.40 482.50 
 308 339.32 10.94 490.17 
 309 446.24 13.39 490.17 
 310 240.36  8.97 490.17 
 311 393.66  8.93 490.17 
 312 293.38 13.32 490.17 
 313 264.64 12.06 490.17 
 314 364.25 12.02 490.17 
 315 307.19 12.04 490.17 
 316 376.52 12.05 490.17 
 317 447.26  8.90 490.17 
 318 332.48 13.39 490.17 
 319 350.30 15.92 490.17 
 320 463.15  9.65 490.17 
 321 525.95 17.81 490.17 
 322 314.41 16.54 525.95 
 323 321.51 17.16 525.95 
 324 324.23 18.33 525.95 
 325 338.19 18.28 525.95 
 326 441.97 19.01 525.95 
 327 543.23 19.01 525.95 
 328 393.86 18.96 543.23 
 329 505.49 18.39 543.23 
 330 422.36 17.81 543.23 
 331 419.13 17.87 543.23 
 332 553.80 17.89 543.23 
 333 368.89 15.98 553.80 
 334 285.07 15.95 553.80 
 335 310.88 12.08 553.80 
 336 417.62  8.95 553.80 
 337 516.29 12.77 553.80 
 338 448.32 15.87 553.80 
 339 395.02  8.94 553.80 
 340 496.80 15.84 553.80 
 341 489.05 11.34 553.80 
 342 368.36 11.32 553.80 
 343 488.26 11.26 553.80 
 344 493.90 11.88 553.80 
 345 391.75 12.57 553.80 
 346 502.37  8.09 553.80 
 347 505.40  8.09 553.80 
 348 455.47  9.44 553.80 
 349 501.71  9.41 553.80 
 350 450.21  8.13 553.80 
 351 465.75  8.12 553.80 
 352 310.38  8.11 553.80 
 353 361.26 12.51 553.80 
 354 487.55  8.11 553.80 
 355 566.07  9.40 553.80 
 356 293.54 13.87 566.07 
 357 337.37 19.01 566.07 
 358 472.28 17.68 566.07 
 359 340.69 22.74 566.07 
 360 477.44 17.82 566.07 
 361 556.54 16.49 566.07 
 362 452.53 13.84 566.07 
 363 584.34 17.72 566.07 
 364 429.14 13.20 584.34 
 365 429.55 11.95 584.34 
 366 491.17 11.94 584.34 
 367 438.22 12.61 584.34 
 368 505.76 12.55 584.34 
 369 428.95 16.99 584.34 
 370 612.47 13.89 584.34 
 371 467.33 11.91 612.47 
 372 314.01 13.82 612.47 
 373 493.48 13.86 612.47 
 374 660.75 13.15 612.47 
 375 511.89 13.35 660.75 
 376 567.70 20.39 660.75 
 377 474.92 21.18 660.75 
 378 419.15 24.57 660.75 
 379 538.55 21.98 660.75 
 380 511.13 20.66 660.75 
 381 626.38 20.59 660.75 
 382 540.68 19.89 660.75 
 383 436.89 20.60 660.75 
 384 680.88 21.12 660.75 
 385 517.91 21.16 680.88 
 386 652.12 17.68 680.88 
 387 282.16 21.95 680.88 
 388 452.58 22.66 680.88 
 389 517.49 17.65 680.88 
 390 655.33 17.69 680.88 
 391 564.18 17.01 680.88 
 392 444.79 18.88 680.88 
 393 442.05 17.64 680.88 
 394 406.20 21.07 680.88 
 395 748.19 23.21 680.88 
 396 677.51 22.19 748.19 
 397 528.80 16.33 748.19 
 398 488.72 17.72 748.19 
 399 587.33 17.71 748.19 
 400 621.82 15.69 748.19 
 401 599.71 15.66 748.19 
 402 535.30 15.77 748.19 
 403 688.39 15.79 748.19 
 404 594.26 21.81 748.19 
 405 341.79 15.86 748.19 
 406 527.75 16.52 748.19 
 407 616.95 17.27 748.19 
 408 786.20 15.88 748.19 
 409 369.71 21.88 786.20 
 410 545.51 18.49 786.20 
 411 569.95 27.02 786.20 
 412 552.16 26.59 786.20 
 413 727.53 27.23 786.20 
 414 523.87 27.79 786.20 
 415 589.02 19.30 786.20 
 416 494.04 26.45 786.20 
 417 708.10 22.94 786.20 
 418 673.17 28.04 786.20 
 419 439.96 22.21 786.20 
 420 508.92 22.23 786.20 
 421 688.66 24.96 786.20 
 422 652.90 24.39 786.20 
 423 712.34 23.52 786.20 
 424 641.68 23.61 786.20 
 425 527.87 24.34 786.20 
 426 528.91 25.07 786.20 
 427 605.14 25.59 786.20 
 428 715.31 24.90 786.20 
 429 646.93 23.68 786.20 
 430 583.55 35.22 786.20 
 431 758.44 45.75 786.20 
 432 495.27 46.53 786.20 
 433 571.93 55.28 786.20 
 434 517.58 56.22 786.20 
 435 661.79 51.22 786.20 
 436 642.16 45.78 786.20 
 437 472.05 47.11 786.20 
 438 657.69 47.14 786.20 
 439 518.00 149.67 786.20 
 440 661.63 165.70 786.20 
 441 624.91 164.51 786.20 
 442 610.51 91.29 786.20 
 443 640.48 114.07 786.20 
 444 738.95 112.99 786.20 
 445 438.13 182.93 786.20 
 446 535.94 188.53 786.20 
 447 712.73 215.24 786.20 
 448 736.64 200.78 786.20 
 449 454.71 195.19 786.20 
 450 499.18 267.79 786.20 
 451 755.99 282.89 786.20 
 452 567.73 252.88 786.20 
 453 437.62 253.97 786.20 
 454 445.94 187.70 786.20 
 455 730.77 179.88 786.20 
 456 594.26 174.18 786.20 
 457 781.04 143.80 786.20 
 458 490.78 149.50 786.20 
 459 398.84 159.47 786.20 
 460 739.16 180.57 786.20 
 461 514.40 233.44 786.20 
 462 689.43 196.34 786.20 
 463 486.77 143.47 786.20 
 464 617.33 146.95 786.20 
 465 581.86 228.08 786.20 
 466 614.00 276.65 786.20 
 467 747.42 238.12 786.20 
 468 731.81 230.42 786.20 
 469 736.40 155.86 786.20 
 470 700.38 57.29 786.20 
 471 606.43 80.68 786.20 
 472 442.74 129.27 786.20 
 473 628.52 57.73 786.20 
 474 745.82 194.75 786.20 
 475 800.03 141.65 786.20 
 476 786.47 169.29 800.03 
 477 573.79 194.62 800.03 
 478 693.78 169.91 800.03 
 479 648.10 154.95 800.03 
 480 633.10 126.58 800.03 
 481 503.46 189.73 800.03 
 482 509.51 223.76 800.03 
 483 556.37 239.59 800.03 
 484 574.91 240.26 800.03 
 485 767.53 247.68 800.03 
 486 750.17 239.64 800.03 
 487 652.65 256.98 800.03 
 488 680.77 247.61 800.03 
 489 563.61 271.59 800.03 
 490 725.62 302.91 800.03 
 491 756.35 279.80 800.03 
 492 599.85 305.50 800.03 
 493 724.35 290.71 800.03 
 494 526.79 310.14 800.03 
 495 527.07 293.06 800.03 
 496 721.83 295.03 800.03 
 497 799.18 294.34 800.03 
 498 557.08 313.15 800.03 
 499 516.91 319.49 800.03 
 500 790.08 279.05 800.03 
 501 713.41 294.48 800.03 
 502 576.86 319.83 800.03 
 503 710.96 313.85 800.03 
 504 682.69 316.26 800.03 
 505 541.48 307.53 800.03 
 506 670.26 306.89 800.03 
 507 580.49 310.67 800.03 
 508 785.99 312.60 800.03 
 509 557.89 310.68 800.03 
 510 610.47 297.52 800.03 
 511 705.99 313.67 800.03 
 512 648.69 280.02 800.03 
 513 586.78 317.51 800.03 
 514 694.29 320.55 800.03 
 515 539.12 339.15 800.03 
 516 666.65 366.47 800.03 
 517 552.28 334.63 800.03 
 518 720.76 324.67 800.03 
 519 630.42 350.21 800.03 
 520 743.40 341.55 800.03 
 521 659.36 341.00 800.03 
 522 750.63 354.66 800.03 
 523 699.98 370.95 800.03 
 524 521.14 430.74 800.03 
 525 633.03 481.60 800.03 
 526 885.08 460.81 800.03 
 527 715.43 436.04 885.08 
 528 676.30 406.16 885.08 
 529 596.52 380.23 885.08 
 530 709.92 398.60 885.08 
 531 540.10 349.06 885.08 
 532 748.29 350.31 885.08 
 533 671.95 368.04 885.08 
 534 631.68 353.63 885.08 
 535 543.37 349.23 885.08 
 536 516.56 351.63 885.08 
 537 679.48 322.04 885.08 
 538 656.64 312.58 885.08 
 539 900.93 335.76 885.08 
 540 766.98 346.98 900.93 
 541 657.60 314.42 900.93 
 542 563.69 318.31 900.93 
 543 934.56 339.08 900.93 
 544 736.78 330.18 934.56 
 545 784.67 336.20 934.56 
 546 744.06 336.91 934.56 
 547 717.98 341.25 934.56 
 548 837.29 353.90 934.56 
 549 535.86 378.04 934.56 
 550 756.77 427.84 934.56 
 551 795.32 418.55 934.56 
 552 734.00 418.58 934.56 
 553 686.24 467.83 934.56 
 554 689.61 541.88 934.56 
 555 686.29 544.93 934.56 
 556 807.56 527.56 934.56 
 557 735.90 597.63 934.56 
 558 863.30 497.15 934.56 
 559 670.27 463.04 934.56 
 560 597.56 468.75 934.56 
 561 375.67 451.89 934.56 
 562 809.70 453.77 934.56 
 563 688.38 425.16 934.56 
 564 763.27 378.75 934.56 
 565 905.28 379.34 934.56 
 566 900.85 418.18 934.56 
 567 637.33 408.78 934.56 
 568 682.72 417.68 934.56 
 569 594.54 382.43 934.56 
 570 769.69 397.52 934.56 
 571 890.59 395.59 934.56 
 572 564.35 440.19 934.56 
 573 703.69 436.27 934.56 
 574 778.16 408.00 934.56 
 575 818.98 406.75 934.56 
 576 575.08 389.39 934.56 
 577 617.18 390.51 934.56 
 578 599.46 403.21 934.56 
 579 667.81 397.38 934.56 
 580 702.16 411.54 934.56 
 581 606.92 400.75 934.56 
 582 689.20 388.24 934.56 
 583 531.83 380.07 934.56 
 584 957.79 449.22 934.56 
 585 753.47 460.67 957.79 
 586 717.30 448.58 957.79 
 587 656.62 408.32 957.79 
 588 720.75 440.81 957.79 
 589 726.05 488.58 957.79 
 590 850.24 520.09 957.79 
 591 646.21 577.34 957.79 
 592 780.73 428.39 957.79 
 593 829.12 405.05 957.79 
 594 793.84 354.48 957.79 
 595 657.55 357.34 957.79 
 596 695.90 392.40 957.79 
 597 629.74 388.38 957.79 
 598 792.38 341.83 957.79 
 599 650.91 403.45 957.79 
 600 889.24 410.18 957.79 
 601 637.93 400.82 957.79 
 602 585.07 406.05 957.79 
 603 891.83 418.94 957.79 
 604 774.18 412.13 957.79 
 605 698.65 363.88 957.79 
 606 737.84 370.04 957.79 
 607 601.69 388.97 957.79 
 608 850.49 387.14 957.79 
 609 753.53 424.22 957.79 
 610 801.37 416.83 957.79 
 611 596.91 361.56 957.79 
 612 630.49 393.42 957.79 
 613 865.93 421.66 957.79 
 614 599.22 424.62 957.79 
 615 800.11 410.17 957.79 
 616 824.08 442.54 957.79 
 617 868.43 395.48 957.79 
 618 945.42 432.51 957.79 
 619 864.19 435.65 957.79 
 620 732.74 460.56 957.79 
 621 678.71 426.64 957.79 
 622 635.50 519.72 957.79 
 623 653.33 477.09 957.79 
 624 769.98 468.75 957.79 
 625 861.66 477.83 957.79 
 626 964.28 482.36 957.79 
 627 969.40 494.86 964.28 
 628 804.81 494.61 969.40 
 629 855.97 496.23 969.40 
 630 709.87 523.71 969.40 
 631 731.94 446.89 969.40 
 632 860.07 412.19 969.40 
 633 782.56 436.35 969.40 
 634 713.36 421.58 969.40 
 635 744.30 439.37 969.40 
 636 808.00 460.04 969.40 
 637 655.52 453.45 969.40 
 638 855.10 524.93 969.40 
 639 912.89 554.08 969.40 
 640 853.50 742.36 969.40 
 641 835.73 587.98 969.40 
 642 856.02 899.75 969.40 
 643 748.19 754.44 969.40 
 644 771.57 803.01 969.40 
 645 757.50 701.81 969.40 
 646 653.03 838.93 969.40 
 647 960.95 890.23 969.40 
 648 885.23 880.20 969.40 
 649 782.56 925.51 969.40 
 650 600.51 900.03 969.40 
 651 879.30 882.98 969.40 
 652 710.17 747.34 969.40 
 653 729.62 834.52 969.40 
 654 805.47 898.43 969.40 
 655 817.04 924.30 969.40 
 656 893.17 895.74 969.40 
 657 967.03 865.01 969.40 
 658 910.99 630.27 969.40 
 659 714.68 622.58 969.40 
 660 714.62 635.91 969.40 
 661 853.12 658.38 969.40 
 662 685.00 669.03 969.40 
 663 910.76 644.76 969.40 
 664 651.96 750.40 969.40 
 665 731.96 673.20 969.40 
 666 771.58 672.61 969.40 
 667 901.06 647.61 969.40 
 668 873.76 597.03 969.40 
 669 626.62 560.90 969.40 
 670 710.67 592.67 969.40 
 671 857.93 576.53 969.40 
 672 838.15 526.96 969.40 
 673 1154.05 572.56 969.40 
 674 911.64 574.61 1154.05 
 675 876.26 694.01 1154.05 
 676 544.99 577.93 1154.05 
 677 842.71 612.58 1154.05 
 678 733.78 567.01 1154.05 
 679 752.08 473.19 1154.05 
 680 927.17 402.34 1154.05 
 681 789.23 418.30 1154.05 
 682 696.55 486.87 1154.05 
 683 737.63 455.80 1154.05 
 684 819.24 560.88 1154.05 
 685 813.82 579.31 1154.05 
 686 704.91 593.13 1154.05 
 687 847.79 560.09 1154.05 
 688 916.35 528.86 1154.05 
 689 793.93 571.22 1154.05 
 690 870.26 557.57 1154.05 
 691 907.45 618.96 1154.05 
 692 890.05 619.50 1154.05 
 693 804.83 596.25 1154.05 
 694 949.89 615.62 1154.05 
 695 846.80 621.25 1154.05 
 696 736.50 600.88 1154.05 
 697 848.51 562.92 1154.05 
 698 814.33 611.58 1154.05 
 699 854.62 560.12 1154.05 
 700 916.23 534.67 1154.05 
 701 907.90 542.76 1154.05 
 702 868.00 533.35 1154.05 
 703 832.99 489.22 1154.05 
 704 1076.31 455.97 1154.05 
 705 852.91 497.26 1154.05 
 706 794.15 507.93 1154.05 
 707 718.26 462.75 1154.05 
 708 818.37 540.29 1154.05 
 709 769.89 606.84 1154.05 
 710 787.64 532.59 1154.05 
 711 886.89 735.25 1154.05 
 712 807.73 569.84 1154.05 
 713 819.59 622.57 1154.05 
 714 909.05 548.14 1154.05 
 715 680.46 553.15 1154.05 
 716 783.29 709.29 1154.05 
 717 671.05 749.02 1154.05 
 718 866.60 694.72 1154.05 
 719 815.69 701.33 1154.05 
 720 770.59 598.41 1154.05 
 721 696.81 779.36 1154.05 
 722 915.98 639.97 1154.05 
 723 612.73 711.75 1154.05 
 724 891.71 882.33 1154.05 
 725 924.03 900.62 1154.05 
 726 655.54 810.37 1154.05 
 727 819.55 820.56 1154.05 
 728 719.91 874.10 1154.05 
 729 683.94 779.53 1154.05 
 730 788.66 736.93 1154.05 
 731 696.25 683.81 1154.05 
 732 694.90 610.51 1154.05 
 733 606.86 622.25 1154.05 
 734 853.14 607.47 1154.05 
 735 843.90 615.48 1154.05 
 736 763.32 758.02 1154.05 
 737 947.65 742.23 1154.05 
 738 878.10 730.22 1154.05 
 739 786.36 623.12 1154.05 
 740 861.38 617.71 1154.05 
 741 893.43 726.64 1154.05 
 742 727.71 835.21 1154.05 
 743 690.99 763.00 1154.05 
 744 930.62 831.72 1154.05 
 745 822.53 839.34 1154.05 
 746 1021.36 795.43 1154.05 
 747 961.34 917.12 1154.05 
 748 873.13 854.49 1154.05 
 749 810.37 861.04 1154.05 
 750 1012.74 910.25 1154.05 
 751 762.98 879.21 1154.05 
 752 872.90 846.27 1154.05 
 753 788.20 752.22 1154.05 
 754 660.77 843.10 1154.05 
 755 1003.44 800.59 1154.05 
 756 967.07 802.36 1154.05 
 757 887.08 780.61 1154.05 
 758 640.97 820.67 1154.05 
 759 881.63 968.53 1154.05 
 760 1019.23 977.08 1154.05 
 761 755.96 835.56 1154.05 
 762 847.04 1037.87 1154.05 
 763 1031.49 1058.40 1154.05 
 764 990.65 838.23 1154.05 
 765 785.25 909.10 1154.05 
 766 1054.44 970.26 1154.05 
 767 748.23 767.32 1154.05 
 768 983.67 925.93 1154.05 
 769 913.98 925.88 1154.05 
 770 923.59 952.17 1154.05 
 771 798.56 875.95 1154.05 
 772 783.68 940.46 1154.05 
 773 932.41 974.92 1154.05 
 774 1006.69 886.45 1154.05 
 775 881.91 1049.17 1154.05 
 776 1005.92 1100.36 1154.05 
 777 733.59 1060.11 1154.05 
 778 857.89 1091.29 1154.05 
 779 853.24 1125.00 1154.05 
 780 804.87 1097.26 1154.05 
 781 817.61 1071.63 1154.05 
 782 861.99 1097.20 1154.05 
 783 882.76 1127.78 1154.05 
 784 1211.66 1049.84 1154.05 
 785 628.88 1140.34 1211.66 
 786 1063.86 999.48 1211.66 
 787 871.79 1038.99 1211.66 
 788 878.80 937.29 1211.66 
 789 787.15 1069.64 1211.66 
 790 1011.49 1099.11 1211.66 
 791 1101.07 1040.96 1211.66 
 792 942.52 1140.67 1211.66 
 793 974.96 950.87 1211.66 
 794 901.76 1089.79 1211.66 
 795 916.00 1102.79 1211.66 
 796 991.12 1223.89 1211.66 
 797 1008.56 1169.53 1211.66 
 798 955.41 937.19 1211.66 
 799 744.37 1062.99 1211.66 
 800 759.79 922.32 1211.66 
 801 914.17 683.40 1211.66 
 802 1020.73 734.99 1211.66 
 803 949.00 901.11 1211.66 
 804 893.91 953.08 1211.66 
 805 1028.58 959.68 1211.66 
 806 1175.76 939.59 1211.66 
 807 1056.03 968.07 1211.66 
 808 866.32 997.66 1211.66 
 809 1020.38 1292.50 1211.66 
 810 866.33 1206.76 1211.66 
 811 843.49 1203.54 1211.66 
 812 979.77 1175.78 1211.66 
 813 880.39 1170.27 1211.66 
 814 1013.59 1030.38 1211.66 
 815 818.77 1170.83 1211.66 
 816 1020.23 1103.30 1211.66 
 817 658.86 1259.61 1211.66 
 818 958.14 1322.95 1211.66 
 819 893.80 1309.68 1211.66 
 820 894.93 1335.20 1211.66 
 821 903.21 1326.44 1211.66 
 822 919.72 1223.01 1211.66 
 823 830.34 1268.65 1211.66 
 824 784.71 1082.89 1211.66 
 825 856.70 1065.62 1211.66 
 826 836.97 1155.33 1211.66 
 827 745.39 1182.28 1211.66 
 828 1050.29 1229.11 1211.66 
 829 928.24 1219.54 1211.66 
 830 1017.17 1270.24 1211.66 
 831 1027.91 1283.43 1211.66 
 832 956.46 1290.81 1211.66 
 833 974.96 1309.15 1211.66 
 834 788.58 1302.27 1211.66 
 835 844.14 1270.85 1211.66 
 836 969.70 1244.57 1211.66 
 837 1060.37 1232.78 1211.66 
 838 929.52 1203.61 1211.66 
 839 735.56 1284.41 1211.66 
 840 907.83 1325.36 1211.66 
 841 748.71 1330.03 1211.66 
 842 946.33 1336.56 1211.66 
 843 878.92 1353.48 1211.66 
 844 896.99 1365.09 1211.66 
 845 873.69 1326.85 1211.66 
 846 791.36 1351.66 1211.66 
 847 1008.20 1320.69 1211.66 
 848 839.59 1303.79 1211.66 
 849 773.61 1355.03 1211.66 
 850 704.10 1347.54 1211.66 
 851 967.76 1354.94 1211.66 
 852 1168.95 1331.25 1211.66 
 853 997.62 1363.31 1211.66 
 854 768.44 1370.92 1211.66 
 855 929.14 1345.41 1211.66 
 856 870.56 1362.99 1211.66 
 857 1004.68 1362.73 1211.66 
 858 928.72 1348.63 1211.66 
 859 1087.58 1377.82 1211.66 
 860 806.77 1327.84 1211.66 
 861 871.44 1325.36 1211.66 
 862 1012.78 1274.80 1211.66 
 863 810.37 1287.95 1211.66 
 864 934.56 1276.85 1211.66 
 865 1098.47 1295.02 1211.66 
 866 797.74 1331.73 1211.66 
 867 892.75 1419.96 1211.66 
 868 1116.96 1420.89 1211.66 
 869 928.27 1396.48 1211.66 
 870 1149.56 1433.94 1211.66 
 871 840.38 1430.00 1211.66 
 872 983.10 1457.58 1211.66 
 873 1043.60 1450.29 1211.66 
 874 963.03 1418.39 1211.66 
 875 1096.37 1433.14 1211.66 
 876 905.88 1429.02 1211.66 
 877 1069.84 1433.80 1211.66 
 878 1060.36 1431.25 1211.66 
 879 887.08 1455.59 1211.66 
 880 806.02 1420.61 1211.66 
 881 1027.75 1456.86 1211.66 
 882 985.36 1474.44 1211.66 
 883 769.21 1468.16 1211.66 
 884 1172.58 1472.48 1211.66 
 885 1085.46 1491.90 1211.66 
 886 843.53 1490.58 1211.66 
 887 776.77 1485.86 1211.66 
 888 841.24 1468.02 1211.66 
 889 873.28 1443.30 1211.66 
 890 1017.67 1423.04 1211.66 
 891 1064.84 1408.76 1211.66 
 892 937.46 1360.46 1211.66 
 893 1117.78 1397.65 1211.66 
 894 934.25 1377.60 1211.66 
 895 864.36 1456.20 1211.66 
 896 1077.29 1418.03 1211.66 
 897 1007.94 1417.42 1211.66 
 898 894.22 1418.08 1211.66 
 899 941.56 1399.88 1211.66 
 900 752.94 1432.56 1211.66 
 901 834.78 1460.57 1211.66 
 902 908.55 1450.20 1211.66 
 903 856.63 1466.42 1211.66 
 904 1095.36 1431.36 1211.66 
 905 1050.70 1427.33 1211.66 
 906 1146.17 1452.58 1211.66 
 907 909.91 1473.87 1211.66 
 908 892.17 1491.39 1211.66 
 909 1003.40 1472.62 1211.66 
 910 1006.37 1460.72 1211.66 
 911 942.08 1374.95 1211.66 
 912 1233.22 1408.59 1211.66 
 913 1184.60 1400.22 1233.22 
 914 987.17 1406.50 1233.22 
 915 1074.59 1403.37 1233.22 
 916 1088.51 1410.90 1233.22 
 917 1091.89 1415.87 1233.22 
 918 1140.26 1406.43 1233.22 
 919 968.62 1447.07 1233.22 
 920 1051.64 1428.62 1233.22 
 921 875.49 1428.73 1233.22 
 922 839.15 1413.61 1233.22 
 923 1114.57 1407.85 1233.22 
 924 879.72 1396.51 1233.22 
 925 1138.80 1424.09 1233.22 
 926 1028.78 1445.47 1233.22 
 927 1048.12 1438.47 1233.22 
 928 980.23 1429.87 1233.22 
 929 772.92 1404.80 1233.22 
 930 1178.58 1417.78 1233.22 
 931 955.04 1404.04 1233.22 
 932 941.16 1405.95 1233.22 
 933 899.73 1399.02 1233.22 
 934 717.91 1392.78 1233.22 
 935 1050.13 1364.32 1233.22 
 936 827.62 1369.39 1233.22 
 937 895.47 1371.65 1233.22 
 938 907.73 1359.23 1233.22 
 939 1053.59 1382.10 1233.22 
 940 934.05 1428.88 1233.22 
 941 1256.07 1438.15 1233.22 
 942 1214.14 1443.03 1256.07 
 943 1031.03 1456.29 1256.07 
 944 1041.39 1437.35 1256.07 
 945 959.01 1415.15 1256.07 
 946 959.03 1461.12 1256.07 
 947 746.63 1406.96 1256.07 
 948 987.60 1415.50 1256.07 
 949 947.94 1372.13 1256.07 
 950 941.96 1361.48 1256.07 
 951 903.53 1381.90 1256.07 
 952 777.82 1408.98 1256.07 
 953 890.72 1391.01 1256.07 
 954 1162.56 1430.09 1256.07 
 955 1150.59 1397.63 1256.07 
 956 1092.68 1386.35 1256.07 
 957 1107.88 1396.46 1256.07 
 958 890.14 1407.18 1256.07 
 959 946.69 1461.00 1256.07 
 960 921.43 1452.46 1256.07 
 961 1151.87 1468.65 1256.07 
 962 1014.80 1494.83 1256.07 
 963 925.15 1438.06 1256.07 
 964 1001.12 1407.55 1256.07 
 965 1101.61 1401.87 1256.07 
 966 1085.14 1402.65 1256.07 
 967 1061.60 1410.05 1256.07 
 968 1048.83 1427.57 1256.07 
 969 871.19 1429.47 1256.07 
 970 1042.94 1425.75 1256.07 
 971 783.78 1433.89 1256.07 
 972 812.00 1445.25 1256.07 
 973 1030.92 1432.24 1256.07 
 974 1055.07 1443.94 1256.07 
 975 897.92 1438.14 1256.07 
 976 917.36 1460.44 1256.07 
 977 1028.26 1444.15 1256.07 
 978 1123.35 1394.28 1256.07 
 979 957.01 1400.22 1256.07 
 980 887.11 1401.22 1256.07 
 981 1052.14 1427.74 1256.07 
 982 945.67 1393.47 1256.07 
 983 1073.73 1374.01 1256.07 
 984 996.89 1346.71 1256.07 
 985 865.17 1381.78 1256.07 
 986 918.34 1393.48 1256.07 
 987 907.32 1354.78 1256.07 
 988 1012.33 1370.55 1256.07 
 989 990.37 1384.02 1256.07 
 990 1101.27 1393.57 1256.07 
 991 958.71 1422.62 1256.07 
 992 1103.14 1430.16 1256.07 
 993 883.95 1452.36 1256.07 
 994 880.46 1433.54 1256.07 
 995 1044.46 1412.07 1256.07 
 996 1001.49 1411.00 1256.07 
 997 1339.81 1438.21 1256.07 
 998 1007.28 1408.26 1339.81 
 999 964.81 1356.10 1339.81 
1000 974.23 1390.69 1339.81 
1001 1135.13 1397.68 1339.81 
1002 923.67 1445.18 1339.81 
1003 835.09 1454.56 1339.81 
1004 926.90 1385.77 1339.81 
1005 727.52 1454.62 1339.81 
1006 1210.22 1373.25 1339.81 
1007 1044.41 1370.38 1339.81 
1008 962.51 1367.13 1339.81 
1009 1011.03 1365.75 1339.81 
1010 887.29 1373.26 1339.81 
1011 907.03 1367.65 1339.81 
1012 1206.00 1390.78 1339.81 
1013 804.81 1408.25 1339.81 
1014 843.92 1425.99 1339.81 
1015 1101.93 1423.52 1339.81 
1016 1029.82 1392.83 1339.81 
1017 1021.77 1396.62 1339.81 
1018 1166.08 1447.63 1339.81 
1019 958.78 1403.91 1339.81 
1020 1150.63 1400.93 1339.81 
1021 1017.56 1449.27 1339.81 
1022 1040.88 1469.20 1339.81 
1023 962.98 1476.04 1339.81 
1024 973.57 1462.22 1339.81 
1025 967.63 1460.15 1339.81 
1026 1007.90 1450.18 1339.81 
1027 1035.23 1470.99 1339.81 
1028 969.15 1481.42 1339.81 
1029 1130.26 1481.42 1339.81 
1030 988.64 1476.98 1339.81 
1031 1013.28 1470.91 1339.81 
1032 964.24 1455.91 1339.81 
1033 1008.74 1471.63 1339.81 
1034 1238.80 1505.47 1339.81 
1035 932.08 1520.46 1339.81 
1036 1067.31 1524.09 1339.81 
1037 958.55 1517.83 1339.81 
1038 852.81 1517.06 1339.81 
1039 1152.28 1529.76 1339.81 
1040 827.39 1545.32 1339.81 
1041 1139.67 1489.67 1339.81 
1042 911.26 1495.87 1339.81 
1043 1068.83 1489.11 1339.81 
1044 998.50 1503.58 1339.81 
1045 1187.44 1462.95 1339.81 
1046 936.61 1465.23 1339.81 
1047 1003.53 1431.71 1339.81 
1048 1071.06 1431.13 1339.81 
1049 828.13 1454.32 1339.81 
1050 1097.72 1473.05 1339.81 
1051 1012.13 1495.02 1339.81 
1052 1085.15 1488.19 1339.81 
1053 962.76 1458.08 1339.81 
1054 996.00 1473.53 1339.81 
1055 1130.63 1439.00 1339.81 
1056 1071.45 1470.20 1339.81 
1057 1163.58 1494.59 1339.81 
1058 946.20 1509.55 1339.81 
1059 1036.44 1508.93 1339.81 
1060 1045.11 1462.65 1339.81 
1061 1058.56 1445.83 1339.81 
1062 1183.92 1443.37 1339.81 
1063 1045.34 1452.71 1339.81 
1064 1100.30 1459.68 1339.81 
1065 899.75 1395.95 1339.81 
1066 1243.49 1407.31 1339.81 
1067 999.28 1452.98 1339.81 
1068 1130.42 1497.36 1339.81 
1069 1006.38 1475.44 1339.81 
1070 927.01 1429.18 1339.81 
1071 1053.52 1421.03 1339.81 
1072 1287.80 1409.21 1339.81 
1073 893.50 1415.37 1339.81 
1074 1064.19 1400.35 1339.81 
1075 1149.88 1412.94 1339.81 
1076 1194.48 1399.82 1339.81 
1077 1029.42 1412.94 1339.81 
1078 888.12 1409.78 1339.81 
1079 965.73 1408.49 1339.81 
1080 994.95 1440.40 1339.81 
1081 1110.98 1430.98 1339.81 
1082 1051.93 1427.89 1339.81 
1083 1185.75 1425.36 1339.81 
1084 1220.87 1462.83 1339.81 
1085 925.46 1456.64 1339.81 
1086 922.62 1490.77 1339.81 
1087 861.46 1521.32 1339.81 
1088 1037.02 1500.17 1339.81 
1089 985.91 1528.98 1339.81 
1090 1073.43 1470.52 1339.81 
1091 996.40 1509.57 1339.81 
1092 841.25 1509.31 1339.81 
1093 1016.57 1485.15 1339.81 
1094 896.72 1513.37 1339.81 
1095 975.79 1544.05 1339.81 
1096 1227.24 1534.40 1339.81 
1097 978.51 1538.38 1339.81 
1098 869.13 1466.68 1339.81 
1099 1027.50 1563.46 1339.81 
1100 939.89 1563.39 1339.81 
1101 1009.42 1563.30 1339.81 
1102 911.64 1610.87 1339.81 
1103 1011.03 1592.05 1339.81 
1104 982.59 1594.88 1339.81 
1105 1036.60 1544.21 1339.81 
1106 1222.92 1502.85 1339.81 
1107 988.54 1549.08 1339.81 
1108 997.75 1558.03 1339.81 
1109 1209.53 1553.51 1339.81 
1110 1148.55 1537.31 1339.81 
1111 942.37 1555.88 1339.81 
1112 1073.01 1571.75 1339.81 
1113 1103.76 1563.37 1339.81 
1114 876.30 1576.50 1339.81 
1115 1058.29 1572.01 1339.81 
1116 1087.15 1532.13 1339.81 
1117 953.50 1516.14 1339.81 
1118 891.37 1517.49 1339.81 
1119 1019.66 1523.82 1339.81 
1120 1010.01 1542.81 1339.81 
1121 1116.96 1581.02 1339.81 
1122 1158.42 1584.07 1339.81 
1123 1117.43 1568.37 1339.81 
1124 1024.29 1590.21 1339.81 
1125 1256.24 1559.24 1339.81 
1126 1071.65 1558.54 1339.81 
1127 1066.66 1557.58 1339.81 
1128 877.05 1537.39 1339.81 
1129 936.77 1535.12 1339.81 
1130 1133.85 1529.97 1339.81 
1131 949.75 1525.77 1339.81 
1132 1098.96 1542.46 1339.81 
1133 980.37 1541.68 1339.81 
1134 986.39 1541.67 1339.81 
1135 1020.16 1553.50 1339.81 
1136 986.80 1536.60 1339.81 
1137 1013.63 1539.76 1339.81 
1138 995.24 1527.92 1339.81 
1139 899.47 1527.25 1339.81 
1140 1254.94 1522.55 1339.81 
1141 978.36 1519.99 1339.81 
1142 950.01 1520.69 1339.81 
1143 1158.28 1524.32 1339.81 
1144 977.03 1532.52 1339.81 
1145 1060.31 1542.92 1339.81 
1146 1004.36 1549.81 1339.81 
1147 928.20 1531.65 1339.81 
1148 914.60 1497.21 1339.81 
1149 1090.47 1512.16 1339.81 
1150 1033.26 1521.86 1339.81 
1151 1010.30 1509.19 1339.81 
1152 1076.23 1506.81 1339.81 
1153 1057.58 1535.67 1339.81 
1154 1109.84 1549.05 1339.81 
1155 1242.28 1552.20 1339.81 
1156 1098.07 1561.55 1339.81 
1157 1009.42 1546.47 1339.81 
1158 1007.75 1520.88 1339.81 
1159 985.17 1552.17 1339.81 
1160 908.33 1557.88 1339.81 
1161 1247.15 1577.26 1339.81 
1162 1040.38 1577.28 1339.81 
1163 815.72 1549.09 1339.81 
1164 1169.59 1514.73 1339.81 
1165 952.23 1530.41 1339.81 
1166 988.49 1530.93 1339.81 
1167 1160.30 1571.76 1339.81 
1168 790.21 1577.96 1339.81 
1169 1051.15 1577.87 1339.81 
1170 943.66 1577.74 1339.81 
1171 1264.41 1571.48 1339.81 
1172 1064.89 1558.93 1339.81 
1173 1001.77 1549.60 1339.81 
1174 1310.66 1554.62 1339.81 
1175 960.09 1537.20 1339.81 
1176 1259.02 1508.38 1339.81 
1177 1129.46 1504.67 1339.81 
1178 1024.36 1484.03 1339.81 
1179 1170.04 1473.32 1339.81 
1180 941.26 1460.79 1339.81 
1181 1096.34 1434.53 1339.81 
1182 954.19 1390.14 1339.81 
1183 905.09 1394.55 1339.81 
1184 1084.61 1386.99 1339.81 
1185 1066.64 1382.54 1339.81 
1186 981.44 1357.46 1339.81 
1187 1046.92 1391.04 1339.81 
1188 1174.91 1371.11 1339.81 
1189 880.68 1418.09 1339.81 
1190 1004.21 1394.37 1339.81 
1191 1049.92 1464.46 1339.81 
1192 1101.42 1475.03 1339.81 
1193 1255.99 1474.54 1339.81 
1194 1163.17 1396.36 1339.81 
1195 919.05 1357.40 1339.81 
1196 1083.70 1361.18 1339.81 
1197 1016.18 1369.60 1339.81 
1198 978.87 1383.96 1339.81 
1199 1106.42 1385.22 1339.81 
1200 818.19 1361.73 1339.81 
1201 940.89 1370.67 1339.81 
1202 1125.67 1432.06 1339.81 
1203 952.54 1431.06 1339.81 
1204 1180.29 1435.22 1339.81 
1205 949.08 1409.54 1339.81 
1206 1143.11 1452.07 1339.81 
1207 959.17 1470.74 1339.81 
1208 997.93 1499.50 1339.81 
1209 1098.55 1480.12 1339.81 
1210 943.65 1487.66 1339.81 
1211 1251.08 1441.43 1339.81 
1212 904.46 1420.79 1339.81 
1213 1021.52 1446.35 1339.81 
1214 1017.50 1465.20 1339.81 
1215 998.38 1480.17 1339.81 
1216 1053.58 1483.93 1339.81 
1217 888.24 1480.21 1339.81 
1218 1307.37 1489.04 1339.81 
1219 1107.22 1516.66 1339.81 
1220 965.49 1455.71 1339.81 
1221 1077.66 1503.90 1339.81 
1222 1050.45 1515.93 1339.81 
1223 1041.03 1508.37 1339.81 
1224 1137.01 1520.29 1339.81 
1225 1029.16 1526.51 1339.81 
1226 1031.21 1485.23 1339.81 
1227 1220.05 1490.91 1339.81 
1228 1054.51 1515.43 1339.81 
1229 1132.20 1509.94 1339.81 
1230 1296.79 1505.63 1339.81 
1231 1118.83 1524.48 1339.81 
1232 975.17 1491.90 1339.81 
1233 1232.85 1496.20 1339.81 
1234 1283.86 1508.62 1339.81 
1235 959.35 1502.91 1339.81 
1236 862.98 1510.39 1339.81 
1237 1129.73 1513.97 1339.81 
1238 1212.75 1520.76 1339.81 
1239 944.60 1548.92 1339.81 
1240 990.30 1545.77 1339.81 
1241 1104.57 1548.35 1339.81 
1242 964.47 1541.91 1339.81 
1243 909.36 1521.30 1339.81 
1244 903.12 1524.47 1339.81 
1245 908.52 1543.09 1339.81 
1246 959.41 1524.88 1339.81 
1247 1239.43 1500.92 1339.81 
1248 1279.28 1506.17 1339.81 
1249 1161.26 1515.01 1339.81 
1250 1098.59 1512.00 1339.81 
1251 948.83 1520.59 1339.81 
1252 939.75 1519.75 1339.81 
1253 1113.61 1492.14 1339.81 
1254 1206.32 1495.54 1339.81 
1255 868.26 1486.26 1339.81 
1256 971.45 1484.86 1339.81 
1257 1028.53 1492.91 1339.81 
1258 992.31 1497.85 1339.81 
1259 1058.21 1523.13 1339.81 
1260 1123.34 1529.62 1339.81 
1261 1258.37 1555.82 1339.81 
1262 981.34 1509.72 1339.81 
1263 1030.15 1516.11 1339.81 
1264 919.00 1540.34 1339.81 
1265 1038.92 1543.44 1339.81 
1266 1086.35 1530.49 1339.81 
1267 1054.17 1552.91 1339.81 
1268 1073.46 1517.63 1339.81 
1269 777.82 1526.14 1339.81 
1270 866.42 1518.34 1339.81 
1271 1165.48 1510.96 1339.81 
1272 1051.95 1525.93 1339.81 
1273 1049.46 1523.19 1339.81 
1274 878.89 1510.60 1339.81 
1275 971.38 1479.39 1339.81 
1276 1164.71 1462.51 1339.81 
1277 1177.06 1447.42 1339.81 
1278 1056.58 1462.92 1339.81 
1279 1092.39 1441.00 1339.81 
1280 1052.65 1425.39 1339.81 
1281 1018.58 1463.28 1339.81 
1282 1211.42 1432.34 1339.81 
1283 1185.19 1457.59 1339.81 
1284 893.81 1470.28 1339.81 
1285 1077.41 1495.28 1339.81 
1286 976.83 1491.49 1339.81 
1287 1163.02 1506.51 1339.81 
1288 1029.35 1520.36 1339.81 
1289 903.73 1520.28 1339.81 
1290 1208.24 1530.22 1339.81 
1291 1102.15 1508.32 1339.81 
1292 1070.14 1486.42 1339.81 
1293 990.88 1494.94 1339.81 
1294 1143.80 1479.30 1339.81 
1295 1077.04 1470.24 1339.81 
1296 784.76 1463.94 1339.81 
1297 933.32 1479.60 1339.81 
1298 886.19 1485.76 1339.81 
1299 1104.20 1479.04 1339.81 
1300 1061.13 1494.77 1339.81 
1301 1042.32 1494.16 1339.81 
1302 757.09 1493.74 1339.81 
1303 1092.56 1494.39 1339.81 
1304 1226.37 1516.42 1339.81 
1305 1077.16 1503.59 1339.81 
1306 868.83 1531.42 1339.81 
1307 1291.57 1516.14 1339.81 
1308 1035.95 1525.77 1339.81 
1309 1072.30 1491.53 1339.81 
1310 1017.91 1510.25 1339.81 
1311 1165.81 1505.11 1339.81 
1312 1010.52 1491.90 1339.81 
1313 983.29 1510.42 1339.81 
1314 1027.28 1489.12 1339.81 
1315 973.82 1479.28 1339.81 
1316 1007.54 1473.08 1339.81 
1317 1081.61 1498.39 1339.81 
1318 871.95 1497.84 1339.81 
1319 963.71 1491.30 1339.81 
1320 1263.39 1511.68 1339.81 
1321 1069.98 1504.67 1339.81 
1322 1007.80 1470.00 1339.81 
1323 1132.89 1426.20 1339.81 
1324 1052.90 1501.24 1339.81 
1325 958.94 1461.02 1339.81 
1326 998.65 1426.21 1339.81 
1327 874.36 1473.59 1339.81 
1328 1086.66 1395.38 1339.81 
1329 1132.13 1429.86 1339.81 
1330 981.12 1432.32 1339.81 
1331 1050.59 1433.26 1339.81 
1332 1113.24 1450.77 1339.81 
1333 1182.93 1442.04 1339.81 
1334 918.68 1420.15 1339.81 
1335 995.53 1463.93 1339.81 
1336 1192.61 1494.26 1339.81 
1337 1013.48 1441.89 1339.81 
1338 786.36 1476.22 1339.81 
1339 1053.20 1439.38 1339.81 
1340 1036.11 1431.41 1339.81 
1341 1102.23 1459.54 1339.81 
1342 929.27 1462.70 1339.81 
1343 1046.45 1459.55 1339.81 
1344 943.26 1519.04 1339.81 
1345 1004.99 1522.61 1339.81 
1346 827.94 1530.99 1339.81 
1347 1151.20 1540.99 1339.81 
1348 1270.27 1535.28 1339.81 
1349 1116.02 1512.73 1339.81 
1350 888.75 1521.96 1339.81 
1351 995.96 1535.12 1339.81 
1352 942.02 1516.96 1339.81 
1353 1020.23 1521.92 1339.81 
1354 1042.29 1523.16 1339.81 
1355 1099.37 1532.50 1339.81 
1356 950.14 1545.25 1339.81 
1357 981.54 1542.64 1339.81 
1358 1006.35 1539.64 1339.81 
1359 1091.97 1549.12 1339.81 
1360 1138.39 1543.47 1339.81 
1361 1105.13 1543.42 1339.81 
1362 1049.26 1534.11 1339.81 
1363 1053.92 1537.21 1339.81 
1364 1056.24 1511.40 1339.81 
1365 932.54 1511.44 1339.81 
1366 1158.96 1523.99 1339.81 
1367 1102.12 1561.50 1339.81 
1368 1115.13 1554.59 1339.81 
1369 960.46 1552.94 1339.81 
1370 998.74 1558.41 1339.81 
1371 1339.79 1533.39 1339.81 
1372 1222.71 1520.79 1339.81 
1373 1012.16 1549.55 1339.81 
1374 1053.64 1530.70 1339.81 
1375 928.38 1533.23 1339.81 
1376 951.34 1524.58 1339.81 
1377 1032.66 1522.48 1339.81 
1378 870.59 1526.86 1339.81 
1379 1212.76 1522.55 1339.81 
1380 993.44 1536.93 1339.81 
1381 1053.45 1527.69 1339.81 
1382 892.53 1530.95 1339.81 
1383 1090.13 1528.42 1339.81 
1384 994.96 1525.22 1339.81 
1385 1205.92 1512.80 1339.81 
1386 900.91 1451.59 1339.81 
1387 1138.99 1491.64 1339.81 
1388 1046.31 1484.17 1339.81 
1389 1069.02 1493.56 1339.81 
1390 1070.24 1477.29 1339.81 
1391 946.28 1487.90 1339.81 
1392 1129.14 1478.00 1339.81 
1393 1110.17 1454.32 1339.81 
1394 964.28 1477.38 1339.81 
1395 1044.43 1484.25 1339.81 
1396 960.79 1474.86 1339.81 
1397 1223.83 1465.51 1339.81 
1398 1092.89 1449.96 1339.81 
1399 1175.53 1461.79 1339.81 
1400 914.11 1446.73 1339.81 
1401 1106.35 1418.61 1339.81 
1402 1013.86 1449.30 1339.81 
1403 1160.79 1452.81 1339.81 
1404 1148.91 1415.17 1339.81 
1405 1040.94 1427.37 1339.81 
1406 864.57 1427.33 1339.81 
1407 1281.57 1392.87 1339.81 
1408 1140.99 1417.90 1339.81 
1409 1063.19 1427.24 1339.81 
1410 1192.16 1425.81 1339.81 
1411 1135.87 1414.31 1339.81 
1412 1311.88 1389.29 1339.81 
1413 1038.93 1401.80 1339.81 
1414 1178.03 1373.73 1339.81 
1415 821.61 1392.46 1339.81 
1416 1086.90 1398.64 1339.81 
1417 1009.57 1389.28 1339.81 
1418 962.61 1388.44 1339.81 
1419 941.13 1370.44 1339.81 
1420 1129.21 1392.38 1339.81 
1421 909.99 1413.68 1339.81 
1422 1002.95 1429.92 1339.81 
1423 1013.28 1423.09 1339.81 
1424 988.70 1432.43 1339.81 
1425 1028.57 1457.31 1339.81 
1426 1102.15 1455.45 1339.81 
1427 896.25 1463.99 1339.81 
1428 1144.05 1420.21 1339.81 
1429 974.64 1433.35 1339.81 
1430 1051.97 1414.82 1339.81 
1431 1054.04 1440.25 1339.81 
1432 1139.10 1438.25 1339.81 
1433 1200.04 1448.95 1339.81 
1434 1039.36 1427.76 1339.81 
1435 1026.72 1427.07 1339.81 
1436 965.88 1432.58 1339.81 
1437 1083.71 1430.60 1339.81 
1438 1008.72 1433.24 1339.81 
1439 1018.81 1442.59 1339.81 
1440 925.72 1437.60 1339.81 
1441 906.55 1439.50 1339.81 
1442 902.89 1443.18 1339.81 
1443 879.43 1466.28 1339.81 
1444 984.79 1465.10 1339.81 
1445 1123.49 1457.66 1339.81 
1446 902.30 1407.64 1339.81 
1447 1151.76 1445.08 1339.81 
1448 1017.70 1460.69 1339.81 
1449 1048.56 1460.66 1339.81 
1450 1061.14 1460.08 1339.81 
1451 966.90 1457.04 1339.81 
1452 1046.80 1447.75 1339.81 
1453 1125.65 1453.99 1339.81 
1454 989.46 1491.47 1339.81 
1455 995.63 1507.05 1339.81 
1456 1074.85 1512.06 1339.81 
1457 1333.93 1540.69 1339.81 
1458 1004.54 1525.54 1339.81 
1459 1022.67 1509.87 1339.81 
1460 1391.11 1553.77 1339.81 
1461 1105.37 1553.74 1391.11 
1462 1103.89 1551.22 1391.11 
1463 1104.73 1507.54 1391.11 
1464 1205.46 1498.17 1391.11 
1465 1123.33 1501.40 1391.11 
1466 1227.70 1503.96 1391.11 
1467 1262.64 1500.81 1391.11 
1468 813.86 1478.93 1391.11 
1469 1114.07 1479.77 1391.11 
1470 1052.80 1482.93 1391.11 
1471 1103.46 1500.38 1391.11 
1472 895.80 1501.03 1391.11 
1473 846.20 1529.13 1391.11 
1474 1074.51 1494.81 1391.11 
1475 1185.59 1498.66 1391.11 
1476 1027.91 1523.63 1391.11 
1477 853.71 1514.38 1391.11 
1478 859.82 1479.91 1391.11 
1479 1176.83 1473.66 1391.11 
1480 961.64 1486.18 1391.11 
1481 994.28 1485.53 1391.11 
1482 1059.41 1493.03 1391.11 
1483 989.49 1483.04 1391.11 
1484 1113.42 1479.25 1391.11 
1485 1249.57 1494.89 1391.11 
1486 1301.47 1582.42 1391.11 
1487 1102.65 1588.63 1391.11 
1488 1260.17 1569.89 1391.11 
1489 1230.93 1582.47 1391.11 
1490 933.02 1537.02 1391.11 
1491 1096.57 1524.49 1391.11 
1492 854.23 1521.31 1391.11 
1493 984.46 1522.07 1391.11 
1494 1214.12 1531.50 1391.11 
1495 1276.93 1512.00 1391.11 
1496 968.50 1524.57 1391.11 
1497 1078.60 1524.54 1391.11 
1498 1083.74 1533.85 1391.11 
1499 1226.15 1518.29 1391.11 
1500 917.69 1530.79 1391.11 
1501 925.04 1522.12 1391.11 
1502 997.03 1509.50 1391.11 
1503 914.82 1534.46 1391.11 
1504 1170.64 1563.12 1391.11 
1505 898.24 1534.50 1391.11 
1506 1030.19 1496.84 1391.11 
1507 892.27 1528.16 1391.11 
1508 893.64 1565.68 1391.11 
1509 1046.49 1534.37 1391.11 
1510 1096.90 1549.37 1391.11 
1511 1174.53 1555.76 1391.11 
1512 1008.02 1559.33 1391.11 
1513 956.10 1583.76 1391.11 
1514 797.61 1524.39 1391.11 
1515 1082.07 1555.52 1391.11 
1516 1158.45 1586.78 1391.11 
1517 1106.75 1570.54 1391.11 
1518 1216.09 1550.44 1391.11 
1519 1113.41 1561.77 1391.11 
1520 1013.77 1561.64 1391.11 
1521 1222.67 1562.16 1391.11 
1522 1091.31 1554.06 1391.11 
1523 1061.71 1534.07 1391.11 
1524 1064.01 1539.75 1391.11 
1525 1053.28 1547.18 1391.11 
1526 1018.16 1551.60 1391.11 
1527 1007.30 1520.25 1391.11 
1528 1045.51 1528.33 1391.11 
1529 957.03 1528.40 1391.11 
1530 903.51 1505.88 1391.11 
1531 1007.59 1486.58 1391.11 
1532 987.18 1512.30 1391.11 
1533 1294.94 1548.51 1391.11 
1534 1378.46 1537.71 1391.11 
1535 1202.42 1523.29 1391.11 
1536 945.21 1517.36 1391.11 
1537 1241.73 1526.99 1391.11 
1538 1098.79 1529.98 1391.11 
1539 933.69 1526.24 1391.11 
1540 1284.51 1522.30 1391.11 
1541 1062.33 1518.19 1391.11 
1542 1010.23 1516.37 1391.11 
1543 1007.93 1519.82 1391.11 
1544 1236.58 1504.16 1391.11 
1545 1021.59 1519.85 1391.11 
1546 987.55 1524.26 1391.11 
1547 1050.29 1536.18 1391.11 
1548 1193.41 1553.00 1391.11 
1549 1183.33 1543.60 1391.11 
1550 1162.33 1534.23 1391.11 
1551 987.65 1533.03 1391.11 
1552 1072.97 1514.97 1391.11 
1553 1075.61 1528.09 1391.11 
1554 1060.07 1508.71 1391.11 
1555 1146.01 1514.95 1391.11 
1556 1077.19 1506.15 1391.11 
1557 929.93 1486.78 1391.11 
1558 1072.52 1496.50 1391.11 
1559 1068.22 1501.73 1391.11 
1560 1086.97 1508.08 1391.11 
1561 1006.57 1505.29 1391.11 
1562 1048.91 1511.62 1391.11 
1563 1165.91 1505.36 1391.11 
1564 1048.93 1511.64 1391.11 
1565 1091.11 1527.47 1391.11 
1566 1273.48 1527.44 1391.11 
1567 1072.31 1518.04 1391.11 
1568 978.30 1503.07 1391.11 
1569 1089.44 1499.48 1391.11 
1570 923.28 1505.10 1391.11 
1571 1154.81 1515.05 1391.11 
1572 1193.49 1509.16 1391.11 
1573 1027.76 1517.71 1391.11 
1574 957.11 1517.69 1391.11 
1575 1139.02 1517.66 1391.11 
1576 1099.21 1521.38 1391.11 
1577 1033.54 1515.10 1391.11 
1578 1139.25 1521.33 1391.11 
1579 1108.68 1533.83 1391.11 
1580 1092.68 1508.11 1391.11 
1581 1054.04 1533.12 1391.11 
1582 1112.73 1508.14 1391.11 
1583 1269.15 1499.62 1391.11 
1584 1063.40 1496.41 1391.11 
1585 1095.15 1520.60 1391.11 
1586 1049.15 1498.09 1391.11 
1587 1110.67 1499.60 1391.11 
1588 1158.52 1526.23 1391.11 
1589 1147.23 1541.87 1391.11 
1590 1132.24 1541.78 1391.11 
1591 1213.75 1526.19 1391.11 
1592 1012.31 1501.20 1391.11 
1593 1122.75 1503.70 1391.11 
1594 1015.21 1509.32 1391.11 
1595 1065.91 1504.94 1391.11 
1596 1034.91 1518.73 1391.11 
1597 1239.77 1523.09 1391.11 
1598 1107.32 1513.75 1391.11 
1599 1143.02 1516.91 1391.11 
1600 1011.15 1570.00 1391.11 
1601 1072.39 1570.01 1391.11 
1602 1331.99 1560.08 1391.11 
1603 1136.71 1542.62 1391.11 
1604 1009.39 1523.86 1391.11 
1605 1072.93 1554.48 1391.11 
1606 1005.97 1520.38 1391.11 
1607 1189.64 1537.53 1391.11 
1608 1115.95 1561.28 1391.11 
1609 895.35 1528.79 1391.11 
1610 1168.86 1513.08 1391.11 
1611 925.45 1511.80 1391.11 
1612 1192.78 1501.11 1391.11 
1613 1119.82 1502.36 1391.11 
1614 1110.87 1505.46 1391.11 
1615 984.93 1521.10 1391.11 
1616 1032.21 1495.07 1391.11 
1617 1253.41 1503.19 1391.11 
1618 1140.26 1465.60 1391.11 
1619 820.23 1471.30 1391.11 
1620 1087.00 1484.50 1391.11 
1621 1159.81 1500.40 1391.11 
1622 852.38 1522.33 1391.11 
1623 1039.23 1495.37 1391.11 
1624 985.11 1488.53 1391.11 
1625 1033.82 1499.09 1391.11 
1626 980.98 1500.29 1391.11 
1627 1115.09 1505.88 1391.11 
1628 1150.29 1550.74 1391.11 
1629 1049.37 1553.24 1391.11 
1630 1089.89 1553.89 1391.11 
1631 1150.84 1538.92 1391.11 
1632 1210.89 1541.30 1391.11 
1633 1175.34 1537.49 1391.11 
1634 1055.42 1500.11 1391.11 
1635 1227.21 1522.03 1391.11 
1636 1162.25 1519.47 1391.11 
1637 1100.40 1516.34 1391.11 
1638 1026.90 1518.62 1391.11 
1639 946.97 1512.35 1391.11 
1640 920.33 1499.78 1391.11 
1641 1201.83 1497.40 1391.11 
1642 1174.55 1510.56 1391.11 
1643 1006.71 1494.91 1391.11 
1644 1065.37 1511.76 1391.11 
1645 1220.58 1506.10 1391.11 
1646 973.25 1505.49 1391.11 
1647 1143.17 1519.50 1391.11 
1648 949.62 1508.78 1391.11 
1649 1146.27 1512.46 1391.11 
1650 1042.24 1509.41 1391.11 
1651 1217.73 1506.79 1391.11 
1652 978.31 1503.05 1391.11 
1653 853.71 1503.11 1391.11 
1654 1084.66 1515.55 1391.11 
1655 1114.62 1467.63 1391.11 
1656 1140.93 1496.67 1391.11 
1657 953.18 1501.41 1391.11 
1658 1091.70 1510.87 1391.11 
1659 1182.24 1509.61 1391.11 
1660 977.16 1527.77 1391.11 
1661 1033.13 1534.12 1391.11 
1662 1152.68 1556.76 1391.11 
1663 1216.55 1559.80 1391.11 
1664 858.64 1543.52 1391.11 
1665 1050.52 1525.52 1391.11 
1666 1031.93 1544.14 1391.11 
1667 945.53 1537.95 1391.11 
1668 993.74 1540.44 1391.11 
1669 1043.83 1537.43 1391.11 
1670 1159.69 1521.69 1391.11 
1671 1023.92 1543.68 1391.11 
1672 1059.11 1522.45 1391.11 
1673 1271.80 1522.37 1391.11 
1674 1075.42 1540.65 1391.11 
1675 1224.04 1546.62 1391.11 
1676 1198.98 1549.57 1391.11 
1677 1013.36 1530.80 1391.11 
1678 1117.45 1552.82 1391.11 
1679 1135.14 1555.97 1391.11 
1680 1163.18 1559.14 1391.11 
1681 1179.55 1562.76 1391.11 
1682 1019.69 1505.78 1391.11 
1683 1229.18 1500.04 1391.11 
1684 1015.41 1490.14 1391.11 
1685 937.49 1507.91 1391.11 
1686 1243.46 1526.71 1391.11 
1687 748.74 1536.08 1391.11 
1688 1094.55 1548.56 1391.11 
1689 1108.85 1549.64 1391.11 
1690 956.14 1565.33 1391.11 
1691 979.76 1565.36 1391.11 
1692 1329.63 1555.38 1391.11 
1693 1124.28 1549.78 1391.11 
1694 1332.79 1527.80 1391.11 
1695 1021.34 1542.83 1391.11 
1696 919.50 1534.00 1391.11 
1697 1176.08 1539.65 1391.11 
1698 1162.49 1542.70 1391.11 
1699 1081.64 1530.15 1391.11 
1700 923.02 1526.92 1391.11 
1701 987.22 1485.86 1391.11 
1702 999.20 1485.88 1391.11 
1703 998.39 1482.74 1391.11 
1704 1311.89 1501.35 1391.11 
1705 1069.02 1523.92 1391.11 
1706 1150.04 1523.95 1391.11 
1707 1179.79 1533.40 1391.11 
1708 993.84 1543.30 1391.11 
1709 1056.65 1546.35 1391.11 
1710 1091.25 1562.04 1391.11 
1711 1052.96 1558.84 1391.11 
1712 1017.70 1565.05 1391.11 
1713 1046.33 1549.44 1391.11 
1714 1175.18 1556.22 1391.11 
1715 1060.42 1548.41 1391.11 
1716 1250.12 1577.17 1391.11 
1717 1156.44 1580.65 1391.11 
1718 1171.13 1580.12 1391.11 
1719 1055.15 1570.08 1391.11 
1720 1117.59 1563.87 1391.11 
1721 983.64 1568.19 1391.11 
1722 1078.96 1564.44 1391.11 
1723 987.43 1561.61 1391.11 
1724 1204.11 1530.70 1391.11 
1725 1068.73 1551.96 1391.11 
1726 1088.56 1548.72 1391.11 
1727 1200.67 1548.45 1391.11 
1728 1083.83 1558.47 1391.11 
1729 1247.73 1558.41 1391.11 
1730 1228.83 1561.59 1391.11 
1731 984.21 1555.99 1391.11 
1732 1117.30 1552.81 1391.11 
1733 1355.89 1555.84 1391.11 
1734 1094.67 1548.41 1391.11 
1735 1132.60 1552.88 1391.11 
1736 1102.16 1552.64 1391.11 
1737 1082.52 1537.18 1391.11 
1738 1190.69 1533.05 1391.11 
1739 1260.42 1533.59 1391.11 
1740 1011.46 1536.82 1391.11 
1741 1091.45 1543.11 1391.11 
1742 1051.54 1552.56 1391.11 
1743 1068.18 1537.09 1391.11 
1744 1215.07 1534.30 1391.11 
1745 1236.15 1527.68 1391.11 
1746 974.36 1555.87 1391.11 
1747 1151.35 1558.38 1391.11 
1748 952.21 1562.60 1391.11 
1749 1214.46 1562.04 1391.11 
1750 1121.39 1558.27 1391.11 
1751 1049.36 1558.26 1391.11 
1752 1128.34 1551.89 1391.11 
1753 1159.86 1552.58 1391.11 
1754 1023.78 1549.41 1391.11 
1755 1071.17 1539.99 1391.11 
1756 1100.21 1537.70 1391.11 
1757 1043.43 1536.24 1391.11 
1758 1112.71 1523.27 1391.11 
1759 1068.62 1520.82 1391.11 
1760 1162.42 1521.47 1391.11 
1761 925.55 1536.62 1391.11 
1762 854.92 1530.09 1391.11 
1763 1079.03 1530.00 1391.11 
1764 1141.84 1526.41 1391.11 
1765 1147.75 1508.05 1391.11 
1766 1097.21 1488.79 1391.11 
1767 1154.05 1510.49 1391.11 
1768 1097.21 1524.65 1391.11 
1769 1043.34 1533.99 1391.11 
1770 1137.39 1543.37 1391.11 
1771 1030.44 1540.26 1391.11 
1772 1065.64 1542.62 1391.11 
1773 1049.43 1555.88 1391.11 
1774 993.58 1530.79 1391.11 
1775 930.89 1525.17 1391.11 
1776 1150.65 1510.32 1391.11 
1777 983.87 1515.93 1391.11 
1778 1213.31 1507.15 1391.11 
1779 1199.19 1505.03 1391.11 
1780 1242.62 1510.38 1391.11 
1781 1067.80 1503.54 1391.11 
1782 1175.03 1494.10 1391.11 
1783 1248.22 1502.73 1391.11 
1784 1273.49 1510.00 1391.11 
1785 1106.88 1510.64 1391.11 
1786 1129.57 1517.56 1391.11 
1787 1208.54 1511.87 1391.11 
1788 1172.17 1511.96 1391.11 
1789 1087.66 1518.18 1391.11 
1790 1004.10 1508.77 1391.11 
1791 1207.87 1529.00 1391.11 
1792 1210.57 1522.69 1391.11 
1793 957.58 1569.46 1391.11 
1794 1186.25 1556.87 1391.11 
1795 1248.02 1560.05 1391.11 
1796 1203.10 1528.81 1391.11 
1797 1078.51 1516.26 1391.11 
1798 1088.54 1528.79 1391.11 
1799 1231.05 1525.08 1391.11 
1800 1354.52 1528.79 1391.11 
1801 1249.89 1471.93 1391.11 
1802 937.69 1454.42 1391.11 
1803 1132.29 1484.39 1391.11 
1804 1115.73 1500.57 1391.11 
1805 1046.68 1515.93 1391.11 
1806 1106.87 1491.69 1391.11 
1807 1153.93 1489.49 1391.11 
1808 795.65 1502.05 1391.11 
1809 1176.00 1503.33 1391.11 
1810 1210.44 1516.97 1391.11 
1811 978.91 1530.31 1391.11 
1812 831.64 1508.95 1391.11 
1813 937.85 1515.79 1391.11 
1814 982.55 1483.99 1391.11 
1815 913.98 1453.99 1391.11 
1816 1185.18 1445.54 1391.11 
1817 1101.55 1446.70 1391.11 
1818 953.15 1464.74 1391.11 
1819 1189.24 1412.39 1391.11 
1820 1216.29 1429.71 1391.11 
1821 1089.32 1426.70 1391.11 
1822 1160.34 1421.83 1391.11 
1823 1031.15 1462.70 1391.11 
1824 1033.27 1471.15 1391.11 
1825 952.49 1485.50 1391.11 
1826 1106.75 1489.96 1391.11 
1827 1201.80 1493.80 1391.11 
1828 1015.33 1509.49 1391.11 
1829 1301.13 1525.13 1391.11 
1830 1267.92 1506.44 1391.11 
1831 1316.05 1509.56 1391.11 
1832 883.23 1547.11 1391.11 
1833 1026.73 1537.53 1391.11 
1834 986.68 1534.40 1391.11 
1835 947.41 1540.17 1391.11 
1836 1005.00 1530.01 1391.11 
1837 1099.44 1535.56 1391.11 
1838 1274.13 1536.07 1391.11 
1839 1112.50 1542.33 1391.11 
1840 885.98 1547.98 1391.11 
1841 1067.08 1557.24 1391.11 
1842 1006.61 1564.16 1391.11 
1843 1155.68 1560.39 1391.11 
1844 1139.91 1553.42 1391.11 
1845 1006.48 1543.99 1391.11 
1846 1086.47 1547.18 1391.11 
1847 1201.87 1515.96 1391.11 
1848 943.80 1531.50 1391.11 
1849 1222.17 1519.01 1391.11 
1850 1043.18 1519.42 1391.11 
1851 1084.92 1531.60 1391.11 
1852 1189.16 1531.97 1391.11 
1853 1005.63 1541.38 1391.11 
1854 1181.74 1544.96 1391.11 
1855 1106.20 1556.80 1391.11 
1856 1064.43 1540.73 1391.11 
1857 1197.35 1541.28 1391.11 
1858 985.60 1528.08 1391.11 
1859 997.12 1523.42 1391.11 
1860 1395.34 1509.39 1391.11 
1861 1086.34 1531.17 1395.34 
1862 1015.85 1511.78 1395.34 
1863 1221.71 1511.46 1395.34 
1864 1065.93 1560.81 1395.34 
1865 1088.71 1540.78 1395.34 
1866 1173.67 1531.91 1395.34 
1867 1019.50 1526.44 1395.34 
1868 1147.26 1522.40 1395.34 
1869 1159.61 1518.84 1395.34 
1870 959.91 1513.94 1395.34 
1871 1092.27 1513.86 1395.34 
1872 1018.29 1517.55 1395.34 
1873 1099.85 1514.27 1395.34 
1874 964.54 1513.59 1395.34 
1875 1151.34 1510.99 1395.34 
1876 1040.25 1524.97 1395.34 
1877 1102.41 1546.15 1395.34 
1878 1129.77 1534.25 1395.34 
1879 988.06 1536.23 1395.34 
1880 1211.53 1529.93 1395.34 
1881 1131.91 1533.04 1395.34 
1882 983.19 1536.47 1395.34 
1883 1291.16 1534.89 1395.34 
1884 1163.76 1530.31 1395.34 
1885 1318.40 1539.99 1395.34 
1886 1232.42 1523.99 1395.34 
1887 1023.24 1539.91 1395.34 
1888 1064.35 1539.88 1395.34 
1889 1159.65 1539.91 1395.34 
1890 1192.63 1543.67 1395.34 
1891 1115.74 1536.00 1395.34 
1892 1150.23 1540.62 1395.34 
1893 964.39 1550.50 1395.34 
1894 1021.82 1534.91 1395.34 
1895 1201.49 1538.10 1395.34 
1896 1060.50 1538.05 1395.34 
1897 1163.45 1540.11 1395.34 
1898 1289.29 1546.57 1395.34 
1899 1226.64 1538.50 1395.34 
1900 1101.06 1527.23 1395.34 
1901 1162.32 1540.27 1395.34 
1902 1064.44 1530.92 1395.34 
1903 1024.29 1558.89 1395.34 
1904 1190.04 1527.80 1395.34 
1905 1133.75 1532.80 1395.34 
1906 1073.81 1555.15 1395.34 
1907 1133.79 1520.87 1395.34 
1908 972.24 1545.35 1395.34 
1909 1156.24 1551.70 1395.34 
1910 1115.02 1539.62 1395.34 
1911 1184.89 1533.94 1395.34 
1912 1130.75 1555.82 1395.34 
1913 1081.01 1574.24 1395.34 
1914 1066.07 1546.72 1395.34 
1915 1150.17 1536.66 1395.34 
1916 1127.11 1511.98 1395.34 
1917 1070.24 1536.44 1395.34 
1918 945.74 1564.55 1395.34 
1919 1140.50 1568.79 1395.34 
1920 1146.36 1558.96 1395.34 
1921 1053.48 1593.67 1395.34 
1922 1236.40 1584.25 1395.34 
1923 997.08 1571.35 1395.34 
1924 1325.30 1564.72 1395.34 
1925 1125.01 1580.31 1395.34 
1926 1101.10 1607.81 1395.34 
1927 990.16 1622.08 1395.34 
1928 1118.50 1605.80 1395.34 
1929 1331.61 1589.05 1395.34 
1930 1032.44 1589.60 1395.34 
1931 895.23 1570.93 1395.34 
1932 1041.83 1602.49 1395.34 
1933 1137.81 1596.28 1395.34 
1934 1003.47 1605.27 1395.34 
1935 886.04 1600.53 1395.34 
1936 986.67 1609.86 1395.34 
1937 1147.45 1613.03 1395.34 
1938 1361.66 1610.02 1395.34 
1939 1080.91 1585.56 1395.34 
1940 1039.43 1576.08 1395.34 
1941 1071.60 1541.68 1395.34 
1942 1129.43 1566.69 1395.34 
1943 1056.56 1563.47 1395.34 
1944 1063.09 1566.66 1395.34 
1945 1174.88 1566.65 1395.34 
1946 997.13 1597.88 1395.34 
1947 1153.23 1610.11 1395.34 
1948 1139.61 1613.55 1395.34 
1949 1182.50 1613.46 1395.34 
1950 1034.82 1613.59 1395.34 
1951 1139.40 1614.04 1395.34 
1952 1058.55 1615.98 1395.34 
1953 1091.51 1619.63 1395.34 
1954 1008.93 1610.88 1395.34 
1955 1041.04 1613.30 1395.34 
1956 1055.13 1619.49 1395.34 
1957 1186.97 1619.06 1395.34 
1958 1161.52 1616.27 1395.34 
1959 1344.26 1600.69 1395.34 
1960 903.94 1594.41 1395.34 
1961 1242.75 1606.89 1395.34 
1962 1217.14 1594.70 1395.34 
1963 1281.33 1621.10 1395.34 
1964 1247.15 1616.37 1395.34 
1965 1166.51 1614.70 1395.34 
1966 1104.51 1606.77 1395.34 
1967 1081.39 1591.08 1395.34 
1968 1135.59 1575.44 1395.34 
1969 1002.36 1560.43 1395.34 
1970 956.15 1588.06 1395.34 
1971 1009.18 1576.78 1395.34 
1972 1240.19 1568.74 1395.34 
1973 1092.91 1549.44 1395.34 
1974 1091.33 1526.23 1395.34 
1975 1110.40 1533.77 1395.34 
1976 1287.80 1510.57 1395.34 
1977 1078.34 1536.30 1395.34 
1978 1106.58 1533.92 1395.34 
1979 1259.57 1543.26 1395.34 
1980 1121.81 1560.44 1395.34 
1981 1025.70 1556.39 1395.34 
1982 1057.20 1572.77 1395.34 
1983 1085.25 1563.00 1395.34 
1984 968.59 1541.70 1395.34 
1985 1159.96 1510.58 1395.34 
1986 1221.70 1497.51 1395.34 
1987 1037.91 1501.23 1395.34 
1988 1095.99 1485.56 1395.34 
1989 1217.74 1519.94 1395.34 
1990 943.66 1537.73 1395.34 
1991 1129.21 1540.67 1395.34 
1992 998.49 1591.61 1395.34 
1993 1169.20 1595.52 1395.34 
1994 1118.74 1598.62 1395.34 
1995 955.69 1601.66 1395.34 
1996 1145.74 1604.72 1395.34 
1997 1053.62 1586.01 1395.34 
1998 1206.31 1560.87 1395.34 
1999 1000.93 1532.50 1395.34 
2000 1129.03 1542.08 1395.34 
2001 1100.89 1532.35 1395.34 
2002 1140.75 1536.19 1395.34 
2003 975.22 1523.76 1395.34 
2004 1020.16 1532.41 1395.34 
2005 1210.12 1523.46 1395.34 
2006 1107.66 1529.21 1395.34 
2007 1082.60 1535.49 1395.34 
2008 1170.04 1554.26 1395.34 
2009 1062.95 1573.05 1395.34 
2010 1002.23 1541.77 1395.34 
2011 1147.01 1548.80 1395.34 
2012 877.97 1560.13 1395.34 
2013 966.87 1530.35 1395.34 
2014 1079.79 1521.02 1395.34 
2015 1278.55 1514.96 1395.34 
2016 1225.06 1495.90 1395.34 
2017 958.77 1482.91 1395.34 
2018 1133.29 1517.35 1395.34 
2019 1289.37 1495.31 1395.34 
2020 1225.49 1492.15 1395.34 
2021 1145.91 1514.27 1395.34 
2022 1125.14 1501.58 1395.34 
2023 1287.52 1492.19 1395.34 
2024 907.37 1495.33 1395.34 
2025 1095.73 1504.12 1395.34 
2026 1111.51 1519.96 1395.34 
2027 1087.79 1503.91 1395.34 
2028 1074.20 1494.22 1395.34 
2029 1122.67 1513.40 1395.34 
2030 1104.28 1516.70 1395.34 
2031 1209.91 1529.36 1395.34 
2032 1034.21 1541.64 1395.34 
2033 1100.48 1535.45 1395.34 
2034 1125.53 1523.09 1395.34 
2035 1136.99 1494.70 1395.34 
2036 1168.76 1502.57 1395.34 
2037 1022.76 1490.69 1395.34 
2038 1154.48 1494.73 1395.34 
2039 1253.47 1507.16 1395.34 
2040 945.44 1498.39 1395.34 
2041 1174.93 1510.30 1395.34 
2042 1207.88 1522.64 1395.34 
2043 1039.01 1520.09 1395.34 
2044 1138.49 1519.48 1395.34 
2045 1116.77 1515.05 1395.34 
2046 1129.11 1506.19 1395.34 
2047 1187.29 1528.13 1395.34 
2048 1350.85 1515.68 1395.34 
2049 1251.04 1521.27 1395.34 
2050 1089.11 1508.72 1395.34 
2051 966.08 1513.14 1395.34 
2052 1296.93 1521.92 1395.34 
2053 1118.01 1537.56 1395.34 
2054 1248.73 1525.21 1395.34 
2055 1051.48 1515.45 1395.34 
2056 1221.18 1521.62 1395.34 
2057 1228.31 1502.89 1395.34 
2058 1164.51 1516.01 1395.34 
2059 1121.65 1514.63 1395.34 
2060 1206.11 1521.32 1395.34 
2061 998.50 1506.36 1395.34 
2062 1152.42 1505.07 1395.34 
2063 1190.62 1499.49 1395.34 
2064 1311.87 1483.82 1395.34 
2065 1116.62 1487.49 1395.34 
2066 1011.84 1481.37 1395.34 
2067 1211.67 1481.38 1395.34 
2068 1088.87 1484.53 1395.34 
2069 952.14 1496.41 1395.34 
2070 1014.92 1487.03 1395.34 
2071 1297.28 1480.77 1395.34 
2072 1182.83 1497.02 1395.34 
2073 1210.92 1489.93 1395.34 
2074 1215.50 1490.54 1395.34 
2075 1300.98 1490.57 1395.34 
2076 1047.26 1496.85 1395.34 
2077 966.12 1499.74 1395.34 
2078 1099.09 1487.25 1395.34 
2079 1300.96 1496.66 1395.34 
2080 1258.71 1431.50 1395.34 
2081 1058.05 1442.88 1395.34 
2082 1228.47 1424.80 1395.34 
2083 1167.62 1422.24 1395.34 
2084 1050.59 1499.68 1395.34 
2085 981.53 1499.11 1395.34 
2086 1058.35 1517.77 1395.34 
2087 982.05 1463.00 1395.34 
2088 1071.85 1514.96 1395.34 
2089 1071.27 1518.62 1395.34 
2090 1040.67 1522.62 1395.34 
2091 1113.22 1518.68 1395.34 
2092 1314.75 1519.47 1395.34 
2093 1150.28 1509.91 1395.34 
2094 1234.25 1424.12 1395.34 
2095 1223.06 1445.98 1395.34 
2096 1288.37 1445.01 1395.34 
2097 1151.55 1413.17 1395.34 
2098 1254.59 1399.80 1395.34 
2099 1161.49 1417.38 1395.34 
2100 1344.62 1414.42 1395.34 
2101 1086.06 1404.31 1395.34 
2102 1042.91 1414.29 1395.34 
2103 928.87 1424.19 1395.34 
2104 1007.04 1423.58 1395.34 
2105 1055.08 1429.90 1395.34 
2106 981.68 1433.50 1395.34 
2107 1414.73 1441.03 1395.34 
2108 1000.49 1434.07 1414.73 
2109 1072.83 1436.58 1414.73 
2110 1082.05 1434.09 1414.73 
2111 1245.50 1431.01 1414.73 
2112 1181.49 1484.52 1414.73 
2113 1337.97 1500.17 1414.73 
2114 1354.68 1512.47 1414.73 
2115 1271.73 1509.48 1414.73 
2116 1274.26 1506.38 1414.73 
2117 1214.17 1509.49 1414.73 
2118 1337.15 1506.15 1414.73 
2119 1243.07 1509.44 1414.73 
2120 1147.18 1515.58 1414.73 
2121 1246.98 1515.58 1414.73 
2122 1130.01 1512.46 1414.73 
2123 1226.26 1509.28 1414.73 
2124 1116.88 1495.95 1414.73 
2125 974.60 1505.26 1414.73 
2126 1174.66 1508.38 1414.73 
2127 1271.03 1508.40 1414.73 
2128 1271.86 1509.12 1414.73 
2129 1126.79 1494.78 1414.73 
2130 1141.67 1512.14 1414.73 
2131 1079.23 1534.26 1414.73 
2132 1178.46 1540.49 1414.73 
2133 1233.52 1537.40 1414.73 
2134 1257.43 1540.80 1414.73 
2135 1098.42 1537.51 1414.73 
2136 1311.13 1543.82 1414.73 
2137 1196.87 1531.13 1414.73 
2138 1220.01 1520.90 1414.73 
2139 1136.93 1536.98 1414.73 
2140 1234.04 1476.72 1414.73 
2141 1173.85 1548.80 1414.73 
2142 922.70 1542.40 1414.73 
2143 1128.49 1549.33 1414.73 
2144 1225.64 1548.81 1414.73 
2145 1231.72 1548.82 1414.73 
2146 1058.57 1545.55 1414.73 
2147 1025.64 1532.66 1414.73 
2148 1275.06 1552.37 1414.73 
2149 1257.78 1558.61 1414.73 
2150 1283.13 1561.96 1414.73 
2151 1293.02 1561.02 1414.73 
2152 1317.43 1561.19 1414.73 
2153 1196.00 1558.10 1414.73 
2154 1053.38 1565.13 1414.73 
2155 999.63 1571.32 1414.73 
2156 1174.26 1568.68 1414.73 
2157 1003.92 1603.25 1414.73 
2158 1179.50 1606.98 1414.73 
2159 997.74 1614.15 1414.73 
2160 970.00 1605.90 1414.73 
2161 1146.91 1607.12 1414.73 
2162 966.53 1597.07 1414.73 
2163 1090.87 1587.00 1414.73 
2164 1210.20 1581.54 1414.73 
2165 1163.52 1578.41 1414.73 
2166 911.41 1579.18 1414.73 
2167 1195.62 1581.44 1414.73 
2168 1090.69 1593.94 1414.73 
2169 940.26 1588.87 1414.73 
2170 1113.16 1591.60 1414.73 
2171 1274.96 1587.56 1414.73 
2172 1033.39 1587.49 1414.73 
2173 1239.77 1582.46 1414.73 
2174 1119.70 1585.63 1414.73 
2175 1244.64 1598.73 1414.73 
2176 1180.93 1601.99 1414.73 
2177 980.17 1593.35 1414.73 
2178 1119.36 1584.80 1414.73 
2179 1013.38 1606.73 1414.73 
2180 1190.01 1572.20 1414.73 
2181 1101.71 1569.61 1414.73 
2182 1177.27 1578.45 1414.73 
2183 1032.61 1566.53 1414.73 
2184 964.92 1565.26 1414.73 
2185 1133.34 1584.11 1414.73 
2186 1055.95 1577.83 1414.73 
2187 1083.43 1589.90 1414.73 
2188 1002.23 1558.59 1414.73 
2189 1201.89 1562.30 1414.73 
2190 1111.25 1565.43 1414.73 
2191 1133.89 1565.77 1414.73 
2192 1042.72 1559.45 1414.73 
2193 1170.87 1572.02 1414.73 
2194 941.07 1572.36 1414.73 
2195 1143.54 1562.58 1414.73 
2196 1190.73 1562.46 1414.73 
2197 1291.33 1565.76 1414.73 
2198 1082.76 1568.95 1414.73 
2199 1171.70 1563.31 1414.73 
2200 1062.98 1566.50 1414.73 
2201 1119.79 1560.33 1414.73 
2202 1353.54 1575.86 1414.73 
2203 1277.46 1562.33 1414.73 
2204 1135.66 1561.25 1414.73 
2205 1051.65 1564.40 1414.73 
2206 1167.52 1570.41 1414.73 
2207 936.07 1564.30 1414.73 
2208 1217.85 1570.34 1414.73 
2209 1113.06 1573.32 1414.73 
2210 956.69 1563.46 1414.73 
2211 1055.75 1560.46 1414.73 
2212 1309.74 1567.07 1414.73 
2213 1069.83 1541.93 1414.73 
2214 1153.76 1548.19 1414.73 
2215 1178.73 1538.92 1414.73 
2216 1308.77 1535.22 1414.73 
2217 1267.25 1532.45 1414.73 
2218 1137.48 1538.23 1414.73 
2219 1235.01 1538.53 1414.73 
2220 1196.53 1539.12 1414.73 
2221 1220.27 1551.40 1414.73 
2222 1338.34 1558.48 1414.73 
2223 1140.33 1546.57 1414.73 
2224 1093.79 1559.58 1414.73 
2225 1130.46 1554.70 1414.73 
2226 1226.56 1570.99 1414.73 
2227 1019.76 1549.72 1414.73 
2228 1314.02 1519.10 1414.73 
2229 1150.06 1567.10 1414.73 
2230 1220.80 1568.52 1414.73 
2231 1220.86 1544.03 1414.73 
2232 1246.25 1528.87 1414.73 
2233 1001.23 1503.01 1414.73 
2234 1159.42 1521.04 1414.73 
2235 1097.58 1513.15 1414.73 
2236 1136.10 1491.87 1414.73 
2237 1221.21 1491.29 1414.73 
2238 1070.66 1494.51 1414.73 
2239 1124.78 1476.98 1414.73 
2240 1339.72 1479.53 1414.73 
2241 1045.52 1479.53 1414.73 
2242 1400.53 1473.90 1414.73 
2243 1227.78 1478.74 1414.73 
2244 1268.62 1491.12 1414.73 
2245 1412.34 1492.11 1414.73 
2246 962.85 1479.95 1414.73 
2247 1187.87 1460.85 1414.73 
2248 1087.62 1461.30 1414.73 
2249 914.65 1463.69 1414.73 
2250 991.06 1463.74 1414.73 
2251 1246.76 1444.60 1414.73 
2252 1176.95 1448.36 1414.73 
2253 953.32 1445.38 1414.73 
2254 1234.27 1456.83 1414.73 
2255 1159.54 1470.32 1414.73 
2256 1267.19 1464.13 1414.73 
2257 1059.08 1457.70 1414.73 
2258 1220.95 1476.43 1414.73 
2259 1105.72 1479.61 1414.73 
2260 1065.87 1479.69 1414.73 
2261 1161.82 1492.20 1414.73 
2262 1140.14 1489.04 1414.73 
2263 1186.18 1479.74 1414.73 
2264 1236.03 1467.27 1414.73 
2265 1123.37 1476.65 1414.73 
2266 1062.08 1482.47 1414.73 
2267 1064.91 1476.04 1414.73 
2268 1232.31 1479.77 1414.73 
2269 1269.01 1470.48 1414.73 
2270 1136.80 1476.66 1414.73 
2271 1263.86 1460.95 1414.73 
2272 1051.84 1464.26 1414.73 
2273 1130.05 1451.76 1414.73 
2274 1260.29 1452.42 1414.73 
2275 1133.93 1448.57 1414.73 
2276 1101.29 1439.11 1414.73 
2277 1117.34 1454.65 1414.73 
2278 1169.65 1464.07 1414.73 
2279 988.83 1479.75 1414.73 
2280 1238.02 1476.85 1414.73 
2281 1122.87 1490.16 1414.73 
2282 1145.31 1477.74 1414.73 
2283 1277.83 1477.84 1414.73 
2284 1246.13 1471.54 1414.73 
2285 1090.22 1471.61 1414.73 
2286 1139.03 1504.89 1414.73 
2287 1150.96 1481.02 1414.73 
2288 1176.49 1534.22 1414.73 
2289 1298.19 1502.86 1414.73 
2290 1150.01 1502.93 1414.73 
2291 1162.49 1487.23 1414.73 
2292 1254.63 1508.56 1414.73 
2293 1062.71 1515.33 1414.73 
2294 1302.71 1508.46 1414.73 
2295 1116.04 1505.90 1414.73 
2296 1183.34 1562.17 1414.73 
2297 1096.38 1543.41 1414.73 
2298 1014.31 1530.95 1414.73 
2299 1188.53 1534.09 1414.73 
2300 1372.11 1527.84 1414.73 
2301 1143.25 1505.94 1414.73 
2302 1278.12 1531.00 1414.73 
2303 1176.77 1524.78 1414.73 
2304 1443.76 1552.90 1414.73 
2305 1033.94 1540.52 1443.76 
2306 1145.14 1541.85 1443.76 
2307 1000.07 1540.48 1443.76 
2308 1359.75 1524.27 1443.76 
2309 1306.93 1524.31 1443.76 
2310 1200.15 1521.90 1443.76 
2311 1366.08 1518.14 1443.76 
2312 941.95 1509.63 1443.76 
2313 1265.52 1547.48 1443.76 
2314 1304.73 1553.06 1443.76 
2315 1252.04 1543.68 1443.76 
2316 1350.42 1549.93 1443.76 
2317 1204.69 1578.04 1443.76 
2318 1207.13 1587.36 1443.76 
2319 1156.96 1527.53 1443.76 
2320 1203.06 1503.93 1443.76 
2321 1103.84 1498.29 1443.76 
2322 989.83 1505.19 1443.76 
2323 1017.85 1504.56 1443.76 
2324 1289.58 1505.23 1443.76 
2325 1035.69 1527.15 1443.76 
2326 1114.06 1505.21 1443.76 
2327 1253.18 1496.01 1443.76 
2328 1203.35 1510.96 1443.76 
2329 1450.95 1504.08 1443.76 
2330 1333.09 1537.11 1450.95 
2331 1082.70 1571.48 1450.95 
2332 1237.71 1574.59 1450.95 
2333 1325.16 1577.82 1450.95 
2334 1160.27 1562.47 1450.95 
2335 1428.78 1565.57 1450.95 
2336 1352.25 1494.03 1450.95 
2337 1191.58 1536.70 1450.95 
2338 1181.42 1515.83 1450.95 
2339 1356.16 1523.49 1450.95 
2340 1276.76 1529.45 1450.95 
2341 1227.95 1501.95 1450.95 
2342 1192.19 1560.56 1450.95 
2343 1193.11 1574.29 1450.95 
2344 1056.89 1560.83 1450.95 
2345 1150.85 1551.50 1450.95 
2346 1192.89 1536.82 1450.95 
2347 1211.45 1565.24 1450.95 
2348 1212.55 1566.56 1450.95 
2349 1106.01 1555.37 1450.95 
2350 1218.77 1575.09 1450.95 
2351 1282.72 1584.42 1450.95 
2352 1241.31 1571.93 1450.95 
2353 1341.27 1581.27 1450.95 
2354 1209.13 1571.97 1450.95 
2355 1358.19 1565.58 1450.95 
2356 1177.14 1573.62 1450.95 
2357 1203.17 1578.04 1450.95 
2358 1185.67 1548.89 1450.95 
2359 1131.58 1530.02 1450.95 
2360 1145.55 1521.14 1450.95 
2361 1150.69 1529.82 1450.95 
2362 1090.34 1542.57 1450.95 
2363 1282.36 1558.77 1450.95 
2364 1322.32 1543.19 1450.95 
2365 1214.24 1571.25 1450.95 
2366 1175.47 1566.93 1450.95 
2367 1086.47 1586.03 1450.95 
2368 1194.25 1582.19 1450.95 
2369 1263.94 1586.15 1450.95 
2370 1254.91 1559.47 1450.95 
2371 1184.53 1566.29 1450.95 
2372 1037.29 1527.14 1450.95 
2373 1230.37 1527.11 1450.95 
2374 1233.37 1548.30 1450.95 
2375 1349.85 1542.97 1450.95 
2376 1259.70 1542.42 1450.95 
2377 1177.89 1541.82 1450.95 
2378 1018.16 1515.00 1450.95 
2379 1233.26 1532.00 1450.95 
2380 1053.66 1560.01 1450.95 
2381 1158.97 1561.27 1450.95 
2382 1024.36 1598.16 1450.95 
2383 1260.51 1550.01 1450.95 
2384 1063.19 1558.72 1450.95 
2385 1356.62 1568.10 1450.95 
2386 1069.05 1583.69 1450.95 
2387 1159.88 1574.39 1450.95 
2388 1118.30 1596.23 1450.95 
2389 1083.84 1590.01 1450.95 
2390 1096.65 1577.47 1450.95 
2391 1167.63 1562.48 1450.95 
2392 1090.29 1568.06 1450.95 
2393 1396.58 1565.51 1450.95 
2394 1329.21 1548.96 1450.95 
2395 1307.15 1550.35 1450.95 
2396 1376.05 1553.75 1450.95 
2397 1168.51 1544.30 1450.95 
2398 1219.85 1522.42 1450.95 
2399 1200.80 1522.50 1450.95 
2400 1036.48 1521.88 1450.95 
2401 1310.67 1525.00 1450.95 
2402 1061.70 1525.82 1450.95 
2403 1126.17 1524.09 1450.95 
2404 1110.84 1529.19 1450.95 
2405 1386.24 1535.10 1450.95 
2406 1188.65 1534.39 1450.95 
2407 1093.54 1538.12 1450.95 
2408 990.84 1540.54 1450.95 
2409 1196.48 1542.41 1450.95 
2410 1291.77 1540.53 1450.95 
2411 1317.56 1527.42 1450.95 
2412 1122.65 1540.53 1450.95 
2413 1012.62 1524.86 1450.95 
2414 1177.92 1537.37 1450.95 
2415 1109.49 1518.60 1450.95 
2416 1146.88 1521.72 1450.95 
2417 1076.37 1534.18 1450.95 
2418 1187.11 1537.32 1450.95 
2419 1279.51 1549.81 1450.95 
2420 1079.92 1543.59 1450.95 
2421 1480.34 1506.09 1450.95 
2422 1218.54 1540.46 1480.34 
2423 1181.81 1518.56 1480.34 
2424 1303.04 1512.32 1480.34 
2425 1148.94 1527.97 1480.34 
2426 1207.98 1506.07 1480.34 
2427 1121.79 1509.07 1480.34 
2428 1240.17 1499.57 1480.34 
2429 1121.23 1505.59 1480.34 
2430 1018.06 1505.63 1480.34 
2431 1309.80 1536.16 1480.34 
2432 1066.14 1523.78 1480.34 
2433 1058.83 1516.64 1480.34 
2434 1229.71 1532.22 1480.34 
2435 1087.59 1535.00 1480.34 
2436 1226.32 1492.02 1480.34 
2437 1135.91 1529.98 1480.34 
2438 1368.66 1491.07 1480.34 
2439 1279.02 1478.73 1480.34 
2440 1241.16 1509.79 1480.34 
2441 1232.65 1481.87 1480.34 
2442 1236.58 1490.28 1480.34 
2443 1233.24 1525.05 1480.34 
2444 1214.12 1491.24 1480.34 
2445 1209.23 1521.14 1480.34 
2446 1224.16 1540.08 1480.34 
2447 1306.31 1508.63 1480.34 
2448 1269.80 1508.65 1480.34 
2449 1416.79 1549.14 1480.34 
2450 1467.30 1533.59 1480.34 
2451 1221.98 1530.57 1480.34 
2452 1201.85 1525.80 1480.34 
2453 1254.50 1487.66 1480.34 
2454 1156.95 1499.52 1480.34 
2455 1353.09 1490.72 1480.34 
2456 1292.01 1488.09 1480.34 
2457 1102.63 1483.61 1480.34 
2458 1191.06 1487.41 1480.34 
2459 1186.26 1482.00 1480.34 
2460 1267.75 1478.81 1480.34 
2461 1088.90 1478.78 1480.34 
2462 1224.94 1510.93 1480.34 
2463 1122.54 1520.48 1480.34 
2464 964.42 1482.87 1480.34 
2465 1192.46 1502.04 1480.34 
2466 1225.27 1459.10 1480.34 
2467 1104.17 1492.93 1480.34 
2468 1072.76 1459.99 1480.34 
2469 1326.38 1523.38 1480.34 
2470 1210.46 1483.06 1480.34 
2471 1235.50 1476.79 1480.34 
2472 1290.23 1496.46 1480.34 
2473 1181.04 1461.16 1480.34 
2474 1131.53 1483.07 1480.34 
2475 1055.70 1508.00 1480.34 
2476 1117.68 1489.13 1480.34 
2477 1310.33 1464.10 1480.34 
2478 1206.19 1454.70 1480.34 
2479 1375.03 1447.78 1480.34 
2480 1119.69 1469.27 1480.34 
2481 1291.61 1473.12 1480.34 
2482 1249.62 1472.31 1480.34 
2483 1240.69 1471.18 1480.34 
2484 1342.08 1508.79 1480.34 
2485 1477.99 1514.18 1480.34 
2486 1263.01 1475.62 1480.34 
2487 1135.12 1501.16 1480.34 
2488 1250.50 1471.76 1480.34 
2489 1158.67 1474.44 1480.34 
2490 1098.25 1490.70 1480.34 
2491 1331.51 1520.50 1480.34 
2492 1062.67 1511.79 1480.34 
2493 1321.13 1494.90 1480.34 
2494 1072.97 1477.17 1480.34 
2495 1183.65 1465.89 1480.34 
2496 1123.00 1492.75 1480.34 
2497 1375.09 1502.50 1480.34 
2498 1115.48 1502.58 1480.34 
2499 1192.85 1477.06 1480.34 
2500 1166.85 1472.62 1480.34 
2501 1407.34 1501.86 1480.34 
2502 1136.12 1457.28 1480.34 
2503 1259.95 1480.50 1480.34 
2504 1171.40 1477.43 1480.34 
2505 1242.01 1480.22 1480.34 
2506 1166.07 1471.92 1480.34 
2507 1170.15 1475.49 1480.34 
2508 1199.10 1474.69 1480.34 
2509 1170.75 1481.33 1480.34 
2510 1180.57 1479.51 1480.34 
2511 1199.53 1461.00 1480.34 
2512 1255.52 1441.62 1480.34 
2513 1163.87 1427.29 1480.34 
2514 1493.17 1431.23 1480.34 
2515 1153.77 1426.52 1493.17 
2516 1091.75 1424.20 1493.17 
2517 1365.67 1438.78 1493.17 
2518 1352.44 1431.46 1493.17 
2519 1290.61 1417.31 1493.17 
2520 1130.79 1417.33 1493.17 
2521 1275.92 1437.00 1493.17 
2522 1479.05 1433.69 1493.17 
2523 977.11 1436.35 1493.17 
2524 1315.80 1426.44 1493.17 
2525 1149.53 1438.59 1493.17 
2526 1232.91 1424.13 1493.17 
2527 1274.39 1432.55 1493.17 
2528 1366.43 1463.97 1493.17 
2529 1149.20 1438.28 1493.17 
2530 1126.89 1454.68 1493.17 
2531 1232.18 1468.90 1493.17 
2532 1026.57 1477.32 1493.17 
2533 1371.15 1476.89 1493.17 
2534 1103.43 1473.71 1493.17 
2535 1289.73 1485.30 1493.17 
2536 1287.50 1476.12 1493.17 
2537 1215.50 1480.59 1493.17 
2538 1182.27 1466.11 1493.17 
2539 1181.82 1469.36 1493.17 
2540 1373.91 1472.51 1493.17 
2541 1049.83 1446.40 1493.17 
2542 1191.02 1451.94 1493.17 
2543 1184.83 1451.28 1493.17 
2544 1378.36 1461.21 1493.17 
2545 1191.55 1487.42 1493.17 
2546 1137.64 1476.02 1493.17 
2547 1304.68 1427.62 1493.17 
2548 1297.05 1424.40 1493.17 
2549 1273.27 1386.05 1493.17 
2550 1496.39 1355.15 1493.17 
2551 1229.06 1370.94 1496.39 
2552 1114.61 1387.22 1496.39 
2553 1232.87 1420.87 1496.39 
2554 1215.42 1439.05 1496.39 
2555 1239.26 1462.25 1496.39 
2556 1311.13 1442.12 1496.39 
2557 1193.10 1463.19 1496.39 
2558 1086.83 1450.64 1496.39 
2559 1165.11 1487.72 1496.39 
2560 1233.29 1479.02 1496.39 
2561 1221.66 1512.92 1496.39 
2562 1267.83 1495.88 1496.39 
2563 1168.16 1474.36 1496.39 
2564 1326.66 1509.56 1496.39 
2565 1367.74 1516.42 1496.39 
2566 1239.84 1516.07 1496.39 
2567 1119.10 1524.55 1496.39 
2568 1174.23 1529.25 1496.39 
2569 1269.91 1529.77 1496.39 
2570 1307.17 1532.98 1496.39 
2571 1184.80 1550.56 1496.39 
2572 1204.38 1578.15 1496.39 
2573 1222.79 1578.13 1496.39 
2574 1383.59 1561.65 1496.39 
2575 1234.24 1545.50 1496.39 
2576 1214.57 1534.56 1496.39 
2577 1283.65 1486.40 1496.39 
2578 1238.34 1477.49 1496.39 
2579 1081.72 1450.23 1496.39 
2580 1216.40 1447.16 1496.39 
2581 1154.02 1457.13 1496.39 
2582 1330.85 1465.53 1496.39 
2583 1224.85 1471.12 1496.39 
2584 1247.08 1475.54 1496.39 
2585 1137.73 1445.35 1496.39 
2586 1035.02 1469.33 1496.39 
2587 1316.93 1479.82 1496.39 
2588 1100.51 1468.88 1496.39 
2589 1259.69 1435.96 1496.39 
2590 1059.77 1439.73 1496.39 
2591 1181.34 1450.26 1496.39 
2592 1281.80 1471.29 1496.39 
2593 1247.90 1491.34 1496.39 
2594 1277.61 1461.91 1496.39 
2595 1243.98 1511.40 1496.39 
2596 1302.85 1489.14 1496.39 
2597 1257.54 1502.91 1496.39 
2598 1249.59 1502.99 1496.39 
2599 1200.29 1496.61 1496.39 
2600 1270.53 1501.04 1496.39 
2601 1393.48 1495.70 1496.39 
2602 1268.19 1494.81 1496.39 
2603 1249.09 1501.07 1496.39 
2604 1219.89 1482.52 1496.39 
2605 1231.83 1478.17 1496.39 
2606 996.18 1468.28 1496.39 
2607 1312.45 1447.30 1496.39 
2608 1238.03 1436.86 1496.39 
2609 1536.15 1428.50 1496.39 
2610 984.20 1440.02 1536.15 
2611 1364.38 1443.49 1536.15 
2612 1116.03 1421.90 1536.15 
2613 1182.27 1465.68 1536.15 
2614 1162.68 1493.37 1536.15 
2615 1180.66 1499.97 1536.15 
2616 1318.12 1487.70 1536.15 
2617 1237.90 1471.23 1536.15 
2618 1021.09 1475.54 1536.15 
2619 1260.18 1488.49 1536.15 
2620 1357.13 1476.83 1536.15 
2621 1065.89 1469.29 1536.15 
2622 1310.11 1489.70 1536.15 
2623 1219.79 1495.80 1536.15 
2624 1106.23 1511.61 1536.15 
2625 1077.71 1515.50 1536.15 
2626 1194.31 1507.85 1536.15 
2627 1363.67 1479.40 1536.15 
2628 1339.54 1496.80 1536.15 
2629 1082.52 1487.60 1536.15 
2630 1280.07 1474.99 1536.15 
2631 1476.23 1493.43 1536.15 
2632 1407.85 1472.48 1536.15 
2633 1322.12 1478.47 1536.15 
2634 1365.45 1494.62 1536.15 
2635 1075.81 1496.37 1536.15 
2636 1224.97 1494.44 1536.15 
2637 1165.08 1492.86 1536.15 
2638 1246.00 1492.81 1536.15 
2639 1231.98 1492.55 1536.15 
2640 1201.55 1490.03 1536.15 
2641 1426.46 1489.41 1536.15 
2642 1369.03 1482.58 1536.15 
2643 1360.93 1477.15 1536.15 
2644 1264.00 1476.39 1536.15 
2645 1279.97 1445.89 1536.15 
2646 1316.37 1451.90 1536.15 
2647 1133.90 1458.47 1536.15 
2648 1133.05 1455.92 1536.15 
2649 1182.79 1473.87 1536.15 
2650 1166.83 1487.39 1536.15 
2651 1274.24 1504.86 1536.15 
2652 1043.61 1488.27 1536.15 
2653 1145.06 1488.98 1536.15 
2654 1203.29 1485.80 1536.15 
2655 1244.75 1484.74 1536.15 
2656 1283.60 1467.85 1536.15 
2657 1444.50 1477.52 1536.15 
2658 1459.08 1488.73 1536.15 
2659 1164.96 1501.88 1536.15 
2660 1349.40 1484.51 1536.15 
2661 1334.45 1461.09 1536.15 
2662 1276.37 1486.06 1536.15 
2663 992.50 1510.94 1536.15 
2664 1267.05 1557.62 1536.15 
2665 1185.18 1533.36 1536.15 
2666 1250.19 1547.96 1536.15 
2667 1345.78 1539.75 1536.15 
2668 1015.91 1565.41 1536.15 
2669 1433.69 1564.12 1536.15 
2670 1188.82 1604.30 1536.15 
2671 1097.76 1620.59 1536.15 
2672 1137.00 1611.20 1536.15 
2673 1285.77 1576.89 1536.15 
2674 1156.38 1611.27 1536.15 
2675 1239.50 1599.30 1536.15 
2676 1305.90 1585.45 1536.15 
2677 1136.60 1606.88 1536.15 
2678 1331.14 1524.48 1536.15 
2679 1247.08 1534.22 1536.15 
2680 1224.21 1530.46 1536.15 
2681 1181.74 1496.22 1536.15 
2682 1109.80 1486.05 1536.15 
2683 1249.22 1508.80 1536.15 
2684 1060.41 1516.29 1536.15 
2685 1150.89 1524.63 1536.15 
2686 1348.43 1531.47 1536.15 
2687 1228.87 1555.29 1536.15 
2688 1323.96 1569.33 1536.15 
2689 1365.23 1546.52 1536.15 
2690 1283.06 1576.44 1536.15 
2691 1280.36 1626.41 1536.15 
2692 1319.94 1546.00 1536.15 
2693 1286.40 1596.38 1536.15 
2694 1119.09 1598.04 1536.15 
2695 1439.02 1565.79 1536.15 
2696 1295.16 1537.39 1536.15 
2697 1194.63 1542.92 1536.15 
2698 1193.98 1602.98 1536.15 
2699 1149.37 1554.94 1536.15 
2700 1267.26 1590.55 1536.15 
2701 1198.84 1560.49 1536.15 
2702 1201.83 1601.69 1536.15 
2703 1254.51 1551.60 1536.15 
2704 1335.82 1569.85 1536.15 
2705 1125.29 1642.38 1536.15 
2706 1389.49 1604.42 1536.15 
2707 1404.97 1607.36 1536.15 
2708 1242.80 1612.04 1536.15 
2709 1260.25 1591.86 1536.15 
2710 1158.43 1587.44 1536.15 
2711 1380.87 1580.48 1536.15 
2712 1397.19 1551.10 1536.15 
2713 1020.81 1544.81 1536.15 
2714 1177.87 1521.05 1536.15 
2715 1124.09 1542.37 1536.15 
2716 1289.76 1526.75 1536.15 
2717 1279.76 1505.35 1536.15 
2718 953.88 1517.37 1536.15 
2719 1351.30 1517.08 1536.15 
2720 1188.59 1504.17 1536.15 
2721 1171.39 1520.23 1536.15 
2722 1113.07 1533.79 1536.15 
2723 1449.88 1543.20 1536.15 
2724 1221.17 1535.10 1536.15 
2725 1337.58 1504.43 1536.15 
2726 1339.27 1514.47 1536.15 
2727 1157.81 1517.31 1536.15 
2728 1318.54 1527.04 1536.15 
2729 1352.52 1534.52 1536.15 
2730 1359.02 1542.67 1536.15 
2731 1316.30 1554.54 1536.15 
2732 1183.34 1560.75 1536.15 
2733 1287.60 1535.68 1536.15 
2734 1377.01 1531.93 1536.15 
2735 1339.93 1530.74 1536.15 
2736 1506.85 1570.06 1536.15 
2737 1470.98 1545.02 1536.15 
2738 1176.37 1535.62 1536.15 
2739 1229.78 1563.18 1536.15 
2740 1298.36 1566.32 1536.15 
2741 1401.16 1576.93 1536.15 
2742 1201.68 1568.21 1536.15 
2743 1269.94 1561.92 1536.15 
2744 1365.01 1561.94 1536.15 
2745 1427.47 1568.83 1536.15 
2746 1176.62 1571.93 1536.15 
2747 1247.44 1558.79 1536.15 
2748 1057.45 1548.13 1536.15 
2749 1480.60 1541.21 1536.15 
2750 1373.33 1539.87 1536.15 
2751 1292.39 1548.61 1536.15 
2752 1149.66 1587.40 1536.15 
2753 1221.88 1549.26 1536.15 
2754 1350.75 1577.45 1536.15 
2755 1225.61 1589.29 1536.15 
2756 1368.78 1563.14 1536.15 
2757 1312.42 1575.36 1536.15 
2758 1151.56 1586.23 1536.15 
2759 1466.39 1589.70 1536.15 
2760 1241.43 1573.68 1536.15 
2761 1200.50 1621.87 1536.15 
2762 1419.38 1584.91 1536.15 
2763 1244.68 1586.22 1536.15 
2764 1214.16 1634.04 1536.15 
2765 959.65 1634.29 1536.15 
2766 1187.66 1629.28 1536.15 
2767 1255.81 1617.99 1536.15 
2768 1598.56 1611.05 1536.15 
2769 1304.87 1621.71 1598.56 
2770 1087.30 1637.80 1598.56 
2771 1196.26 1624.31 1598.56 
2772 1078.75 1608.71 1598.56 
2773 1210.48 1597.56 1598.56 
2774 1183.33 1636.21 1598.56 
2775 1194.07 1648.15 1598.56 
2776 1350.85 1647.54 1598.56 
2777 1148.42 1651.27 1598.56 
2778 1222.95 1649.36 1598.56 
2779 1115.99 1653.18 1598.56 
2780 1405.60 1652.41 1598.56 
2781 1232.99 1651.44 1598.56 
2782 1239.36 1640.79 1598.56 
2783 1119.51 1623.26 1598.56 
2784 1266.06 1649.20 1598.56 
2785 1115.35 1649.16 1598.56 
2786 1220.34 1635.68 1598.56 
2787 1148.49 1640.10 1598.56 
2788 1226.51 1640.68 1598.56 
2789 1369.20 1647.98 1598.56 
2790 1234.32 1638.63 1598.56 
2791 1166.12 1646.78 1598.56 
2792 1304.91 1646.09 1598.56 
2793 1276.46 1649.21 1598.56 
2794 1239.60 1639.21 1598.56 
2795 1136.23 1624.20 1598.56 
2796 1181.78 1645.48 1598.56 
2797 1168.24 1644.28 1598.56 
2798 1253.89 1623.69 1598.56 
2799 1310.78 1619.88 1598.56 
2800 1394.82 1600.67 1598.56 
2801 1095.63 1588.63 1598.56 
2802 1125.41 1622.48 1598.56 
2803 1055.39 1618.71 1598.56 
2804 1089.86 1599.92 1598.56 
2805 1343.42 1539.89 1598.56 
2806 1248.85 1539.34 1598.56 
2807 1409.58 1541.21 1598.56 
2808 1286.80 1534.94 1598.56 
2809 1462.74 1582.01 1598.56 
2810 1183.55 1582.92 1598.56 
2811 1128.65 1585.70 1598.56 
2812 1280.28 1588.20 1598.56 
2813 1288.82 1632.69 1598.56 
2814 1223.44 1632.61 1598.56 
2815 1161.23 1632.02 1598.56 
2816 1207.63 1628.32 1598.56 
2817 1229.93 1618.54 1598.56 
2818 1439.56 1617.01 1598.56 
2819 1408.75 1618.21 1598.56 
2820 1421.46 1579.56 1598.56 
2821 1338.60 1597.80 1598.56 
2822 1305.49 1590.22 1598.56 
2823 1271.61 1595.28 1598.56 
2824 1313.17 1609.63 1598.56 
2825 1428.64 1630.65 1598.56 
2826 1275.68 1628.19 1598.56 
2827 1263.20 1631.29 1598.56 
2828 1205.72 1630.64 1598.56 
2829 1145.37 1635.67 1598.56 
2830 1274.59 1634.43 1598.56 
2831 1238.77 1635.02 1598.56 
2832 1297.87 1626.89 1598.56 
2833 1345.90 1624.38 1598.56 
2834 1283.81 1630.50 1598.56 
2835 1184.42 1629.21 1598.56 
2836 1174.36 1628.47 1598.56 
2837 1126.20 1627.48 1598.56 
2838 1273.89 1623.97 1598.56 
2839 1288.98 1627.15 1598.56 
2840 1274.70 1630.98 1598.56 
2841 1204.08 1627.89 1598.56 
2842 1222.30 1623.59 1598.56 
2843 1225.14 1628.00 1598.56 
2844 1374.06 1635.58 1598.56 
2845 1184.09 1630.58 1598.56 
2846 1167.83 1628.74 1598.56 
2847 1139.73 1631.85 1598.56 
2848 1285.11 1623.10 1598.56 
2849 1228.64 1630.58 1598.56 
2850 1239.81 1641.08 1598.56 
2851 1405.83 1620.44 1598.56 
2852 1217.72 1628.56 1598.56 
2853 1200.61 1626.19 1598.56 
2854 1374.34 1622.24 1598.56 
2855 1334.78 1631.64 1598.56 
2856 1303.34 1630.41 1598.56 
2857 1325.29 1627.19 1598.56 
2858 1064.48 1628.05 1598.56 
2859 1108.52 1626.88 1598.56 
2860 1474.82 1630.44 1598.56 
2861 1260.54 1625.43 1598.56 
2862 1116.61 1617.84 1598.56 
2863 1232.50 1620.97 1598.56 
2864 1197.53 1620.86 1598.56 
2865 1140.52 1618.42 1598.56 
2866 1194.59 1617.84 1598.56 
2867 1386.07 1622.87 1598.56 
2868 1344.68 1619.67 1598.56 
2869 1328.01 1626.10 1598.56 
2870 1292.56 1639.13 1598.56 
2871 1216.62 1637.98 1598.56 
2872 1030.92 1630.44 1598.56 
2873 1224.42 1636.13 1598.56 
2874 1201.18 1637.65 1598.56 
2875 1148.97 1645.75 1598.56 
2876 1150.87 1650.65 1598.56 
2877 1231.70 1655.09 1598.56 
2878 1181.06 1659.40 1598.56 
2879 1057.01 1643.24 1598.56 
2880 1126.75 1650.01 1598.56 
2881 1146.48 1658.83 1598.56 
2882 1080.71 1656.29 1598.56 
2883 1212.76 1657.56 1598.56 
2884 1486.55 1656.37 1598.56 
2885 1329.53 1640.75 1598.56 
2886 1128.37 1635.13 1598.56 
2887 1027.20 1619.11 1598.56 
2888 1177.60 1626.95 1598.56 
2889 1194.27 1627.95 1598.56 
2890 1233.57 1616.04 1598.56 
2891 1293.81 1618.52 1598.56 
2892 1359.39 1624.18 1598.56 
2893 1137.49 1622.91 1598.56 
2894 1245.46 1620.01 1598.56 
2895 1033.75 1628.71 1598.56 
2896 1191.36 1626.86 1598.56 
2897 1243.01 1621.15 1598.56 
2898 1408.16 1585.59 1598.56 
2899 1453.47 1618.08 1598.56 
2900 1237.94 1617.21 1598.56 
2901 1173.33 1613.46 1598.56 
2902 1214.85 1617.72 1598.56 
2903 1207.66 1603.64 1598.56 
2904 1359.82 1594.19 1598.56 
2905 1408.59 1613.64 1598.56 
2906 1353.01 1608.00 1598.56 
2907 1266.38 1595.48 1598.56 
2908 1256.04 1569.89 1598.56 
2909 1234.73 1573.04 1598.56 
2910 1163.28 1595.51 1598.56 
2911 1304.92 1581.13 1598.56 
2912 1207.87 1600.49 1598.56 
2913 1337.09 1591.82 1598.56 
2914 1362.48 1584.28 1598.56 
2915 1161.52 1595.50 1598.56 
2916 1251.19 1596.17 1598.56 
2917 1086.97 1600.55 1598.56 
2918 1339.72 1599.90 1598.56 
2919 1264.62 1616.14 1598.56 
2920 1256.61 1614.82 1598.56 
2921 1283.13 1616.70 1598.56 
2922 1347.74 1618.68 1598.56 
2923 1452.60 1628.00 1598.56 
2924 1303.31 1625.24 1598.56 
2925 1260.54 1602.27 1598.56 
2926 1222.97 1627.26 1598.56 
2927 1249.13 1632.66 1598.56 
2928 1368.01 1625.93 1598.56 
2929 1128.08 1657.89 1598.56 
2930 1157.32 1649.11 1598.56 
2931 1213.81 1660.75 1598.56 
2932 1107.86 1670.47 1598.56 
2933 1503.46 1670.24 1598.56 
2934 1188.06 1667.35 1598.56 
2935 1307.73 1680.27 1598.56 
2936 1325.60 1661.00 1598.56 
2937 1339.92 1651.64 1598.56 
2938 1247.59 1640.39 1598.56 
2939 1402.06 1640.37 1598.56 
2940 1361.54 1644.05 1598.56 
2941 1288.18 1654.07 1598.56 
2942 1377.78 1654.20 1598.56 
2943 1313.41 1668.28 1598.56 
2944 1198.06 1673.02 1598.56 
2945 1348.61 1662.42 1598.56 
2946 1249.68 1661.14 1598.56 
2947 1357.59 1656.09 1598.56 
2948 1188.81 1655.39 1598.56 
2949 1205.60 1651.72 1598.56 
2950 1466.65 1659.16 1598.56 
2951 1360.84 1663.57 1598.56 
2952 1363.06 1666.75 1598.56 
2953 1298.88 1655.94 1598.56 
2954 1374.10 1650.58 1598.56 
2955 1382.76 1654.40 1598.56 
2956 1187.97 1657.84 1598.56 
2957 1387.98 1659.93 1598.56 
2958 1078.81 1660.55 1598.56 
2959 1341.86 1654.91 1598.56 
2960 1343.63 1661.21 1598.56 
2961 1095.81 1650.00 1598.56 
2962 1322.02 1647.89 1598.56 
2963 1274.75 1652.49 1598.56 
2964 1289.82 1650.01 1598.56 
2965 1313.41 1643.06 1598.56 
2966 1159.45 1643.07 1598.56 
2967 1107.48 1630.54 1598.56 
2968 1262.12 1658.67 1598.56 
2969 1160.04 1657.46 1598.56 
2970 1353.84 1661.20 1598.56 
2971 1297.08 1664.28 1598.56 
2972 1377.98 1661.21 1598.56 
2973 1365.37 1659.97 1598.56 
2974 1223.85 1668.12 1598.56 
2975 1329.88 1641.18 1598.56 
2976 1135.17 1644.35 1598.56 
2977 1115.67 1644.93 1598.56 
2978 1297.98 1632.39 1598.56 
2979 1336.68 1634.88 1598.56 
2980 1334.07 1630.51 1598.56 
2981 1173.87 1641.10 1598.56 
2982 1222.68 1647.97 1598.56 
2983 1145.05 1651.14 1598.56 
2984 1157.47 1637.33 1598.56 
2985 1200.53 1638.63 1598.56 
2986 1311.54 1635.92 1598.56 
2987 1369.17 1614.86 1598.56 
2988 1208.84 1617.39 1598.56 
2989 1393.03 1631.68 1598.56 
2990 1213.37 1628.53 1598.56 
2991 1333.42 1627.97 1598.56 
2992 1440.54 1644.25 1598.56 
2993 1237.85 1621.12 1598.56 
2994 1198.06 1611.73 1598.56 
2995 1319.64 1602.42 1598.56 
2996 1247.20 1599.87 1598.56 
2997 1419.16 1606.09 1598.56 
2998 1305.58 1601.66 1598.56 
2999 1326.09 1621.12 1598.56 
3000 1300.88 1611.62 1598.56 
3001 1156.47 1589.12 1598.56 
3002 1218.86 1609.20 1598.56 
3003 1268.63 1614.78 1598.56 
3004 1175.53 1603.88 1598.56 
3005 1404.48 1617.27 1598.56 
3006 1256.95 1630.89 1598.56 
3007 1340.69 1621.06 1598.56 
3008 1356.39 1631.05 1598.56 
3009 1389.28 1623.49 1598.56 
3010 1182.33 1625.99 1598.56 
3011 1401.29 1564.99 1598.56 
3012 1120.24 1637.63 1598.56 
3013 1347.85 1583.79 1598.56 
3014 1188.82 1572.46 1598.56 
3015 1134.99 1571.82 1598.56 
3016 1477.29 1560.44 1598.56 
3017 1485.93 1562.47 1598.56 
3018 1424.33 1560.68 1598.56 
3019 1390.69 1533.42 1598.56 
3020 1346.92 1581.04 1598.56 
3021 1225.59 1612.55 1598.56 
3022 1349.25 1513.36 1598.56 
3023 1119.25 1498.96 1598.56 
3024 1220.29 1495.23 1598.56 
3025 1311.10 1499.01 1598.56 
3026 1174.26 1511.55 1598.56 
3027 1298.59 1517.85 1598.56 
3028 1234.32 1548.97 1598.56 
3029 1457.13 1548.86 1598.56 
3030 1205.01 1545.30 1598.56 
3031 1361.51 1544.46 1598.56 
3032 1303.32 1548.86 1598.56 
3033 1154.10 1553.23 1598.56 
3034 1404.20 1568.27 1598.56 
3035 1484.02 1570.99 1598.56 
3036 1448.39 1563.40 1598.56 
3037 1100.21 1552.41 1598.56 
3038 1499.58 1565.25 1598.56 
3039 1170.47 1558.92 1598.56 
3040 1180.56 1555.43 1598.56 
3041 1390.12 1555.18 1598.56 
3042 1173.89 1546.45 1598.56 
3043 1363.10 1556.47 1598.56 
3044 1066.42 1556.50 1598.56 
3045 1504.27 1572.85 1598.56 
3046 1115.49 1575.30 1598.56 
3047 1291.44 1572.82 1598.56 
3048 1170.16 1575.33 1598.56 
3049 1352.56 1578.48 1598.56 
3050 1354.72 1575.28 1598.56 
3051 1282.31 1642.93 1598.56 
3052 1223.74 1645.44 1598.56 
3053 1343.07 1645.41 1598.56 
3054 1313.65 1612.35 1598.56 
3055 1325.77 1609.78 1598.56 
3056 1342.91 1654.88 1598.56 
3057 1302.82 1651.74 1598.56 
3058 1267.78 1651.11 1598.56 
3059 1325.84 1654.27 1598.56 
3060 1521.58 1655.56 1598.56 
3061 1493.09 1662.40 1598.56 
3062 1436.12 1663.04 1598.56 
3063 1445.50 1664.90 1598.56 
3064 1463.32 1655.48 1598.56 
3065 1356.56 1658.61 1598.56 
3066 1084.42 1654.88 1598.56 
3067 1235.79 1663.04 1598.56 
3068 1331.26 1659.84 1598.56 
3069 1203.70 1656.69 1598.56 
3070 1317.97 1657.88 1598.56 
3071 1178.86 1655.36 1598.56 
3072 1237.05 1655.97 1598.56 
3073 1220.41 1656.60 1598.56 
3074 1238.83 1657.91 1598.56 
3075 1289.97 1665.37 1598.56 
3076 1197.68 1650.38 1598.56 
3077 1292.56 1665.37 1598.56 
3078 1362.47 1667.27 1598.56 
3079 1354.65 1666.66 1598.56 
3080 1407.44 1661.64 1598.56 
3081 1338.49 1659.69 1598.56 
3082 1657.96 1662.81 1598.56 
3083 1364.39 1659.71 1657.96 
3084 1412.61 1661.59 1657.96 
3085 1310.58 1664.08 1657.96 
3086 1358.93 1659.63 1657.96 
3087 1133.49 1646.44 1657.96 
3088 1402.97 1645.20 1657.96 
3089 1310.61 1646.55 1657.96 
3090 1256.58 1642.81 1657.96 
3091 1298.16 1643.95 1657.96 
3092 1256.02 1645.94 1657.96 
3093 1456.87 1630.28 1657.96 
3094 1361.74 1625.20 1657.96 
3095 1364.75 1647.15 1657.96 
3096 1362.63 1649.71 1657.96 
3097 1161.18 1650.31 1657.96 
3098 1191.41 1662.20 1657.96 
3099 1322.72 1658.38 1657.96 
3100 1399.69 1649.00 1657.96 
3101 1237.97 1633.92 1657.96 
3102 1305.55 1627.71 1657.96 
3103 1238.72 1627.68 1657.96 
3104 1512.90 1624.52 1657.96 
3105 1188.75 1630.81 1657.96 
3106 1338.00 1619.56 1657.96 
3107 1441.96 1618.26 1657.96 
3108 1323.02 1632.62 1657.96 
3109 1123.93 1625.77 1657.96 
3110 1166.72 1619.55 1657.96 
3111 1244.15 1623.90 1657.96 
3112 1234.26 1633.27 1657.96 
3113 1338.39 1612.60 1657.96 
3114 1334.13 1623.14 1657.96 
3115 1274.55 1611.25 1657.96 
3116 1313.60 1625.03 1657.96 
3117 1373.75 1619.40 1657.96 
3118 1245.66 1621.33 1657.96 
3119 1220.15 1616.30 1657.96 
3120 1277.64 1610.11 1657.96 
3121 1352.30 1614.53 1657.96 
3122 1330.24 1628.31 1657.96 
3123 1453.80 1635.17 1657.96 
3124 1236.56 1624.52 1657.96 
3125 1380.68 1635.81 1657.96 
3126 1473.41 1645.24 1657.96 
3127 1320.15 1653.99 1657.96 
3128 1156.64 1667.75 1657.96 
3129 1358.90 1667.12 1657.96 
3130 1265.55 1669.68 1657.96 
3131 1190.73 1657.78 1657.96 
3132 1281.65 1646.51 1657.96 
3133 1482.13 1649.63 1657.96 
3134 1296.82 1650.92 1657.96 
3135 1223.76 1648.38 1657.96 
3136 1254.43 1644.05 1657.96 
3137 1161.81 1647.80 1657.96 
3138 1300.02 1647.84 1657.96 
3139 1281.98 1656.55 1657.96 
3140 1172.64 1674.04 1657.96 
3141 1468.09 1674.10 1657.96 
3142 1123.69 1671.62 1657.96 
3143 1106.20 1657.27 1657.96 
3144 1307.66 1653.50 1657.96 
3145 1234.37 1652.89 1657.96 
3146 1263.27 1700.51 1657.96 
3147 1319.63 1646.69 1657.96 
3148 1400.50 1649.88 1657.96 
3149 1278.71 1642.41 1657.96 
3150 1277.23 1641.16 1657.96 
3151 1530.29 1653.08 1657.96 
3152 1256.78 1646.21 1657.96 
3153 1247.71 1647.38 1657.96 
3154 1188.43 1659.97 1657.96 
3155 1511.28 1634.90 1657.96 
3156 1424.73 1639.28 1657.96 
3157 1312.94 1633.66 1657.96 
3158 1226.22 1639.94 1657.96 
3159 1395.64 1636.82 1657.96 
3160 1484.84 1642.41 1657.96 
3161 1455.77 1631.16 1657.96 
3162 1437.20 1628.64 1657.96 
3163 1531.37 1632.41 1657.96 
3164 1237.78 1640.47 1657.96 
3165 1464.05 1643.64 1657.96 
3166 1237.71 1641.04 1657.96 
3167 1373.70 1643.52 1657.96 
3168 1224.99 1637.88 1657.96 
3169 1533.45 1637.31 1657.96 
3170 1241.39 1650.43 1657.96 
3171 1366.10 1635.47 1657.96 
3172 1282.84 1654.23 1657.96 
3173 1368.03 1644.87 1657.96 
3174 1306.75 1648.01 1657.96 
3175 1291.84 1650.48 1657.96 
3176 1320.25 1644.82 1657.96 
3177 1473.88 1644.16 1657.96 
3178 1440.38 1657.26 1657.96 
3179 1262.09 1726.09 1657.96 
3180 1442.30 1684.22 1657.96 
3181 1404.12 1646.00 1657.96 
3182 1396.75 1640.74 1657.96 
3183 1113.73 1640.03 1657.96 
3184 1368.70 1635.36 1657.96 
3185 1368.94 1634.15 1657.96 
3186 1385.25 1647.26 1657.96 
3187 1422.36 1639.05 1657.96 
3188 1234.72 1642.12 1657.96 
3189 1172.16 1635.96 1657.96 
3190 1375.72 1632.21 1657.96 
3191 1418.88 1634.74 1657.96 
3192 1478.43 1637.89 1657.96 
3193 1450.67 1637.35 1657.96 
3194 1439.76 1642.94 1657.96 
3195 986.84 1633.82 1657.96 
3196 1351.83 1635.71 1657.96 
3197 1361.09 1635.96 1657.96 
3198 1138.24 1626.57 1657.96 
3199 1385.93 1629.05 1657.96 
3200 1275.35 1627.46 1657.96 
3201 1060.10 1636.48 1657.96 
3202 1358.95 1629.85 1657.96 
3203 1067.96 1640.83 1657.96 
3204 1294.53 1637.63 1657.96 
3205 1014.21 1630.46 1657.96 
3206 1282.90 1635.76 1657.96 
3207 1374.35 1635.79 1657.96 
3208 1438.33 1632.64 1657.96 
3209 1258.91 1631.97 1657.96 
3210 1359.15 1637.05 1657.96 
3211 1176.35 1643.92 1657.96 
3212 1273.58 1644.59 1657.96 
3213 1349.81 1642.79 1657.96 
3214 1396.91 1643.38 1657.96 
3215 1356.02 1645.90 1657.96 
3216 1360.46 1643.45 1657.96 
3217 1239.74 1646.67 1657.96 
3218 1442.84 1640.99 1657.96 
3219 1221.03 1629.09 1657.96 
3220 1237.98 1629.09 1657.96 
3221 1350.36 1625.95 1657.96 
3222 1258.72 1645.40 1657.96 
3223 1255.88 1637.89 1657.96 
3224 1303.72 1641.01 1657.96 
3225 1023.82 1639.10 1657.96 
3226 1547.74 1636.58 1657.96 
3227 1301.70 1638.46 1657.96 
3228 1299.97 1644.73 1657.96 
3229 1370.33 1637.27 1657.96 
3230 1529.35 1627.89 1657.96 
3231 1467.29 1636.02 1657.96 
3232 1354.20 1646.65 1657.96 
3233 1375.56 1646.61 1657.96 
3234 1181.90 1651.58 1657.96 
3235 1497.05 1649.08 1657.96 
3236 1168.21 1632.21 1657.96 
3237 1301.53 1630.31 1657.96 
3238 1404.54 1623.48 1657.96 
3239 1562.89 1620.34 1657.96 
3240 1481.79 1614.78 1657.96 
3241 1186.84 1620.36 1657.96 
3242 1260.80 1622.86 1657.96 
3243 1165.15 1635.34 1657.96 
3244 1455.37 1632.16 1657.96 
3245 1448.97 1638.41 1657.96 
3246 1474.96 1649.04 1657.96 
3247 1414.55 1641.47 1657.96 
3248 1196.45 1647.76 1657.96 
3249 1242.72 1654.63 1657.96 
3250 1334.04 1651.52 1657.96 
3251 1402.29 1632.79 1657.96 
3252 1371.33 1629.67 1657.96 
3253 1286.90 1626.53 1657.96 
3254 1431.83 1630.87 1657.96 
3255 1547.19 1627.73 1657.96 
3256 1372.86 1644.61 1657.96 
3257 1421.82 1656.50 1657.96 
3258 1363.50 1658.42 1657.96 
3259 1252.07 1654.71 1657.96 
3260 1219.50 1657.75 1657.96 
3261 1511.94 1663.96 1657.96 
3262 1075.35 1661.41 1657.96 
3263 1340.02 1653.16 1657.96 
3264 1318.28 1663.75 1657.96 
3265 1182.24 1660.66 1657.96 
3266 1426.52 1660.70 1657.96 
3267 1381.27 1659.47 1657.96 
3268 1247.29 1653.29 1657.96 
3269 1263.36 1664.58 1657.96 
3270 1453.94 1655.16 1657.96 
3271 1391.87 1648.30 1657.96 
3272 1287.81 1647.10 1657.96 
3273 1259.61 1660.36 1657.96 
3274 1246.55 1660.94 1657.96 
3275 1236.69 1639.69 1657.96 
3276 1258.65 1642.16 1657.96 
3277 1432.35 1664.78 1657.96 
3278 1247.22 1668.53 1657.96 
3279 1445.48 1667.93 1657.96 
3280 1393.66 1658.56 1657.96 
3281 1390.08 1660.46 1657.96 
3282 1495.52 1662.95 1657.96 
3283 1228.77 1657.95 1657.96 
3284 1290.43 1655.37 1657.96 
3285 1290.87 1649.16 1657.96 
3286 1270.73 1654.83 1657.96 
3287 1498.19 1654.22 1657.96 
3288 1373.46 1657.96 1657.96 
3289 1268.11 1669.88 1657.96 
3290 1474.83 1664.19 1657.96 
3291 1351.60 1666.64 1657.96 
3292 1486.96 1658.45 1657.96 
3293 1443.90 1665.29 1657.96 
3294 1390.64 1657.85 1657.96 
3295 1523.62 1664.71 1657.96 
3296 1316.89 1665.96 1657.96 
3297 1238.19 1662.20 1657.96 
3298 1211.27 1665.32 1657.96 
3299 1432.71 1675.41 1657.96 
3300 1194.19 1669.12 1657.96 
3301 1234.90 1681.69 1657.96 
3302 1321.60 1676.75 1657.96 
3303 1286.27 1673.59 1657.96 
3304 1392.19 1673.56 1657.96 
3305 1420.29 1666.05 1657.96 
3306 1310.88 1663.66 1657.96 
3307 1348.99 1672.95 1657.96 
3308 1287.58 1670.41 1657.96 
3309 1367.75 1674.16 1657.96 
3310 1212.73 1669.11 1657.96 
3311 1241.88 1672.25 1657.96 
3312 1277.81 1668.47 1657.96 
3313 1262.43 1665.36 1657.96 
3314 1464.41 1662.21 1657.96 
3315 1276.44 1661.56 1657.96 
3316 1443.83 1659.72 1657.96 
3317 1235.14 1658.43 1657.96 
3318 1218.07 1670.36 1657.96 
3319 1264.69 1670.30 1657.96 
3320 1376.49 1682.82 1657.96 
3321 1273.17 1683.45 1657.96 
3322 1563.07 1680.38 1657.96 
3323 1330.81 1686.03 1657.96 
3324 1279.30 1680.96 1657.96 
3325 1431.64 1678.41 1657.96 
3326 1254.60 1677.75 1657.96 
3327 1526.18 1682.19 1657.96 
3328 1226.90 1679.14 1657.96 
3329 1416.73 1675.39 1657.96 
3330 1356.32 1677.88 1657.96 
3331 1366.73 1670.41 1657.96 
3332 1409.46 1685.35 1657.96 
3333 1256.50 1695.34 1657.96 
3334 1430.42 1710.96 1657.96 
3335 1326.93 1717.20 1657.96 
3336 1470.84 1764.13 1657.96 
3337 1319.68 1714.79 1657.96 
3338 1394.49 1714.19 1657.96 
3339 1463.09 1697.87 1657.96 
3340 1356.18 1717.25 1657.96 
3341 1399.22 1700.33 1657.96 
3342 1388.09 1704.11 1657.96 
3343 1433.93 1710.94 1657.96 
3344 1399.15 1719.65 1657.96 
3345 1213.24 1709.63 1657.96 
3346 1286.30 1700.20 1657.96 
3347 1197.32 1708.97 1657.96 
3348 1307.96 1681.52 1657.96 
3349 1227.96 1694.03 1657.96 
3350 1354.76 1709.03 1657.96 
3351 1298.47 1715.27 1657.96 
3352 1523.68 1705.92 1657.96 
3353 1535.30 1680.87 1657.96 
3354 1291.60 1683.27 1657.96 
3355 1302.77 1685.79 1657.96 
3356 1320.07 1709.49 1657.96 
3357 1227.45 1682.02 1657.96 
3358 1210.94 1673.87 1657.96 
3359 1256.38 1673.26 1657.96 
3360 1166.89 1671.98 1657.96 
3361 1333.59 1673.25 1657.96 
3362 1408.81 1665.16 1657.96 
3363 1306.81 1664.59 1657.96 
3364 1368.98 1668.92 1657.96 
3365 1473.86 1655.81 1657.96 
3366 1194.78 1657.70 1657.96 
3367 1475.54 1658.98 1657.96 
3368 1329.51 1656.53 1657.96 
3369 1271.74 1656.51 1657.96 
3370 1447.43 1660.33 1657.96 
3371 1408.99 1656.66 1657.96 
3372 1554.67 1651.05 1657.96 
3373 1373.70 1652.29 1657.96 
3374 1359.71 1656.70 1657.96 
3375 1413.72 1650.76 1657.96 
3376 1360.49 1650.75 1657.96 
3377 1258.54 1647.56 1657.96 
3378 1323.98 1651.99 1657.96 
3379 1240.32 1650.17 1657.96 
3380 1245.41 1658.92 1657.96 
3381 1487.43 1652.07 1657.96 
3382 1200.83 1651.35 1657.96 
3383 1407.13 1658.87 1657.96 
3384 1444.89 1660.48 1657.96 
3385 1434.01 1654.20 1657.96 
3386 1557.69 1660.50 1657.96 
3387 1331.64 1655.09 1657.96 
3388 1398.27 1655.67 1657.96 
3389 1251.63 1655.75 1657.96 
3390 1374.10 1675.13 1657.96 
3391 1209.67 1686.31 1657.96 
3392 1260.73 1661.30 1657.96 
3393 1305.84 1654.39 1657.96 
3394 1338.57 1661.93 1657.96 
3395 1508.39 1656.25 1657.96 
3396 1418.87 1654.36 1657.96 
3397 1134.26 1653.57 1657.96 
3398 1541.63 1664.86 1657.96 
3399 1152.53 1682.98 1657.96 
3400 1305.77 1665.51 1657.96 
3401 1408.94 1662.98 1657.96 
3402 1387.16 1665.54 1657.96 
3403 1367.22 1666.77 1657.96 
3404 1507.86 1656.76 1657.96 
3405 1352.11 1656.78 1657.96 
3406 1439.64 1657.37 1657.96 
3407 1538.65 1660.08 1657.96 
3408 1413.72 1659.24 1657.96 
3409 1561.24 1661.12 1657.96 
3410 1388.32 1653.00 1657.96 
3411 1373.53 1649.63 1657.96 
3412 1316.85 1673.67 1657.96 
3413 1383.55 1658.67 1657.96 
3414 1242.42 1704.42 1657.96 
3415 1265.95 1758.19 1657.96 
3416 1339.52 1793.03 1657.96 
3417 1358.89 1755.17 1657.96 
3418 1298.01 1758.04 1657.96 
3419 1414.58 1767.49 1657.96 
3420 1277.58 1718.15 1657.96 
3421 1515.87 1658.71 1657.96 
3422 1354.03 1651.82 1657.96 
3423 1442.30 1653.03 1657.96 
3424 1505.47 1654.31 1657.96 
3425 1426.38 1663.67 1657.96 
3426 1488.82 1700.60 1657.96 
3427 1355.96 1693.13 1657.96 
3428 1357.47 1673.14 1657.96 
3429 1538.15 1669.94 1657.96 
3430 1236.24 1649.10 1657.96 
3431 1278.11 1691.27 1657.96 
3432 1450.28 1682.52 1657.96 
3433 1315.02 1684.72 1657.96 
3434 1192.21 1653.93 1657.96 
3435 1244.02 1669.38 1657.96 
3436 1272.37 1659.39 1657.96 
3437 1384.55 1690.26 1657.96 
3438 1444.45 1736.43 1657.96 
3439 1462.72 1619.18 1657.96 
3440 1522.95 1729.15 1657.96 
3441 1383.38 1731.65 1657.96 
3442 1439.00 1805.91 1657.96 
3443 1367.46 1760.94 1657.96 
3444 1432.03 1706.79 1657.96 
3445 1434.82 1712.71 1657.96 
3446 1315.07 1677.07 1657.96 
3447 1306.68 1644.56 1657.96 
3448 1300.21 1655.74 1657.96 
3449 1162.08 1645.03 1657.96 
3450 1237.96 1644.49 1657.96 
3451 1291.93 1657.69 1657.96 
3452 1212.12 1653.26 1657.96 
3453 1520.60 1651.40 1657.96 
3454 1350.34 1651.43 1657.96 
3455 1330.13 1642.36 1657.96 
3456 1516.60 1648.91 1657.96 
3457 1403.23 1713.28 1657.96 
3458 1208.65 1692.99 1657.96 
3459 1395.35 1659.53 1657.96 
3460 1090.61 1624.21 1657.96 
3461 1164.76 1658.85 1657.96 
3462 1287.15 1682.48 1657.96 
3463 1327.49 1657.14 1657.96 
3464 1328.18 1646.80 1657.96 
3465 1357.75 1652.44 1657.96 
3466 1426.01 1666.76 1657.96 
3467 1384.61 1666.12 1657.96 
3468 1372.09 1695.51 1657.96 
3469 1228.66 1764.33 1657.96 
3470 1247.58 1766.49 1657.96 
3471 1368.80 1733.85 1657.96 
3472 1432.38 1760.80 1657.96 
3473 1456.19 1759.82 1657.96 
3474 1345.21 1760.46 1657.96 
3475 1173.39 1754.28 1657.96 
3476 1496.63 1679.48 1657.96 
3477 1271.23 1757.70 1657.96 
3478 1390.74 1727.08 1657.96 
3479 1432.39 1695.54 1657.96 
3480 1504.27 1697.06 1657.96 
3481 1438.87 1694.49 1657.96 
3482 1302.21 1697.82 1657.96 
3483 1476.90 1696.28 1657.96 
3484 1419.27 1673.83 1657.96 
3485 1479.89 1776.41 1657.96 
3486 1507.19 1781.21 1657.96 
3487 1403.07 1792.00 1657.96 
3488 1467.80 1761.98 1657.96 
3489 1299.88 1793.24 1657.96 
3490 1237.33 1786.43 1657.96 
3491 1423.44 1701.58 1657.96 
3492 1372.66 1753.39 1657.96 
3493 1395.01 1778.39 1657.96 
3494 1248.95 1777.78 1657.96 
3495 1411.96 1764.04 1657.96 
3496 1395.07 1771.67 1657.96 
3497 1281.84 1771.52 1657.96 
3498 1442.22 1767.30 1657.96 
3499 1496.04 1775.17 1657.96 
3500 1529.97 1761.95 1657.96 
3501 1412.14 1760.89 1657.96 
3502 1261.81 1763.36 1657.96 
3503 1300.04 1775.80 1657.96 
3504 1403.64 1760.82 1657.96 
3505 1268.31 1779.58 1657.96 
3506 1039.35 1782.70 1657.96 
3507 1383.24 1792.08 1657.96 
3508 1210.73 1761.42 1657.96 
3509 1264.01 1799.67 1657.96 
3510 1504.88 1760.81 1657.96 
3511 1297.82 1773.66 1657.96 
3512 1377.47 1762.10 1657.96 
3513 1282.80 1773.91 1657.96 
3514 1423.86 1760.25 1657.96 
3515 1285.68 1760.95 1657.96 
3516 1401.63 1707.19 1657.96 
3517 1344.52 1770.86 1657.96 
3518 1578.21 1645.40 1657.96 
3519 1274.14 1720.53 1657.96 
3520 1338.42 1772.22 1657.96 
3521 1533.94 1643.50 1657.96 
3522 1113.30 1768.01 1657.96 
3523 1409.43 1744.40 1657.96 
3524 1439.22 1728.15 1657.96 
3525 1514.89 1736.69 1657.96 
3526 1454.48 1723.77 1657.96 
3527 1458.17 1734.03 1657.96 
3528 1089.03 1734.53 1657.96 
3529 1462.56 1785.78 1657.96 
3530 1544.30 1795.12 1657.96 
3531 1141.86 1784.32 1657.96 
3532 1462.82 1805.48 1657.96 
3533 1544.64 1801.01 1657.96 
3534 1299.53 1811.88 1657.96 
3535 1348.15 1803.88 1657.96 
3536 1340.33 1813.58 1657.96 
3537 1177.48 1806.09 1657.96 
3538 1603.81 1816.04 1657.96 
3539 1408.30 1804.22 1657.96 
3540 1298.35 1802.97 1657.96 
3541 1396.09 1803.30 1657.96 
3542 1164.00 1809.86 1657.96 
3543 1157.77 1808.02 1657.96 
3544 1459.20 1804.23 1657.96 
3545 1249.09 1808.59 1657.96 
3546 1207.84 1794.24 1657.96 
3547 1378.19 1797.61 1657.96 
3548 1387.40 1794.54 1657.96 
3549 1432.96 1779.42 1657.96 
3550 1348.16 1788.79 1657.96 
3551 1461.78 1795.12 1657.96 
3552 1306.88 1778.81 1657.96 
3553 1382.22 1783.16 1657.96 
3554 1487.68 1797.40 1657.96 
3555 1428.22 1798.02 1657.96 
3556 1349.40 1794.24 1657.96 
3557 1291.06 1772.77 1657.96 
3558 1322.61 1769.66 1657.96 
3559 1226.63 1765.85 1657.96 
3560 1332.10 1757.01 1657.96 
3561 1193.05 1758.50 1657.96 
3562 1563.91 1746.94 1657.96 
3563 1176.91 1713.21 1657.96 
3564 1355.05 1728.50 1657.96 
3565 1314.10 1656.84 1657.96 
3566 1301.43 1666.92 1657.96 
3567 1378.85 1665.67 1657.96 
3568 1513.21 1663.02 1657.96 
3569 1617.34 1658.33 1657.96 
3570 1212.69 1644.34 1657.96 
3571 1353.84 1649.19 1657.96 
3572 1504.02 1647.30 1657.96 
3573 1228.52 1653.60 1657.96 
3574 1206.66 1656.69 1657.96 
3575 1325.35 1652.33 1657.96 
3576 1353.91 1656.01 1657.96 
3577 1432.29 1656.67 1657.96 
3578 1372.66 1737.02 1657.96 
3579 1414.15 1668.88 1657.96 
3580 1363.48 1666.33 1657.96 
3581 1300.06 1659.22 1657.96 
3582 1404.53 1663.13 1657.96 
3583 1588.35 1683.46 1657.96 
3584 1463.36 1657.26 1657.96 
3585 1454.82 1662.51 1657.96 
3586 1292.84 1664.81 1657.96 
3587 1405.50 1660.98 1657.96 
3588 1357.64 1670.46 1657.96 
3589 1350.65 1655.17 1657.96 
3590 1392.92 1650.04 1657.96 
3591 1322.99 1640.41 1657.96 
3592 1317.40 1656.42 1657.96 
3593 1443.07 1661.78 1657.96 
3594 1382.78 1662.38 1657.96 
3595 1299.95 1683.65 1657.96 
3596 1268.87 1698.74 1657.96 
3597 1399.94 1704.94 1657.96 
3598 1370.78 1703.71 1657.96 
3599 1420.14 1674.97 1657.96 
3600 1388.64 1703.69 1657.96 
3601 1370.46 1666.19 1657.96 
3602 1270.70 1663.06 1657.96 
3603 1217.87 1665.55 1657.96 
3604 1329.56 1693.71 1657.96 
3605 1312.77 1702.53 1657.96 
3606 1502.18 1692.47 1657.96 
3607 1321.02 1694.68 1657.96 
3608 1401.08 1700.93 1657.96 
3609 1431.48 1766.85 1657.96 
3610 1361.70 1694.66 1657.96 
3611 1427.14 1719.67 1657.96 
3612 1354.13 1698.42 1657.96 
3613 1349.90 1731.54 1657.96 
3614 1419.39 1821.86 1657.96 
3615 1502.81 1829.01 1657.96 
3616 1355.47 1825.28 1657.96 
3617 1363.75 1819.36 1657.96 
3618 1410.83 1818.71 1657.96 
3619 1390.06 1810.20 1657.96 
3620 1339.92 1817.52 1657.96 
3621 1409.77 1801.55 1657.96 
3622 1428.66 1816.51 1657.96 
3623 1455.23 1822.78 1657.96 
3624 1402.00 1812.15 1657.96 
3625 1263.11 1824.01 1657.96 
3626 1402.99 1806.48 1657.96 
3627 1358.17 1798.36 1657.96 
3628 1317.51 1824.70 1657.96 
3629 1489.25 1844.72 1657.96 
3630 1357.72 1741.60 1657.96 
3631 1396.35 1797.99 1657.96 
3632 1239.02 1633.85 1657.96 
3633 1376.08 1635.11 1657.96 
3634 1493.10 1629.74 1657.96 
3635 1418.73 1634.19 1657.96 
3636 1435.78 1633.46 1657.96 
3637 1442.58 1636.58 1657.96 
3638 1456.78 1636.63 1657.96 
3639 1541.68 1643.24 1657.96 
3640 1326.79 1654.05 1657.96 
3641 1366.33 1728.93 1657.96 
3642 1415.32 1639.37 1657.96 
3643 1486.57 1639.07 1657.96 
3644 1482.57 1639.12 1657.96 
3645 1597.94 1662.91 1657.96 
3646 1558.51 1639.32 1657.96 
3647 1419.28 1649.66 1657.96 
3648 1406.55 1641.42 1657.96 
3649 1463.62 1636.45 1657.96 
3650 1397.13 1679.45 1657.96 
3651 1293.95 1678.81 1657.96 
3652 1258.39 1672.55 1657.96 
3653 1445.33 1636.86 1657.96 
3654 1329.34 1635.03 1657.96 
3655 1393.14 1634.39 1657.96 
3656 1319.20 1632.44 1657.96 
3657 1612.45 1635.56 1657.96 
3658 1372.77 1625.49 1657.96 
3659 1457.22 1625.48 1657.96 
3660 1380.91 1629.27 1657.96 
3661 1398.51 1629.20 1657.96 
3662 1329.17 1629.13 1657.96 
3663 1407.32 1629.30 1657.96 
3664 1373.43 1626.18 1657.96 
3665 1394.55 1650.96 1657.96 
3666 1436.97 1644.65 1657.96 
3667 1368.06 1622.43 1657.96 
3668 1434.72 1647.83 1657.96 
3669 1444.72 1651.67 1657.96 
3670 1378.65 1651.88 1657.96 
3671 1458.82 1649.43 1657.96 
3672 1496.69 1655.17 1657.96 
3673 1342.39 1654.85 1657.96 
3674 1287.35 1648.62 1657.96 
3675 1427.16 1648.03 1657.96 
3676 1268.44 1662.69 1657.96 
3677 1403.87 1655.66 1657.96 
3678 1305.08 1654.53 1657.96 
3679 1446.21 1665.25 1657.96 
3680 1478.45 1673.46 1657.96 
3681 1424.80 1663.46 1657.96 
3682 1379.96 1664.58 1657.96 
3683 1344.30 1657.52 1657.96 
3684 1313.71 1653.45 1657.96 
3685 1400.73 1654.11 1657.96 
3686 1294.64 1650.98 1657.96 
3687 1341.37 1665.75 1657.96 
3688 1629.72 1659.18 1657.96 
3689 1410.30 1654.76 1657.96 
3690 1339.53 1665.95 1657.96 
3691 1348.75 1649.74 1657.96 
3692 1326.75 1648.84 1657.96 
3693 1348.59 1648.21 1657.96 
3694 1350.98 1648.16 1657.96 
3695 1415.23 1663.47 1657.96 
3696 1447.96 1649.47 1657.96 
3697 1304.95 1645.41 1657.96 
3698 1324.09 1640.01 1657.96 
3699 1259.42 1633.70 1657.96 
3700 1340.53 1640.30 1657.96 
3701 1461.66 1651.67 1657.96 
3702 1333.91 1651.05 1657.96 
3703 1311.30 1651.68 1657.96 
3704 1252.16 1657.41 1657.96 
3705 1340.85 1728.96 1657.96 
3706 1341.52 1728.64 1657.96 
3707 1347.29 1721.12 1657.96 
3708 1304.65 1719.22 1657.96 
3709 1489.82 1726.41 1657.96 
3710 1359.76 1716.39 1657.96 
3711 1535.33 1722.61 1657.96 
3712 1487.33 1649.85 1657.96 
3713 1325.64 1721.36 1657.96 
3714 1418.15 1642.83 1657.96 
3715 1388.82 1722.58 1657.96 
3716 1523.44 1637.14 1657.96 
3717 1468.38 1639.12 1657.96 
3718 1447.93 1647.90 1657.96 
3719 1323.84 1633.35 1657.96 
3720 1392.90 1640.90 1657.96 
3721 1407.58 1653.72 1657.96 
3722 1370.18 1646.25 1657.96 
3723 1116.85 1644.95 1657.96 
3724 1442.15 1722.89 1657.96 
3725 1306.56 1721.94 1657.96 
3726 1455.77 1721.33 1657.96 
3727 1491.03 1725.06 1657.96 
3728 1378.22 1805.32 1657.96 
3729 1394.08 1796.02 1657.96 
3730 1417.12 1789.81 1657.96 
3731 1340.43 1790.44 1657.96 
3732 1272.74 1783.65 1657.96 
3733 1155.98 1787.40 1657.96 
3734 1534.82 1776.12 1657.96 
3735 1321.50 1792.41 1657.96 
3736 1201.85 1789.56 1657.96 
3737 1357.74 1773.06 1657.96 
3738 1391.60 1747.48 1657.96 
3739 1490.55 1763.67 1657.96 
3740 1454.43 1751.25 1657.96 
3741 1311.95 1763.73 1657.96 
3742 1370.35 1726.58 1657.96 
3743 1443.94 1781.25 1657.96 
3744 1347.75 1744.67 1657.96 
3745 1267.87 1723.67 1657.96 
3746 1488.42 1659.11 1657.96 
3747 1385.34 1718.91 1657.96 
3748 1352.53 1734.55 1657.96 
3749 1466.90 1743.25 1657.96 
3750 1387.82 1748.82 1657.96 
3751 1453.81 1752.56 1657.96 
3752 1608.47 1749.43 1657.96 
3753 1594.05 1726.20 1657.96 
3754 1339.79 1806.67 1657.96 
3755 1553.26 1750.02 1657.96 
3756 1277.72 1763.20 1657.96 
3757 1338.40 1821.08 1657.96 
3758 1421.07 1760.81 1657.96 
3759 1507.79 1765.73 1657.96 
3760 1475.47 1758.88 1657.96 
3761 1308.04 1761.35 1657.96 
3762 1231.84 1771.38 1657.96 
3763 1371.66 1809.53 1657.96 
3764 1320.34 1835.55 1657.96 
3765 1444.60 1765.82 1657.96 
3766 1467.07 1648.09 1657.96 
3767 1253.28 1764.20 1657.96 
3768 1310.19 1725.36 1657.96 
3769 1585.75 1641.82 1657.96 
3770 1366.94 1628.69 1657.96 
3771 1509.79 1736.20 1657.96 
3772 1554.47 1619.81 1657.96 
3773 1245.17 1707.79 1657.96 
3774 1383.24 1782.43 1657.96 
3775 1629.26 1797.74 1657.96 
3776 1546.60 1710.41 1657.96 
3777 1329.09 1627.46 1657.96 
3778 1445.64 1624.25 1657.96 
3779 1462.75 1618.85 1657.96 
3780 1475.41 1606.49 1657.96 
3781 1309.87 1613.51 1657.96 
3782 1479.82 1622.91 1657.96 
3783 1309.80 1709.06 1657.96 
3784 1391.63 1782.02 1657.96 
3785 1429.81 1765.15 1657.96 
3786 1379.45 1769.59 1657.96 
3787 1462.44 1765.80 1657.96 
3788 1422.50 1762.64 1657.96 
3789 1484.05 1756.97 1657.96 
3790 1233.71 1762.62 1657.96 
3791 1435.33 1762.64 1657.96 
3792 1430.36 1768.29 1657.96 
3793 1237.01 1757.62 1657.96 
3794 1487.68 1757.60 1657.96 
3795 1444.07 1749.45 1657.96 
3796 1247.87 1756.98 1657.96 
3797 1397.28 1779.81 1657.96 
3798 1399.97 1765.94 1657.96 
3799 1249.61 1775.35 1657.96 
3800 1409.24 1776.59 1657.96 
3801 1391.32 1766.58 1657.96 
3802 1294.40 1768.49 1657.96 
3803 1478.57 1778.45 1657.96 
3804 1356.55 1785.44 1657.96 
3805 1368.17 1794.80 1657.96 
3806 1332.22 1772.60 1657.96 
3807 1368.34 1787.92 1657.96 
3808 1477.34 1710.63 1657.96 
3809 1378.02 1771.08 1657.96 
3810 1476.26 1764.14 1657.96 
3811 1342.68 1612.65 1657.96 
3812 1400.20 1777.98 1657.96 
3813 1585.95 1779.23 1657.96 
3814 1277.87 1776.13 1657.96 
3815 1332.74 1736.98 1657.96 
3816 1319.08 1754.46 1657.96 
3817 1465.18 1765.14 1657.96 
3818 1372.48 1757.61 1657.96 
3819 1631.55 1719.45 1657.96 
3820 1369.78 1708.13 1657.96 
3821 1445.76 1694.00 1657.96 
3822 1402.37 1695.56 1657.96 
3823 1366.67 1710.62 1657.96 
3824 1444.61 1660.35 1657.96 
3825 1307.69 1650.96 1657.96 
3826 1460.49 1648.14 1657.96 
3827 1383.02 1653.44 1657.96 
3828 1398.94 1646.33 1657.96 
3829 1358.23 1645.09 1657.96 
3830 1591.28 1638.47 1657.96 
3831 1486.04 1650.09 1657.96 
3832 1427.51 1623.68 1657.96 
3833 1433.07 1674.36 1657.96 
3834 1433.95 1707.54 1657.96 
3835 1545.59 1634.00 1657.96 
3836 1532.28 1634.94 1657.96 
3837 1377.06 1634.63 1657.96 
3838 1345.91 1630.24 1657.96 
3839 1410.63 1662.59 1657.96 
3840 1695.06 1652.22 1657.96 
3841 1292.07 1613.53 1695.06 
3842 1262.83 1624.32 1695.06 
3843 1295.94 1654.61 1695.06 
3844 1513.34 1659.60 1695.06 
3845 1475.91 1618.62 1695.06 
3846 1428.52 1679.13 1695.06 
3847 1425.45 1680.69 1695.06 
3848 1511.73 1676.56 1695.06 
3849 1433.80 1706.05 1695.06 
3850 1407.43 1587.62 1695.06 
3851 1309.77 1580.45 1695.06 
3852 1328.86 1659.62 1695.06 
3853 1435.01 1700.40 1695.06 
3854 1341.53 1766.39 1695.06 
3855 1362.03 1674.96 1695.06 
3856 1500.95 1685.70 1695.06 
3857 1536.04 1674.45 1695.06 
3858 1520.23 1668.72 1695.06 
3859 1490.46 1673.11 1695.06 
3860 1411.08 1686.29 1695.06 
3861 1205.99 1691.27 1695.06 
3862 1407.30 1691.22 1695.06 
3863 1400.89 1598.23 1695.06 
3864 1441.35 1666.91 1695.06 
3865 1506.95 1590.74 1695.06 
3866 1481.74 1683.77 1695.06 
3867 1452.28 1683.14 1695.06 
3868 1461.43 1746.63 1695.06 
3869 1318.40 1644.93 1695.06 
3870 1291.99 1585.07 1695.06 
3871 1461.31 1651.81 1695.06 
3872 1360.60 1606.99 1695.06 
3873 1598.25 1656.21 1695.06 
3874 1438.36 1749.21 1695.06 
3875 1298.99 1766.16 1695.06 
3876 1522.39 1774.22 1695.06 
3877 1374.29 1708.45 1695.06 
3878 1262.59 1698.43 1695.06 
3879 1277.28 1731.31 1695.06 
3880 1521.31 1695.19 1695.06 
3881 1455.36 1713.95 1695.06 
3882 1403.08 1735.07 1695.06 
3883 1438.45 1756.10 1695.06 
3884 1359.16 1719.79 1695.06 
3885 1290.81 1734.27 1695.06 
3886 1518.07 1751.71 1695.06 
3887 1409.13 1749.18 1695.06 
3888 1386.35 1750.76 1695.06 
3889 1327.82 1719.03 1695.06 
3890 1475.78 1732.19 1695.06 
3891 1296.75 1749.82 1695.06 
3892 1317.11 1761.14 1695.06 
3893 1547.46 1740.74 1695.06 
3894 1396.41 1742.09 1695.06 
3895 1328.62 1742.72 1695.06 
3896 1592.39 1743.65 1695.06 
3897 1504.23 1744.91 1695.06 
3898 1223.15 1717.00 1695.06 
3899 1425.87 1719.47 1695.06 
3900 1339.88 1701.16 1695.06 
3901 1369.92 1740.42 1695.06 
3902 1485.53 1721.66 1695.06 
3903 1436.87 1724.27 1695.06 
3904 1653.42 1756.72 1695.06 
3905 1391.22 1637.18 1695.06 
3906 1316.47 1651.92 1695.06 
3907 1520.60 1651.97 1695.06 
3908 1369.94 1651.94 1695.06 
3909 1424.86 1648.41 1695.06 
3910 1436.07 1697.89 1695.06 
3911 1459.81 1694.93 1695.06 
3912 1496.34 1744.10 1695.06 
3913 1464.43 1753.14 1695.06 
3914 1442.59 1746.28 1695.06 
3915 1399.06 1752.46 1695.06 
3916 1291.57 1757.42 1695.06 
3917 1527.77 1751.14 1695.06 
3918 1357.38 1752.42 1695.06 
3919 1439.22 1754.30 1695.06 
3920 1401.27 1750.46 1695.06 
3921 1679.26 1743.70 1695.06 
3922 1543.96 1746.82 1695.06 
3923 1435.43 1738.88 1695.06 
3924 1466.81 1718.15 1695.06 
3925 1371.26 1743.26 1695.06 
3926 1331.90 1743.26 1695.06 
3927 1401.25 1667.13 1695.06 
3928 1338.37 1656.56 1695.06 
3929 1304.70 1613.02 1695.06 
3930 1460.75 1640.82 1695.06 
3931 1371.61 1712.34 1695.06 
3932 1419.75 1668.12 1695.06 
3933 1407.30 1684.11 1695.06 
3934 1442.91 1757.89 1695.06 
3935 1482.09 1685.27 1695.06 
3936 1300.24 1664.72 1695.06 
3937 1412.22 1660.36 1695.06 
3938 1359.10 1677.45 1695.06 
3939 1520.12 1737.80 1695.06 
3940 1535.58 1677.19 1695.06 
3941 1116.95 1630.94 1695.06 
3942 1473.02 1653.25 1695.06 
3943 1402.63 1688.94 1695.06 
3944 1462.98 1725.82 1695.06 
3945 1553.73 1743.91 1695.06 
3946 1484.22 1707.89 1695.06 
3947 1447.57 1702.95 1695.06 
3948 1412.94 1692.94 1695.06 
3949 1703.85 1697.35 1695.06 
3950 1405.56 1688.58 1703.85 
3951 1417.64 1698.66 1703.85 
3952 1335.78 1719.95 1703.85 
3953 1447.29 1730.39 1703.85 
3954 1444.59 1791.71 1703.85 
3955 1548.64 1733.58 1703.85 
3956 1486.74 1780.48 1703.85 
3957 1407.91 1784.16 1703.85 
3958 1402.76 1779.79 1703.85 
3959 1411.87 1759.62 1703.85 
3960 1463.23 1605.63 1703.85 
3961 1596.42 1598.27 1703.85 
3962 1413.26 1612.09 1703.85 
3963 1461.08 1610.68 1703.85 
3964 1620.28 1620.60 1703.85 
3965 1425.18 1623.05 1703.85 
3966 1412.36 1617.46 1703.85 
3967 1472.59 1624.99 1703.85 
3968 1200.65 1638.09 1703.85 
3969 1309.17 1626.27 1703.85 
3970 1306.31 1621.87 1703.85 
3971 1412.62 1620.61 1703.85 
3972 1525.62 1632.56 1703.85 
3973 1564.41 1628.17 1703.85 
3974 1384.48 1626.94 1703.85 
3975 1431.61 1620.71 1703.85 
3976 1637.43 1615.65 1703.85 
3977 1477.45 1602.56 1703.85 
3978 1546.21 1620.34 1703.85 
