iteration,time_sampling,stoc_pol_mean,stoc_pol_std,stoc_pol_max,stoc_pol_min,rollout_success,alpha,delta,time_vpg,time_npg,kl_dist,surr_improvement,running_score,rwd_sparse,rwd_dense,success_percentage,num_samples,time_VF,VF_error_before,VF_error_after,env_samples,eval_score,eval_success
0,9.199362993240356,-3120.5388476267085,3033.6200338976123,815.3974024240379,-8822.777693078682,0.0,1.3421789550651202,0.1,0.01128387451171875,0.23975658416748047,0.053632718,0.07009585,-3120.5388476267085,0.45867957792473874,-15.60515991137738,0.0,15923,1.4480504989624023,1.0000096903389486,0.5467125069100667,15923,-292.03970555175624,0.0
1,9.661102056503296,-2714.701137584367,2829.7152556836395,365.5973229169828,-9153.805899900084,0.0,1.6758776552344414,0.1,0.01132059097290039,0.23720526695251465,0.05286572,0.059563875,-3079.9550766224743,0.45252483227266344,-13.576966016176124,0.0,16674,1.5116369724273682,0.6113461389389632,0.3718690173875378,32597,-191.23401552484103,0.0
2,10.328502178192139,-2350.8198952241755,2634.8128605425727,457.3249339001846,-9209.295566326578,2.0833333333333335,1.6500222732771634,0.1,0.013063669204711914,0.27579426765441895,0.05116527,0.059782304,-3007.0415584826446,0.5470785926573701,-11.7602528876317,2.0833333333333335,17235,1.7747917175292969,0.3728795571460623,0.254073505452062,49832,-77.24923889530012,0.0
3,10.541475296020508,-1622.3039897848946,2447.8797024987784,765.8351730014891,-8878.696736048036,0.0,1.5709690571106407,0.1,0.012169599533081055,0.42903947830200195,0.053782295,0.0663094,-2868.56780161287,0.6292597462457995,-8.132758125726083,0.0,18286,2.323176622390747,0.3247093139069628,0.23167511035961086,68118,5.986056774930738,0.0
4,11.133049249649048,-1122.7124583173884,1894.168241535088,879.1560597303993,-6166.118310393929,0.0,1.7531807642389523,0.1,0.01166534423828125,0.26096391677856445,0.05342785,0.05528117,-2693.9822672833216,0.5947958088352004,-5.631831107420372,0.0,18843,2.496342182159424,0.33914714935256274,0.2510459902299517,86961,-6.553525862859374,0.0
5,11.075805187225342,-989.0648064112283,1879.0985360505254,785.555052817619,-9312.819775585825,1.0416666666666667,1.6151066093416035,0.1,0.012849807739257812,0.316758394241333,0.04844631,0.055529557,-2523.4905211961122,0.5106772398045896,-4.960675782608353,1.0416666666666667,18890,2.5018460750579834,0.26245761543388946,0.2160231758203188,105851,-53.23083457750867,0.0
6,10.994130611419678,-580.9478965960787,1426.7337709194755,754.6910193341764,-5187.988192018521,0.0,1.5432319997289476,0.1,0.013289451599121094,0.26827025413513184,0.05910606,0.06768308,-2329.236258736109,0.5494691937911768,-2.9186179757340605,0.0,18843,2.468388319015503,0.30186011812832675,0.2276235131733853,124694,-47.84188654341688,0.0
7,11.27971863746643,-660.6338832016511,1375.8847857565177,538.1172910097325,-5010.767592050066,0.0,1.4479121828875074,0.1,0.013507366180419922,0.29317712783813477,0.05089087,0.060060002,-2162.376021182663,0.3767151722117929,-3.322081008411725,0.0,19069,2.517718553543091,0.4834684167829919,0.27372064310197397,143763,-38.83852555781416,0.0
8,11.55258059501648,-363.5658857827898,975.1019049514682,28.142524953773748,-5030.747531898014,0.0,1.7501329216260888,0.1,0.013880252838134766,0.4551205635070801,0.04980891,0.05309067,-1982.4950076426755,0.3972415186490836,-1.8367760432888984,0.0,19200,2.6470799446105957,0.43918330094830643,0.325052770479429,162963,-29.921791257077253,0.0
9,11.411019563674927,-457.84317723855537,1269.8809231060718,647.2127082287044,-4954.226481523487,0.0,1.739489365536639,0.1,0.012460947036743164,0.4081912040710449,0.050544042,0.047035802,-1830.0298246022635,0.4482211918065371,-2.310865772473971,0.0,19200,2.5776658058166504,0.21581052049457083,0.13053402311692988,182163,-49.35175979920162,0.0
10,11.605893611907959,-211.3764336133339,588.2350625918381,28.27727894367997,-4693.330923102134,0.0,1.7248296829517646,0.1,0.01279592514038086,0.3359262943267822,0.052158825,0.06257729,-1668.1644855033705,0.419077807659243,-1.0771967245715979,0.0,19200,2.457697868347168,0.588999558646014,0.4118499275902496,201363,-52.64415493465964,0.0
11,11.896849870681763,-208.2307193630611,622.1045799106842,13.012199348237536,-5069.267977586469,0.0,1.5767521837882443,0.1,0.012731313705444336,0.3779449462890625,0.052447308,0.043810863,-1522.1711088893396,0.43401911326630827,-1.0615101912566958,0.0,19200,2.447389841079712,0.14720927214656623,0.13104613799368195,220563,-52.04438737552416,0.0
12,11.795811891555786,-67.36799272457961,130.087168271269,37.4779139002071,-1104.8391619507802,0.0,1.536952958612769,0.1,0.012462139129638672,0.39071226119995117,0.052007865,0.09550103,-1376.6907972728636,0.42987921274733437,-0.3585168226916246,0.0,19200,2.375753402709961,1.1362756444540523,0.9597567070666644,239763,-56.980742728717495,0.0
13,11.74938416481018,-102.76262616488333,488.5274210804979,32.32330331561112,-4781.456136695644,0.0,1.8452633882959522,0.1,0.012932777404785156,0.35840892791748047,0.05222251,0.04232306,-1249.2979801620656,0.45152702552312585,-0.5355186002026308,0.0,19200,2.4655866622924805,0.6037918278034223,0.2039459263748755,258963,-79.98434117294406,0.0
14,11.767924547195435,-50.44120211223605,56.86191598454392,26.137812570233322,-239.67135869037114,0.0,1.6625399368220353,0.1,0.01334238052368164,0.3765246868133545,0.049465917,0.11564278,-1129.4123023570826,0.44082754333839147,-0.2738955931739914,0.0,19200,2.382739543914795,3.035841800300615,0.8470803133748792,278163,-55.81222409043234,0.0
15,11.827640533447266,-28.41780208061245,40.63411305714781,46.22355290612002,-142.74920310682302,0.0,1.4907321946135477,0.1,0.013301849365234375,0.36150407791137695,0.05348877,0.05214275,-1019.3128523294356,0.47861290800696343,-0.1638048603121649,0.0,19200,2.423847198486328,0.7060887042432713,0.5450863271406856,297363,-39.49882891614429,0.0
16,11.828026533126831,-14.383313193557347,34.41738481392778,55.14304832302072,-194.3234653472201,0.0,1.895035742108864,0.1,0.01412200927734375,0.39040064811706543,0.050991915,0.049346775,-918.8198984158478,0.5053952753397958,-0.0935685103446454,0.0,19200,2.3996708393096924,0.5801783084405661,0.5228916917660023,316563,-61.26532040798779,0.0
17,12.106677055358887,-40.9431365426425,427.3337913055455,70.03500323481276,-4189.9278710298495,0.0,1.7552679963792335,0.1,0.01326894760131836,0.47031641006469727,0.050743822,0.038779814,-831.0322222285273,0.5760173058992089,-0.22649343942946185,0.0,19200,2.4316704273223877,0.26936661586265714,0.09843805579852795,335763,-77.67742524216519,0.0
18,11.842886686325073,1.0009767594665153,40.972816119825055,60.48193471061695,-216.30426156403806,0.0,1.7486912893397863,0.1,0.012401580810546875,0.40218019485473633,0.04845579,0.101115294,-747.8289023297278,0.5675173194140605,-0.01677966708558859,0.0,19200,2.5040597915649414,1.3216443412952876,0.40159068027362044,354963,-7.0273492782700355,0.0
19,11.671983003616333,-36.204274898766414,395.3310022588975,79.24913243369484,-3807.3438555178705,0.0,1.9956960828722312,0.1,0.013569831848144531,0.38429713249206543,0.048999704,0.039726574,-676.6664395866317,0.6115843876950194,-0.202766625950915,0.0,19200,2.5074057579040527,0.8011331482155081,0.0901301340155767,374163,-8.37470865038668,0.0
20,11.713846921920776,-18.96093642383727,302.37011873576904,65.0132257596912,-2952.1142647173187,0.0,2.014632665825862,0.1,0.013991355895996094,0.3847336769104004,0.051999733,0.047585938,-610.8958892703522,0.6111350514410099,-0.11667823588861305,0.0,19200,2.5810728073120117,0.2913475008073986,0.09099030280797672,393363,8.759799480595781,0.0
21,11.934092998504639,-9.081640048534366,132.5137458347581,64.62977847096971,-1143.9235175164897,0.0,1.7007063692996907,0.1,0.014405488967895508,0.4225137233734131,0.05186842,0.06543712,-550.7144643481705,0.5925994838607115,-0.06722019176144171,0.0,19200,2.5114119052886963,1.2172494191491126,0.29892335139107856,412563,-26.73536667087351,0.0
22,11.752172946929932,-3.530492629139817,36.40873674291622,60.21368959206674,-239.26590813992772,0.0,1.9586070188587947,0.1,0.0246889591217041,0.4493591785430908,0.04982004,0.04011573,-495.99606717626745,0.5543226548818002,-0.039398834336707426,0.0,19200,2.5597920417785645,0.4158774031875601,0.39988157836004323,431763,-2.320925077015204,0.0
23,11.845202684402466,-14.071493814734396,198.3492417010593,64.89604074066405,-1917.118852211265,0.0,2.317263943152709,0.1,0.013195991516113281,0.4699418544769287,0.05053336,0.040977657,-447.8036098401142,0.5718543053289955,-0.09214258224926268,0.0,19200,2.6298580169677734,0.7411639102859777,0.12408794483470609,450963,-3.831803672458811,0.0
24,11.864258050918579,19.105935107948074,30.27481176849415,72.00753477770483,-125.45233747638036,0.0,2.1998629850008276,0.1,0.013893604278564453,0.412736177444458,0.0508722,0.054808542,-401.112655345308,0.6284280266942592,0.07367620311619064,0.0,19200,2.6404008865356445,0.2763718259186164,0.10743223502342,470163,0.6644585885328993,0.0
25,11.94474458694458,23.791241471219664,39.88602642375813,73.95735888191916,-178.39953335612717,0.0,2.0072810707730575,0.1,0.013991832733154297,0.42928504943847656,0.051305305,0.04767794,-358.62226566365524,0.6456949343780339,0.0971010920523196,0.0,19200,2.4644649028778076,8.885960761523563,0.19393141895840393,489363,8.587928858636896,0.0
26,11.872499227523804,-22.274578790242085,457.5617681185908,74.39563965436,-4472.289218982337,0.0,2.051962349588024,0.1,0.012902498245239258,0.380770206451416,0.050343525,0.03712067,-324.98749697631393,0.6481404025115425,-0.133278518797251,0.0,19200,2.4738681316375732,0.9908797064079634,0.28636105731433004,508563,1.539162252052177,0.0
27,11.766152620315552,30.263560900639092,29.272786086013756,78.02506801569619,-56.9306784957747,0.0,1.9248289527985156,0.1,0.014060497283935547,0.4432554244995117,0.050847128,0.096138306,-289.4623911886186,0.6781042334876695,0.12943847464246974,0.0,19200,2.4993202686309814,0.3895191425541838,0.04698473480226733,527763,18.632148155360596,0.0
28,11.732413291931152,47.11733703995787,24.143630896375804,90.0921301304929,-21.251766351493906,0.0,1.7600431952546949,0.1,0.012778520584106445,0.36398959159851074,0.05128388,0.06486209,-255.80441836576097,0.7346490555609425,0.21367445592878131,0.0,19200,2.4658281803131104,0.05121474606514152,0.03427442540573961,546963,47.41346611824052,0.0
29,11.631887197494507,59.17528063457755,29.482720990605443,152.06512573955231,-13.593686721789348,0.0,1.8333382038766135,0.1,0.013358831405639648,0.39600467681884766,0.051895734,0.05646569,-224.30644846572713,0.7931668101139686,0.27403698006480603,0.0,19200,2.4752864837646484,0.05905561813301271,0.04367391259061744,566163,58.868187966774805,0.0
30,11.740571022033691,74.40612697084113,26.392736271850563,152.66323511265057,-110.35824338441473,0.0,1.6841479196072098,0.1,0.01333308219909668,0.35119128227233887,0.048387103,0.05101998,-194.43519092207032,0.84147603057339,0.34988677104376703,0.0,19200,2.4191348552703857,2.088867554124814,0.030786902315271432,585363,60.541944888168146,0.0
31,11.835826635360718,78.56492741738306,74.28347057424276,723.5688006833508,-117.56627981632458,0.0,2.068670379121595,0.1,0.012475967407226562,0.3939988613128662,0.04997371,0.054664303,-167.135179088125,0.8552130185230311,0.3707688777075455,0.0,19200,2.387265205383301,0.3135427410655937,0.2742060616268092,604563,66.84985980412995,0.0
32,11.805963277816772,86.48921913911266,72.64989169401605,719.1423079213665,-91.83154481618199,0.0,1.96596243896112,0.1,0.013462066650390625,0.3192610740661621,0.052394066,0.065100744,-141.77273926540124,0.8760037347092314,0.4100350144705242,0.0,19200,2.3742189407348633,0.2590200767953924,0.23544988064671024,623763,56.57440568783896,0.0
33,11.556542158126831,91.94896740888146,46.71999888154724,434.906208753619,-109.15364460160652,1.0416666666666667,1.425742191447916,0.1,0.013130903244018555,0.36829352378845215,0.04752427,0.05576283,-118.40056859797298,0.9423328097553479,0.4372968236919454,1.0416666666666667,19200,2.4059011936187744,0.5210308018578764,0.4171668676489997,642963,46.314396663737995,0.0
34,11.712416887283325,119.87049186032124,151.98214016766093,753.5996007793735,-132.7965398701595,0.0,2.290777336076129,0.1,0.01329183578491211,0.4057621955871582,0.050415184,0.046828274,-94.57346255214355,0.9238806403128125,0.5767099913630993,0.0,19200,2.4492685794830322,0.4710376022413563,0.22457145258941005,662163,83.07383568602401,0.0
35,11.846568584442139,154.33573136071982,178.42882628190452,837.1307605029886,-96.23629097073075,0.0,2.060473518112093,0.1,0.013892889022827148,0.40647292137145996,0.051925864,0.047832258,-69.68254316085722,0.9949054918257936,0.7494943127610173,0.0,19200,2.5090765953063965,0.23995140284077826,0.1526836991236953,681363,91.92987666998447,0.0
36,11.672192811965942,441.94773899559976,287.970558565151,804.8013687163326,-78.13472311076798,0.0,1.9910460924338356,0.1,0.02295827865600586,0.46883487701416016,0.0519095,0.05221359,-18.519514945211526,1.2715519410967298,2.185788681162225,0.0,19200,2.544546365737915,0.14864779729419458,0.0753278078613442,700563,58.94327163386719,0.0
37,11.5341637134552,531.8181081551285,258.462276038592,869.3676672786607,-110.25570369648857,1.0416666666666667,1.820406126422472,0.1,0.013170957565307617,0.41687703132629395,0.050679665,0.054318517,36.514247364822474,1.3079209297920256,2.634802911078812,1.0416666666666667,19200,2.583791971206665,0.08529647033693126,0.04351187551875174,719763,107.49856123873937,0.0
38,11.800321102142334,596.225140128026,206.29882570475326,1040.7844104053815,-79.67211512821709,0.0,1.9460287252368431,0.1,0.01525568962097168,0.4416158199310303,0.04929357,0.053874798,92.48533664114284,1.4037350665029134,2.9565166581390674,0.0,19200,2.6106200218200684,0.05697073592134359,0.045073913761340054,738963,148.39594525869816,0.0
39,12.089084148406982,625.1546294678809,291.5572156666321,1670.3103623444415,-96.61907447094099,1.0416666666666667,1.8922507011789576,0.1,0.013872623443603516,0.44477248191833496,0.048268143,0.053834338,145.75226592381665,1.3936152198101919,3.100737406488929,1.0416666666666667,19200,2.5901060104370117,0.048863164721563476,0.03230767121664927,758163,129.0299704542197,0.0
40,11.955345153808594,653.3783165930427,285.7423516689922,1023.4868493101264,-110.99482097721484,1.0416666666666667,1.412889421331053,0.1,0.013123512268066406,0.39504098892211914,0.04767472,0.055321656,196.51487099073927,1.4096105330069584,3.243571473402459,1.0416666666666667,19200,2.64278244972229,0.04285110017429717,0.027058151201776147,777363,99.72519964130383,0.0
41,11.825284242630005,702.5819021360179,233.47802788248896,1017.303513334885,-394.02362446974956,1.0416666666666667,1.6306902215916137,0.1,0.01383829116821289,0.4484395980834961,0.050076094,0.050203618,247.12157410526714,1.5530289259800216,3.4869717030160636,1.0416666666666667,19200,2.568695068359375,0.08936258723842934,0.07029587467226978,796563,21.23299549477946,0.0
42,11.942444562911987,682.2886483615133,301.08967811791325,1080.4064909214844,-108.81463124705493,5.208333333333333,1.9348434201169196,0.1,0.013284921646118164,0.281160831451416,0.051257208,0.04523992,290.63828153089173,1.5301305835557042,3.38590329353516,5.208333333333333,19165,2.5958268642425537,0.05488548579110866,0.04279267569464104,815728,15.942752275274906,0.0
43,12.00957727432251,706.8182427088672,258.6836925721345,1236.7366379384123,-208.11103133697208,4.166666666666667,1.6857359747073837,0.1,0.02035212516784668,0.46538424491882324,0.05102168,0.052470922,332.2562776486893,1.543263622747052,3.509678784385798,4.166666666666667,19200,2.5791192054748535,0.06714631302383745,0.04903803469759615,834928,16.440644385457,0.0
44,12.004565715789795,735.3666181725081,246.96313195324294,1077.9379313621057,-108.76461769756536,5.208333333333333,1.7429594909899506,0.1,0.013371467590332031,0.26798200607299805,0.050249014,0.04902972,372.5673117010712,1.6011501224844773,3.6509594716481346,5.208333333333333,19185,2.6221230030059814,0.03851073855635195,0.02408200182310758,854113,29.127786793153074,0.0
45,12.021449089050293,776.7524698094894,238.20669989742635,1329.3993635872432,-30.447629790676608,3.125,1.8193904017994635,0.1,0.014254570007324219,0.4527764320373535,0.049381062,0.05138694,412.98582751191304,1.6537087200636413,3.857910120689386,3.125,19200,2.5495827198028564,0.0424563688453516,0.02039991298067227,873313,196.59265167770639,0.0
46,11.735124588012695,824.8223938708148,217.47879753632748,1333.5244545424632,-65.25788666216471,3.125,2.0425860240370133,0.1,0.013499259948730469,0.4477982521057129,0.04912102,0.047932487,454.16948414780325,1.7170248141285545,4.097687587642845,3.125,19200,2.4271039962768555,0.01657625248928956,0.012000103510735676,892513,39.42592711766022,0.0
47,11.97434949874878,884.1742830935597,224.9357569715665,1615.9229597897802,-81.64992903009768,8.333333333333334,1.7442350408686738,0.1,0.012968778610229492,0.4129772186279297,0.0497603,0.048970398,497.16996404237887,1.8690644384696184,4.394893980657658,8.333333333333334,19200,2.376084089279175,0.01372588339743169,0.010582071048003381,911713,1147.979948779434,100.0
48,11.616588830947876,857.5431401703008,351.75559943923776,1655.0177141713398,-47.14356375932986,12.5,2.041977073640039,0.1,0.0134735107421875,0.41412878036499023,0.049997635,0.046281394,533.2072816551711,1.9170054823116687,4.261093607453774,12.5,19200,2.4515228271484375,0.05038429525740054,0.03799944043718208,930913,1035.0371281150435,100.0
49,11.573639869689941,895.9627239922507,255.1384491455355,1607.155648999511,-26.611318238051968,6.25,1.8855484292101716,0.1,0.01244974136352539,0.42368507385253906,0.05053859,0.056360774,569.482825888879,1.9975690212798718,4.453459224474904,6.25,19200,2.4045636653900146,0.02021027905449813,0.014849452424460466,950113,26.17971045864521,0.0
50,11.715498924255371,999.9257747681721,222.45752432405934,1763.0295131824626,42.793559489722604,15.625,2.0135678998258157,0.1,0.012753963470458984,0.40128636360168457,0.05084518,0.054458085,612.5271207768084,2.1635953997639534,4.972409278215815,15.625,19200,2.350616216659546,0.01623913422298734,0.01171279306350983,969313,16.47772096891721,0.0
51,12.083390235900879,957.9046727120908,257.64634882778347,1594.5029332164859,-66.49065167071815,14.583333333333334,1.7505432451115788,0.1,0.013263940811157227,0.46839141845703125,0.050431184,0.05437713,647.0648759703366,2.103386780051968,4.762352117622446,14.583333333333334,19200,2.3968472480773926,0.016717898278790208,0.013279717431664496,988513,1075.4188265458315,0.0
52,12.028139352798462,938.6827599057206,381.77250994237113,1708.9109558989046,24.327097118444343,18.75,1.9042665519569701,0.1,0.013024330139160156,0.43416905403137207,0.051172838,0.05011648,676.2266643638751,2.084115435376981,4.6665323677436845,18.75,19200,2.3960578441619873,0.0358667061886544,0.024882320884249,1007713,1061.4653935621677,0.0
53,11.789769172668457,986.5668476998435,378.3775094683829,1705.0300695006415,-23.70814342340786,22.916666666666668,1.8747450238299967,0.1,0.014778852462768555,0.44467687606811523,0.04956211,0.052116513,707.260682697472,2.142046815038979,4.905655077844906,22.916666666666668,19200,2.3769760131835938,0.02890553112137364,0.02362565524175582,1026913,1138.7548638492435,0.0
54,11.792353630065918,1044.4579979315238,317.4869668956751,1735.401574648531,-335.69736048253895,25.0,1.9681899046848452,0.1,0.013408184051513672,0.3955228328704834,0.04962997,0.056146298,740.9804142208773,2.2402478638165495,5.196809428452113,25.0,19200,2.3152925968170166,0.021489944167315776,0.01610747218550086,1046113,1677.7065575403967,100.0
55,11.915618896484375,994.309842127824,246.96717152706475,1725.7993220817182,-19.723990490021517,18.75,2.0295930828092787,0.1,0.013035774230957031,0.4261331558227539,0.050507173,0.049316272,766.313357011572,2.207942494612388,4.944579577418882,18.75,19200,2.330167293548584,0.013466096059597274,0.009400733546413026,1065313,1195.747659111415,100.0
56,11.98230266571045,1173.3114255945977,342.2122217865264,1778.4605202223677,-51.34762460602253,52.083333333333336,1.8460137878686371,0.1,0.013773679733276367,0.44289374351501465,0.05020696,0.06443499,807.0131638698746,2.3790266903913366,5.839364735451064,52.083333333333336,19200,2.3712079524993896,0.016420313750965698,0.011798910092272323,1084513,1276.0872126002428,100.0
57,11.616479873657227,1177.3671287819805,548.3065356360643,1741.101084140125,-3071.697887454639,53.125,1.645466989061021,0.1,0.012451648712158203,0.2660079002380371,0.050710335,0.04562383,844.0485603610853,2.386379475367991,5.8576763991108285,53.125,19128,2.3856499195098877,0.05848121369076005,0.034134609841454486,1103641,1429.2091420649754,100.0
58,11.846782922744751,1223.787675390407,385.6892920171725,1819.6135112849952,78.19516580306251,53.125,1.91513034685071,0.1,0.01372671127319336,0.43056702613830566,0.049241852,0.057150047,882.0224718640175,2.4162636086284213,6.0897658687490095,53.125,19200,2.4841208457946777,0.01776516249135768,0.013762053448092098,1122841,1682.0465011246697,100.0
59,12.131545782089233,1346.365066089188,429.5024191703538,1872.2503068917847,-509.5281209698551,67.70833333333333,1.8239306957561303,0.1,0.012796163558959961,0.3448052406311035,0.05005133,0.05342353,928.4567312865346,2.5446696834195084,6.701881626880517,67.70833333333333,19200,2.4087460041046143,0.02425940768108787,0.01866326016561059,1142041,1621.6460565997704,100.0
60,11.921945333480835,1372.155014742705,352.2238011819317,1818.4304099475883,275.07387717560573,69.79166666666667,1.858031598216482,0.1,0.013141632080078125,0.3999950885772705,0.04905213,0.05162872,972.8265596321517,2.591025007452197,6.831223185355415,69.79166666666667,19200,2.4319307804107666,0.014529123149183365,0.011695177969932998,1161241,1709.7092057677155,100.0
61,11.823391199111938,1460.9371447992198,369.58140256077417,1831.051005568039,11.43500323205854,86.45833333333333,1.992654960309537,0.1,0.012205123901367188,0.3618175983428955,0.04806654,0.047860947,1021.6376181488586,2.6668285198473076,7.275983089821133,86.45833333333333,19200,2.4278061389923096,0.01321002131412063,0.011921146010163138,1180441,1735.2007769762681,100.0
62,11.727267265319824,1541.2945028903025,342.8035975692465,1844.752075967422,82.4759472235708,89.58333333333333,1.8953820820614988,0.1,0.012818574905395508,0.4492325782775879,0.050858963,0.049461596,1073.603306623003,2.7528738671021435,7.6759294923965316,89.58333333333333,19200,2.4753193855285645,0.012225914637221174,0.00996108380014672,1199641,1769.7654505678063,100.0
63,12.053266525268555,1598.2652720262922,300.3456599526302,1854.0439125293406,261.5762631534115,95.83333333333333,1.8064196858757386,0.1,0.013440847396850586,0.38555049896240234,0.049509767,0.05101374,1126.0695031633318,2.822892297312226,7.961266727284151,95.83333333333333,19200,2.5165090560913086,0.007595907827811869,0.006265077386044181,1218841,1803.703443503618,100.0
64,11.962360382080078,1573.6670160638769,483.2464190534749,1889.4704532908747,-473.3718950515204,91.66666666666667,1.7830674169943401,0.1,0.014430999755859375,0.4021904468536377,0.048770543,0.052025847,1170.8292544533863,2.782240098579027,7.838645102259537,91.66666666666667,19200,2.5731985569000244,0.025724862063914028,0.012388162381216847,1238041,1869.738155779478,100.0
65,11.903525114059448,1601.3757664109264,364.12235248987486,1860.9202742706182,0.8338262215202599,93.75,1.7151410366337365,0.1,0.01570415496826172,0.4318056106567383,0.04898513,0.055107214,1213.8839056491404,2.8256884523045755,7.976047068863927,93.75,19200,2.561978816986084,0.010287648708449403,0.008162213509294079,1257241,1887.6165858756156,100.0
66,12.00215482711792,1706.7180054861492,240.38449292563158,1880.2983083062863,608.3092552265737,96.875,2.019714566032027,0.1,0.014108896255493164,0.34630894660949707,0.050409235,0.05079982,1263.1673156328413,2.9358869494412776,8.502816350999419,96.875,19200,2.562525987625122,0.004878221956020096,0.0033909591338053334,1276441,1892.1166911941787,100.0
67,11.894326448440552,1709.4599540078427,238.86821461140173,1884.8606785740517,515.2965534656298,97.91666666666667,1.5437651524457685,0.1,0.012939453125,0.40073299407958984,0.048417374,0.057358883,1307.7965794703416,2.9340253412621693,8.516498010446162,97.91666666666667,19200,2.5415964126586914,0.00391108599136806,0.0030870098389188423,1295641,1863.7977952521076,100.0
68,11.893614053726196,1770.43688014105,154.32304966306276,1885.4523646221467,903.9384662008704,100.0,1.8740815817621481,0.1,0.014601945877075195,0.35279035568237305,0.049704388,0.0518776,1354.0606095374126,3.015542530379289,8.821373236463273,100.0,19200,2.507559299468994,0.002376545766673749,0.001809348951434744,1314841,1885.8143673895702,100.0
69,12.013639688491821,1713.010877034783,446.6927614712943,1918.6737010632164,-930.791663516181,96.875,1.513120239941752,0.1,0.013645648956298828,0.42775845527648926,0.04940873,0.097345255,1389.9556362871497,2.917976861132319,8.53423903740171,96.875,19200,2.5437209606170654,0.08017811650489351,0.007252238690466131,1334041,1886.8531656877904,100.0
70,11.977596282958984,1792.668681261466,141.94123860994878,1881.386986835818,1052.879279942449,98.95833333333333,1.9245581631083413,0.1,0.013042449951171875,0.39730024337768555,0.050386846,0.059400044,1430.2269407845813,3.035712244540372,8.932756762527761,98.95833333333333,19200,2.610485792160034,0.001688785496666224,0.0011126531281279608,1353241,1897.3271736364047,100.0
71,12.029971361160278,1804.3846794775309,165.87246514195957,1907.4716800027327,917.926472285164,98.95833333333333,1.8230751719196712,0.1,0.013785600662231445,0.4359591007232666,0.0498147,0.059932556,1467.6427146538763,3.0686056447490073,8.991075133394554,98.95833333333333,19200,2.59848952293396,0.0018319967813560495,0.001485571821267369,1372441,1916.747670175174,100.0
72,12.13269567489624,1812.3198135872447,273.75466140817764,1943.4527704095572,-324.2224349127305,96.875,1.484813351635089,0.1,0.01359105110168457,0.40514087677001953,0.050014142,0.05113974,1502.1104245472131,3.0888195459660857,9.032865633491477,96.875,19200,2.582973003387451,0.005361870233561691,0.0023107010890099726,1391641,1921.4853537279662,100.0
73,11.891505241394043,1848.145667319277,139.00058665316948,1936.1694179502567,1060.5169796025166,100.0,1.908002328888326,0.1,0.012654781341552734,0.3597238063812256,0.05035757,0.05115375,1536.7139488244195,3.1385365003378207,9.209867006933028,100.0,19200,2.567340612411499,0.0017283981024791956,0.0008571470523796106,1410841,1935.305894136242,100.0
74,12.043554544448853,1857.3051434134604,99.38111283335972,1937.271100352779,1059.172147199604,100.0,1.526534127263352,0.1,0.016622066497802734,0.45668601989746094,0.05013747,0.052944113,1568.7730682833235,3.1469059770925267,9.255648032675042,100.0,19200,2.5565130710601807,0.0013388782404379726,0.0007650526647277105,1430041,1937.0887739350474,100.0
75,11.890552997589111,1813.1988150362215,275.4473810017512,1952.8003980133494,-274.0974070795422,97.91666666666667,1.8313471877094585,0.1,0.014555692672729492,0.45913219451904297,0.050849974,0.046068933,1593.2156429586132,3.075248099124778,9.035806669107808,97.91666666666667,19200,2.7136623859405518,0.006392097221172973,0.0026977928014524015,1449241,1932.4520732708588,100.0
76,12.005516529083252,1868.2503180492174,77.20058006293776,1947.1586907561893,1228.1468687853621,100.0,1.9495204524172742,0.1,0.013926506042480469,0.3678901195526123,0.049987562,0.058003165,1620.7191104676738,3.164062313724949,9.310369537617982,100.0,19200,2.6449310779571533,0.0007829377004613442,0.0004729835605875084,1468441,1936.848969737794,100.0
77,12.109260559082031,1895.7716461651064,29.726655700133087,1962.9558622997322,1792.0370786592455,100.0,2.0248146300613588,0.1,0.01336812973022461,0.4070591926574707,0.049367573,0.04832393,1648.224364037417,3.205159164231464,9.44800039619131,100.0,19200,2.6469995975494385,0.0003796388477424015,0.00023690924006262572,1487641,1954.0380816708855,100.0
78,11.839086532592773,1886.2885951709884,122.28128405637234,1962.088800743653,868.6084410500451,98.95833333333333,1.979846984796284,0.1,0.012930870056152344,0.4459855556488037,0.04967046,0.039712228,1672.0307871507741,3.1893761012152324,9.400539071169216,98.95833333333333,19200,2.653294801712036,0.0014363095220586318,0.0009157574493361231,1506841,1947.4744202069542,100.0
79,12.18006682395935,1917.8526353052566,55.509304380863725,1971.1850594603645,1424.517964410568,100.0,1.8257041887268561,0.1,0.012923717498779297,0.3702430725097656,0.051024694,0.048169848,1696.6129719662224,3.2464360517675392,9.558359797423643,100.0,19200,2.7360222339630127,0.00033823413946072436,0.00024278375509300805,1526041,1953.3478196705169,100.0
80,11.906047582626343,1893.1554727897737,303.1370443461376,1983.8906089867266,-1049.6115762836196,98.95833333333333,1.6258089046111868,0.1,0.014898538589477539,0.4035055637359619,0.04998228,0.038787052,1716.2672220485777,3.2225755911681078,9.434808389773034,98.95833333333333,19200,2.7283051013946533,0.0029130934026749757,0.0022119011697672017,1545241,1960.0363335657955,100.0
81,11.806185960769653,1903.1496404865986,285.16079389415233,1980.8917157146113,-839.6917544011653,98.95833333333333,1.4280344069577902,0.1,0.013679742813110352,0.40159177780151367,0.050174028,0.03721196,1734.9554638923798,3.2462929656174846,9.48483915002592,98.95833333333333,19200,2.7058892250061035,0.008888212204000417,0.0032473560936008687,1564441,1963.7150693097178,100.0
82,11.736307621002197,1925.8152856538545,35.39381479712028,1996.493809118549,1701.6787581414935,100.0,1.8389253715514096,0.1,0.012798309326171875,0.4008829593658447,0.050724607,0.060299467,1754.0414460685274,3.26471332239644,9.598180643539722,100.0,19200,2.7053117752075195,0.0007920579959385444,0.00026797812093018583,1583641,1966.2343646311538,100.0
83,11.897582292556763,1904.4794938695948,160.17836663571592,1985.6601955641236,754.4962277957547,98.95833333333333,1.5867109921439404,0.1,0.013769149780273438,0.3439185619354248,0.049756244,0.050570168,1769.0852508486341,3.2425697485231506,9.491746546941682,98.95833333333333,19200,2.6985604763031006,0.002245995852308736,0.0009537735364676351,1602841,1975.1064087829627,100.0
84,11.92039704322815,1936.41538222852,25.566338441993274,1990.212912101893,1861.4586419771565,100.0,2.1682727048673347,0.1,0.013487815856933594,0.42299652099609375,0.050203204,0.046671186,1785.8182639866227,3.2792707069952143,9.651151439439172,100.0,19200,2.6853904724121094,0.00028872503474393894,0.0001817303033358935,1622041,1978.377412520664,100.0
85,12.084629774093628,1939.5217843715227,72.36063493718325,2004.2227053108172,1402.4597261524223,100.0,1.7911461305216818,0.1,0.012638568878173828,0.4606132507324219,0.050100032,0.041750107,1801.1886160251127,3.2920096358992486,9.666643958260968,100.0,19200,2.7146143913269043,0.00046203076422134695,0.0003432048086840554,1641241,1982.2990405757623,100.0
86,11.868476629257202,1956.8429689973063,27.24737490911567,2009.513518868261,1819.5508182856192,100.0,2.0496393262049093,0.1,0.012967586517333984,0.43710803985595703,0.049502164,0.04904168,1816.754051322332,3.327283725751507,9.753214469562437,100.0,19200,2.706437587738037,0.00025817918693283985,0.00016065544045774108,1660441,1990.2327251344561,100.0
87,11.57994294166565,1968.988154982997,33.845356416315255,2021.07498852247,1788.1304504146735,100.0,1.8790411186587452,0.1,0.012691020965576172,0.2687392234802246,0.05007409,0.051331233,1831.9774616883985,3.3466386580681333,9.813960250870256,100.0,19200,2.634610176086426,0.0002659286736135264,0.00018815823242080597,1679641,1306.0919951419946,100.0
88,11.611335515975952,1971.9806957577075,31.388361885590697,2020.5054495026943,1849.771496349621,100.0,2.0528215334562896,0.1,0.013866186141967773,0.45709228515625,0.050145593,0.048264068,1845.9777850953296,3.351031417405334,9.828878514819834,100.0,19200,2.625734806060791,0.00021881629121767653,0.00015249560869224653,1698841,1997.5565694570028,100.0
89,11.718770503997803,1928.0801846788727,494.1362080691494,2028.6592404661524,-2851.015346344668,98.95833333333333,1.0870983728685462,0.1,0.012985706329345703,0.38697361946105957,0.05141199,0.06676555,1854.188025053684,3.3329280106566777,9.609394190530466,98.95833333333333,19200,2.601316213607788,0.04676987014179061,0.011294715755651021,1718041,1994.6339593246287,100.0
90,12.0769681930542,1946.4554735148406,189.41306109959262,2022.256045643681,973.323641327684,96.875,1.8257645505726405,0.1,0.014106512069702148,0.3966495990753174,0.050108165,0.052700832,1863.4147698997997,3.324385168805249,9.701377296895725,96.875,19200,2.6205825805664062,0.006308300207455518,0.001274229215103663,1737241,1992.0166671459442,100.0
91,11.79320764541626,1944.9131228781705,304.1192696656398,2024.1623725468676,-1001.8975204722577,98.95833333333333,1.4890521250408368,0.1,0.01336359977722168,0.4607527256011963,0.047835514,0.08927484,1871.5646051976366,3.331216093125669,9.693540162956438,98.95833333333333,19200,2.639292001724243,0.010216390295837013,0.0025069748991661304,1756441,270.589933889339,100.0
92,11.726951360702515,1932.1137210042143,411.52171894713604,2020.7714684485118,-2045.39447150939,98.95833333333333,1.4992936979849465,0.1,0.012820959091186523,0.26897168159484863,0.050693706,0.05765695,1877.6195167782944,3.3181006862303817,9.629540880409433,98.95833333333333,19132,2.56901216506958,0.00893711335039522,0.006386192499910085,1775573,1998.2739032219395,100.0
93,11.986119508743286,1952.3656237987607,117.52363405741927,2008.890318443477,1030.409789233215,98.95833333333333,1.6574019848447854,0.1,0.012622356414794922,0.4371821880340576,0.04946805,0.07044279,1885.0941274803413,3.3202362499192457,9.731139795940665,98.95833333333333,19200,2.5898032188415527,0.0036434426301127304,0.0010143204011089084,1794773,1999.1706990708801,100.0
94,11.888106107711792,1921.1416744154892,346.3783837275685,2012.0483286049944,-1424.9731556910383,98.95833333333333,1.7257953773456622,0.1,0.013806343078613281,0.3985311985015869,0.050054535,0.042920172,1888.6988821738562,3.2833367817545915,9.574701790404779,98.95833333333333,19129,2.583244562149048,0.007400567862671405,0.004966790050254626,1813902,2003.6519080988178,100.0
95,12.094324111938477,1974.6963269156713,25.991865170036906,2017.7161588394388,1818.441941171585,100.0,2.0004894443348498,0.1,0.012940645217895508,0.3370022773742676,0.049540587,0.054021783,1897.2986266480377,3.343930028471855,9.842514450930834,100.0,19200,2.6309783458709717,0.0005669417075316811,0.000355721594487502,1833102,1996.6703206309799,100.0
96,11.834070682525635,1940.925557572862,205.61802684961864,2029.2227294644279,544.8130134717239,96.875,1.8777497699110228,0.1,0.013689517974853516,0.48811936378479004,0.048695557,0.04770375,1901.6613197405202,3.3048793639991225,9.673678471369989,96.875,19200,2.7386085987091064,0.0033485841833206078,0.0016762017942581618,1852302,1999.7067584315887,100.0
97,11.861716032028198,1985.149195329487,18.453259238574887,2017.1368488340752,1935.901798548073,100.0,2.208487622269004,0.1,0.012981891632080078,0.36115121841430664,0.050059866,0.054910082,1910.0101072994169,3.368568162755827,9.894740845298642,100.0,19200,2.654874801635742,0.00039930205510720144,0.00021098944405206454,1871502,2004.273919007912,100.0
98,11.923152685165405,1973.331401403605,121.14482988563235,2041.9448559026002,977.614128286381,98.95833333333333,1.75478126829695,0.1,0.012877941131591797,0.32697153091430664,0.050369993,0.05373954,1916.3422367098356,3.3547906587024534,9.835658543967515,98.95833333333333,19200,2.663585901260376,0.0014198340227168631,0.0008473748367414017,1890702,2000.3461054673828,100.0
99,11.881534576416016,1982.2312443404444,72.11435209074402,2031.4723893426535,1360.4910663494506,100.0,1.9237815553317157,0.1,0.014289617538452148,0.446627140045166,0.05044992,0.047308322,1922.9311374728964,3.3634373082367084,9.8804104640824,100.0,19200,2.629007339477539,0.0006125012854637393,0.00040877915637178603,1909902,2013.759645252318,100.0
100,12.288418531417847,1986.895825190888,31.748324103966937,2042.3517206512888,1767.6282884426882,100.0,2.177618709623882,0.1,0.01385807991027832,0.3890194892883301,0.04920484,0.04372256,1929.3276062446955,3.3719869066636643,9.9034516142521,100.0,19200,2.6448211669921875,0.0003534085246377328,0.00020587952066462896,1929102,721.1776456248641,100.0
101,11.743051528930664,1984.1714539615193,49.08150276938209,2028.2149965892456,1614.4734833206714,100.0,1.86341620983794,0.1,0.012851476669311523,0.37834787368774414,0.051224116,0.047965344,1934.811991016378,3.3728780116715615,9.889843689083783,100.0,19200,2.700698137283325,0.0004504661639682419,0.00021412349799375863,1948302,1308.2677006815481,100.0
102,11.707255125045776,1988.2792947561277,118.92092764754383,2029.2391746473352,842.7094021837365,98.95833333333333,1.6433824000112602,0.1,0.012881278991699219,0.40053772926330566,0.049874056,0.0511895,1940.158721390353,3.3882498748272485,9.911957569276167,98.95833333333333,19200,2.663405179977417,0.0014484662214042422,0.0004237602193397835,1967502,2021.239118658428,100.0
103,12.018784999847412,1996.8489425989112,22.364014424219416,2032.05341339024,1880.0931764245233,100.0,2.046031800901474,0.1,0.01285552978515625,0.4074866771697998,0.049963474,0.053701483,1945.8277435112088,3.3808154745330867,9.953205589030853,100.0,19200,2.6793768405914307,0.00022965101547769022,0.00014828258698909585,1986702,2018.374409383081,100.0
104,11.850895404815674,2001.4948486369838,18.97556232898241,2030.2269527358449,1945.6829958251863,100.0,2.3526853353305297,0.1,0.012892723083496094,0.41327977180480957,0.05081908,0.04344393,1951.3944540237862,3.3894339358230012,9.976491292294364,100.0,19200,2.7100861072540283,0.00012991642272342296,0.00010666504377275366,2005902,2017.044052506124,100.0
105,12.054914474487305,1986.5492784740527,203.70989204932508,2052.4439265568976,73.1939995257672,98.95833333333333,1.8024478369219141,0.1,0.013598203659057617,0.36685943603515625,0.050172925,0.037052397,1954.909936468813,3.380852755622108,9.90167455257706,98.95833333333333,19200,2.7550017833709717,0.002364070888146152,0.0007893088279538987,2025102,1411.1111705389849,100.0
106,12.120344638824463,2011.5965296941013,14.528412972200849,2045.6192637032696,1956.698538910646,100.0,1.9330158597189047,0.1,0.013540506362915039,0.4213857650756836,0.05020545,0.05031617,1960.578595791342,3.406723369237351,10.026959126223948,100.0,19200,2.7525794506073,0.00026069332239391104,0.00010120320226037136,2044302,1257.7415741481955,100.0
107,11.758175134658813,2011.2363435602792,20.753968750344804,2036.749673123717,1883.914309701577,100.0,2.051447324641999,0.1,0.014084577560424805,0.38286256790161133,0.04950293,0.04869008,1965.6443705682357,3.409973482661552,10.025113627794573,100.0,19200,2.8068418502807617,0.00011666152484798922,9.62094120441649e-05,2063502,1787.6232972913829,100.0
108,11.84134817123413,2005.9636075264843,69.95545294689576,2053.2485150341054,1365.8797085489762,100.0,2.0044212484785215,0.1,0.013446569442749023,0.3515646457672119,0.04983794,0.04410216,1969.6762942640605,3.4253688672644884,9.998721144832029,100.0,19200,2.7987074851989746,0.0009824199060663162,0.0006352393400694534,2082702,2024.7589165518293,100.0
109,11.842289209365845,2015.5311888903605,13.390844964495669,2034.5799454862245,1972.7986408408976,100.0,2.257472506531151,0.1,0.013005971908569336,0.38638854026794434,0.049454395,0.044876087,1974.2617837266905,3.4306152825561504,10.046537735993775,100.0,19200,2.8652844429016113,0.00014012364252541468,6.851477933471906e-05,2101902,2025.3539082220993,100.0
110,12.133893013000488,2008.4413616523009,36.19822965844512,2049.9363819596374,1700.356579061509,100.0,1.907922700542019,0.1,0.012901782989501953,0.3321497440338135,0.05115796,0.043317035,1977.6797415192516,3.417881969058423,10.01113014205865,100.0,19200,2.9413106441497803,0.00018793461179536145,0.00014397791561163146,2121102,2016.6532190419803,100.0
111,11.82088851928711,2016.6446340236282,15.937549272722352,2048.7225469515042,1968.2207791376702,100.0,2.171229617353907,0.1,0.01443028450012207,0.36081457138061523,0.04982457,0.0467042,1981.5762307696893,3.4252931062999097,10.052162647282387,100.0,19200,2.973144054412842,0.00010793587283045208,7.559097161512554e-05,2140302,2015.158946436735,100.0
112,11.884301662445068,2005.150107236005,109.15551402453164,2059.3068713603284,966.5303768373991,98.95833333333333,1.75584607122833,0.1,0.012728691101074219,0.40839529037475586,0.05033007,0.03240571,1983.9336184163208,3.4233731998768158,9.994658588557407,98.95833333333333,19200,3.0618295669555664,0.0005490202179846084,0.00022840274271055178,2159502,2015.7704054108908,100.0
113,12.016247034072876,2008.5306611458218,40.299886648620564,2054.4776304287966,1717.9909030670271,100.0,2.138325119271874,0.1,0.013322591781616211,0.3426532745361328,0.050308794,0.0448688,1986.393322689271,3.422511150650914,10.011564563341494,100.0,19200,2.9616289138793945,0.0006165456510681587,0.0004994118769074263,2178702,2020.7625714685144,100.0
114,11.760224342346191,1971.2445546082156,490.46995102537625,2052.2688046036455,-2806.7466581330154,98.95833333333333,1.5939136891399335,0.1,0.014125347137451172,0.3701589107513428,0.04968727,0.05058226,1984.8784458811654,3.4164995507289597,9.827043607884098,98.95833333333333,19200,2.945627450942993,0.037701664695251075,0.007768844838178602,2197902,2014.3897705171307,100.0
115,11.94635558128357,2020.457291725912,21.604953784276432,2061.8783208956515,1878.1404576714717,100.0,1.8807048854249082,0.1,0.012445688247680664,0.3445749282836914,0.050407123,0.056167968,1988.43633046564,3.4469955169342796,10.07116838610025,100.0,19200,2.950277805328369,0.0018942131994421408,0.0001920210629525329,2217102,2015.2896148824734,100.0
116,11.785989999771118,2016.0859736003792,24.141050951373856,2053.168383968436,1867.8400534216278,100.0,2.2708149648721188,0.1,0.012828826904296875,0.4316229820251465,0.04950382,0.04559752,1991.2012947791138,3.4452673584616433,10.049319002060102,100.0,19200,2.9931228160858154,0.0003099786187443577,0.00023501960131531917,2236302,2016.442947527276,100.0
117,11.752877950668335,1999.2608166738837,170.61937719986213,2070.590286715039,561.0469250004828,100.0,1.8760111167909734,0.1,0.013541698455810547,0.40625,0.051619317,0.035565343,1992.0072469685908,3.4354952649219306,9.965219899304403,100.0,19200,3.0382091999053955,0.003742984101915325,0.0016978888278781166,2255502,2019.5463403247286,100.0
118,11.879076719284058,2000.3140898993267,136.59440105146433,2055.870436944348,985.7864418728004,98.95833333333333,1.765568086168602,0.1,0.012887716293334961,0.38535189628601074,0.050080452,0.0493993,1992.8379312616646,3.423062512674841,9.970568445412242,98.95833333333333,19200,2.995063543319702,0.0026155464939987467,0.0005923820167654055,2274702,2020.513301292583,100.0
119,11.861873149871826,1977.5923139413317,417.309904590059,2063.4804715052674,-2086.858461796462,98.95833333333333,1.6218071095411588,0.1,0.012975454330444336,0.2633671760559082,0.05058098,0.03866244,1991.3133695296312,3.4226823344443766,9.85683623870708,98.95833333333333,19158,3.001953363418579,0.009072067472246741,0.00415923465938108,2293860,2013.6867715870683,100.0
120,12.150020599365234,2019.4971569912987,13.963943256508056,2047.0259010422292,1952.5225569381773,100.0,1.8444370529678766,0.1,0.01338505744934082,0.38562560081481934,0.05001906,0.06797164,1994.1317482757981,3.452112640001669,10.066412906220172,100.0,19200,2.9976351261138916,0.0005589434476091707,0.00011892240885365324,2313060,2010.9054009482193,100.0
121,11.93383526802063,1985.2970660598578,325.21272359244927,2064.1922340099923,-1167.6719115574042,98.95833333333333,1.5264387884402955,0.1,0.013049840927124023,0.26169395446777344,0.049904782,0.058707107,1993.2482800542043,3.4267450100727057,9.895383215336503,98.95833333333333,19135,3.057914972305298,0.004464021752357931,0.0024623504181184737,2332195,2019.067562876972,100.0
122,11.79065728187561,2018.3677584204424,15.351468631545252,2053.535209760857,1974.535357382529,100.0,2.0558756775972222,0.1,0.013200044631958008,0.41585206985473633,0.04995397,0.063716866,1995.7602278908282,3.4468061659888334,10.060731316508848,100.0,19200,3.058454751968384,0.0002432124687976922,0.0001246494511056235,2351395,2020.9949366116605,100.0
123,11.760123252868652,1982.1944567810588,310.4341309675032,2050.6302125531283,-1036.9668756766337,98.95833333333333,1.5190632851958246,0.1,0.01256418228149414,0.4221043586730957,0.049189284,0.04911459,1994.4036507798514,3.4212965787589233,9.879914733470338,98.95833333333333,19200,2.9682157039642334,0.01997995064624153,0.006344385423778359,2370595,2011.695682442002,100.0
124,11.957035541534424,2017.2127075301632,17.66782400438082,2047.6047670681232,1950.300543421762,100.0,2.1429892449055417,0.1,0.014184951782226562,0.4196193218231201,0.04961297,0.05321988,1996.6845564548828,3.444729072345781,10.054979845044462,100.0,19200,2.9763386249542236,0.002357112179175203,0.00018943550845724528,2389795,2020.7191505849835,100.0
125,11.784119129180908,2016.9430924880871,31.88305774981797,2057.0139442483546,1748.635649395514,100.0,2.191569828243528,0.1,0.013188362121582031,0.4139113426208496,0.048809264,0.04025894,1998.7104100582033,3.4410268356409883,10.053623482015082,100.0,19200,2.9851062297821045,0.00022871843086638753,0.00017974279028297772,2408995,2019.713372081979,100.0
126,12.214510440826416,2017.029351394806,20.381083423096733,2053.782293590372,1934.257676036541,100.0,2.1507986416830476,0.1,0.013451576232910156,0.41117167472839355,0.049236227,0.041575287,2000.5423041918636,3.439507833026894,10.054060532340655,100.0,19200,3.0500619411468506,0.00017690007347758745,0.00014982750160227903,2428195,2028.6146884458126,100.0
127,11.939692497253418,2026.1287612936321,21.7630742591344,2064.4080702279257,1912.683900499912,100.0,2.3361875616990266,0.1,0.01333165168762207,0.36861491203308105,0.04997354,0.03798102,2003.1009499020406,3.4630039279387517,10.099525051129481,100.0,19200,3.0750904083251953,0.0001322902549456487,0.0001036852315979381,2447395,2028.643350874242,100.0
128,11.817679405212402,2033.2733996999275,18.9140038674112,2085.9058225156014,1973.5378611584883,100.0,2.2141282504276085,0.1,0.014787912368774414,0.43035006523132324,0.04967207,0.05193963,2006.1181948818294,3.48024296909889,10.135252999008094,100.0,19200,3.0231986045837402,0.0001244629577590417,0.00010252789451210908,2466595,2030.1721118839023,100.0
129,11.799202919006348,2023.4523036138273,105.05558511037658,2077.6527959151986,1016.774597935825,98.95833333333333,1.5510571219580083,0.1,0.012640714645385742,0.38768506050109863,0.051245246,0.07559214,2007.8516057550291,3.4659548922523413,10.086188358912766,98.95833333333333,19200,3.0143938064575195,0.001413491183675259,0.0002091633492978632,2485795,2031.910787153829,100.0
130,11.85115647315979,2028.8418677186055,22.63963873554761,2070.19556713224,1925.540043949238,100.0,2.169497117241491,0.1,0.013207435607910156,0.4423184394836426,0.05037613,0.047950257,2009.9506319513869,3.4600640500798234,10.113384878530256,100.0,19200,3.0473148822784424,0.0001345644314727296,0.00012949951452341895,2504995,2027.8022541198554,100.0
131,12.012138843536377,2031.0279008345417,53.976538671902496,2072.145705999755,1534.422111881582,100.0,1.8462321236151524,0.1,0.014225244522094727,0.35715365409851074,0.049758013,0.038550075,2012.0583588397024,3.480761126908991,10.124017109438078,100.0,19200,2.983292818069458,0.00023495922152199836,0.0001085822553103882,2524195,2026.8320164149468,100.0
132,11.927679061889648,2036.8426977442523,22.274018529115427,2082.9724350351753,1903.1517993934672,100.0,2.040990075466695,0.1,0.013933897018432617,0.3951995372772217,0.050191578,0.042893007,2014.5367927301575,3.4893684783239713,10.153045510027242,100.0,19200,3.028285264968872,8.824306980801405e-05,7.679484278042758e-05,2543395,2032.5265275063873,100.0
133,11.989951610565186,2042.9043043274598,18.598919846316893,2095.3246448395635,2000.8229484721626,100.0,2.3204411910399214,0.1,0.013010978698730469,0.4041447639465332,0.05025234,0.04485631,2017.3735438898877,3.5061735943298262,10.183350721872626,100.0,19200,3.101810932159424,8.70400010236505e-05,7.930498237823034e-05,2562595,2027.2063226402997,100.0
134,11.557193517684937,2018.864325510145,274.41051003007306,2111.818439122999,-638.3957175111659,100.0,1.9354349663009622,0.1,0.012506246566772461,0.2660374641418457,0.050203387,0.03436893,2017.5226220519135,3.5149024149267176,10.06318936947344,100.0,19142,3.0341999530792236,0.013063668502596111,0.0019460275789540777,2581737,2027.352286175138,100.0
135,11.885664224624634,2033.765434362619,125.52838296455738,2096.0026279773106,831.2911322380752,98.95833333333333,1.6720716142279226,0.1,0.012763500213623047,0.44608473777770996,0.049246226,0.048129752,2019.146903282984,3.5097561988843857,10.137599310619981,98.95833333333333,19200,2.950791835784912,0.001447069513986616,0.0004100358240380172,2600937,2021.9105569165467,100.0
136,11.94619345664978,2042.0089276578321,34.803235799069974,2093.6239726462095,1855.7954434336223,100.0,2.1197455473091344,0.1,0.013410806655883789,0.38714170455932617,0.04983382,0.050020877,2021.433105720469,3.5084431005208097,10.178994109640625,100.0,19200,2.974453926086426,0.0005252279029505031,0.00023326610951457095,2620137,2024.6155994381793,100.0
137,12.0600745677948,2033.1669313822986,127.70151337127938,2107.790453068723,806.2435999270276,100.0,1.6575313252949555,0.1,0.013538599014282227,0.4349095821380615,0.04988299,0.04998139,2022.6064882866522,3.5065103275837806,10.134666147226007,100.0,19200,2.9920525550842285,0.002380395412398621,0.0004156005466692329,2639337,2026.4623354323298,100.0
138,11.772467136383057,2043.984050344552,43.93451444030815,2099.591427538705,1718.8788978873472,100.0,1.8538195947047984,0.1,0.013598918914794922,0.4326627254486084,0.05017921,0.054683585,2024.7442444924422,3.5207222582041555,10.18872867006318,100.0,19200,3.038588285446167,0.0004213175375915353,0.00032588619635550537,2658537,2028.707551046211,100.0
139,11.775066614151001,2050.204907615172,29.049353920577186,2108.909043926242,1895.5282364057675,100.0,1.9640130447588222,0.1,0.012923955917358398,0.3995087146759033,0.049356744,0.049411993,2027.2903108047153,3.5281145890002654,10.219829461235804,100.0,19200,3.0280752182006836,0.00034191250436446473,0.00014178810559298022,2677737,2027.176479118398,100.0
140,11.884953498840332,2046.9745880222229,47.17143685885986,2107.8343810721826,1740.9434984886445,100.0,2.1727667807162594,0.1,0.014134883880615234,0.3624997138977051,0.05071249,0.040364128,2029.258738526466,3.535530141182162,10.203629906422217,100.0,19200,3.002624750137329,0.00045719367949345163,0.0003497144584716122,2696937,2024.6206518778502,100.0
141,11.850114822387695,2058.0329470294596,25.220134876673832,2101.950015187446,1985.3105780201117,100.0,2.3259351322660056,0.1,0.012717247009277344,0.4007132053375244,0.050234232,0.04145886,2032.1361593767654,3.564449140069476,10.259020492094345,100.0,19200,2.99359130859375,0.0001745691177335604,0.00012266827243902738,2716137,2021.671598893692,100.0
142,12.098555088043213,2006.868389044542,487.10384145561386,2117.2019359868864,-2736.045231043404,98.95833333333333,1.3726027855309957,0.1,0.012875080108642578,0.3865969181060791,0.052182462,0.065452516,2029.609382343543,3.5247473970848424,10.003066206765192,98.95833333333333,19200,2.999506950378418,0.020797574285046506,0.0042474310120973946,2735337,2019.509420817864,100.0
143,11.824828386306763,2048.932457184303,42.35614818197666,2113.240086928626,1845.8491637405568,100.0,2.004885440940092,0.1,0.012756109237670898,0.40746116638183594,0.049723204,0.05903453,2031.5416898276192,3.5488025312685134,10.213450360353518,100.0,19200,3.0155465602874756,0.001225259663972805,0.00039140438881131993,2754537,2011.527378739241,100.0
144,11.85460638999939,2048.469807848466,52.5823371706718,2112.1500048299963,1709.5458367700685,100.0,2.241946259819354,0.1,0.013210296630859375,0.43285465240478516,0.04970014,0.044305053,2033.234501629704,3.5560285646238246,10.21137428830881,100.0,19200,3.0394020080566406,0.0007448529435509035,0.0006373973242461102,2773737,2015.44272896566,100.0
145,11.933590650558472,2014.1046304720091,393.5890504928333,2114.5229661019807,-1795.3920755392885,98.95833333333333,1.587879157880708,0.1,0.012985706329345703,0.26424360275268555,0.04967747,0.0436514,2031.3215145139345,3.5413967152090398,10.039280759194781,98.95833333333333,19122,3.046968936920166,0.010250753142099668,0.0041914103553153705,2792859,2014.7678299995557,100.0
146,11.907439947128296,2023.22541804044,313.68418577710827,2102.4311173855663,-1019.3075090834005,98.95833333333333,1.483928615522205,0.1,0.012131214141845703,0.28020238876342773,0.050026577,0.035675317,2030.5119048665852,3.541307969140649,10.088179128556595,98.95833333333333,19109,3.0392909049987793,0.0018793040452587766,0.0014708439850836094,2811968,2017.8235208095468,100.0
147,12.076730251312256,2014.0503224434467,339.6974100843682,2103.8347158787774,-1279.7072612892866,98.95833333333333,1.3938224832704889,0.1,0.013566017150878906,0.26978468894958496,0.04981845,0.050425407,2028.8657466242714,3.5087316532794737,10.038998335452142,98.95833333333333,19103,3.118283748626709,0.0028695488059713305,0.0022787455377284564,2831071,2015.6376427903788,100.0
148,11.916974782943726,2056.582993960667,35.5372816550714,2114.687826236818,1800.624267578645,100.0,2.2155838650957307,0.1,0.013419389724731445,0.4177577495574951,0.050016705,0.047015313,2031.637471357911,3.5839283348421405,10.25165865222539,100.0,19200,3.17063307762146,0.0004801929883192703,0.000324076504160002,2850271,2019.6871752463394,100.0
149,11.958844184875488,2053.6461048588744,32.42955878373433,2112.272938518001,1911.0696542433998,100.0,2.1712458231801146,0.1,0.012927055358886719,0.372694730758667,0.04893312,0.2525018,2033.8383347080073,3.5682081547700286,10.236964315137262,100.0,19200,3.1296074390411377,0.00026419943568672054,0.00023105897707430812,2869471,2014.0715174050797,100.0
150,11.92165493965149,2052.9286171264516,88.2755548154049,2112.103780749757,1236.3127400981405,100.0,1.7406973753157011,0.1,0.013482093811035156,0.33583807945251465,0.04970556,0.054319203,2035.7473629498518,3.5804496305801456,10.233438509957715,100.0,19200,3.109546661376953,0.0006502198840771255,0.00026421448612326884,2888671,1973.4971290676597,100.0
151,11.970406293869019,2050.366051001731,97.44216221933078,2114.2859596568564,1142.4680892678643,100.0,1.8170149247729062,0.1,0.013672590255737305,0.44081783294677734,0.04840123,0.041178845,2037.2092317550398,3.581241764366854,10.220511290934155,100.0,19200,3.082367181777954,0.003520362301504987,0.0027682362289984472,2907871,2012.1735600776556,100.0
152,12.210439443588257,2066.1047014077753,28.923617005667907,2123.3687494906744,1987.2457548625134,100.0,2.0403119878814113,0.1,0.014286279678344727,0.43543386459350586,0.050176658,0.058836233,2040.0987787203135,3.614923669220158,10.299251239541286,100.0,19200,3.0985231399536133,0.0007830633299944231,0.00017382542981206664,2927071,2016.9372136448278,100.0
153,11.871760368347168,2074.7894306095527,25.935284119489893,2121.3700969256074,1990.873585538068,100.0,2.312946465873833,0.1,0.013789176940917969,0.4476630687713623,0.049993183,0.038579322,2043.5678439092376,3.6545543298547885,10.342631852699405,100.0,19200,3.160641670227051,0.00015447934052897428,0.0001281425542489574,2946271,2024.830265337641,100.0
154,12.091991424560547,2083.161488355277,29.46318749199211,2124.032899036765,1991.6895135822454,100.0,2.2570982387635463,0.1,0.013940095901489258,0.41942548751831055,0.050336026,0.045794267,2047.5272083538416,3.6816560149705744,10.384344118824814,100.0,19200,3.101752519607544,0.00016624947387965336,0.00015120795811730367,2965471,2027.2874723380376,100.0
155,12.03971004486084,2082.3296228128033,37.1447955587422,2127.7821664182306,1982.9534817727435,100.0,2.1905475842245434,0.1,0.012700319290161133,0.41254138946533203,0.050229914,0.04494512,2051.007449799738,3.6778433526738126,10.38038220569735,100.0,19200,3.105808734893799,0.000221212815280331,0.00020291183496701017,2984671,2028.3484709616441,100.0
156,12.033449649810791,2069.340833549708,131.7812314826454,2134.905852394211,850.3510977841062,98.95833333333333,1.6235802175066048,0.1,0.013097524642944336,0.4228780269622803,0.04973079,0.036418818,2052.840788174735,3.670326393605407,10.315298935271262,98.95833333333333,19200,3.0991010665893555,0.0008350891757081254,0.000350757931900594,3003871,2032.7387211369485,100.0
157,12.231101036071777,2082.151926552169,61.29457475995683,2137.5924628553457,1631.2355849054065,100.0,1.9062345481760976,0.1,0.013610124588012695,0.39571571350097656,0.050380122,0.046303287,2055.771902012478,3.7013078453799833,10.379310523508858,100.0,19200,3.0903263092041016,0.0003720521961586974,0.00034705517979526524,3023071,2038.1360048084302,100.0
158,11.9331693649292,2093.927092673943,33.831647797441136,2139.600278564358,1982.6221200686186,100.0,2.2635476812543183,0.1,0.013829708099365234,0.4422328472137451,0.05040043,0.04543073,2059.5874210786246,3.7352190928867923,10.438239010749664,100.0,19200,3.1300864219665527,0.00029679652312883663,0.00018349288095165694,3042271,2041.3044298629886,100.0
159,11.937481164932251,2095.0526746868186,35.6609297941714,2136.6529031279124,1996.1961435133317,100.0,2.316012127201276,0.1,0.014469385147094727,0.3524947166442871,0.050051894,0.044183552,2063.133946439444,3.7389016390924823,10.443917411766531,100.0,19200,3.111072063446045,0.00019020550061030886,0.00017949914501318244,3061471,2043.0184073131325,100.0
160,12.14015531539917,2074.3587241389946,220.5472664155469,2150.530126507365,227.72469240304713,97.91666666666667,1.6342578298267325,0.1,0.013616561889648438,0.4355499744415283,0.04956851,0.047806885,2064.2564242093995,3.7406148678245934,10.340263430336465,97.91666666666667,19200,3.044255495071411,0.0026957672983090744,0.0008724069253947133,3080671,2044.3857319738836,100.0
161,11.925196647644043,2105.80180232855,31.078739821658605,2135.7156470732934,1930.196612948147,100.0,1.9304532232654361,0.1,0.013259649276733398,0.383864164352417,0.05038872,0.06501798,2068.4109620213144,3.794829644159494,10.497586134743388,100.0,19200,3.130126476287842,0.00021573747668453912,0.00012108098842404204,3099871,2047.30885223023,100.0
162,12.117784023284912,2114.7635795746687,25.525411346808696,2151.8189764143544,2021.2461989898784,100.0,2.101581154009154,0.1,0.012986421585083008,0.4327836036682129,0.050242037,0.049569108,2073.0462237766496,3.83009305858794,10.54231208802711,100.0,19200,3.180629014968872,0.000120129235455858,9.370391576161038e-05,3119071,2051.7828974580257,100.0
163,11.994563817977905,2082.7013113054672,281.45016148686113,2147.8441054236396,-634.8967171619955,98.95833333333333,1.4076987950784332,0.1,0.012956619262695312,0.42596006393432617,0.04982676,0.044612523,2074.0117325295314,3.780301157320043,10.38193363731745,98.95833333333333,19200,3.238727569580078,0.003585380361111639,0.001075496181993024,3138271,2060.4750486802986,100.0
164,11.903987646102905,2115.799747860398,37.73540950208331,2149.0026482722237,1933.5407244384485,100.0,1.93674152762322,0.1,0.01242828369140625,0.40384459495544434,0.049501248,0.05584449,2078.190534062618,3.825941569230803,10.547551747982979,100.0,19200,3.0893776416778564,0.0002889436863201014,0.00016290823580001102,3157471,2059.801629957902,100.0
165,12.068132877349854,2113.897655051413,34.837493629810915,2155.5346159981245,1956.2824076755514,100.0,2.0201148364774566,0.1,0.013414859771728516,0.3406026363372803,0.04927876,0.071484335,2081.7612461614976,3.8196369743452636,10.537935950119929,100.0,19200,3.1197009086608887,0.00017334954751469384,0.00012728259517382493,3176671,2062.3885446204436,100.0
166,11.962489366531372,2108.7472499251458,113.98369898295817,2153.4678272878114,1041.4178442293264,98.95833333333333,1.3801042588937267,0.1,0.013325214385986328,0.3959677219390869,0.048782103,0.071624644,2084.4598465378626,3.8372322996284622,10.5121436233916,98.95833333333333,19200,3.1535122394561768,0.0013403485075853946,0.0002802554362811413,3195871,2059.489250004365,100.0
167,12.257423162460327,2117.14197071356,35.11014495921272,2150.9922587524225,1984.3407167538649,100.0,2.2896291917281766,0.1,0.012480497360229492,0.3794119358062744,0.0498757,0.043441437,2087.7280589554325,3.8433964030225547,10.554153141131481,100.0,19200,3.061997652053833,0.0001885589923885906,0.0001619207704056616,3215071,2065.4028054567316,100.0
168,12.123066663742065,2108.4208182637612,145.61595291063585,2158.4056587376404,724.3075516353055,98.95833333333333,1.7236008777783767,0.1,0.013303279876708984,0.4164869785308838,0.05051796,0.03161777,2089.7973348862656,3.842653062029845,10.510550483454296,98.95833333333333,19200,3.279601812362671,0.0005487394402587278,0.0002850866088393904,3234271,2066.2553060004193,100.0
169,11.93596863746643,2129.388768344423,19.91364049819166,2154.612959453064,2010.3170466244248,100.0,2.1632171241085274,0.1,0.012855768203735352,0.386460542678833,0.049997114,0.044600736,2093.7564782320815,3.9024278539684496,10.61541337704027,100.0,19200,3.145735025405884,8.999660357774212e-05,6.222378048471634e-05,3253471,2065.5046989302327,100.0
170,11.988565921783447,2133.6720494299534,21.350087967209404,2156.670069595139,2009.8433331996732,100.0,2.1092448780027495,0.1,0.013314485549926758,0.34686732292175293,0.049733885,0.044613544,2097.7480353518686,3.9204602347540844,10.63675705446787,100.0,19200,3.1350643634796143,7.794607153465056e-05,8.091984023178227e-05,3272671,2065.4572370453525,100.0
171,11.936551094055176,2058.9386660877976,700.1388462076,2169.3100283016392,-4754.039924026673,98.95833333333333,1.3386672642778061,0.1,0.01337122917175293,0.41107606887817383,0.04511687,-0.034000065,2093.867098425462,3.8669378187513126,10.263075462998136,98.95833333333333,19200,3.1399521827697754,0.07345283351526542,0.009138514069626845,3291871,2066.082670471063,100.0
172,12.124397039413452,2133.6310827272996,46.75325864623101,2160.1090337536893,1797.5754346938668,100.0,1.87300820942378,0.1,0.013289451599121094,0.45195651054382324,0.050147813,0.05944663,2097.8434968556458,3.925843592463669,10.636508605949654,100.0,19200,3.127070188522339,0.002493404007348151,0.00024274159759892294,3311071,2064.496670538436,100.0
173,12.05719518661499,2136.061782586734,27.519479768620457,2169.9251573128668,1999.508660224331,100.0,1.908250851543161,0.1,0.013032674789428711,0.35300493240356445,0.04876773,0.056771908,2101.6653254287544,3.9307274701092916,10.648690932568288,100.0,19200,3.211451530456543,0.00019560498501987076,0.00012656289373909772,3330271,2063.412920748088,100.0
174,12.266422510147095,2135.147729826393,30.909642596116367,2161.3680130049975,2000.8663742734159,100.0,2.174637568522766,0.1,0.013340234756469727,0.43760180473327637,0.050364383,0.04445375,2105.0135658685185,3.92520581237113,10.64413606525933,100.0,19200,3.1007683277130127,0.00018636324592261007,0.00014835056746227032,3349471,2067.662960947113,100.0
175,11.933272123336792,2138.117815387939,32.46912245743056,2166.079892533032,1983.166525532514,100.0,2.1043790699018268,0.1,0.013321876525878906,0.36567115783691406,0.050051846,0.059317615,2108.3239908204605,3.935784019165151,10.659000947072698,100.0,19200,3.0789265632629395,0.0001492159382878843,0.00014482442095302395,3368671,2057.141424531423,100.0
176,12.007833003997803,2090.9338386067716,544.2578709532526,2168.4711557970386,-3209.512836550766,98.95833333333333,1.3790532511677294,0.1,0.013411998748779297,0.33953094482421875,0.049744293,0.04446693,2106.5849755990916,3.947001033809295,10.426265785739227,98.95833333333333,19200,3.1229007244110107,0.005508647062869767,0.0025247287380464585,3387871,2058.0983741859245,100.0
177,12.334517478942871,2145.3770078872326,15.706683558675191,2170.2535374771237,2076.143274328927,100.0,1.677132322924703,0.1,0.013386726379394531,0.3781712055206299,0.04968877,0.06981284,2110.464178827906,3.9794925737159446,10.6952487766335,100.0,19200,3.17733097076416,0.00019640786215004995,6.899911858424806e-05,3407071,2055.949737690473,100.0
178,12.189025402069092,2143.446220206495,54.80416597360553,2173.5808025714755,1662.3678562098244,100.0,1.8362184392969156,0.1,0.012499094009399414,0.3773915767669678,0.050141048,0.09807211,2113.762382965765,3.974760945674118,10.685603249819872,100.0,19200,3.149240016937256,0.0005998388956410771,0.00020834503588405327,3426271,2054.316586688454,100.0
179,12.027139663696289,2111.486079301389,315.7645571482167,2168.934302103677,-949.5116933463049,98.95833333333333,1.373541833369073,0.1,0.01291036605834961,0.42276597023010254,0.049306855,0.06658062,2113.5347525993275,3.9370965494906396,10.525760485784561,98.95833333333333,19200,3.133986234664917,0.009291641000241041,0.0013264960343198516,3445471,2042.032270093638,100.0
180,11.889221429824829,2134.3453619960324,55.74564637177929,2164.5379929379874,1771.3478403335023,100.0,2.0075546226617207,0.1,0.01263880729675293,0.38041019439697266,0.050252564,0.04765853,2115.615813538998,3.9450608110597165,10.640322700429225,100.0,19200,3.1543526649475098,0.0006276601024605483,0.00035851119936632434,3464671,2051.405325247063,100.0
181,12.314945220947266,2095.489998273398,331.50615842077843,2168.5146099349795,-961.2929441142852,97.91666666666667,1.78055099205346,0.1,0.013776540756225586,0.4187638759613037,0.05027341,0.04447582,2113.6032320124377,3.9184741797503655,10.445760747829398,97.91666666666667,19200,3.17181134223938,0.008150638899536175,0.004705564977459626,3483871,2043.905473426635,100.0
182,12.059593200683594,2133.956792175269,89.78348414385496,2168.4682271985753,1328.9428125771244,100.0,2.0978364588057508,0.1,0.013149023056030273,0.38489747047424316,0.05040884,0.037891354,2115.6385880287207,3.948684227776594,10.63817363812106,100.0,19200,3.2910587787628174,0.0013185498630570946,0.0004816949668606759,3503071,2054.7098506193133,100.0
183,12.235833406448364,2144.2882058259843,26.14428489183282,2171.9723721316477,2007.2362560028378,100.0,1.7555653272328255,0.1,0.013011693954467773,0.369767427444458,0.050542302,0.112599105,2118.503549808447,3.9760030214890647,10.689745550008388,100.0,19200,3.3191967010498047,0.00022192165278601007,0.00010172445523489681,3522271,2047.7029962689735,100.0
184,12.0726900100708,2148.007432493627,25.407187185028203,2169.108080772852,2005.1303338249118,100.0,2.0480660831983406,0.1,0.012978792190551758,0.3797800540924072,0.049625162,0.054081593,2121.453938076965,3.9852595284285353,10.708341519080841,100.0,19200,3.3450565338134766,0.00010945242286314528,8.614171375348131e-05,3541471,2045.9050322106764,100.0
185,11.944862365722656,2070.4306028885544,721.7718154285276,2175.02598983167,-4875.796895690662,97.91666666666667,1.1885354673072344,0.1,0.013247489929199219,0.26518750190734863,0.053715594,0.23195751,2116.351604558124,3.9544413269098118,10.320781117181093,97.91666666666667,19190,3.3514182567596436,0.027579566639288483,0.007254035624423409,3560661,2042.915435045263,100.0
186,12.040062427520752,2147.989232878908,25.958353080501134,2176.4640835111486,2007.0747700646539,100.0,1.8275048060669645,0.1,0.013867855072021484,0.4369044303894043,0.050358366,0.047795262,2119.5153673902023,3.9856774398441757,10.708306263666353,100.0,19200,3.2955493927001953,0.0003712613810019483,0.00011930072304390924,3579861,2041.700490360718,100.0
187,12.111388921737671,2150.7290605311314,17.446440411426174,2169.6315318470974,2031.379178653691,100.0,1.806032176200476,0.1,0.01288294792175293,0.42682695388793945,0.049612798,0.060840823,2122.6367367042953,3.995646719655212,10.722003181744777,100.0,19200,3.2875852584838867,0.00015238009073032232,5.916196425285694e-05,3599061,2064.7701318689988,100.0
188,12.387378692626953,2152.981987833993,13.358213674513918,2174.719882418372,2108.379560789504,100.0,2.0126105741505524,0.1,0.012505054473876953,0.43560099601745605,0.050303362,0.05001625,2125.671261817265,4.011341790006516,10.733204618233673,100.0,19200,3.258342981338501,5.7311575031617206e-05,4.97229428507379e-05,3618261,2083.0671446935407,100.0
189,12.073858737945557,2156.7215126622823,21.526690393372377,2178.0332257895575,2002.8334067445712,100.0,1.7982358406160166,0.1,0.013231515884399414,0.4426889419555664,0.050544027,0.063202165,2128.776286901767,4.020016956536852,10.751896250563286,100.0,19200,3.2907540798187256,8.797205093862761e-05,6.816421135294409e-05,3637461,2040.0673364498339,100.0
190,12.144354343414307,2145.747130003489,147.3871158373932,2178.3430768986523,717.4577716090182,98.95833333333333,1.4090679827144619,0.1,0.012989282608032227,0.4066948890686035,0.04949446,0.4901495,2130.473371211939,4.017951657434094,10.69730634863071,98.95833333333333,19200,3.264080762863159,0.017126383853284615,0.00032991953031419113,3656661,2051.976025314397,100.0
191,12.13785433769226,2140.1680301787164,160.732357889505,2175.8008016238236,588.1232127468478,98.95833333333333,1.5447225002424272,0.1,0.012769699096679688,0.40010857582092285,0.050685022,0.07174282,2131.442837108617,3.997841356688235,10.669128378630715,98.95833333333333,19200,3.270332098007202,0.0013117685511432815,0.00035493916378460477,3675861,2065.913047009237,100.0
192,11.992025375366211,2136.4908699980065,213.86170757940602,2181.745311796022,54.32472580021846,98.95833333333333,1.240285669738716,0.1,0.013051986694335938,0.371610164642334,0.050025206,0.094698064,2131.947640397556,3.992522926251804,10.650734513170624,98.95833333333333,19200,3.355138063430786,0.006392347703536276,0.0003959285762783733,3695061,2043.99080084353,100.0
193,12.33821153640747,2157.7119151397824,11.089777766264781,2181.0450073876486,2118.383853677757,100.0,1.970381783284862,0.1,0.01264333724975586,0.31155872344970703,0.050770868,0.066200405,2134.5240678717787,4.028175656040016,10.756859913867904,100.0,19200,3.2961909770965576,4.938435542540783e-05,3.0210547648491745e-05,3714261,2039.4187219238765,100.0
194,12.053802490234375,2160.9812720500117,21.20795419653038,2183.6976757369457,1975.0109304617795,100.0,2.070878372771229,0.1,0.01259922981262207,0.4049489498138428,0.049740415,0.051409986,2137.169788289602,4.041788588256041,10.773183480286725,100.0,19200,3.395812749862671,5.207093339743768e-05,3.9885879600887666e-05,3733461,2041.6641039688766,100.0
195,12.270112037658691,2142.870746491783,168.0253191090367,2179.6822183253826,513.6094217236862,98.95833333333333,1.5349616738025895,0.1,0.01306915283203125,0.3952491283416748,0.049007356,0.04638009,2137.73988410982,4.008466155063103,10.682635356942875,98.95833333333333,19200,3.3100690841674805,0.001266925484275651,0.0002972136133984744,3752661,2043.4214068588913,100.0
196,12.183050632476807,2143.2344944825986,163.8680043963558,2183.905362876471,554.064223759483,98.95833333333333,1.4081503786191505,0.1,0.012799978256225586,0.4299178123474121,0.049046982,0.048162162,2138.289345147098,4.014571386400736,10.684440010813615,98.95833333333333,19200,3.28263783454895,0.0006182018226700285,0.00021256447928036818,3771861,2040.4451567176943,100.0
197,12.007999658584595,2162.253743610455,21.433955772028366,2182.1217028444844,2021.8103306150629,100.0,2.167872650320361,0.1,0.012583255767822266,0.3070833683013916,0.04919983,0.04221203,2140.685784993434,4.052167655231327,10.779516345270379,100.0,19200,3.254152297973633,7.694095367072546e-05,6.323391360870298e-05,3791061,2098.8129667513667,100.0
198,12.349182844161987,2164.197213365514,11.100623677416419,2188.740222216074,2130.1349636952646,100.0,2.083709259532361,0.1,0.013808250427246094,0.37691783905029297,0.05000484,0.047509786,2143.036927830642,4.065716196345202,10.789241849441524,100.0,19200,3.250861167907715,4.177658008058204e-05,2.4141343990729163e-05,3810261,2028.291767178062,100.0
199,12.54723596572876,2147.884719073929,196.36006375345067,2191.927486138236,249.59379846012513,98.95833333333333,1.478114367228047,0.1,0.018792152404785156,0.3232550621032715,0.049954206,0.04079613,2143.521706954971,4.046019285537858,10.70765083497038,98.95833333333333,19200,3.3351104259490967,0.0011758181122258613,0.000327304411542539,3829461,2042.4525526762002,100.0
200,12.63545823097229,2167.8283216676837,9.97165823026965,2189.5942822637508,2117.063655903185,100.0,1.9828842819701615,0.1,0.013621807098388672,0.38810086250305176,0.048923425,0.05378258,2145.952368426242,4.083425550168301,10.807366163012139,100.0,19200,3.349971055984497,5.0140854097424605e-05,2.557287774839747e-05,3848661,2017.551942893801,100.0
201,12.834798097610474,2167.85654494704,19.275843198006896,2188.353345098871,2005.9444984662123,100.0,2.2578470677389,0.1,0.012984752655029297,0.3440275192260742,0.05084678,0.04675533,2148.142786078322,4.084941909148348,10.80749846698832,100.0,19200,3.2687227725982666,5.789460665989511e-05,5.665139176528471e-05,3867861,2017.561634397076,100.0
202,12.006291389465332,2168.7840111355204,21.924644822445238,2188.8506231864094,2007.0191018208989,100.0,2.330209814406799,0.1,0.014818191528320312,0.406536340713501,0.050626554,0.04297359,2150.2069085840417,4.083019418086497,10.812123798866027,100.0,19200,3.3102781772613525,7.4733150226762e-05,6.175153492319302e-05,3887061,2018.4827970596589,100.0
203,12.013686656951904,2173.8887308653125,26.549939997222918,2197.8225950518354,1993.4646585762587,100.0,2.3279669474300624,0.1,0.012552976608276367,0.38259172439575195,0.049676467,0.03803189,2152.575090812169,4.104784336506719,10.837762452643142,100.0,19200,3.28910756111145,8.910094866117762e-05,8.651329390046015e-05,3906261,2018.8413368506306,100.0
204,12.05795669555664,2166.433545444963,139.26738968463638,2198.6908259796924,814.8400650667538,98.95833333333333,1.458942880412436,0.1,0.013991117477416992,0.4041719436645508,0.05062089,0.044743,2153.9609362754486,4.111809328032506,10.800336694238126,98.95833333333333,19200,3.316554069519043,0.0010403426669061597,0.0002825420926968803,3925461,2019.9354608591286,100.0
205,12.002619504928589,2176.9047298752503,12.552956054841703,2198.923926289925,2122.082808245366,100.0,1.8408942282744498,0.1,0.012576103210449219,0.3459658622741699,0.050121356,0.08168545,2156.255315635429,4.128495627584666,10.852644661517886,100.0,19200,3.342984437942505,9.847959454559627e-05,2.764221869112868e-05,3944661,2017.3282654456384,100.0
206,12.02474594116211,2159.5045090940225,210.01891320523967,2210.2736167889493,131.52323187940289,98.95833333333333,1.392751722319479,0.1,0.012515544891357422,0.39898014068603516,0.051028177,0.03787513,2156.5802349812884,4.108547354394738,10.76564770362387,98.95833333333333,19200,3.3104248046875,0.002005270898119948,0.00028445406120247333,3963861,2016.348730574447,100.0
207,12.21573519706726,2181.0703856842215,21.69121117485278,2205.4192601356553,1998.2322410039492,100.0,1.973835871960604,0.1,0.01395869255065918,0.4353013038635254,0.049370017,0.045201417,2159.0292500515816,4.145437833354034,10.873482795678948,100.0,19200,3.3116228580474854,7.212958394078433e-05,5.472796449507683e-05,3983061,2019.3748234949041,100.0
208,12.279690742492676,2182.391124161093,21.646640906349006,2203.597411175601,2067.4624535221224,100.0,1.98376234823942,0.1,0.012554407119750977,0.4011356830596924,0.050023437,0.06433481,2161.365437462533,4.145475368453092,10.88009016772145,100.0,19200,3.264845371246338,7.302759749350436e-05,5.4189922344356265e-05,4002261,2019.4109327675358,100.0
209,12.242571592330933,2183.8621823220637,33.12405781807177,2206.5218965320464,2002.6359809110115,100.0,2.1793572590601378,0.1,0.013371706008911133,0.3490595817565918,0.050425638,0.04182772,2163.615111948486,4.151145904942434,10.887483706035455,100.0,19200,3.299675464630127,0.00012831719434756094,0.00010255758752348181,4021461,2023.2065609162744,100.0
210,12.068387269973755,2174.3527008961005,180.35130722949089,2213.3150768007927,419.3310698568942,98.95833333333333,1.3445721222042495,0.1,0.01324319839477539,0.39034390449523926,0.05018255,0.030747639,2164.6888708432475,4.174505085331652,10.839831860392573,98.95833333333333,19200,3.3217484951019287,0.000535816062222525,0.00023231991430208346,4040661,2025.531555337299,100.0
211,12.059945106506348,2188.5269937336216,28.46675513257712,2211.1988356990805,2003.4633796959968,100.0,2.0595342337540337,0.1,0.012914180755615234,0.36284947395324707,0.050051037,0.049411584,2167.072683132285,4.182642727745022,10.910717193064713,100.0,19200,3.3140058517456055,0.00010350214310881293,8.625938656281064e-05,4059861,2024.9636807002817,100.0
212,12.209148645401001,2192.4404032381285,23.560837546829823,2216.301039227873,2005.0122466674036,100.0,1.9642824825568395,0.1,0.013046979904174805,0.42614054679870605,0.05034935,0.06767069,2169.609455142869,4.206388946675073,10.93025978028014,100.0,19200,3.3203608989715576,8.343321823113629e-05,5.68504154411275e-05,4079061,2024.7836421815227,100.0
213,12.223258018493652,2200.0702547155965,24.066553524655244,2227.854728527472,2013.5898888442166,100.0,2.174661321583872,0.1,0.012707233428955078,0.37447166442871094,0.05007341,0.045319725,2172.655535100142,4.236291013744254,10.968393316413348,100.0,19200,3.3049654960632324,6.69060707911236e-05,6.859761480893893e-05,4098261,2021.339206651674,100.0
214,12.298364400863647,2207.4755760276894,24.336960944894415,2234.182465767737,1998.9839048261233,100.0,2.1233021726909875,0.1,0.013293981552124023,0.4380037784576416,0.049873687,0.045149315,2176.137539192897,4.2768216033771305,11.005458682769321,100.0,19200,3.369758129119873,8.403714968510304e-05,6.808805430291345e-05,4117461,2017.3586571289613,100.0
215,12.415547847747803,2213.2424557072013,32.8365650609737,2256.339063365566,2004.237441902474,100.0,2.07439625305198,0.1,0.01306915283203125,0.3432178497314453,0.050189923,0.044629823,2179.8480308443272,4.307039199281564,11.03412116065204,100.0,19200,3.3608555793762207,0.00012070232964112428,9.884899806743266e-05,4136661,2012.9244129341246,100.0
216,12.049899578094482,2220.2773222982446,46.861979003268964,2286.7524360683037,1987.3035716988309,100.0,2.1881683229678166,0.1,0.012612581253051758,0.43573427200317383,0.05036468,0.04158299,2183.890959989719,4.348663897916513,11.069052662358038,100.0,19200,3.395153522491455,0.0002461183255583985,0.00022579063848473217,4155861,2022.5606210513658,100.0
217,11.958087921142578,2251.264733617914,30.73217343861673,2319.2732507917376,2140.4802100801057,100.0,2.516497653581105,0.1,0.012901544570922852,0.40314221382141113,0.04826976,0.038952295,2190.6283373525384,4.516593396865271,11.223709364037797,100.0,19200,3.3438570499420166,0.00031085529943976066,0.00016425298557272156,4175061,2009.660633989864,100.0
218,12.023964643478394,2267.201647231442,44.049562987839856,2339.729761906023,1993.6601247489664,100.0,2.3342074792580303,0.1,0.013189315795898438,0.4283268451690674,0.0502054,0.040549822,2198.285668340429,4.599417534815921,11.303302673960033,100.0,19200,3.26420259475708,0.00033382123584807847,0.00021781244429068056,4194261,1989.7332942216144,100.0
219,12.217048645019531,2233.750182159139,289.1727757221247,2334.599639548747,235.7858828896127,96.875,1.5836009479109354,0.1,0.013370990753173828,0.44133877754211426,0.05000152,0.03615534,2201.8321197223,4.589349522651322,11.13620673917496,96.875,19200,3.287566661834717,0.002265861210838293,0.001425234247544215,4213461,1787.3451069492655,100.0
220,12.006046056747437,2288.1684045794277,45.507424356884535,2340.623016175998,2004.2461904408121,100.0,2.212460734859721,0.1,0.01338958740234375,0.3963499069213867,0.050938122,0.04986385,2210.465748208013,4.719208943665701,11.40801508878213,100.0,19200,3.357632637023926,0.00032929664104380265,0.00018731982845501016,4232661,1644.664074304179,100.0
221,12.13708758354187,2295.2098742657545,42.5924260594507,2339.3570169665372,1997.3743120732659,100.0,2.4649952019419237,0.1,0.012549877166748047,0.4132969379425049,0.050193038,0.039376184,2218.9401608137873,4.749223018294102,11.4431702552127,100.0,19200,3.352461576461792,0.00023360254889387934,0.00021039114898583152,4251861,1610.88937984843,100.0
222,12.295419931411743,2309.136865518551,20.605314207684824,2350.1251167353153,2231.937229258131,100.0,2.4198426044754937,0.1,0.012763500213623047,0.365067720413208,0.050841935,0.04246335,2227.9598312842636,4.81836202004989,11.512816205654465,100.0,19200,3.344362497329712,8.270911886323022e-05,6.606852291813547e-05,4271061,1582.446313109286,100.0
223,12.073434829711914,2295.884530946692,175.71573793144776,2362.844068918451,687.2222707319308,100.0,2.275400180524023,0.1,0.014526128768920898,0.42207932472229004,0.05052643,0.034001138,2234.7523012505067,4.815269844168054,11.446663766173705,100.0,19200,3.307673215866089,0.007141319755070927,0.004351130078844574,4290261,1990.5736994629096,100.0
224,12.053433895111084,2300.795561774646,103.07430302732756,2352.365688233217,1485.6595456586558,100.0,2.317453554028142,0.1,0.01251530647277832,0.4019453525543213,0.049366284,0.03714385,2241.356627302921,4.794029315828278,11.47146603116036,100.0,19200,3.3705334663391113,0.000856815123038093,0.0006231342646858122,4309461,1987.9735024414583,100.0
225,12.334808349609375,2309.0460069540854,64.61235664609072,2361.4937617474952,1959.1330757939238,100.0,2.3672375808499364,0.1,0.013453006744384766,0.3004460334777832,0.04977376,0.03624218,2248.1255652680375,4.811793562255076,11.512478968099016,100.0,19200,3.264089822769165,0.000572728531390574,0.00033860147713177594,4328661,1992.7235427369237,100.0
226,11.959705352783203,2312.4273310167378,29.49046099792723,2356.2884860941513,2136.7625558362915,100.0,2.4183625151389068,0.1,0.012464046478271484,0.40471792221069336,0.05041974,0.040103234,2254.5557418429075,4.833802879121924,11.52921214691492,100.0,19200,3.268550395965576,0.0001831016463789673,0.00013616232280476708,4347861,1843.1785764582442,100.0
227,11.994884252548218,2317.135787845647,56.083360686808895,2355.421989052332,1997.722366155437,100.0,2.4400874732216247,0.1,0.012788057327270508,0.4206857681274414,0.04967455,0.036829878,2260.8137464431816,4.843955630085186,11.55278152479749,100.0,19200,3.2829160690307617,0.00028680484465744266,0.00026966192641926496,4367061,2014.3175794437916,100.0
228,12.297722101211548,2327.221583162769,49.6893066583439,2364.100237418014,1890.8483579883446,100.0,2.3356709454489915,0.1,0.012969017028808594,0.4403421878814697,0.05045559,0.0414114,2267.45453011514,4.898804753804248,11.60318975790772,100.0,19200,3.319362163543701,0.0002870395004552641,0.00023081510762742473,4386261,2026.1495026912578,100.0
229,12.211935758590698,2331.291705105997,23.82245610333607,2364.6341790505526,2197.511293571302,100.0,2.560123915246483,0.1,0.012838602066040039,0.35102295875549316,0.05059021,0.038204666,2273.838247614226,4.910391729409551,11.623533310449673,100.0,19200,3.3029749393463135,8.981851888263811e-05,7.456696627209928e-05,4405461,2007.519699552364,100.0
230,12.085752248764038,2316.865698854158,170.55180352357647,2372.5129542526583,907.0393429206425,100.0,2.180274619653359,0.1,0.013403654098510742,0.4176909923553467,0.05182743,0.036961652,2278.140992738219,4.932019506550627,11.551340090285402,100.0,19200,3.2837321758270264,0.005395259639380438,0.0033989749670531987,4424661,1997.813071341288,100.0
231,12.299054145812988,2293.1725060876574,227.16802570311117,2376.683277551032,679.5579592280815,100.0,2.0220620130104026,0.1,0.012477636337280273,0.4182279109954834,0.049444843,0.03648945,2279.6441440731633,4.860181292559845,11.433464316317531,100.0,19200,3.274862289428711,0.0037145752917929773,0.0029060950769956018,4443861,2201.0456307878903,100.0
232,12.248017072677612,2306.024017183863,223.02073307385507,2374.7331231335806,170.25821990753292,98.95833333333333,1.3607468413554917,0.1,0.013003110885620117,0.3879373073577881,0.050089747,0.04364363,2282.2821313842333,4.860023080278494,11.497812753317717,98.95833333333333,19200,3.286099433898926,0.0013981954230599116,0.0004440567151818541,4463061,2016.5208484674145,100.0
233,12.068332195281982,2327.820080165864,61.347355673959356,2375.3903745925604,1816.6281382952216,100.0,2.1785540973499677,0.1,0.013059377670288086,0.3097569942474365,0.050125957,0.04097147,2286.8359262623967,4.910678267700032,11.606112837927208,100.0,19200,3.359335422515869,0.00031852363949954644,0.00027360110896204934,4482261,2014.719128106205,100.0
234,11.982571363449097,2321.5533807368297,130.4835171145424,2380.6661118867405,1165.6110578900002,98.95833333333333,1.997125130644771,0.1,0.014305830001831055,0.4233825206756592,0.05018837,0.034423985,2290.30767170984,4.908895499855173,11.574767080529455,98.95833333333333,19200,3.2913408279418945,0.0009171987760970376,0.0008384409343784498,4501461,2011.9500623683296,100.0
235,12.15707540512085,2340.727792378073,23.428217881852987,2376.2081551073543,2202.0141783443505,100.0,2.3541295404327602,0.1,0.013091325759887695,0.3178400993347168,0.049625207,0.04109709,2295.349683776664,4.9617222796039915,11.670617547856915,100.0,19200,3.290905714035034,0.000296129888157259,9.371034730807554e-05,4520661,2005.1462777058732,100.0
236,12.261044025421143,2329.6489920907693,231.96264944325955,2393.011260464579,121.26286413667401,98.95833333333333,1.819094548325719,0.1,0.013063192367553711,0.39401745796203613,0.050074063,0.039064694,2298.7796146080746,4.990602103609695,11.615348416757973,98.95833333333333,19200,3.3708014488220215,0.003924653114868425,0.0022049432500783612,4539861,2019.33292872111,100.0
237,12.274189472198486,2320.513779877279,153.24624976761967,2387.4533743225575,1473.7094640857151,100.0,1.9567477086865823,0.1,0.013362646102905273,0.417590856552124,0.05003548,0.04948595,2300.953031134995,4.928010862963215,11.569904967050169,100.0,19200,3.2780368328094482,0.002409606126385893,0.0019360848032940483,4559061,2029.9181533748417,100.0
238,11.94707703590393,2320.936647666342,157.75334769141324,2388.440177676021,1490.8911514180104,100.0,2.154835099795734,0.1,0.013891220092773438,0.4186677932739258,0.049622327,0.042940218,2302.95139278813,4.943395261621325,11.572038814403001,100.0,19200,3.346160650253296,0.0022020913593474084,0.0020668361877838014,4578261,2029.5339206758704,100.0
239,12.225689888000488,2331.879607635848,119.96322757067205,2389.7684970103196,1359.275358141131,100.0,2.462069697661577,0.1,0.012555837631225586,0.32213807106018066,0.050169926,0.03783476,2305.844214272902,4.950675508470308,11.626362786640094,100.0,19200,3.352341413497925,0.0016451268847338485,0.00114204004847915,4597461,2033.1749326502675,100.0
240,12.158743143081665,2351.2348800620243,48.065357504393546,2386.5905213065,2035.4578819279081,100.0,2.5708469898379085,0.1,0.01361536979675293,0.37818336486816406,0.050162323,0.037349846,2310.383280851814,5.010106516083899,11.723264991688117,100.0,19200,3.4187824726104736,0.0003652462614831216,0.00027063602640887464,4616661,2040.2389264874932,100.0
241,12.172350406646729,2350.8128349180024,66.1325318656318,2392.121943459172,1969.7878617884758,100.0,2.288569282626679,0.1,0.013615608215332031,0.447643518447876,0.04984379,0.04073818,2314.4262362584327,5.011127216272954,11.721139900908698,100.0,19200,3.3821558952331543,0.0005594190233402422,0.00036625113447519986,4635861,2041.7400636795687,100.0
242,12.35668683052063,2351.3359317663244,120.10046630001776,2396.065903179229,1403.845762997188,100.0,2.1381077953416576,0.1,0.013206720352172852,0.44548940658569336,0.049662605,0.038904827,2318.117205809222,5.0559835636966985,11.723977760687871,100.0,19200,3.3813929557800293,0.0010945533511125868,0.0008158063822390622,4655061,2042.738167557383,100.0
243,11.925109148025513,2297.7955946195434,250.55552242892384,2392.496725079088,1197.7750156253096,100.0,1.9927808312446618,0.1,0.012973546981811523,0.3481881618499756,0.050266646,0.045971114,2316.085044690254,4.948165650427533,11.456050390756308,100.0,19200,3.418236494064331,0.007775611215589477,0.005725817869348282,4674261,2055.40819384781,100.0
244,12.257845878601074,2356.069930178973,19.835576759031593,2387.745533841412,2286.030425145801,100.0,2.4264931542395938,0.1,0.013080596923828125,0.3937704563140869,0.050385494,0.04284502,2320.083533239126,5.034115905209705,11.74726043327304,100.0,19200,3.417387008666992,0.00030834477571142944,8.875946015578538e-05,4693461,2011.6088516108764,100.0
245,12.148712635040283,2308.9564564509424,204.03510312019705,2389.8796554268943,736.3837457192517,98.95833333333333,2.076711396470183,0.1,0.013301372528076172,0.33574724197387695,0.050553076,0.038213734,2318.9708255603077,4.884400508847986,11.511844984648162,98.95833333333333,19200,3.354651689529419,0.003092935023666342,0.0024168702680708192,4712661,2249.0328946512363,100.0
246,12.276742696762085,2342.5493688173196,84.4784619193319,2397.3564402142506,2009.4734426109992,100.0,2.4588259842914706,0.1,0.012997627258300781,0.45865559577941895,0.050643492,0.04039358,2321.328679886009,4.966082089869467,11.679956689219466,100.0,19200,3.402864456176758,0.0008677668892976722,0.0006935120032217301,4731861,1990.251205994195,100.0
247,12.233915090560913,2367.271830281778,33.48935886364897,2394.5562340298534,2071.9986067180052,100.0,2.2220503338687623,0.1,0.013530492782592773,0.32798290252685547,0.050098624,0.047654234,2325.922994925586,5.088811114649935,11.803403302502206,100.0,19200,3.477158784866333,0.00030051467271562137,0.00015092171110702072,4751061,1828.6088586891801,100.0
248,12.088515043258667,2338.096732420228,223.72985066208582,2402.307303840643,422.94657986534173,98.95833333333333,1.780761321614467,0.1,0.013499259948730469,0.3767735958099365,0.049710892,0.04555515,2327.14036867505,5.031432731286045,11.657369669921655,98.95833333333333,19200,3.388268232345581,0.002838221772342858,0.0011573895949663561,4770261,1850.1564736554262,100.0
249,12.286739349365234,2296.767058173023,412.961503031085,2407.289173649545,-575.2045645060982,97.91666666666667,1.5432909453868684,0.1,0.013368844985961914,0.40685606002807617,0.051138766,0.044150174,2324.1030376248473,5.023507965157063,11.450718123053933,97.91666666666667,19200,3.363030433654785,0.00969555505735743,0.006462290088291183,4789461,2025.4365626781823,100.0
250,12.36362075805664,2367.8899817746956,104.08194008133637,2401.173369271305,1363.5484556612505,100.0,2.214529383674893,0.1,0.01280355453491211,0.3992621898651123,0.050600693,0.043488998,2328.4817320398324,5.1212900887887,11.806717645158438,100.0,19200,3.3812754154205322,0.0010526754662511372,0.0007271233562551131,4808661,2032.368542546125,100.0
251,12.302268266677856,2347.8089055427367,155.94350187676633,2404.9142694371135,1216.3078852254807,100.0,2.3751922936453416,0.1,0.012939453125,0.41824841499328613,0.050434098,0.039708786,2330.414449390123,5.065210721942667,11.70608629049743,100.0,19200,3.314682722091675,0.002231898965969917,0.0020320936370836653,4827861,2032.164705578156,100.0
252,12.1651029586792,2372.947825415486,36.75660729732206,2408.798186669157,2058.4901357911654,100.0,2.3117129054223584,0.1,0.012833595275878906,0.39248037338256836,0.050142925,0.04226293,2334.6677869926593,5.120812278252992,11.831618169485713,100.0,19200,3.4085254669189453,0.000271222706739824,0.0001953976144696039,4847061,2039.7324179616317,100.0
253,12.022107124328613,2372.6667691955395,62.94187674003488,2416.5402415235308,2019.446105215099,100.0,2.320073922867402,0.1,0.013227224349975586,0.3660147190093994,0.050006613,0.04055303,2338.4676852129473,5.1139268574983605,11.830178221688527,100.0,19200,3.2800042629241943,0.0004369775763662156,0.0003920648963256581,4866261,2014.6044913188166,100.0
254,11.981207132339478,2362.698563762681,112.23411548970462,2408.2027732798297,1515.292835730812,100.0,2.3862388427769576,0.1,0.012763738632202148,0.3693220615386963,0.049959365,0.037035696,2340.890773067921,5.091369622575345,11.780742779414524,100.0,19200,3.218536615371704,0.001258481195585572,0.0010905831298309414,4885461,2033.462139208154,100.0
255,12.284578084945679,2372.826681216419,64.47676381564037,2415.336069916449,2007.8505303526356,100.0,2.149394712979665,0.1,0.014147520065307617,0.3656790256500244,0.050448462,0.0454589,2344.084363882771,5.108963532923035,11.831118965344833,100.0,19200,3.213970899581909,0.0003887677570223859,0.0003277506745861676,4904661,2035.8647769083577,100.0
256,12.615134477615356,2364.8847597795884,155.5405477461886,2411.7905236560136,861.9225658755003,98.95833333333333,1.3318193265746583,0.1,0.012943029403686523,0.40353894233703613,0.049990576,0.0437631,2346.1644034724527,5.120427322386251,11.791269526362425,98.95833333333333,19200,3.282489538192749,0.0024662800099338154,0.0002775086859329903,4923861,2024.1472863816364,100.0
257,11.998152494430542,2346.9783360904626,233.6158286417226,2403.3462989182763,614.4295887201617,100.0,2.0853843898186923,0.1,0.012709617614746094,0.3162233829498291,0.04951843,0.037343223,2346.2457967342534,5.113020503614697,11.703436043815051,100.0,19200,3.1777408123016357,0.010315613880978394,0.004404611514177673,4943061,2043.990777648701,100.0
258,12.012214660644531,2373.4799730416967,16.0410622587373,2402.4169746737207,2308.4401813982963,100.0,2.4028083090878156,0.1,0.01330113410949707,0.34505558013916016,0.049861625,0.0435423,2348.969214364998,5.1166912240622375,11.834250920819612,100.0,19200,3.189084053039551,0.0006692765103554772,8.683121503265093e-05,4962261,2032.0742678432614,100.0
259,12.00290036201477,2376.9769077462247,52.7655719855311,2406.1958812595217,2014.389145795828,100.0,2.506237310001136,0.1,0.013955354690551758,0.40851569175720215,0.05001494,0.040723324,2351.769983703121,5.134377737065619,11.851726788182333,100.0,19200,3.195620059967041,0.0005784508768929004,0.00032901747859549773,4981461,2022.3952393416428,100.0
260,12.232832670211792,2383.912305184502,55.01454961532258,2409.671756944531,1999.2031325349842,100.0,2.321190810172447,0.1,0.013541460037231445,0.31128859519958496,0.050437808,0.039266914,2354.9842158512593,5.162686065802824,11.886398809079592,100.0,19200,3.240175247192383,0.0003647625623086315,0.00029656941920696146,5000661,2039.2836010195151,100.0
261,12.194681644439697,2363.542391923058,182.17943823930767,2416.3236989685806,1109.6667653556715,100.0,2.3332361223014004,0.1,0.013329744338989258,0.3746180534362793,0.049683057,0.034749366,2355.840033458439,5.1501245054187095,11.785096902457175,100.0,19200,3.3564341068267822,0.004471172035173713,0.002889583218871793,5019861,2036.0078426326195,100.0
262,12.27301287651062,2386.8051211033066,14.512339389593135,2415.360896788738,2345.675094827604,100.0,2.4958920415602894,0.1,0.01364445686340332,0.41132569313049316,0.050493315,0.04114052,2358.9365422229257,5.173984639067958,11.900851078811845,100.0,19200,3.3033719062805176,0.0001706193084534865,5.799866466670197e-05,5039061,2033.0609030120654,100.0
263,12.465972423553467,2396.0687894365988,13.577724237686457,2419.3021273945956,2343.920523482063,100.0,2.324927947342792,0.1,0.014166831970214844,0.38193655014038086,0.04930707,0.042265717,2362.6497669442933,5.220702306758613,11.947162629304174,100.0,19200,3.3116185665130615,6.774962675967563e-05,4.297689224259423e-05,5058261,2037.4522389375713,100.0
264,12.167981147766113,2390.5488709022384,67.6652302825394,2423.651249808591,2011.6130176654835,100.0,2.293377464435131,0.1,0.012849092483520508,0.3497781753540039,0.050118778,0.041939083,2365.439677340088,5.187123432411588,11.919732691936078,100.0,19200,3.29756760597229,0.0005805326704571373,0.00044935943697333076,5077461,1715.9400155262429,100.0
265,12.32137680053711,2351.1621963698467,323.38315155845544,2423.9972840049636,-650.0934923515911,100.0,1.9888783845288203,0.1,0.013198375701904297,0.38199615478515625,0.050887786,0.037667852,2364.011929243064,5.1526456157841976,11.722608537429915,100.0,19200,3.348267078399658,0.018980434845525394,0.01436092525815425,5096661,2052.176263102569,100.0
266,12.09606647491455,2392.7395580273765,56.615513494007764,2425.7739076927073,2010.4228971661303,100.0,2.460291924917407,0.1,0.013090133666992188,0.3828577995300293,0.050073233,0.042424537,2366.8846921214954,5.2039435027442424,11.93066450801957,100.0,19200,3.467918634414673,0.0011294846903095097,0.0004043207960625928,5115861,2410.8252926489113,100.0
267,11.999539852142334,2380.2949038542524,211.09552121987284,2433.215476730572,362.12148246816673,98.95833333333333,1.5069184303837706,0.1,0.013106346130371094,0.3406999111175537,0.050580207,0.0390072,2368.225713294771,5.202750304301497,11.86829025282435,98.95833333333333,19200,3.3317251205444336,0.0016300073461710906,0.0005573078250616203,5135061,2412.300152332794,100.0
268,12.068260669708252,2361.547539791668,244.21724737605794,2423.22963517234,174.56469370025894,98.95833333333333,1.6392988280664613,0.1,0.013123273849487305,0.36246204376220703,0.04973285,0.035075307,2367.557895944461,5.131279234655984,11.77456096471603,98.95833333333333,19200,3.3288662433624268,0.0017672002130013859,0.0012527490686008629,5154261,1726.8706178341579,100.0
269,12.353976488113403,2399.8829102949303,38.90884372247492,2425.146155938188,2040.190548573896,100.0,2.247007903492589,0.1,0.014387130737304688,0.3372344970703125,0.04974011,0.052568402,2370.7903973795082,5.23764086696732,11.9662131063532,100.0,19200,3.3051693439483643,0.000331595570366919,0.00019094574978956492,5173461,1701.7875744434825,100.0
270,12.299354076385498,2395.736577032594,56.79906307214373,2421.0431707493535,2005.6214713575662,100.0,1.9982068840153924,0.1,0.012450456619262695,0.3851346969604492,0.0503139,0.05043409,2373.285015344817,5.218153943646379,11.945490289696048,100.0,19200,3.361929178237915,0.0002594138459013809,0.00022044104843137752,5192661,1798.8634172951936,100.0
271,12.12684440612793,2355.31879539186,322.82226756975155,2420.0878610702875,120.12324796906086,98.95833333333333,1.6583626252096262,0.1,0.01300501823425293,0.3630247116088867,0.05089052,0.039649796,2371.488393349521,5.185649623241777,11.74340698950335,98.95833333333333,19200,3.354180335998535,0.009160585904851994,0.005023265764387637,5211861,1536.7611765738816,100.0
272,12.077455997467041,2376.3016484657696,179.86561275212674,2418.2113117307167,662.5751286617713,100.0,2.190981875362047,0.1,0.01397705078125,0.3976304531097412,0.04965298,0.041150007,2371.9697188611462,5.193549244295919,11.848320298503944,100.0,19200,3.270979881286621,0.003578367144064105,0.0029129865034833178,5231061,1926.9883988107526,100.0
273,12.111569166183472,2384.9389994297635,65.54805144451356,2423.9012396888693,2027.0772546499104,100.0,2.217322316096586,0.1,0.012528181076049805,0.38361549377441406,0.05095213,0.040838156,2373.266646918008,5.1668176008697415,11.891666111614503,100.0,19200,3.2289931774139404,0.0012458952038860746,0.0005029640657628242,5250261,2039.3247848504789,100.0
274,12.40411376953125,2358.932135319405,205.85450758746504,2421.4149846407563,670.2259505347655,98.95833333333333,1.8221608961009408,0.1,0.012825965881347656,0.30490875244140625,0.04972433,0.030020587,2371.8331957581477,5.1300849646487015,11.761478524795441,98.95833333333333,19200,3.331650733947754,0.0015096036090964868,0.0011603476813351952,5269461,2030.7647551536875,100.0
275,12.090461254119873,2363.3152436999885,141.40321944276698,2420.6095054733096,1446.0014772744655,100.0,2.1081410861033225,0.1,0.013036966323852539,0.36853480339050293,0.049813587,0.04773668,2370.981400552332,5.096333108623226,11.783917057960588,100.0,19200,3.329312562942505,0.0020899599881104517,0.001834134571472988,5288661,2031.1877220733813,100.0
276,12.198330163955688,2388.9864733617687,106.40442212782172,2424.1102746731876,1357.8195974049156,100.0,2.3629990388984154,0.1,0.013501405715942383,0.3302309513092041,0.050321132,0.035167165,2372.781907833276,5.210505052562659,11.911744714060395,100.0,19200,3.2882192134857178,0.0009209115149886321,0.0007027736544730458,5307861,2020.786332996608,100.0
277,12.254383563995361,2370.4679556846554,98.53495608169716,2421.1246819643607,2020.1387183728616,100.0,2.5747957257617813,0.1,0.013103961944580078,0.30507493019104004,0.050800573,0.03637056,2372.5505126184144,5.091944397327449,11.8193118744478,100.0,19200,3.316882371902466,0.001069474680655643,0.0008870021848097044,5327061,2020.420823762222,100.0
278,12.166406869888306,2310.689593994553,369.6923955772607,2424.5822409457655,166.3737240134968,96.875,1.6479251802539567,0.1,0.01430821418762207,0.3847215175628662,0.050405174,0.03964017,2366.3644207560283,4.9892980986205195,11.520567213959914,96.875,19200,3.3088011741638184,0.00419103650455063,0.00154012161322298,5346261,2019.5819424750262,100.0
279,12.20530080795288,2400.048067512249,9.483394213052431,2418.466929926685,2373.8682035764623,100.0,1.9784381654436594,0.1,0.013176679611206055,0.3232731819152832,0.049710747,0.04811713,2369.7327854316504,5.235489215338827,11.967051764561063,100.0,19200,3.2839956283569336,0.00018227972301657137,4.899907725698855e-05,5365461,2020.4685763347175,100.0
280,12.109782218933105,2390.4502835792878,65.44818645006814,2420.4490725306487,2027.015417580497,100.0,2.3172523547551935,0.1,0.013178348541259766,0.35277771949768066,0.049649745,0.03938503,2371.804535246414,5.190193031607908,11.919228452279247,100.0,19200,3.3805651664733887,0.00044044117257740025,0.00037742325666810685,5384661,2014.8603683372407,100.0
281,12.172704458236694,2364.5000226624975,283.7923089782116,2424.281299783516,213.0535872458059,100.0,1.648746027014266,0.1,0.013346672058105469,0.3953890800476074,0.050551776,0.04132313,2371.0740839880223,5.200336494013361,11.789707993454032,100.0,19200,3.3574070930480957,0.008091601219638124,0.00557600364858818,5403861,1993.374763631346,100.0
282,12.119970560073853,2392.0997832314865,54.408394588461164,2419.874778775067,2012.0204738974644,100.0,2.3460529934454195,0.1,0.013344764709472656,0.3540070056915283,0.0506169,0.04123277,2373.1766539123687,5.2030541488827575,11.927319491283152,100.0,19200,3.328040599822998,0.0008632954827075094,0.0002867054946166769,5423061,1977.1559201784717,100.0
283,12.358586311340332,2384.9568688374325,96.51974016251533,2418.455966237541,1694.9477323643328,100.0,2.360935472469879,0.1,0.014193296432495117,0.3714172840118408,0.04841369,0.036653917,2374.354675404875,5.185951222550621,11.891596073793243,100.0,19200,3.2922794818878174,0.0007672999497354793,0.000635205108545147,5442261,2403.438295335994,100.0
284,12.197532415390015,2382.687892122878,99.79547733838368,2417.948798834948,1601.7507226960922,100.0,2.3107114360042913,0.1,0.012748003005981445,0.3817305564880371,0.049958672,0.039674617,2375.187997076675,5.181099162438644,11.880648078601675,100.0,19200,3.336594820022583,0.0007242325539708694,0.0006694831358930723,5461461,2410.2263246376206,100.0
285,12.16996955871582,2392.2357905655967,38.4089730374393,2419.1982019003285,2051.6835325227767,100.0,2.4650431884876887,0.1,0.013792276382446289,0.400784969329834,0.049492013,0.038095262,2376.8927764255673,5.200434660746301,11.927988521969388,100.0,19200,3.3505146503448486,0.0001936188159466095,0.00017619473273731103,5480661,2312.0425837724597,100.0
286,12.094863414764404,2392.919381638248,68.06179451852114,2419.577997560912,1835.930876780208,100.0,2.4720164108465448,0.1,0.012714385986328125,0.4142000675201416,0.04987623,0.035984743,2378.4954369468355,5.206433096120975,11.931797259705162,100.0,19200,3.383873224258423,0.0004261666965676557,0.00035918966691243987,5499861,2413.918974589349,100.0
287,12.123790502548218,2400.332275424606,38.967455403551774,2423.6840092622465,2031.796508778006,100.0,2.2690142127373747,0.1,0.019900798797607422,0.30562424659729004,0.05014969,0.04443679,2380.6791207946126,5.231514522485715,11.968468597697296,100.0,19200,3.3430593013763428,0.00017508654036920302,0.00015623219677822386,5519061,2409.2002702953228,100.0
288,12.113703966140747,2401.478645763002,37.995846577066246,2422.397586190398,2048.847833599928,100.0,2.324820513477346,0.1,0.012357950210571289,0.29439830780029297,0.049890112,0.039888192,2382.7590732914514,5.236355990092797,11.97421325026474,100.0,19200,3.3354063034057617,0.00015217292359476271,0.00015022806574735745,5538261,2407.145495058706,100.0
289,12.219366312026978,2380.833748209306,182.47755629245904,2429.747953374102,685.5157745531434,98.95833333333333,1.438640210206804,0.1,0.012998342514038086,0.3699038028717041,0.050514232,0.034638084,2382.566540783237,5.189208431952205,11.870975076134874,98.95833333333333,19200,3.4174301624298096,0.0006572182674652866,0.00037815570531237104,5557461,2416.4134179674516,100.0
290,12.250339031219482,2388.611741164293,180.44355677774738,2427.6008098340585,631.8246574621744,100.0,1.3164624429219804,0.1,0.014752864837646484,0.3970363140106201,0.051831797,0.02304056,2383.1710608213425,5.2322598593308784,11.90985789880078,100.0,19200,3.3627500534057617,0.0003253854063006761,0.00018313144875037226,5576661,2412.7101730068516,100.0
291,12.060263395309448,2402.311201024318,9.494060882648121,2418.6924292768695,2359.1169481214843,100.0,2.0624257190223787,0.1,0.012795448303222656,0.36328744888305664,0.049451444,0.04881542,2385.08507484164,5.252490729438974,11.97836549755857,100.0,19200,3.2851145267486572,3.8662440914553644e-05,2.942469393145352e-05,5595861,2414.2553484095947,100.0
292,12.156033992767334,2403.6021437512227,33.588949930923306,2427.068082800588,2093.0955463178498,100.0,2.3335283724549996,0.1,0.012949466705322266,0.39957451820373535,0.05000848,0.039233025,2386.9367817325983,5.25637678690043,11.984806557089817,100.0,19200,3.311072826385498,0.00014783385612896798,0.00011893031825741065,5615061,2415.6018605086047,100.0
293,12.223888397216797,2400.987952022692,91.10854910745591,2428.184471838753,1515.4296707905776,100.0,2.3223814010488293,0.1,0.013130903244018555,0.38883280754089355,0.04958879,0.034363702,2388.341898761608,5.258104544423691,11.971731602001752,100.0,19200,3.2824478149414062,0.0008410622558384043,0.0006846181845710375,5634261,2418.7539154540837,100.0
294,12.281092405319214,2407.3417536040074,9.194813952710536,2426.0262408757144,2370.8906864972296,100.0,2.3098197185255285,0.1,0.013372421264648438,0.3752925395965576,0.049279504,0.044121046,2390.2418842458483,5.2688664210766945,12.003494942288905,100.0,19200,3.359084129333496,0.00017912686880283178,2.4795596838440356e-05,5653461,2417.597905468542,100.0
295,12.171886444091797,2408.013599895797,8.278601999042491,2425.852667318671,2383.4406166697086,100.0,2.3456894181167227,0.1,0.012879610061645508,0.383467435836792,0.049599104,0.044181183,2392.0190558108434,5.275531282679946,12.00685047085957,100.0,19200,3.410352945327759,2.0532844847726164e-05,2.3610197508621785e-05,5672661,2418.901907813684,100.0
296,12.34476613998413,2379.863932414141,212.39546164173933,2426.0999029627233,845.8116381928702,100.0,2.1281710157447633,0.1,0.013078927993774414,0.32379674911499023,0.0501871,0.037970524,2390.8035434711733,5.234197608767092,11.86610930657705,100.0,19200,3.4199297428131104,0.005543639755107226,0.002930770443643076,5691861,2412.9524508640843,100.0
297,12.408805131912231,2410.37872502541,9.081562051620768,2426.8919815191566,2363.8620169790443,100.0,2.2267505226032887,0.1,0.013247489929199219,0.38931822776794434,0.049626518,0.045291387,2392.761061626597,5.276536566122177,12.018686431010314,100.0,19200,3.3931124210357666,0.00010048568547465903,3.254512003157329e-05,5711061,2416.6228395360913,100.0
298,12.258859395980835,2412.407586179909,6.724787226122273,2424.3147456646743,2384.2380076718746,100.0,2.1761386044137536,0.1,0.012953996658325195,0.4030296802520752,0.049969923,0.048412245,2394.7257140819283,5.28349010264408,12.028820797060668,100.0,19200,3.4030025005340576,3.103109841540933e-05,2.4570394254796097e-05,5730261,2416.876437312624,100.0
299,12.1062753200531,2410.646866136829,41.86190867719706,2431.6048132702936,2011.5797265268056,100.0,2.2005676758301447,0.1,0.01306605339050293,0.41169071197509766,0.050851226,0.03801928,2396.3178292874186,5.272847150593549,12.020182201680049,100.0,19200,3.413942337036133,0.00025477737638405183,0.000168961352375262,5749461,2419.4176382797154,100.0
300,12.15661883354187,2385.2794636602853,245.5630676414154,2434.7763918240803,27.007026266500198,100.0,2.062140718261913,0.1,0.012467384338378906,0.38278818130493164,0.051341698,0.032033607,2395.2139927247053,5.2456992881750315,11.893190244951612,100.0,19200,3.3646399974823,0.0099250250236715,0.00534585721039301,5768661,2415.1615775206574,100.0
301,12.294623613357544,2413.109348534339,11.317844922626007,2429.451930179818,2353.798279769691,100.0,2.36832231104224,0.1,0.013320207595825195,0.42908692359924316,0.049845513,0.041964415,2397.003528305669,5.279587049282907,12.032322468117428,100.0,19200,3.3416953086853027,0.0003981798600207448,5.796484313516424e-05,5787861,2415.3143108369786,100.0
302,12.04490041732788,2410.4369994774934,10.63776103455578,2429.302956828866,2364.0916674123037,100.0,2.3003215967129593,0.1,0.01307821273803711,0.4041295051574707,0.04938753,0.042850543,2398.3468754228516,5.267718900413562,12.018968491390345,100.0,19200,3.273871421813965,6.150171049734158e-05,4.5551002496196336e-05,5807061,2421.071722839558,100.0
303,12.57892632484436,2414.5614031118134,8.52165746654163,2434.626407442038,2375.344294520511,100.0,2.379408202724283,0.1,0.012470006942749023,0.33820319175720215,0.049917925,0.04532779,2399.968328191748,5.284215622936409,12.039583561797436,100.0,19200,3.3279378414154053,3.732166497965051e-05,3.194054357330176e-05,5826261,2422.8933898627447,100.0
304,12.144523859024048,2388.8741372807926,180.72523196540337,2431.6452358886313,719.9613539412866,100.0,2.1720340548328925,0.1,0.01268458366394043,0.3644537925720215,0.049329076,0.039925776,2398.858909100652,5.219533082013171,11.911700261351243,100.0,19200,3.4096803665161133,0.00402456048965538,0.0033048439104778494,5845461,2423.375388964689,100.0
305,12.161697149276733,2386.8243099044,174.05281592312198,2431.39518444053,774.2601554331286,98.95833333333333,1.9251317510400727,0.1,0.013192176818847656,0.33568596839904785,0.049632687,0.043004543,2397.655449181027,5.195276827600829,11.900903269067328,98.95833333333333,19200,3.4271106719970703,0.0012415962247217629,0.0004857603754521496,5864661,2424.8424415271293,100.0
306,12.119134902954102,2408.3647730733032,44.04364564439641,2431.270410586852,1989.2594490553563,100.0,2.2131891150875154,0.1,0.012056827545166016,0.348635196685791,0.049662966,0.039436717,2398.726381570255,5.259046365575061,12.008604319863787,100.0,19200,3.3846285343170166,0.0001820740999433264,0.00013063175019222204,5883861,2428.780998024437,100.0
307,12.211955070495605,2409.374447767063,46.57049218470098,2428.602618337713,1968.6369271308145,100.0,2.1210699210434063,0.1,0.012417316436767578,0.38686418533325195,0.050177455,0.038879566,2399.791188189936,5.261393062586982,12.013640464702776,100.0,19200,3.4048123359680176,0.000151165010688622,0.00013940042818799586,5903061,2433.419556725302,100.0
308,12.419131755828857,2411.786529800645,10.553335061588571,2433.058087915339,2383.3060297705497,100.0,2.204500116664095,0.1,0.01277613639831543,0.380279541015625,0.049436796,0.04658357,2400.990722351007,5.272519489678694,12.025703829763573,100.0,19200,3.4422569274902344,4.184939661303512e-05,3.1372616422125675e-05,5922261,2437.678972737568,100.0
309,12.183096170425415,2413.394456359296,40.199450843181346,2436.555016432222,2035.8242743906271,100.0,2.1604527958796336,0.1,0.013848543167114258,0.42110323905944824,0.04939091,0.040890742,2402.231095751836,5.281752273483405,12.033750807272645,100.0,19200,3.3569295406341553,0.0002490489982867213,0.00015839089090039413,5941461,2436.736625663443,100.0
310,12.35158634185791,2415.5300963317572,39.65412755445508,2435.629262836659,2040.0225462551982,100.0,2.319879714679491,0.1,0.014636039733886719,0.42867326736450195,0.04988464,0.038946725,2403.5609958098285,5.288963520212924,12.044557375948862,100.0,19200,3.378512382507324,0.00015710522144152435,0.00015131228551090256,5960661,2435.5851960138725,100.0
311,12.18142580986023,2418.5833734434414,9.10311220717574,2434.5606155594105,2387.0450587447936,100.0,2.108528001870153,0.1,0.014197587966918945,0.3539731502532959,0.049780577,0.05064884,2405.06323357319,5.307769362751742,12.05967934992943,100.0,19200,3.301389217376709,3.2585585285741524e-05,2.018618992800396e-05,5979861,2438.0484218819292,100.0
312,12.333349227905273,2417.0071049001494,41.40227002666764,2434.33496797874,2022.68640669008,100.0,2.0381544943946004,0.1,0.013361692428588867,0.416029691696167,0.049472623,0.040994775,2406.257620705886,5.296235818359874,12.051798262581093,100.0,19200,3.369964599609375,0.00015240025225868819,0.00012997644970999186,5999061,2437.0648904928294,100.0
313,12.334954738616943,2419.370696516064,39.85085102649533,2442.042609153293,2041.8923129950301,100.0,2.2544360778382515,0.1,0.013061761856079102,0.4225475788116455,0.04993917,0.042614862,2407.5689282869034,5.305182845240394,12.06361903268383,100.0,19200,3.4663703441619873,0.00015868843707932164,0.00014248084669669345,6018261,2435.6153594586344,100.0
314,12.131276845932007,2407.1845808799985,173.06193619908743,2438.163822990028,721.8605260085759,100.0,2.0304534626255135,0.1,0.014175653457641602,0.4124715328216553,0.050347205,0.038872138,2407.530493546213,5.311780931428619,12.003098553252192,100.0,19200,3.4169957637786865,0.004130220965900585,0.002523703225559864,6037461,2434.1717981596903,100.0
315,12.478633642196655,2416.5675635438497,87.25107979062453,2440.628204498779,1569.5728416291133,100.0,2.0544096454173073,0.1,0.013896942138671875,0.43990063667297363,0.04980304,0.045536205,2408.4342005459766,5.3131557928244195,12.049597146877902,100.0,19200,3.3947527408599854,0.0007165287593595008,0.0004087945951003175,6056661,2431.3366610558332,100.0
316,12.393026351928711,2423.614126425146,9.719787513749546,2437.701626246363,2357.1827572706115,100.0,2.1685215812165137,0.1,0.013056516647338867,0.3956489562988281,0.050047476,0.051776174,2409.9521931338936,5.330769235590082,12.084839110096382,100.0,19200,3.3952646255493164,6.403708961874917e-05,2.9183948082314196e-05,6075861,2431.4140329818897,100.0
317,12.60839319229126,2425.7693933723162,9.0358602942729,2445.148981325834,2382.1346141732106,100.0,2.235298083325812,0.1,0.013356447219848633,0.3849918842315674,0.049564235,0.045111943,2411.5339131577357,5.337171908576014,12.095620996426272,100.0,19200,3.3572614192962646,2.8267189490471497e-05,2.35115482520747e-05,6095061,2434.0483121598977,100.0
318,12.311461687088013,2427.3000041045902,8.479648643508815,2445.3885155941302,2396.3646569698776,100.0,2.034457127336282,0.1,0.014037370681762695,0.4594109058380127,0.050084643,0.048618544,2413.110522252421,5.343655442922834,12.103267171995881,100.0,19200,3.353577136993408,2.2825232088194328e-05,1.9170847769664966e-05,6114261,2434.103115431062,100.0
319,12.110495328903198,2414.5707873150864,130.40123462897637,2441.916273268466,1146.9896741455866,100.0,2.0643289125490942,0.1,0.013114690780639648,0.44629907608032227,0.051446788,0.0375924,2413.256548758688,5.321967886007882,12.039614380356108,100.0,19200,3.309161901473999,0.0025921055312654218,0.0011354063622782905,6133461,2434.2649654915804,100.0
320,12.322777509689331,2428.098525944258,7.200546230718601,2440.561521190424,2398.5877420479956,100.0,2.3232605402077917,0.1,0.013747930526733398,0.4257955551147461,0.04975741,0.045088533,2414.740746477245,5.345298175520166,12.107259938312128,100.0,19200,3.2179534435272217,6.169301088396087e-05,2.3727069972908908e-05,6152661,2426.770206012837,100.0
321,12.36251425743103,2425.362502531874,15.705447815123032,2442.8484600328134,2302.470163954364,100.0,2.2760093538176704,0.1,0.013419866561889648,0.3996727466583252,0.04984254,0.042570285,2415.802922082708,5.341432581866532,12.093574216111847,100.0,19200,3.2641429901123047,5.1749212617012547e-05,3.675595044767257e-05,6171861,2425.860138472235,100.0
322,12.334095001220703,2390.0135313703177,320.3060787247227,2445.6006562981925,-700.0907263487826,100.0,2.249888357692559,0.1,0.012892723083496094,0.42566752433776855,0.049465764,0.038756855,2413.223983011469,5.299707891362417,11.916823633914284,100.0,19200,3.2763195037841797,0.01510364894534437,0.008814191537264844,6191061,2422.9569142904943,100.0
323,12.38185739517212,2423.5043181088713,42.02448813513609,2447.0889451463263,2023.132551255765,100.0,1.876006812487355,0.1,0.015041351318359375,0.3398740291595459,0.047587518,0.09477095,2414.2520165212095,5.323844391909707,12.084264669487553,100.0,19200,3.3318850994110107,0.0010716773175390606,0.0002399939827879194,6210261,2423.7962012822054,100.0
324,12.392431020736694,2421.3013612714853,41.89859744943646,2439.1683413185174,2020.97131327752,100.0,2.437741141835427,0.1,0.013438224792480469,0.42835569381713867,0.05023416,0.04218741,2414.956950996237,5.316543792054731,12.073272762697528,100.0,19200,3.273704767227173,0.0002335456910469468,0.00017467439679069602,6229461,2422.082189250328,100.0
325,12.238508462905884,2425.3029104041866,8.62959569619006,2438.7858577812567,2389.6174155172644,100.0,2.4562801654118758,0.1,0.013598203659057617,0.3841571807861328,0.05020717,0.038119435,2415.9915469370317,5.338044071774114,12.09327354553902,100.0,19200,3.3660404682159424,3.11750728259813e-05,2.492038863142212e-05,6248661,2426.599866711233,100.0
326,12.210007905960083,2429.299579134176,9.493630596408604,2445.772489897822,2389.906442200297,100.0,2.126633617469204,0.1,0.013156414031982422,0.44173431396484375,0.050435767,0.04705484,2417.3223501567463,5.35403416699499,12.113262733211092,100.0,19200,3.3834195137023926,2.64001916622004e-05,2.333661932559298e-05,6267861,2427.3087844453007,100.0
327,12.372502326965332,2391.533987722585,215.9858617934446,2447.19005176943,818.7293976449721,100.0,2.3100941863013214,0.1,0.012814760208129883,0.32787370681762695,0.05048593,0.03498925,2414.7435139133304,5.269202989358917,11.924428381690078,100.0,19200,3.355005979537964,0.004153030985349443,0.003126167176016926,6287061,2426.312639699666,100.0
328,12.331137657165527,2428.7712421561027,9.527352349498742,2444.4310324935104,2393.249163890488,100.0,2.336552676061809,0.1,0.012950420379638672,0.4472513198852539,0.04980806,0.043065898,2416.1462867376076,5.351525750556122,12.110609642591944,100.0,19200,3.394076347351074,0.00012962088340369841,3.1556414301071966e-05,6306261,2423.646743297344,100.0
329,12.255653858184814,2429.6285631006426,11.327672176961363,2449.1229071367784,2376.2626019415743,100.0,2.3992448176469128,0.1,0.01363062858581543,0.39467620849609375,0.050233893,0.041202374,2417.494514373911,5.353748249426239,12.114888611004693,100.0,19200,3.387775421142578,3.7218454194736334e-05,3.1747133752629306e-05,6325461,2430.4343154074318,100.0
330,12.273061990737915,2412.1352437472997,176.60386016490838,2446.9106460600733,695.8242970445866,100.0,1.7842862536671362,0.1,0.012663125991821289,0.4092428684234619,0.05397595,0.03984617,2416.9585873112496,5.333153456254489,12.027422348797359,100.0,19200,3.3388092517852783,0.0028422283745441995,0.0016390577147398693,6344661,2435.2019016239783,100.0
331,12.416090965270996,2430.9840959170265,13.84626261090256,2448.890829097686,2325.422237181982,100.0,2.284421478091621,0.1,0.014048576354980469,0.44015979766845703,0.05016991,0.04342518,2418.3611381718274,5.359619759618816,12.121684141208886,100.0,19200,3.330749034881592,0.00018490962637983,4.35666713126274e-05,6363861,2434.2888443713846,100.0
332,12.370510339736938,2423.147203489439,58.482716581747574,2448.592448580813,2018.4595503799326,100.0,2.238178164040987,0.1,0.012350797653198242,0.37398338317871094,0.049629632,0.036478583,2418.8397447035886,5.321982663804418,12.082500178021652,100.0,19200,3.3382437229156494,0.0004035918412299489,0.0002820538987546747,6383061,2433.6376114412797,100.0
333,12.245341062545776,2377.148699639088,411.163656013774,2443.8847543175575,-1586.7836285619057,98.95833333333333,1.4087869822868029,0.1,0.013215780258178711,0.39428091049194336,0.053414218,0.050138958,2414.6706401971387,5.267378488949377,11.852485906160306,98.95833333333333,19200,3.360332727432251,0.012815082262420337,0.002123871730578908,6402261,2426.218384391369,100.0
334,12.178994417190552,2427.218176478664,10.4950867461311,2449.2910705385284,2383.358397480567,100.0,2.333208441138378,0.1,0.012558937072753906,0.3901987075805664,0.049912866,0.04603634,2415.9253938252914,5.344963385888537,12.102844839513091,100.0,19200,3.2583508491516113,0.00023619484919630177,7.102616939796517e-05,6421461,2428.9904810214603,100.0
