iteration,time_sampling,stoc_pol_mean,stoc_pol_std,stoc_pol_max,stoc_pol_min,rollout_success,alpha,delta,time_vpg,time_npg,kl_dist,surr_improvement,running_score,rwd_sparse,rwd_dense,success_percentage,num_samples,time_VF,VF_error_before,VF_error_after,eval_score,eval_success
0,3.0152335166931152,-25.82739447887742,17.349108914810742,87.04164993539969,-41.53839499623315,1.0416666666666667,6.128644478846743,0.1,0.018061161041259766,0.30515241622924805,0.041962326,0.021070026,-25.82739447887742,-0.14427448444017166,-0.12906615110683836,1.0416666666666667,19200,1.684926986694336,0.9986032474872512,0.35187572236502956,-28.328688910182272,0.0
1,2.6963448524475098,-24.621355182193835,23.27726842658659,103.08837541444602,-44.117566871375125,2.0833333333333335,12.244361684425355,0.1,0.011213541030883789,0.2593412399291992,0.055966366,0.006835585,-25.70679054920906,-0.14950194550736443,-0.12304361217403109,2.0833333333333335,19200,1.6826198101043701,0.41443396250856995,0.3855949367544885,-27.90376221999983,0.0
2,2.767571210861206,-24.739682937835287,22.058739704436658,108.29060648854956,-42.78528950729034,2.0833333333333335,9.701348737131374,0.1,0.010810375213623047,0.25249218940734863,0.046191808,0.012305144,-25.610079788071683,-0.14675876231012122,-0.1236337623101212,2.0833333333333335,19200,2.0952401161193848,0.43734887399575306,0.43043508304541384,-28.39256807684251,0.0
3,2.7357380390167236,-23.48691367442466,26.562044589362195,116.32363945094843,-42.6879144458936,3.125,9.46725475123883,0.1,0.010704755783081055,0.2779855728149414,0.05308603,0.0105346795,-25.39776317670698,-0.149872149271608,-0.11737214927160798,3.125,19200,2.382232904434204,0.5352820482970865,0.5257095772003977,-26.909221715221477,0.0
4,2.8077995777130127,-24.652499322288264,18.56163790460433,79.54320894030087,-40.56724818580208,0.0,12.139324219720432,0.1,0.011483430862426758,0.24882984161376953,0.05279954,0.0076524196,-25.32323679126511,-0.14320837356087268,-0.1232083735608727,0.0,19200,2.4348254203796387,0.3979023064221234,0.35380888101659114,-25.044073497505472,0.0
5,3.0047738552093506,-21.167612786526586,24.442281908448393,124.20417877985852,-38.26436021297848,1.0416666666666667,9.472976013188221,0.1,0.011203527450561523,0.2495269775390625,0.050350133,0.009847166,-24.907674390791257,-0.1336948031053935,-0.10577813643872686,1.0416666666666667,19200,2.525688886642456,0.5430568023740299,0.5348023876577057,-24.101794378935995,0.0
6,2.8481016159057617,-18.314035024798983,33.709785915507986,151.02169928752124,-37.0173331285399,4.166666666666667,13.234356456263365,0.1,0.011352062225341797,0.3010265827178955,0.043156896,0.0070843017,-24.24831045419203,-0.1310991651212835,-0.09151583178795014,4.166666666666667,19200,2.711881637573242,0.7559953993481915,0.7335665782499331,-24.569627824705773,0.0
7,2.796137809753418,-21.801053558765194,27.494587363827268,155.96789058117986,-41.634520407654556,2.0833333333333335,8.553214154767089,0.1,0.011375188827514648,0.25968480110168457,0.046194274,0.013644388,-24.003584764649347,-0.133333656043708,-0.10895865604370801,2.0833333333333335,19200,2.735844612121582,0.6294237903742615,0.614459440739347,-23.248704276564677,0.0
8,2.756070852279663,-20.94856463581498,30.78282137794579,213.0426437836332,-38.820845947740715,2.0833333333333335,9.036065702834875,0.1,0.011794805526733398,0.3184967041015625,0.054022457,0.011208785,-23.69808275176591,-0.12865849508290808,-0.10470016174957476,2.0833333333333335,19200,2.744781970977783,0.7208373104823291,0.7072633335550093,-22.31490046812186,0.0
9,2.722224473953247,-16.143213057152852,34.333949046974254,169.7717455676293,-37.327701487742615,2.0833333333333335,16.12689407093689,0.1,0.010718345642089844,0.26547765731811523,0.045413323,0.009236144,-22.942595782304604,-0.12129335594303252,-0.08066835594303252,2.0833333333333335,19200,2.7573959827423096,0.7892759773270823,0.7637412239997304,-22.1896580404552,0.0
10,2.6923716068267822,-21.417337448206435,24.703104711369694,184.89427209140095,-38.11378038264444,1.0416666666666667,6.392510116839086,0.1,0.010927200317382812,0.26532649993896484,0.050160848,0.015981056,-22.79006994889479,-0.12621521510748035,-0.10704854844081368,1.0416666666666667,19200,2.728173017501831,0.6175518558078099,0.5505791799421645,-21.70806371359545,0.0
11,2.749687433242798,-15.386101650412144,37.76507997705468,272.4424511706845,-36.87932093961864,1.0416666666666667,11.401355235374956,0.1,0.011538982391357422,0.29015398025512695,0.04996771,0.01109243,-22.049673119046524,-0.11586031170903793,-0.0769019783757046,1.0416666666666667,19200,2.696741819381714,0.8342848381325363,0.7856803049306933,-21.7029528820867,0.0
12,2.7720532417297363,-14.487849825235223,41.286493474557346,211.56605567711253,-38.21458876577439,2.0833333333333335,10.481806840207954,0.1,0.01107335090637207,0.2549121379852295,0.056929316,0.011031457,-21.293490789665395,-0.11845547288694884,-0.07241380622028219,2.0833333333333335,19200,2.6417577266693115,0.7935047866012785,0.7328295966157897,-21.514564617982458,0.0
13,2.791835308074951,-18.868836225984644,29.801456228437242,167.97263853976483,-36.41127779391801,1.0416666666666667,14.855087717416868,0.1,0.010688066482543945,0.25092291831970215,0.04454831,0.00662046,-21.05102533329732,-0.12306739086341552,-0.09431739086341552,1.0416666666666667,19200,2.6534624099731445,0.7095717803914897,0.6488502156414336,-21.619470921555568,0.0
14,2.84072208404541,-19.252343461295144,25.156171155073377,130.66194283883752,-36.83511733414326,1.0416666666666667,8.350108383991365,0.1,0.010702371597290039,0.24743270874023438,0.052472267,0.01226849,-20.871157146097104,-0.11811448776294943,-0.09623948776294944,1.0416666666666667,19200,2.621626138687134,0.7175059550208979,0.657108236546426,-22.198908026530095,0.0
15,2.8722407817840576,-15.703401435909965,47.91023067962391,322.9659542683246,-37.50146995059779,1.0416666666666667,12.270430931667194,0.1,0.011187076568603516,0.26078176498413086,0.045480944,0.007922329,-20.354381575078392,-0.12078805275504505,-0.07849638608837836,1.0416666666666667,19200,2.621095657348633,0.8587456810545625,0.7933392517371989,-22.333092029608352,0.0
16,3.015716314315796,-19.308956544144234,33.09325912263835,268.9851015265877,-37.98833415785759,1.0416666666666667,9.367573194262617,0.1,0.011457443237304688,0.2635774612426758,0.050991185,0.009932816,-20.24983907198498,-0.11943499045925669,-0.09651832379259002,1.0416666666666667,19200,2.6053128242492676,0.8060942733249334,0.7461592467641597,-21.727608283542466,0.0
17,2.8093209266662598,-15.260602348452794,54.40438561252211,478.44898483227155,-39.244600642996865,1.0416666666666667,7.826508868254776,0.1,0.011320352554321289,0.2612607479095459,0.047626708,0.011777635,-19.75091539963176,-0.12024323250743706,-0.07628489917410372,1.0416666666666667,19200,2.630553722381592,0.7865827027775031,0.7494958802666409,-21.81866556820905,0.0
18,2.8484597206115723,-20.689813629531525,23.29876179303364,168.26277387182418,-38.53140243879896,1.0416666666666667,9.60398101346785,0.1,0.011995553970336914,0.2552073001861572,0.046832617,0.012852693,-19.844805222621737,-0.12258307355649911,-0.10341640688983245,1.0416666666666667,19200,2.68888258934021,0.6407474365187934,0.5908739452910103,-21.88305194592362,0.0
19,2.8082995414733887,-20.208732707578292,20.312688046191433,117.97133330704544,-39.4613569947096,0.0,9.897297498290968,0.1,0.013670921325683594,0.2745833396911621,0.050177995,0.013173395,-19.88119797111739,-0.11705498255333363,-0.10101331588666697,0.0,19200,2.663763999938965,0.6026032732081228,0.5649884463306623,-21.814155237248546,0.0
20,2.782362699508667,-4.6141025866137895,67.83160271728886,400.98711899518867,-37.78422216643391,3.125,8.506547368448883,0.1,0.010964632034301758,0.25899577140808105,0.047012165,0.012675515,-18.35448843266703,-0.1132409107133588,-0.023032577380025454,3.125,19200,2.639012336730957,0.8827190212932481,0.7493181207318248,-21.278814682470298,0.0
21,2.7542924880981445,-22.482584827285233,11.881398062982207,82.09848751410672,-33.74116349831846,0.0,8.207077362880684,0.1,0.013641119003295898,0.25805020332336426,0.056557484,0.012727262,-18.76729807212885,-0.1173821824520526,-0.1123821824520526,0.0,19200,2.6003220081329346,1.2820477440797728,0.3063624165636284,-20.50261266938698,0.0
22,2.9477014541625977,-8.554323623444455,56.66219240037308,262.25942542913805,-38.13502144442292,4.166666666666667,10.559009775177014,0.1,0.010809898376464844,0.30133771896362305,0.057576433,0.008809861,-17.746000627260408,-0.11128302551014224,-0.042741358843475574,4.166666666666667,19200,2.642747163772583,0.9094716983507649,0.7612593875493715,-20.094113452710637,0.0
23,2.7475080490112305,-15.433595855585834,30.052046487837476,153.54680018069163,-37.44060110912394,0.0,9.010820272323663,0.1,0.011052131652832031,0.30501341819763184,0.053567767,0.011397846,-17.51476015009295,-0.10923189505427089,-0.07714856172093754,0.0,19200,2.6262967586517334,0.8218624829980221,0.6764446549365674,-19.394494121844428,0.0
24,2.7576308250427246,-11.425802755819303,52.59303595674533,321.2095574568578,-35.935445916004454,2.0833333333333335,9.677182638576191,0.1,0.010902166366577148,0.28479719161987305,0.04798245,0.011279111,-16.905864410665586,-0.10856617963383558,-0.05710784630050223,2.0833333333333335,19200,2.621328115463257,0.8329479388199784,0.7868644091278657,-19.35286010568639,0.0
25,2.7942094802856445,-3.8721019940533523,66.00075498594438,391.21604392360405,-34.734212643189665,2.0833333333333335,8.621971634245416,0.1,0.010966300964355469,0.29835963249206543,0.053975295,0.01299206,-15.602488169004362,-0.10287378344518638,-0.019332116778519703,2.0833333333333335,19200,2.520848512649536,0.7947871982768557,0.7476992314386379,-19.943066207339392,0.0
26,2.8576393127441406,-16.250199428232758,32.39859036685915,224.5154310498837,-35.91170364170447,0.0,8.724234485212783,0.1,0.01114344596862793,0.2821798324584961,0.051230747,0.012954385,-15.6672592949272,-0.10561788441171799,-0.081242884411718,0.0,19200,2.482722282409668,1.243305725590889,0.75368966388874,-19.563331212465066,0.0
27,3.0448801517486572,-6.280285494519848,60.899712756782215,338.12675577813224,-36.42096973299572,0.0,6.455808249423742,0.1,0.010523796081542969,0.2514498233795166,0.050302017,0.016757319,-14.728561914886466,-0.0993040875555233,-0.03138742088885663,0.0,19200,2.5197203159332275,0.8537204194616079,0.7711213440338945,-20.215299449665416,0.0
28,2.8416507244110107,4.8563129246267716,94.95019321922821,579.4438647645194,-35.075808334958516,2.0833333333333335,7.934979596310274,0.1,0.010756731033325195,0.2557404041290283,0.05443126,0.0151916975,-12.770074430935143,-0.10425284223952831,0.024080491093805046,2.0833333333333335,19200,2.5142195224761963,0.8112081585761958,0.7295510892225565,-20.01613804397924,0.0
29,2.8324484825134277,-8.65843923686616,51.201844129250595,289.8931326177423,-34.85881436173845,0.0,8.315147834656873,0.1,0.010339736938476562,0.2577242851257324,0.0497682,0.009969884,-12.358910911528245,-0.10576602100796058,-0.043266021007960564,0.0,19200,2.5162572860717773,0.8216701390520815,0.7185858676159492,-20.055487736362522,0.0
30,2.89107084274292,-19.410748915146623,19.985861281721856,164.4626905038835,-38.26425027086429,0.0,8.38462691006578,0.1,0.011636018753051758,0.30426740646362305,0.055218067,0.014457728,-13.064094711890082,-0.10786936610242759,-0.09703603276909423,0.0,19200,2.5513195991516113,1.3392412964393257,0.6819615042205545,-18.99264047570537,0.0
31,2.8669939041137695,10.063622300839814,107.19961751340517,567.5866198313868,-35.91283302434377,1.0416666666666667,10.658194509130809,0.1,0.012977361679077148,0.2577483654022217,0.051379368,0.010620008,-10.751323010617092,-0.09361388249983,0.05034445083350334,1.0416666666666667,19200,2.5756444931030273,0.8754912141156461,0.7053324577872627,-18.447781295892476,0.0
32,2.8217475414276123,-10.559687932418376,51.02951916586127,320.1102013152517,-34.34381389974557,1.0416666666666667,11.203651735211647,0.1,0.010865211486816406,0.2542252540588379,0.05464715,0.007850358,-10.73215950279722,-0.1017434441130884,-0.05278511077975508,1.0416666666666667,19200,2.601322889328003,0.9786120403929472,0.7901067278036938,-17.20042900975283,0.0
33,3.0199501514434814,-16.04551435126833,28.67075743221202,206.62439498795803,-33.66866383936025,0.0,7.809213271456759,0.1,0.01215362548828125,0.2578763961791992,0.047636688,0.013145637,-11.263494987644332,-0.09980549242818253,-0.08063882576151585,0.0,19200,2.6106338500976562,1.2915100798384656,0.8433813747034966,-9.958195646712332,0.0
34,2.824695348739624,0.3624698886213326,76.46180623278777,511.273419779572,-36.49538556359024,1.0416666666666667,7.179168262321921,0.1,0.011464357376098633,0.2532689571380615,0.047583427,0.01710735,-10.100898500017765,-0.09588995489802055,0.0016100451019794178,1.0416666666666667,19200,2.599778175354004,0.8529937886332093,0.7388066598045033,-8.244149506965039,0.0
35,2.768848180770874,2.5841189935309017,138.54441848847577,1185.4616071718142,-36.67116650155726,2.0833333333333335,9.425961558289412,0.1,0.013113021850585938,0.26566648483276367,0.049823098,0.015224964,-8.832396750662898,-0.10102415350133714,0.012934179831996179,2.0833333333333335,19200,2.591115951538086,0.8313614495967055,0.7862168247510761,-8.315004608515359,0.0
36,2.85077166557312,7.190653643120278,96.17623893499807,477.43703032793917,-36.297146854197024,1.0416666666666667,8.907979536315894,0.1,0.011746883392333984,0.2572941780090332,0.05314873,0.0124655,-7.23009171128458,-0.09424372131883337,0.0357562786811666,1.0416666666666667,19200,2.6107797622680664,0.8011857106614751,0.7174508732832708,-6.806929801066687,0.0
37,2.7729673385620117,-0.9979427832406434,86.1769408704194,542.75887424079,-34.746328389858995,1.0416666666666667,8.3411801414311,0.1,0.011102676391601562,0.24994683265686035,0.049619347,0.010892682,-6.6068768184801865,-0.09748647982825433,-0.004986479828254321,1.0416666666666667,19200,2.6480538845062256,0.787849274654089,0.7185334561349681,-6.326882632413583,0.0
38,2.878847360610962,28.47349016720661,157.24429738418493,1012.9091953389676,-33.84966274151114,4.166666666666667,9.62391301998314,0.1,0.011378049850463867,0.2708256244659424,0.04659229,0.008771455,-3.098840119911507,-0.08699996881528267,0.1423750311847173,4.166666666666667,19200,2.6315689086914062,0.7938110532722562,0.6639585191611131,-3.7390772603547546,0.0
39,2.755537986755371,16.689274713692146,105.90238148298117,461.42063065028225,-36.99155010494619,1.0416666666666667,8.216834072116745,0.1,0.010800838470458984,0.30103635787963867,0.047595497,0.011012593,-1.1200286365511416,-0.0900914145446074,0.08324191878872594,1.0416666666666667,19200,2.588541030883789,0.8887071403908328,0.7141987867040803,-9.526601261764624,0.0
40,2.777348518371582,4.952856145379333,93.65636256716037,492.1844811610283,-34.38546822007647,1.0416666666666667,6.9114169296851635,0.1,0.010764837265014648,0.3059215545654297,0.046229377,0.017792568,-0.5127401583580942,-0.09272117896737588,0.024778821032624094,1.0416666666666667,19200,2.606649398803711,0.7694046399390602,0.6960533188899111,-14.719496033934332,0.0
41,2.8042948246002197,-0.9230032286898867,72.03580100806646,454.806486504109,-34.933944424447986,2.0833333333333335,7.63395981819456,0.1,0.010657787322998047,0.30455851554870605,0.051129658,0.013862831,-0.5537664653912734,-0.09397673409767822,-0.004601734097678241,2.0833333333333335,19200,2.597303628921509,0.8803197720804973,0.7246768448604833,-10.531363662923157,0.0
42,2.8475193977355957,24.87757462117362,120.18132610383076,525.1285172804417,-36.36121372223852,4.166666666666667,8.46869582429521,0.1,0.010806083679199219,0.3065476417541504,0.05383289,0.013261882,1.9893676432652159,-0.08851475996698267,0.12440190669968403,4.166666666666667,19200,2.6019179821014404,0.7515806862325936,0.6633674000695631,-16.76680904305258,0.0
43,2.8495497703552246,26.323529702259208,156.4215139027155,851.3492865349091,-35.56907988739242,5.208333333333333,10.200740067316373,0.1,0.011710166931152344,0.2633543014526367,0.05066236,0.00940627,4.422783849164615,-0.08566397255095178,0.13162769411571487,5.208333333333333,19200,2.628336191177368,0.7957544166462028,0.722704142414176,-16.58656887770089,0.0
44,3.08614444732666,31.490316082224563,162.24392741310254,823.4970410137294,-35.26311748330257,6.25,10.55297275522348,0.1,0.011077404022216797,0.25588130950927734,0.050638333,0.009515043,7.12953707247061,-0.09003077627587112,0.1570525570574622,6.25,19200,2.5912625789642334,0.6926709528312254,0.6205621268912577,-16.177804377537722,0.0
45,2.838318109512329,31.671973469534738,169.244806695883,956.9432158006526,-36.39064347308553,5.208333333333333,11.31847950387513,0.1,0.012356758117675781,0.31227755546569824,0.03541629,0.007336824,9.583780712177024,-0.09163759830990457,0.15794573502342876,5.208333333333333,19200,2.5857248306274414,0.6307289777922064,0.5656700395345112,-16.04905748383993,0.0
46,2.7958829402923584,36.23532044281659,157.11316163465713,907.4011701317338,-36.908008046731574,2.0833333333333335,11.847278948460207,0.1,0.013307571411132812,0.2709798812866211,0.051156953,0.0076011284,12.24893468524098,-0.08715725337059677,0.1807594132960699,2.0833333333333335,19200,2.6074628829956055,0.7003753436298927,0.6420114186628946,-16.358916804940836,0.0
47,2.795400619506836,8.642980872374551,99.15928173374782,478.6268229077735,-37.17134592499222,1.0416666666666667,7.288756729078467,0.1,0.011278629302978516,0.2537682056427002,0.053424187,0.014930054,11.888339303954337,-0.09240096250321346,0.04301570416345321,1.0416666666666667,19200,2.6512675285339355,0.9044919108119289,0.7198760587345936,-16.177594845744217,0.0
48,2.7666008472442627,13.534683031129054,131.12680617433065,769.7334567202225,-36.61373079771186,3.125,6.778079239082189,0.1,0.011180400848388672,0.2726478576660156,0.0489421,0.01310248,12.052973676671808,-0.0935653938180649,0.06768460618193516,3.125,19200,2.657604694366455,0.7267034739078405,0.6911402560323829,-15.985474077540541,0.0
49,2.798170804977417,19.092095285960564,127.51507887399964,858.1061244558605,-39.34925393565832,1.0416666666666667,11.658701083621196,0.1,0.011435270309448242,0.2616298198699951,0.05297612,0.0069461255,12.756885837600684,-0.08995243872815643,0.09525589460517687,1.0416666666666667,19200,2.674109935760498,0.7677045307593501,0.679282408078588,-16.050841502275986,0.0
50,2.8065237998962402,52.26583229188942,174.530165109753,868.7285265539169,-33.19981967175925,5.208333333333333,12.98117263880757,0.1,0.010816812515258789,0.3013498783111572,0.049564626,0.009248961,16.70778048302956,-0.08804175246730872,0.26133324753269127,5.208333333333333,19200,2.6487512588500977,0.6593396418170748,0.5413655287063026,-15.814400107959932,0.0
51,2.7813429832458496,53.24665880399078,198.76842652652445,870.8997133933105,-37.122547087087,5.208333333333333,8.649739858701363,0.1,0.010681390762329102,0.24834370613098145,0.054258097,0.010178396,20.361668315125684,-0.08584817456647652,0.2662351587668567,5.208333333333333,19200,2.5983355045318604,0.5831009676377602,0.5446351246218888,-15.845469775627985,0.0
52,2.7757580280303955,36.08615074588673,172.75357521344296,931.4386473148191,-36.62895712128531,4.166666666666667,10.042118590928611,0.1,0.010938167572021484,0.2524127960205078,0.052270237,0.009701053,21.93411655820179,-0.08705517740753076,0.1804448225924693,4.166666666666667,19200,2.6056108474731445,0.6540013626373967,0.5618226514646222,-14.481574003610154,0.0
53,2.826594591140747,-5.402819957742537,77.2102938834918,524.599602563619,-34.94845854625142,1.0416666666666667,7.61577774806741,0.1,0.010835647583007812,0.2488863468170166,0.05126347,0.014434437,19.200422906607358,-0.09054676698100288,-0.02700510031433621,1.0416666666666667,19200,2.5385541915893555,2.0383183591028278,0.8712430140995133,-15.685344395385464,0.0
54,2.9891438484191895,10.999893517574728,103.03752765570421,566.5351318870919,-36.37626692379902,3.125,7.387762076991065,0.1,0.010858535766601562,0.3051440715789795,0.04914682,0.012969766,18.380369967704095,-0.08706893948421075,0.05501439384912259,3.125,19200,2.5004024505615234,1.0688328471060422,0.6955645997562608,-15.48428809937114,0.0
55,2.8813540935516357,58.35417308828184,187.475246253765,800.1319541468507,-34.157272195026195,6.25,7.626797285456465,0.1,0.010721445083618164,0.24892544746398926,0.045089275,0.013338766,22.37775027976187,-0.0871847236822915,0.2917736096510418,6.25,19200,2.4907002449035645,0.6809182668196218,0.4823450565339966,-15.575111945232752,0.0
56,2.8294777870178223,27.77745797278378,107.96576331339566,389.19087657658577,-33.339007831024944,4.166666666666667,8.95086624484831,0.1,0.011075019836425781,0.2592625617980957,0.0445011,0.010623642,22.91772104906406,-0.08360694131172659,0.1388930586882734,4.166666666666667,19200,2.5320394039154053,0.6768266882721751,0.4757379072338364,-3.75336187938818,0.0
57,2.8458313941955566,26.990092805124505,137.37846438378662,716.5144895900158,-36.98312760368082,5.208333333333333,8.672394435359648,0.1,0.011039972305297852,0.25696587562561035,0.049724158,0.009249323,23.324958224670105,-0.09045170603447905,0.13496496063218757,5.208333333333333,19200,2.5969595909118652,0.748438321321067,0.5897283684634326,-8.261669969567649,0.0
58,2.8380393981933594,29.05605353764061,145.858705586437,696.265636800976,-35.96392257790496,5.208333333333333,8.581598551101514,0.1,0.011228084564208984,0.2573721408843994,0.049812376,0.011968785,23.898067755967155,-0.08429860461134535,0.1450763953886546,5.208333333333333,19200,2.6909894943237305,0.6808974022682999,0.6078034852734525,2.2088781674247304,0.0
59,2.81246018409729,45.87710945024603,185.41418438481614,823.7039286921273,-37.566101585328056,5.208333333333333,9.729075814449953,0.1,0.01171731948852539,0.2599339485168457,0.047744337,0.012898137,26.095971925395045,-0.09206591003091653,0.22939242330241683,5.208333333333333,19200,2.692882537841797,0.6445782727832612,0.5256109412664576,4.219906997787346,0.0
60,2.961704969406128,60.303011678648126,196.97641611925118,948.1847094239803,-34.68338440965821,8.333333333333334,8.65256871480409,0.1,0.011484861373901367,0.26236391067504883,0.047472823,0.010813699,29.516675900720355,-0.08493070561756055,0.3015276277157728,8.333333333333334,19200,2.66865611076355,0.5157972472916597,0.4863002634487567,6.52596144551314,0.0
61,2.7786262035369873,52.75064986273102,156.81105326009322,724.6624760505721,-36.22784846350167,6.25,8.374744359349421,0.1,0.010910511016845703,0.3120408058166504,0.04733989,0.012716902,31.84007329692142,-0.08207243471415833,0.26355256528584164,6.25,19200,2.6488895416259766,0.5392101953533937,0.4852362297587968,-0.522148475911635,0.0
62,2.8047125339508057,17.253448879077464,110.54366639780221,589.4325388520153,-36.14999081792902,1.0416666666666667,7.608729297099156,0.1,0.01122283935546875,0.3182210922241211,0.050122686,0.013576752,30.381410855137023,-0.08143548520054834,0.086272848132785,1.0416666666666667,19200,2.6299781799316406,0.9997874795102408,0.7155223145972655,11.005593854094633,0.0
63,2.794757127761841,93.37143622070757,241.52963445888813,1086.10277977604,-36.63397145241702,12.5,8.132675656401313,0.1,0.010741710662841797,0.29926490783691406,0.0544402,0.0104691675,36.68041339169408,-0.08210248665035964,0.4664391800163071,12.5,19200,2.630072593688965,0.7069222536435257,0.4382033731996068,19.40887180239191,0.0
64,2.7938153743743896,46.198254154652325,192.89082492523568,1032.9828442068172,-36.92860254396091,4.166666666666667,7.0836037810440855,0.1,0.011107683181762695,0.31554245948791504,0.051024556,0.0153419655,37.63219746798991,-0.08629828502077896,0.23057671497922103,4.166666666666667,19200,2.66717529296875,0.6141178411229874,0.5328161744899558,16.352720634316977,0.0
65,2.818664073944092,53.061777449574116,194.28367209219746,847.7102233172363,-35.623326038720045,5.208333333333333,9.06792421829836,0.1,0.010613679885864258,0.3070394992828369,0.04944761,0.011106149,39.17515546614833,-0.08593445270929956,0.2648988806240338,5.208333333333333,19200,2.6636767387390137,0.4962629949392345,0.4343970175054467,13.681940762048018,0.0
66,2.844285726547241,19.057397548055135,127.71737464854311,615.3257471591425,-32.150291334386495,2.0833333333333335,8.922462459226505,0.1,0.011263132095336914,0.3019828796386719,0.053870857,0.012030443,37.16337967433902,-0.09177943948609567,0.09530389384723768,2.0833333333333335,19200,2.6544857025146484,0.7025987926783682,0.5459971293490214,12.237474741512292,0.0
67,2.8227429389953613,52.10724263474168,183.99312091669134,712.8825684319045,-34.86716195628694,6.25,7.813570706973839,0.1,0.010789871215820312,0.29628872871398926,0.051496092,0.013894868,38.65776597037929,-0.08529294566796586,0.26033205433203416,6.25,19200,2.5949180126190186,0.5396645843320866,0.46618925380195014,-4.045236085411979,0.0
68,2.792006015777588,64.17653745860383,213.09236590631218,904.6977173041884,-35.41984184945716,7.291666666666667,10.691848640189367,0.1,0.010726451873779297,0.246290922164917,0.052135203,0.00902558,41.20964311920174,-0.08516116388678986,0.3204638361132101,7.291666666666667,19200,2.5874733924865723,0.5375313693718821,0.4618936741421794,-6.4465828769109565,0.0
69,2.8307971954345703,46.772425882648804,177.10574129181063,804.195268774913,-33.70331767869547,3.125,10.538119696152586,0.1,0.011142969131469727,0.3135089874267578,0.05171504,0.010669413,41.76592139554645,-0.08134052351992042,0.2336594764800796,3.125,19200,2.566375970840454,0.5889221267972595,0.43435822700347293,6.752816429178478,0.0
70,2.8318021297454834,21.066426943412225,136.80890597957423,953.1141169249934,-36.01867225977298,2.0833333333333335,8.855972421572904,0.1,0.01089787483215332,0.2855970859527588,0.051971912,0.009898099,39.69597195033303,-0.09029033355184339,0.10512633311482326,2.0833333333333335,19200,2.4749362468719482,0.6906730777978609,0.5846752460221545,18.897547630333477,0.0
71,3.040372610092163,40.21733687975493,152.21819709044928,732.02318482748,-36.24496912409564,6.25,7.654135457268066,0.1,0.010650396347045898,0.25001049041748047,0.05467403,0.012817602,39.74810844327522,-0.08474884996699968,0.20045948336633368,6.25,19200,2.4521706104278564,0.5776457514484202,0.48726637846134735,26.715513641035304,6.25
72,2.861340284347534,51.71992600706213,166.64674425515454,872.3488191073307,-36.561416269202944,8.333333333333334,9.086801417063981,0.1,0.011152505874633789,0.27626991271972656,0.056554135,0.009902163,40.94529019965391,-0.08223003233362088,0.25860330099971246,8.333333333333334,19200,2.529421806335449,0.47438839283302814,0.3855765681577151,23.313675621303748,0.0
73,2.8396079540252686,33.52668320261421,120.9152361346724,500.63691421261206,-36.17415390105488,3.125,8.09668983842311,0.1,0.010775566101074219,0.309406042098999,0.05011792,0.013775336,40.20342949994994,-0.08361950740945501,0.167005492590545,3.125,19200,2.6026968955993652,0.4756341338514206,0.35412825911488727,18.285376932324905,0.0
74,2.874634027481079,90.07493831196507,216.63965378105766,1049.4137817031906,-35.30199796609058,9.375,7.45783399385646,0.1,0.011036396026611328,0.2985265254974365,0.052705485,0.013444901,45.190580381151456,-0.07774860829025533,0.4497513917097447,9.375,19200,2.556565046310425,0.5087601447448061,0.3773195004122343,13.993172001521415,0.0
75,2.8518762588500977,89.88430241590162,217.81325499695416,1053.8237408290165,-35.93877037212462,10.416666666666666,8.046919304918925,0.1,0.011116743087768555,0.27954649925231934,0.0510812,0.013131258,49.65995258462647,-0.07744971735676177,0.4494252826432383,10.416666666666666,19200,2.6093616485595703,0.419269677772764,0.3703492585463507,15.055835407506795,0.0
76,2.9116084575653076,61.20119505111891,202.7597372856623,978.1164627205108,-35.283657299305425,8.333333333333334,9.155325320456768,0.1,0.011486530303955078,0.3160734176635742,0.05366132,0.011014982,50.81407683127571,-0.08336395940633319,0.3060110405936668,8.333333333333334,19200,2.644301414489746,0.40200251506299933,0.32964155317098714,13.74674974253739,0.0
77,2.823601007461548,93.8159128717215,209.7605271250339,936.7822627204025,-34.860846687411744,13.541666666666666,7.627639254781712,0.1,0.012014389038085938,0.2597651481628418,0.047508013,0.014743406,55.11426043532029,-0.07528923678668686,0.46866909654664646,13.541666666666666,19200,2.6456804275512695,0.37356632120032285,0.28445758046312436,19.56507423926265,0.0
78,2.848679780960083,65.34897654614815,181.73769640655635,961.2693560622422,-33.71755347684189,8.333333333333334,7.416156913249529,0.1,0.011047601699829102,0.2535381317138672,0.049933337,0.013894232,56.13773204640308,-0.07804621719796341,0.32632878280203664,8.333333333333334,19200,2.625156879425049,0.4345004783724532,0.3510816677916794,21.91007982102658,0.0
79,2.8301265239715576,66.40650320779454,236.98688340225155,1073.0886662532469,-34.250006152892915,9.375,7.670724652503587,0.1,0.012479782104492188,0.31540417671203613,0.052248944,0.012473746,57.16460916254223,-0.08128868620482095,0.33183631379517914,9.375,19200,2.6558942794799805,0.4757261995678169,0.40508747331447303,20.888057223452535,0.0
80,2.8627381324768066,68.70521653299313,178.51948528116046,755.9037465222771,-35.82700651439168,5.208333333333333,7.586519683497251,0.1,0.011727094650268555,0.27763795852661133,0.04395641,0.012536882,58.31866989958732,-0.07875332448773471,0.343538342178932,5.208333333333333,19200,2.6781795024871826,0.3002640268521717,0.22928171632622532,19.161152763838196,0.0
81,2.751317024230957,64.05892812219666,189.90501112153234,839.275384925315,-34.8925863101844,8.333333333333334,7.880840426015415,0.1,0.011519432067871094,0.2561302185058594,0.04821474,0.013572969,58.892695721848256,-0.0811520443966871,0.3203062889366462,8.333333333333334,19200,2.6950836181640625,0.38704964863220603,0.32322555042772366,34.533671262670026,6.25
82,2.914701461791992,65.49858582539576,226.18181565201783,1146.2051492171563,-35.316039822075794,9.375,9.232605486710733,0.1,0.011340141296386719,0.32605648040771484,0.051812354,0.012346771,59.55328473220301,-0.08167775997885435,0.3268639066878123,9.375,19200,2.7216053009033203,0.4706422949078301,0.39108361665964114,41.38163145244409,6.25
83,2.7672760486602783,82.63163575879993,209.17744866637827,895.4985726458458,-34.38789942453302,12.5,8.015068440005459,0.1,0.011470556259155273,0.3021829128265381,0.048259147,0.012452126,61.861119834862706,-0.07913181048190564,0.41274318951809436,12.5,19200,2.7436017990112305,0.32078979515728534,0.28660339017364583,31.3239967281288,0.0
84,2.7148730754852295,108.90867522085536,296.96096949413027,1234.7970127518702,-32.70335747546709,13.541666666666666,9.461925464955636,0.1,0.010822772979736328,0.2868807315826416,0.05206273,0.010899344,66.56587537346198,-0.08169853232486911,0.5443431343417976,13.541666666666666,19200,2.732088804244995,0.3542474849361802,0.2767665151425115,20.604907185271184,0.0
85,2.7519521713256836,115.23039084476825,266.09348286444157,1207.2349254654623,-33.4102643497835,12.5,8.634394703245244,0.1,0.010622024536132812,0.2501795291900635,0.049368963,0.012262596,71.4323269205926,-0.07343642820915587,0.5755219051241774,12.5,19200,2.7035467624664307,0.2870272435735255,0.23941337303493138,18.617135309231045,0.0
86,2.760798454284668,95.47336055395924,223.69709774984597,873.6976640367969,-34.58898003538013,10.416666666666666,6.086022082590138,0.1,0.01090550422668457,0.30305027961730957,0.051593184,0.01736435,73.83643028392927,-0.08076642721075387,0.4767335727892461,10.416666666666666,19200,2.6004891395568848,0.2653697662872176,0.20393609247292194,30.929237715870894,0.0
87,2.795820474624634,86.667653951827,240.0535208718088,1288.1282391016584,-33.11783618318151,11.458333333333334,7.905417873975174,0.1,0.011288642883300781,0.25275564193725586,0.048152894,0.011126341,75.11955265071904,-0.07560963538492829,0.4333486979484052,11.458333333333334,19200,2.6283822059631348,0.28581063389695577,0.21362233076946086,32.15366243470027,0.0
88,3.0043511390686035,64.86132873528875,201.94941446705744,906.4169897260132,-31.19265478766102,9.375,8.821571059373355,0.1,0.011043071746826172,0.29592347145080566,0.047834147,0.011898827,74.09373025917601,-0.07403070468608265,0.32409429531391737,9.375,19200,2.589066982269287,0.34982009253132534,0.27547086876866067,27.139915649605086,0.0
89,2.858135223388672,64.70721625544395,189.1809686317485,704.9012394423024,-35.814365810191724,9.375,8.373986819207495,0.1,0.011337757110595703,0.28298473358154297,0.050166834,0.0132558895,73.15507885880281,-0.08040961811158813,0.32354871522174516,9.375,19200,2.6021904945373535,0.2876358578157446,0.24688412309383098,30.718242141936607,0.0
90,2.868990898132324,59.67763766857343,191.0456926116406,949.2596887628134,-34.74666516635447,7.291666666666667,7.8094455801146845,0.1,0.01059269905090332,0.28928685188293457,0.04944244,0.013116202,71.80733473977988,-0.07952875846754663,0.2973462415324533,7.291666666666667,19200,2.6197218894958496,0.3055321076745206,0.27587728890753316,29.735587132588567,0.0
91,2.8698556423187256,68.33020974808188,211.26850716569143,1132.5398333962307,-36.18641539104972,8.333333333333334,8.513575775055344,0.1,0.011319398880004883,0.3112215995788574,0.051922746,0.010973888,71.45962224061009,-0.08105396855919057,0.34123769810747606,8.333333333333334,19200,2.632949113845825,0.3650998359986977,0.31702952847186044,49.280243827584904,6.25
92,2.826658010482788,97.29610471227348,238.62368557857357,1106.8783962344187,-35.48543669866493,13.541666666666666,7.039158265610476,0.1,0.011101961135864258,0.31138157844543457,0.047345642,0.014453832,74.04327048777643,-0.07560067888945235,0.4860659877772142,13.541666666666666,19200,2.53609561920166,0.39621740721838505,0.23668302123467466,25.378291798272826,0.0
93,3.048570156097412,80.88657087930267,232.6535574634808,1178.3390377285205,-38.26459765974988,5.208333333333333,7.196496624489425,0.1,0.010888338088989258,0.30806756019592285,0.046691693,0.013661133,74.72760052692905,-0.08265295041357608,0.40443038291975725,5.208333333333333,19200,2.5810303688049316,0.26895933130737226,0.17649161906501745,38.41035127987111,6.25
94,2.8663370609283447,81.94331370908436,223.88323772971296,1013.2320211152455,-36.82753812975702,8.333333333333334,8.300178325357816,0.1,0.010862350463867188,0.3163912296295166,0.045550115,0.012989627,75.44917184514458,-0.07757592820186794,0.4095074051314654,8.333333333333334,19200,2.6911356449127197,0.4124379878379686,0.2940478638322973,42.400307941579605,6.25
95,2.805769920349121,78.67212595572947,206.65109093986877,956.0852316929938,-35.095248693212746,7.291666666666667,9.063999374757165,0.1,0.011087417602539062,0.26758599281311035,0.051001262,0.011258179,75.77146725620307,-0.08142705554859499,0.3925312777847383,7.291666666666667,19200,2.696349859237671,0.32951713458930937,0.218737634083264,54.821664700222605,6.25
96,2.7841711044311523,61.4383508993596,206.3709276229787,1047.4810653785416,-35.05586382743759,10.416666666666666,8.004073749142472,0.1,0.010748624801635742,0.29984116554260254,0.04989561,0.011624013,74.33815562051872,-0.08238685197151835,0.30698814802848157,10.416666666666666,19200,2.669541597366333,0.29887022914892086,0.241968645708727,50.23558334103302,6.25
97,2.799750328063965,131.58680225362235,269.56050129848285,1023.6549615163977,-34.203884856595785,16.666666666666668,7.414349859815638,0.1,0.011112213134765625,0.29058289527893066,0.049899843,0.012831594,80.06302028382908,-0.07727462401846831,0.6575170426481984,16.666666666666668,19200,2.6254186630249023,0.20232331959211053,0.1657181310618029,58.37720045744592,6.25
98,2.8028371334075928,70.62494905235847,217.19244855923432,992.0155307025128,-35.58430130079132,10.416666666666666,6.248788813635493,0.1,0.010921239852905273,0.26259589195251465,0.049496632,0.014058772,79.11921316068202,-0.07873997764462551,0.3529266890220411,10.416666666666666,19200,2.6194591522216797,0.30929378186335676,0.21165404701767665,60.150981094797174,6.25
99,3.0209598541259766,54.558565535527805,175.47842309119488,695.7018463997306,-35.24444567056764,5.208333333333333,5.937446957380211,0.1,0.010437250137329102,0.28927183151245117,0.046717916,0.01709905,76.6631483981666,-0.08574988225556324,0.27258345107777,5.208333333333333,19200,2.599972724914551,0.31538021907542,0.23380144395609706,63.72056779372781,6.25
100,2.8331656455993652,105.91130196192798,283.4562284130705,1304.870057383636,-31.1560603576148,12.5,9.258713466584176,0.1,0.010829925537109375,0.2522697448730469,0.05221627,0.0116796605,79.58796375454273,-0.07501959897969374,0.5295637343536397,12.5,19200,2.5850625038146973,0.3188172076307866,0.24379533906958833,69.61861753967273,6.25
101,2.856985092163086,108.18781469871921,245.56189856955382,1039.4941919983619,-31.680746020857928,11.458333333333334,9.378102590751816,0.1,0.0120697021484375,0.30230069160461426,0.04689083,0.011651303,82.44794884896038,-0.07364629200139512,0.5403120413319382,11.458333333333334,19200,2.5964269638061523,0.26146128974542143,0.20385526330495998,63.97741281595837,6.25
102,2.9060966968536377,77.62058874763426,230.57851200516387,1188.2377760309746,-36.99872215410628,9.375,8.314281897253295,0.1,0.010971784591674805,0.25572657585144043,0.048772555,0.0097697675,81.96521283882777,-0.07356136952429548,0.3874802971423712,9.375,19200,2.592790126800537,0.3547684372748888,0.2333373132758148,58.92384588604545,6.25
103,2.8577489852905273,103.61102255717425,226.50058017593432,928.5036727843664,-28.835253232725954,10.416666666666666,9.12298285576317,0.1,0.011277914047241211,0.25444555282592773,0.05171198,0.01229733,84.12979381066242,-0.07069536840723868,0.5176379649260946,10.416666666666666,19200,2.632902145385742,0.2516735582914635,0.16416000275041406,52.58663205817903,6.25
104,3.002183675765991,86.0994314387175,206.8774738826737,953.6295540684887,-36.33164261967386,13.541666666666666,7.4604258081338495,0.1,0.010863542556762695,0.2812039852142334,0.048107732,0.012148068,84.32675757346793,-0.07720886633676384,0.43008280032990287,13.541666666666666,19200,2.6818957328796387,0.21535026683475214,0.15716432820476922,43.45569813185322,6.25
105,2.804260015487671,59.95487079150266,185.99015150128056,916.664593561749,-31.33980071489216,7.291666666666667,8.484801588869345,0.1,0.011276483535766602,0.30353569984436035,0.037621204,0.0095108915,81.88956889527141,-0.07668608233144585,0.2991472510018875,7.291666666666667,19200,2.7551565170288086,0.43067757687580055,0.2345486295051127,45.201176690723905,6.25
106,2.84796142578125,67.35920755948945,179.70404544100356,635.6462634902941,-33.52384863220357,7.291666666666667,7.5269192205145465,0.1,0.011267900466918945,0.29842543601989746,0.04803606,0.013229677,80.43653276169321,-0.07820386919548479,0.33658779747118195,7.291666666666667,19200,2.820718288421631,0.31557427926664916,0.2562721637507223,45.780865170473,6.25
107,2.7833945751190186,81.48950115747253,217.96393119361792,786.8753213374496,-37.37999922110383,11.458333333333334,6.987550781493257,0.1,0.010869264602661133,0.2570962905883789,0.050810326,0.012583381,80.54182960127115,-0.07900725544859015,0.4074510778847431,11.458333333333334,19200,2.8526670932769775,0.22098148676578036,0.15930269997366694,61.67153578865285,6.25
108,2.7724123001098633,90.11668406974393,213.67370138376927,898.4544181110731,-35.65308484800254,7.291666666666667,7.944957070292241,0.1,0.01055145263671875,0.2908782958984375,0.050558683,0.011265235,81.49931504811843,-0.07545828354509043,0.44995838312157616,7.291666666666667,19200,2.8863604068756104,0.2092397931713996,0.1600417412966663,53.65500556743201,0.0
109,2.8526828289031982,81.15600218869452,223.90905445537612,1236.3237537761918,-36.7022021676793,11.458333333333334,8.886760961251902,0.1,0.01067495346069336,0.2500729560852051,0.046341393,0.01117228,81.46498376217603,-0.07734266627499677,0.4057823337250033,11.458333333333334,19200,2.8878114223480225,0.25673305514639905,0.1972511087203342,53.10516551071615,0.0
110,2.740584373474121,80.54084689683934,220.2740083926617,1121.1300587653823,-36.083897207159495,11.458333333333334,10.34067740448458,0.1,0.01079702377319336,0.2646634578704834,0.05245022,0.01069967,81.37257007564236,-0.08082681991264178,0.40250651342069155,11.458333333333334,19200,2.9028947353363037,0.22117592553087911,0.15973802561434947,62.67331522781102,6.25
111,2.776423215866089,99.9633664375318,251.22944384937594,1200.3038526910125,-35.07511803916739,9.375,8.911113975348478,0.1,0.011141061782836914,0.2535061836242676,0.048165526,0.012554658,83.23164971183131,-0.07204368354143027,0.4998313164585697,9.375,19200,2.874162197113037,0.2585049670457767,0.2076579475140859,59.8559598013732,6.25
112,2.7953543663024902,83.72673220800014,219.0248386674533,1136.296688216311,-34.744824481898,11.458333333333334,8.584865925684195,0.1,0.010834932327270508,0.28063297271728516,0.04725301,0.012940249,83.28115796144819,-0.0784395532354578,0.4186437800978755,11.458333333333334,19200,2.82231068611145,0.2882764847304752,0.22458790074960638,64.2070544819262,6.25
113,2.8668644428253174,104.91820218070681,266.13849461541,1235.409374955415,-36.32351735916113,10.416666666666666,7.0583022490025025,0.1,0.01124262809753418,0.24599599838256836,0.05192322,0.013311052,85.44486238337406,-0.08247947977314514,0.5246038535601881,10.416666666666666,19200,2.815155029296875,0.18697750265388394,0.15314031745410908,63.92966307275584,6.25
114,2.8780837059020996,121.07595651134288,260.2527696336676,1179.3775139137583,-36.90965507822111,17.708333333333332,9.481094908823016,0.1,0.01116180419921875,0.2513148784637451,0.050759107,0.010614868,89.00797179617095,-0.07669983855065991,0.60517516144934,17.708333333333332,19200,2.7839295864105225,0.1896252917259708,0.17906150468763485,61.8310029072022,6.25
115,3.119868040084839,139.75542694667232,306.09186007914826,1236.720330562785,-30.738524194576932,17.708333333333332,9.540302459290336,0.1,0.011482954025268555,0.2797884941101074,0.04951531,0.011110282,94.0827173112211,-0.0747677474962576,0.6975239191704091,17.708333333333332,19200,2.8093132972717285,0.20793026244452922,0.11511115668933786,59.254664491159765,6.25
116,2.957582950592041,90.0917405385967,218.03808126259509,895.9857648914115,-36.63289211870826,14.583333333333334,6.332214763788806,0.1,0.012340784072875977,0.26323366165161133,0.049250092,0.016060883,93.68361963395866,-0.07994379757522325,0.4504728690914434,14.583333333333334,19200,2.753605604171753,0.24683545031918724,0.12997851882770184,59.53254529810247,6.25
117,2.9063682556152344,83.32799486313904,250.09879563127302,1224.2251385672168,-36.170099286282706,7.291666666666667,7.426599519161111,0.1,0.010977029800415039,0.27028465270996094,0.05054878,0.013819801,92.64805715687669,-0.08210130758868377,0.4166486924113162,7.291666666666667,19200,2.7624168395996094,0.26601906834203615,0.1963749373111212,60.707792508148565,6.25
118,2.8433334827423096,99.6812208391724,259.5140983830269,1260.9345653526116,-37.51255919139922,8.333333333333334,6.8968097778056,0.1,0.01116490364074707,0.2545931339263916,0.048349418,0.0151572935,93.35137352510625,-0.08095465581194089,0.49800367752139246,8.333333333333334,19200,2.797390937805176,0.22691853867259834,0.12523099788815156,51.47575592864109,0.0
119,2.832820177078247,138.3817914736231,315.10209790175713,1235.1948831287552,-35.506158664722086,13.541666666666666,7.093916219295383,0.1,0.010977506637573242,0.31385016441345215,0.05220438,0.013039387,97.85441531995794,-0.07599973190010888,0.6917086014332243,13.541666666666666,19200,2.8368983268737793,0.2060866977747805,0.14987696296707456,61.27745335704181,6.25
120,2.8968214988708496,109.71103542139923,274.9372794587268,1242.2603470128606,-30.845472269161206,9.375,9.210073141672348,0.1,0.011094808578491211,0.3012535572052002,0.0477516,0.011188325,99.04007733010208,-0.07685167011957565,0.547939996547091,9.375,19200,2.8304457664489746,0.2623966779516257,0.17505645256966537,64.3491818109646,6.25
121,2.863711357116699,121.40863271046744,272.7222236042858,1139.6934974203534,-35.76124088358093,9.375,6.923550017949398,0.1,0.011331319808959961,0.26285815238952637,0.052094243,0.014022624,101.27693286813862,-0.07857859943968502,0.6066297338936483,9.375,19200,2.8860456943511963,0.16066923751575868,0.10703169947011221,69.67049973998859,6.25
122,2.780867338180542,96.08291093814451,247.83496986671307,1226.1110639879746,-31.268985423803286,8.333333333333334,6.475143316858505,0.1,0.010831117630004883,0.2530333995819092,0.0464861,0.016718134,100.75753067513921,-0.07270754151829861,0.4804174584817014,8.333333333333334,19200,2.9086995124816895,0.254014317280078,0.20682972039760858,72.95350431727111,6.25
123,2.743333578109741,90.80554078982858,223.96104198139497,919.6718791104968,-39.45256695984333,8.333333333333334,6.624022724459818,0.1,0.01133108139038086,0.3068733215332031,0.048677925,0.0137084825,99.76233168660815,-0.07991286077929476,0.45404547255403854,8.333333333333334,19200,2.840129852294922,0.2504729033834767,0.1738915491636227,76.03110232433741,6.25
124,2.7893528938293457,138.9406360560932,286.073319150714,975.7040189662567,-34.813611113747996,17.708333333333332,6.886775787694794,0.1,0.010459661483764648,0.2456061840057373,0.046812613,0.015044155,103.68016212355666,-0.07300717786332336,0.69407615547001,17.708333333333332,19200,2.892404079437256,0.15256431625395933,0.12936040171290614,75.98509332659957,6.25
125,2.80295991897583,61.084341414652805,184.64825374580312,946.8559594068032,-38.15091714452019,6.25,8.170594590630838,0.1,0.010972976684570312,0.3093113899230957,0.05278234,0.010386866,99.42058005266627,-0.07957060302986858,0.3054293969701314,6.25,19200,2.86796498298645,0.4050837482203651,0.17959490506381473,71.42317277875733,6.25
126,2.9631240367889404,73.01573731937559,196.11102817906493,909.7485910157211,-35.68581638278948,10.416666666666666,6.743105584899377,0.1,0.01080775260925293,0.25255370140075684,0.051044617,0.014903511,96.78009577933719,-0.07845788742072883,0.365083779245938,10.416666666666666,19200,2.897881031036377,0.23479657115005503,0.14387257645578488,64.53760111574077,6.25
127,2.825648784637451,84.44028178743336,257.7618563861616,1190.0430234452488,-39.72959052828762,8.333333333333334,7.9144589746412946,0.1,0.0117034912109375,0.3100559711456299,0.045998752,0.012267225,95.5461143801468,-0.083829637302495,0.4213786960308384,8.333333333333334,19200,2.920030355453491,0.1857126794164809,0.1339225279157992,67.06743325354982,6.25
128,2.8031442165374756,59.96785841757117,198.32119052906185,1058.4947995958137,-34.463399800398385,6.25,7.331891442406278,0.1,0.011269330978393555,0.3038949966430664,0.053134713,0.012556708,91.98828878388925,-0.07993931228231112,0.2998523543843556,6.25,19200,2.8356475830078125,0.22260728725309364,0.1528655582065654,65.49183224725147,6.25
129,2.8448193073272705,114.67034012993226,257.04100269828626,1100.5632318099338,-35.96832145268417,9.375,7.061649551491477,0.1,0.010919332504272461,0.3117501735687256,0.05375367,0.01419352,94.25649391849355,-0.07664554844955875,0.5731461182171079,9.375,19200,2.8077638149261475,0.15094126898889615,0.13991761404366035,68.02220882895111,6.25
130,2.8906948566436768,44.93885941605945,162.73478347391702,706.8265428838965,-34.52177980213123,7.291666666666667,6.381742244481264,0.1,0.010888338088989258,0.24795079231262207,0.052110996,0.014897448,89.32473046825014,-0.0819606938976004,0.22449763943573295,7.291666666666667,19200,2.872288942337036,0.2583543029953408,0.15530191421310333,69.33953823646974,6.25
131,2.890197277069092,94.57824424843007,213.9776185297074,767.3388337957732,-35.91309417288365,7.291666666666667,7.4195683761989395,0.1,0.012027978897094727,0.302142858505249,0.050786756,0.012413539,89.85008184626814,-0.07565209014058265,0.47226457652608406,7.291666666666667,19200,2.8220725059509277,0.18922250450814243,0.1558806264714999,66.2472537075822,6.25
132,2.8814663887023926,70.9292502213549,186.36573850387975,743.0177102114291,-34.78537112778669,8.333333333333334,6.306867964236331,0.1,0.01096487045288086,0.30842018127441406,0.04960274,0.015034097,87.95799868377682,-0.08409802446134884,0.3544436422053178,8.333333333333334,19200,2.8343703746795654,0.22137035283143724,0.15320666922558673,63.66287928868673,6.25
133,2.8441591262817383,114.82795729570232,281.8507497860533,1236.5388981423628,-37.378754205005116,12.5,6.087555243174428,0.1,0.012703895568847656,0.2705395221710205,0.051376116,0.016490543,90.64499454496936,-0.0766969698614156,0.5728863634719179,12.5,19200,2.84279203414917,0.28684619946003104,0.16269165316366654,61.87184611088121,6.25
134,2.8183090686798096,45.733776438923805,172.3290518173547,857.9482620663565,-36.30679291316388,3.125,6.093467693994751,0.1,0.010829687118530273,0.2526531219482422,0.04965054,0.016978519,86.15387273436481,-0.08590339343379239,0.22867993989954086,3.125,19200,2.839240312576294,0.24036492556503844,0.14763163521381972,66.14248453449169,6.25
135,2.825756072998047,116.77173597050795,272.1040939981412,1122.8270776105815,-36.65000828419903,11.458333333333334,7.521110717940857,0.1,0.010794639587402344,0.3131551742553711,0.047972884,0.013378541,89.21565905797912,-0.07989134690148993,0.5834419864318433,11.458333333333334,19200,2.9068782329559326,0.1747187252071822,0.1579094329543569,69.76783699299467,6.25
136,2.8389432430267334,87.12091117583638,238.89817773670129,923.9097310920267,-35.925783591381524,9.375,8.569854069060659,0.1,0.011003494262695312,0.2598884105682373,0.04860687,0.012342903,89.00618426976486,-0.08439154877123488,0.4354001178954319,9.375,19200,2.891937732696533,0.2228895651873998,0.1362699233727756,75.87760553381558,6.25
137,3.0202503204345703,104.23829562587223,240.02379587122178,917.937436725595,-35.494180413020175,15.625,6.986615615308436,0.1,0.01102757453918457,0.30565786361694336,0.048210494,0.015209943,90.5293954053756,-0.07860189888797274,0.5207731011120272,15.625,19200,2.905087947845459,0.1277483056294372,0.10116168649854315,79.15851501802514,6.25
138,2.8492166996002197,113.71427327814622,270.4830442159823,1244.348179006375,-37.28139494540941,10.416666666666666,7.9981757683517785,0.1,0.011091232299804688,0.2621631622314453,0.049266696,0.014053355,92.84788319265266,-0.07830088386053309,0.5683657828061336,10.416666666666666,19200,2.97869610786438,0.15979930907574993,0.1114489573245408,77.90846773564664,6.25
139,2.8952014446258545,89.46386002103077,258.66766376898295,1268.7530768539846,-33.57566155844878,9.375,8.3601089518108,0.1,0.012124776840209961,0.2591245174407959,0.051876444,0.013978059,92.50948087549048,-0.07684325376027033,0.447115079573063,9.375,19200,2.932251453399658,0.15180186194088396,0.1192011581254963,75.92928925142458,6.25
140,2.8082666397094727,148.57755682522483,289.485441853555,1417.5496492608181,-37.72430997290956,14.583333333333334,5.750158754305329,0.1,0.011656999588012695,0.31939005851745605,0.05391871,0.015954802,98.11628847046391,-0.07106872139940341,0.7424729452672634,14.583333333333334,19200,2.943040370941162,0.15116615881971618,0.11675415817337484,74.65307112666127,6.25
141,2.7632739543914795,128.3026069889274,275.40903008414483,1397.6147242523466,-38.15725059694103,14.583333333333334,6.304563524176882,0.1,0.011729240417480469,0.24982690811157227,0.04770251,0.01508214,101.13492032231026,-0.07661112481150913,0.6408888751884909,14.583333333333334,19200,2.842017650604248,0.16022103078684455,0.10585806844442083,70.5689086356399,6.25
142,2.8124516010284424,120.59448710491131,250.80139848360326,1048.581758231476,-39.24533634312782,13.541666666666666,8.685494303705699,0.1,0.01072835922241211,0.24616098403930664,0.046347324,0.010255284,103.08087700057038,-0.08222315183974481,0.6027768481602551,13.541666666666666,19200,2.79433274269104,0.12058000943696692,0.09998776611539698,74.37175181774715,6.25
143,2.98787522315979,108.5280770800551,261.3221832712283,1131.43090679573,-35.23691844164641,12.5,7.527336508365548,0.1,0.011162757873535156,0.25385522842407227,0.050630283,0.0130575765,103.62559700851887,-0.08047743885925092,0.5426475611407492,12.5,19200,2.7929883003234863,0.13307248803607946,0.09008287049433371,78.12244966866757,6.25
144,2.804133892059326,91.44929422444999,232.9996019336058,1020.1017611503034,-33.8873635774444,9.375,7.46306121621825,0.1,0.010836601257324219,0.25406599044799805,0.049284223,0.012155683,102.40796673011198,-0.07378139810515226,0.45705193522818105,9.375,19200,2.7998557090759277,0.1383005649456509,0.11785017138607976,82.95296079627997,6.25
145,2.8505702018737793,79.19630151246862,213.22460019369652,1003.2255677873053,-35.501699892551066,11.458333333333334,6.584568941887024,0.1,0.011747121810913086,0.2517533302307129,0.05385721,0.014338967,100.08680020834765,-0.08693790085116358,0.39556209914883644,11.458333333333334,19200,2.808617353439331,0.13759625415858892,0.09528823118586412,86.29187529565449,6.25
146,2.9442806243896484,164.41887888362245,334.60991050803756,1312.934511712942,-39.706803996242435,18.75,7.873559279315068,0.1,0.011148691177368164,0.24592256546020508,0.04716399,0.012941248,106.52000807587514,-0.07518637386318122,0.8221052928034854,18.75,19200,2.7725436687469482,0.1465889635978279,0.11819274867346072,85.80445285952378,6.25
147,2.9012255668640137,165.6176855586733,328.72310570032556,1349.2763981494381,-36.6945752992472,16.666666666666668,4.8658482433121275,0.1,0.010571002960205078,0.3036220073699951,0.0466938,0.021854302,112.42977582415496,-0.0758696202447334,0.8272553797552668,16.666666666666668,19200,2.752551317214966,0.13526193793730382,0.0971976352962999,81.299707143182,6.25
148,3.1066792011260986,168.28286722744855,319.02348493989984,1295.8150336360993,-35.09800595802613,17.708333333333332,7.2632429445764295,0.1,0.014766931533813477,0.2781205177307129,0.05436095,0.012822283,118.01508496448432,-0.0694193595660228,0.8409973071006437,17.708333333333332,19200,2.7975783348083496,0.16306428888540817,0.13077525057833328,80.30853401149422,6.25
149,2.864403486251831,125.42605549112731,295.72436108908175,1236.4989172323383,-36.08893586999802,13.541666666666666,6.572300812542379,0.1,0.012761116027832031,0.27066659927368164,0.049761027,0.014609665,118.75618201714862,-0.08181971739979381,0.6265136159335395,13.541666666666666,19200,2.860410213470459,0.1486518998384606,0.0901070999585766,80.98756795355017,6.25
150,2.843179702758789,128.2155597794049,314.7602412262947,1450.2103331190685,-37.748200121743295,11.458333333333334,5.952356817240623,0.1,0.011332988739013672,0.2580862045288086,0.045643512,0.0172397,119.70211979337425,-0.08057643226185732,0.640881901071476,11.458333333333334,19200,2.8949103355407715,0.15909879605051735,0.09901908859583655,74.92085432001534,6.25
151,2.85791015625,91.58315147087546,244.86401576066098,1080.6296299009898,-33.10070306221299,12.5,7.839637717521447,0.1,0.011412382125854492,0.2590305805206299,0.047716912,0.011535759,116.89022296112438,-0.07727837806366189,0.4579299552696714,12.5,19200,2.9042413234710693,0.17046741883365388,0.10391052984206742,72.38099881133977,6.25
152,2.9086129665374756,122.80517343355295,267.0104372458787,1247.9561101952938,-37.03509792514554,17.708333333333332,6.737711982423534,0.1,0.011335611343383789,0.25425004959106445,0.051632766,0.016352046,117.48171800836724,-0.07888103637043141,0.613827296962902,17.708333333333332,19200,2.8348708152770996,0.1330462106936777,0.12221327174644254,79.66847262972148,6.25
153,2.9693076610565186,131.83094924715587,284.0591851455001,1279.0702805753326,-36.55660175378442,12.5,6.6758201775127555,0.1,0.01127314567565918,0.2586665153503418,0.052695546,0.01389065,118.91664113224611,-0.07771896565430904,0.6587393676790243,12.5,19200,2.8563811779022217,0.18487140785521156,0.1206161133152157,77.35070900981049,6.25
154,2.786938428878784,117.31335373854995,259.97182332429344,1288.6109688947552,-37.3615112570191,11.458333333333334,6.19220697357402,0.1,0.010959148406982422,0.25032854080200195,0.048245043,0.015393061,118.75631239287651,-0.0784253295605357,0.5863663371061308,11.458333333333334,19200,2.795574903488159,0.15810900290489022,0.12351890057609272,76.36238497808606,6.25
155,2.777988910675049,115.6267160444188,292.9127468244639,1216.4283464695918,-33.60072743345107,12.5,6.904995559023135,0.1,0.011114358901977539,0.2523078918457031,0.05332109,0.013274249,118.44335275803076,-0.08331551348704697,0.577934486512953,12.5,19200,2.8589463233947754,0.135710924658802,0.0964910417194851,78.12979780355019,6.25
156,2.769440174102783,104.17672634409082,263.8900716099895,1197.187967544399,-37.0248912867133,14.583333333333334,8.777763301933055,0.1,0.010903120040893555,0.24647808074951172,0.054975986,0.011156519,117.01669011663677,-0.07724213801851908,0.5202578619814809,14.583333333333334,19200,2.8021304607391357,0.1380300704796797,0.09443255552005791,79.55781891512267,6.25
157,2.8351314067840576,122.81167809535378,318.2639062890242,1295.0234156814488,-35.85335419941947,9.375,6.747021008124193,0.1,0.010500431060791016,0.24488091468811035,0.046565216,0.014679062,117.59618891450847,-0.07635148107051708,0.6140651855961495,9.375,19200,2.8240883350372314,0.17144401184808922,0.13227445384466946,78.61256569332996,6.25
158,2.9432270526885986,131.4710301180936,271.0997030893597,1197.9190530590304,-33.99207138816799,9.375,6.869833414029675,0.1,0.010694026947021484,0.24805736541748047,0.046006594,0.015939653,118.983673034867,-0.07951536369096603,0.6567346363090341,9.375,19200,2.8443033695220947,0.22079636476324277,0.1478852229674387,77.88287955517626,6.25
159,2.881592273712158,93.95442349574364,254.90298904089394,1291.8835754304494,-37.91758380988391,10.416666666666666,7.2263110312422825,0.1,0.010679006576538086,0.24274349212646484,0.053108938,0.014582479,116.48074808095467,-0.08375720917044432,0.46957612416288913,10.416666666666666,19200,2.817780017852783,0.17636577262003034,0.1362968614205578,83.90752227986452,6.25
160,2.887803316116333,130.52999727222553,309.3771579202604,1299.568328929537,-39.70880577739397,14.583333333333334,7.514110966171903,0.1,0.011255025863647461,0.2588498592376709,0.0489521,0.013930378,117.88567300008177,-0.08213445825113011,0.6526572084155365,14.583333333333334,19200,2.772505044937134,0.14573074831331853,0.1124392494431282,82.63112596345367,6.25
161,2.859462261199951,100.55477723791212,251.51519806955068,1009.3594931310352,-38.41535275441304,10.416666666666666,8.61879439169191,0.1,0.010761737823486328,0.2543952465057373,0.048151676,0.013440443,116.15258342386481,-0.07805880209991779,0.5021495312334153,10.416666666666666,19200,2.7428536415100098,0.1389404929965479,0.10635325138327803,82.74296949922385,6.25
162,2.875650644302368,112.82774189910116,283.6615722989194,1112.1864310127723,-38.498892904282286,12.5,6.0440708629741575,0.1,0.011477470397949219,0.2530784606933594,0.05017092,0.015682578,115.82009927138844,-0.07689844148949286,0.5635182251771739,12.5,19200,2.786135196685791,0.18939764286005112,0.12334151106859186,83.05841414585768,6.25
163,2.8465211391448975,141.88989086093048,312.8382624990573,1339.2909711061511,-33.40685337347739,13.541666666666666,8.35639099967885,0.1,0.01198887825012207,0.26188135147094727,0.04769558,0.012921223,118.42707843034265,-0.07971996358544879,0.7090300364145513,13.541666666666666,19200,2.84342098236084,0.14079133144739148,0.11151932384627218,84.60052819745935,6.25
164,3.0102992057800293,121.19364938225253,260.4399818419704,1160.2523865780222,-37.153097478290356,11.458333333333334,7.656396081426089,0.1,0.011155366897583008,0.25352978706359863,0.046592128,0.014041111,118.70373552553363,-0.07257601619693582,0.6055489838030642,11.458333333333334,19200,2.842819929122925,0.15955476852051925,0.13540533346503789,84.04507808422726,6.25
165,2.7758634090423584,181.3037842270562,316.5167305853631,1148.441458353394,-35.90126323959598,19.791666666666668,6.905389973582332,0.1,0.010771512985229492,0.24828600883483887,0.045755833,0.0135136,124.96374039568589,-0.07305798080668595,0.9063170191933141,19.791666666666668,19200,2.8632469177246094,0.10312143882611731,0.07977946964362319,79.23186034536216,6.25
166,2.8108065128326416,122.6577016727657,269.8065151076588,1053.2183699146374,-31.44436999019936,14.583333333333334,8.662669070021884,0.1,0.010951995849609375,0.2527139186859131,0.052724034,0.010547125,124.73313652339387,-0.07691390296954799,0.6132944303637854,14.583333333333334,19200,2.802155017852783,0.19855724795120275,0.10352213665531144,76.17354341760753,6.25
167,2.795466899871826,100.30092817385741,248.03442821133072,930.5009720076181,-38.6318638676149,12.5,7.53533546848639,0.1,0.011040449142456055,0.30176591873168945,0.049962748,0.012134991,122.28991568844023,-0.0818212181919273,0.501512115141406,12.5,19200,2.7856833934783936,0.13856635897561587,0.09948847883543968,77.9498716050411,6.25
168,2.8068394660949707,99.21464709931458,275.0890296822159,1380.850078058044,-37.10655004321884,10.416666666666666,8.13204828030823,0.1,0.01097249984741211,0.3003406524658203,0.04739743,0.012691188,119.98238882952766,-0.08016933311953905,0.49587233354712756,10.416666666666666,19200,2.804811716079712,0.17185458204249898,0.16406561389776622,80.50733638772846,6.25
169,2.8335890769958496,77.67397056755402,226.35741316462443,1111.0134308403647,-37.96167047686305,12.5,6.466588028720265,0.1,0.010966062545776367,0.29546499252319336,0.048336416,0.015075313,115.7515470033303,-0.07995876157456674,0.3883745717587666,12.5,19200,2.7359368801116943,0.27665276591556726,0.1118374625881437,85.2361725551846,6.25
170,2.9856019020080566,81.95298997836484,238.36463418828436,1064.0955640128263,-38.406271446341385,7.291666666666667,10.677984068845719,0.1,0.010930061340332031,0.2871124744415283,0.053229008,0.009174389,112.37169130083376,-0.08105175135838007,0.40978158197495346,7.291666666666667,19200,2.716545343399048,0.13966579684300548,0.10532857200988843,88.27580219330764,6.25
171,2.8978540897369385,168.19012625252677,340.7007570553273,1336.175329318419,-38.06246487527816,14.583333333333334,7.335433244637489,0.1,0.010466575622558594,0.30138731002807617,0.052674875,0.0142726535,117.95353479600307,-0.07509483740418023,0.8401134959291531,14.583333333333334,19200,2.7688472270965576,0.12406642667120807,0.09788599940470485,89.26918894787583,6.25
172,2.880868911743164,88.45537583166772,225.54254248052837,1133.193745331419,-39.55138115392143,10.416666666666666,7.562712671086063,0.1,0.010972023010253906,0.2536590099334717,0.0517028,0.012892794,115.00371889956953,-0.08021373686848142,0.44207792979818517,10.416666666666666,19200,2.8359947204589844,0.21139527013397533,0.10767179847117679,78.90187573021588,6.25
173,2.878054141998291,165.8153518954258,368.61947070697113,1360.4621795765397,-36.68545173824012,15.625,6.011330158608193,0.1,0.011459589004516602,0.31384944915771484,0.051707633,0.014103704,120.08488219915516,-0.07905009064938358,0.8286582426839497,15.625,19200,2.79970383644104,0.15145444958374174,0.12091027290217934,67.12042277239956,6.25
174,2.8624420166015625,115.65304103512709,279.9276043610156,1341.1139952423948,-37.97619751000599,11.458333333333334,7.516107382536754,0.1,0.013371944427490234,0.2710742950439453,0.047719225,0.013588455,119.64169808275236,-0.07818647460644432,0.5780635253935555,11.458333333333334,19200,2.7906265258789062,0.1681246272544139,0.10678200587301233,57.37271097987064,0.0
175,3.10139799118042,104.14250015153466,249.1098924252128,1123.2873396540929,-35.95637628698008,13.541666666666666,6.965457731988239,0.1,0.011671304702758789,0.256253719329834,0.05249154,0.01392801,118.0917782896306,-0.0805272518445221,0.5207227481554778,13.541666666666666,19200,2.7287473678588867,0.14194935568503902,0.10007523559500758,57.62617656277533,0.0
176,2.8685293197631836,89.22869089660806,264.7602667318418,1199.2857997733945,-36.89287547539641,8.333333333333334,7.18008336554102,0.1,0.011165380477905273,0.30701732635498047,0.05459153,0.013876834,115.20546955032835,-0.0767635960118725,0.4459447373214607,8.333333333333334,19200,2.8193180561065674,0.19334511660726686,0.15070484345014717,52.07325849927858,0.0
177,2.8795738220214844,91.24620057505201,245.0775390063846,1282.9065674642986,-36.8611562266098,7.291666666666667,10.225568689660694,0.1,0.010919809341430664,0.3073704242706299,0.052672133,0.009640021,112.80954265280072,-0.07688990251428579,0.45623509748571417,7.291666666666667,19200,2.821512222290039,0.21707283815820386,0.1658960458669371,57.87887694227097,0.0
178,2.8164761066436768,47.827270073976706,176.68113743753776,936.3641190589254,-36.331700474051786,4.166666666666667,9.139170928122624,0.1,0.010988950729370117,0.2530028820037842,0.04788591,0.010829239,106.31131539491831,-0.08294667159355922,0.23892832840644082,4.166666666666667,19200,2.818636894226074,0.2907999137769082,0.18711999062174184,59.64091623325871,0.0
179,2.7999229431152344,114.68622837653423,272.0555306800925,1068.1714974035267,-37.30143782948521,9.375,8.061487640622067,0.1,0.011305809020996094,0.31067848205566406,0.049179316,0.012781116,107.1488066930799,-0.08072938789850449,0.5732289454348288,9.375,19200,2.8240880966186523,0.16640352055173677,0.10436852416950107,60.37783034676656,0.0
180,2.8120648860931396,68.18238945563638,205.45161958621705,887.4742959387542,-38.686723622584665,8.333333333333334,8.586109516468772,0.1,0.010895967483520508,0.2696356773376465,0.051310644,0.0106437,103.25216496933555,-0.07637759864147983,0.3409140680251868,8.333333333333334,19200,2.861828327178955,0.2707369497562528,0.19169415591356267,66.8963749037357,6.25
181,3.0283501148223877,108.51499818503844,237.14991683176268,1095.9826881111394,-39.62327498051321,10.416666666666666,6.757051734815043,0.1,0.010464191436767578,0.249314546585083,0.050987028,0.013782361,103.77844829090584,-0.07825298018563283,0.5423720198143672,10.416666666666666,19200,2.8644235134124756,0.1910724862705267,0.12332087943473484,60.285566797513596,0.0
182,2.7742786407470703,67.81916047899229,197.5295344291524,907.4070409750012,-37.366879061448195,6.25,6.473120269482523,0.1,0.011212348937988281,0.2945725917816162,0.0515888,0.01753622,100.1825195097145,-0.07923443321899387,0.33868223344767284,6.25,19200,2.8830764293670654,0.2780570677207334,0.1342519049755333,72.5607757349132,6.25
183,2.7394888401031494,95.67382107072171,256.2600163334153,1381.5878214496056,-37.55103276795868,10.416666666666666,8.04690262359848,0.1,0.010675668716430664,0.2482466697692871,0.05058075,0.013551618,99.73164966581523,-0.08495567001474309,0.4779609966519236,10.416666666666666,19200,2.9232892990112305,0.20491064298203043,0.10686588732463878,63.512337556155934,6.25
184,2.766402006149292,98.56220276854725,240.64652603925416,1030.8672557040682,-39.96878738413473,10.416666666666666,8.353957425129384,0.1,0.010782003402709961,0.3029792308807373,0.049759876,0.011252625,99.61470497608843,-0.07551978388778531,0.49239688277888133,10.416666666666666,19200,2.857795238494873,0.20743950318167118,0.11513027878247446,71.03933869667203,6.25
185,2.8478097915649414,94.18184039871237,210.86168236140665,713.0915217369428,-37.728527751336436,11.458333333333334,6.663183635747151,0.1,0.011066913604736328,0.2489473819732666,0.053016268,0.013340591,99.07141851835082,-0.0790822857835435,0.4709177142164565,11.458333333333334,19200,2.8511569499969482,0.16471431311335946,0.11162215168693897,71.43168066547115,0.0
186,2.8126139640808105,121.48102506175691,262.18972927527057,1087.0314280327036,-31.648203670358942,15.625,9.156980737721522,0.1,0.011019468307495117,0.29207277297973633,0.0489704,0.009601038,101.31237917269144,-0.07779350600176035,0.6074148273315729,15.625,19200,2.7842066287994385,0.17143584204346785,0.10844211602484537,82.95459221349343,6.25
187,2.838496208190918,114.94078377411346,260.3869817658814,1195.5285855161321,-34.802906425264275,14.583333333333334,5.610780822684383,0.1,0.01075291633605957,0.24549555778503418,0.049324796,0.01653347,102.67521963283363,-0.07592874828013563,0.5742795850531978,14.583333333333334,19200,2.7389016151428223,0.15237690996825462,0.09346737708177376,84.71357117667648,6.25
188,2.861339807510376,84.55229754674589,232.60328487038254,1115.5594928248377,-39.315013274140995,7.291666666666667,9.592144072082917,0.1,0.010648488998413086,0.30719566345214844,0.052950665,0.010014411,100.86292742422486,-0.08243759265657324,0.42277074067676,7.291666666666667,19200,2.8108363151550293,0.17061198978122344,0.13819231142268104,80.4206792383795,6.25
189,2.908731460571289,109.125150165886,281.83465696581123,1169.0018797246717,-34.17160453864557,12.5,10.074639144042452,0.1,0.01269841194152832,0.3207376003265381,0.051566616,0.0108036,101.68914969839098,-0.08103789530567336,0.5454204380276598,12.5,19200,2.789898157119751,0.1741327203231076,0.07045932922377376,76.88391813794983,6.25
190,2.8922863006591797,94.16908530308608,254.39758203019514,1164.5204440261855,-36.20303580102688,11.458333333333334,6.8519003329856405,0.1,0.011181831359863281,0.28814172744750977,0.04874925,0.012441481,100.93714325886049,-0.08456037210842136,0.4706479612249119,11.458333333333334,19200,2.803926706314087,0.1656362178072357,0.09718608463026107,76.11213499822438,6.25
191,2.8803939819335938,72.51765626138904,234.58036982164924,1470.622981233336,-38.531506061950225,6.25,7.525910420345909,0.1,0.010907649993896484,0.2534174919128418,0.049206726,0.013842026,98.09519455911335,-0.0848985027869588,0.36218483054637457,6.25,19200,2.786003828048706,0.21755858974006992,0.1394634012309536,74.58693731025109,6.25
192,3.0179572105407715,120.81524249473539,302.90411347861647,1176.4841375298788,-37.86859159560756,10.416666666666666,7.220632106859988,0.1,0.010767936706542969,0.31576061248779297,0.050420567,0.013929692,100.36719935267556,-0.07675697807040127,0.603451355262932,10.416666666666666,19200,2.835334300994873,0.13223761695583988,0.10425504864726105,70.80185934397082,6.25
193,2.8357925415039062,103.40624782176864,271.728731791485,1236.231455871002,-38.04938364488646,10.416666666666666,8.880552696523464,0.1,0.011827230453491211,0.3266749382019043,0.049014743,0.011043596,100.67110419958486,-0.08399442348853677,0.5166305765114633,10.416666666666666,19200,2.934328079223633,0.10697619538993171,0.0959867888952543,72.85276127957707,6.25
194,2.8500874042510986,106.25952964610633,245.58974206414265,955.6939253139972,-38.69232183194417,12.5,6.753066129713745,0.1,0.011715888977050781,0.3244612216949463,0.045599062,0.015463598,101.22994674423701,-0.08245105003334416,0.5312989499666559,12.5,19200,2.944117546081543,0.21374384264232765,0.12225033624036745,74.08356828158804,6.25
195,2.828493595123291,157.62026372219785,283.36197879222925,1123.496016836209,-33.90755699070751,16.666666666666668,8.219104488040573,0.1,0.012497425079345703,0.2650907039642334,0.048615903,0.010998879,106.8689784420331,-0.06710897932917444,0.7878910206708257,16.666666666666668,19200,2.9628796577453613,0.13463486489666676,0.0943746726221467,63.34306637924274,6.25
196,2.9211552143096924,89.22600358824802,206.14480994388808,796.6187555512504,-37.14002291586286,6.25,7.749101989508123,0.1,0.01098775863647461,0.30989980697631836,0.049143504,0.015541015,105.10468095665459,-0.07866045524148198,0.4459228780918513,6.25,19200,3.0162267684936523,0.20435962613975459,0.14932008318334444,79.62386807732412,6.25
197,2.797022581100464,141.44532017993825,326.65491842762356,1308.649059378482,-39.52568565672009,9.375,7.374627993537524,0.1,0.010666847229003906,0.3033430576324463,0.051851414,0.013807429,108.73874487898296,-0.07985162678426079,0.7072317065490724,9.375,19200,2.9612956047058105,0.18565348024008227,0.0964833725392271,79.8756761813859,6.25
198,2.962315559387207,112.80981891164555,252.58511522839268,1240.5511913008052,-36.04999109672093,9.375,7.43228124171662,0.1,0.010750770568847656,0.2481551170349121,0.050189674,0.014845131,109.14585228224922,-0.08260034494853091,0.5638579883848024,9.375,19200,2.961268186569214,0.12488718492397682,0.0931271515380452,76.79094947794161,6.25
199,2.80942702293396,112.09029703407822,237.85223019414326,1034.9434542470658,-37.52771828585955,11.458333333333334,7.249635588555136,0.1,0.01356649398803711,0.31661248207092285,0.049473077,0.016813267,109.44029675743212,-0.07683863222306966,0.5602447011102637,11.458333333333334,19200,2.8888041973114014,0.1766497332944616,0.15535054587086888,73.5415562328005,6.25
200,2.8186240196228027,98.82358982828657,261.761776365704,918.0948589845783,-39.445857945749474,11.458333333333334,6.889909964077645,0.1,0.011287450790405273,0.2909657955169678,0.04980754,0.016962534,108.37862606451758,-0.08316421135520832,0.4939191219781251,11.458333333333334,19200,2.925949811935425,0.19370571236391512,0.09659822726398483,59.52714109711091,6.25
201,2.792569398880005,100.4390638389063,284.13111773275403,1176.8140036664768,-38.680776146076425,9.375,7.3503039462980535,0.1,0.010753631591796875,0.304903507232666,0.051731337,0.01145578,107.58466984195645,-0.08446746069954651,0.5019908726337868,9.375,19200,2.864757537841797,0.10718170158245749,0.07397878134155207,62.26358458132412,6.25
202,2.8437798023223877,96.16860346634274,275.651611581916,1258.9074237884433,-37.51679041682813,11.458333333333334,6.425425680049233,0.1,0.010847330093383789,0.2519035339355469,0.049080804,0.015265463,106.44306320439509,-0.08580408185897799,0.4808625848076887,11.458333333333334,19200,2.812407970428467,0.16286244972232924,0.09174452889245018,64.77780505055514,6.25
203,2.8922388553619385,169.63515418935958,365.5636304010625,1291.808199838406,-37.48699519260491,18.75,10.154874003701979,0.1,0.010545730590820312,0.28508687019348145,0.05061083,0.010619208,112.76227230289153,-0.07638726663898192,0.8481960666943515,18.75,19200,2.782151222229004,0.11995751187031627,0.08576435124302263,73.12393976102582,6.25
204,2.9079713821411133,104.17477240887543,260.6640837510945,1035.0942788061807,-37.07087673161468,10.416666666666666,9.197139705255534,0.1,0.010685443878173828,0.3033280372619629,0.04894292,0.010153039,111.90352231348993,-0.08182071728187605,0.5206792827181239,10.416666666666666,19200,2.8242664337158203,0.13657472326106018,0.11618584603047313,71.35025075403274,6.25
205,2.8636953830718994,93.0722764251841,259.4849995796438,1226.879955482997,-37.927504748409504,10.416666666666666,6.567176566714529,0.1,0.011799097061157227,0.3017127513885498,0.048008513,0.014955638,110.02039772465935,-0.08733605320748354,0.46495561345918307,10.416666666666666,19200,2.7891695499420166,0.15095768352333436,0.10001297782069002,73.58475330554606,6.25
206,2.8816745281219482,95.20762956744939,258.57441189682606,1269.4667656909617,-38.05212245560424,8.333333333333334,7.283326548515457,0.1,0.01105356216430664,0.31488037109375,0.047002826,0.014779238,108.53912090893834,-0.08290707864929465,0.4754262546840387,8.333333333333334,19200,2.7571191787719727,0.18171135385416368,0.12160209888975546,71.03683154884573,6.25
207,2.8261005878448486,129.21481541046617,277.5754610553636,1263.9886767550674,-36.51033290304046,12.5,9.009739618447316,0.1,0.011575460433959961,0.2591402530670166,0.051077645,0.010536198,110.60669035909113,-0.07703747476210783,0.6456708585712255,12.5,19200,2.850344657897949,0.11863956025108797,0.0731223207616331,70.0311181042628,6.25
208,3.0419814586639404,124.45245873216544,288.6979352094324,1176.241016693537,-34.45398146709206,11.458333333333334,7.951215209588275,0.1,0.011376142501831055,0.31748509407043457,0.0496239,0.013636243,111.99126719639857,-0.07628115556878479,0.6220521777645486,11.458333333333334,19200,2.86067533493042,0.1269933579493544,0.08940238382225701,66.95080795902574,6.25
209,2.8307723999023438,135.1026168971623,300.0299414484808,1282.9746132090038,-38.10875574432467,15.625,6.57702534399663,0.1,0.011093854904174805,0.27014613151550293,0.05046763,0.014565096,114.30240216647495,-0.07968900307137651,0.6751026635952903,15.625,19200,2.806159019470215,0.14234044799545129,0.10510404802588623,70.71879609466419,6.25
210,2.853619337081909,80.64990701615801,237.39221220560043,1008.1836869271635,-36.74968167128597,9.375,8.576403178029356,0.1,0.011073827743530273,0.25739097595214844,0.050529797,0.011827945,110.93715265144326,-0.0829822717328159,0.4032677282671841,9.375,19200,2.8423514366149902,0.14812438713601778,0.10565069768173548,76.06583694708583,6.25
211,2.828202724456787,101.7510793245055,244.70643649569368,1087.0670686521707,-34.283367501485806,13.541666666666666,8.485493936685144,0.1,0.010717630386352539,0.316540002822876,0.04987888,0.013382123,110.01854531874949,-0.0764517346025172,0.5085482653974828,13.541666666666666,19200,2.880232572555542,0.24991506862085777,0.16246173692604488,78.62970517212334,6.25
212,2.7987780570983887,66.43983448489026,210.84380553927687,950.2385623610917,-39.312152531897354,6.25,6.84228156002842,0.1,0.012467384338378906,0.2982325553894043,0.050758112,0.015993021,105.66067423536357,-0.08675017858785676,0.3319998214121433,6.25,19200,2.8876919746398926,0.20928486363567145,0.087318426258678,79.92267998977219,6.25
213,2.7163608074188232,124.49774742105855,281.9996810127385,1276.2835815946787,-35.262986289739416,11.458333333333334,7.733976164623469,0.1,0.010745525360107422,0.25041890144348145,0.05356536,0.01397407,107.54438155393308,-0.07105160870231582,0.6220733912976842,11.458333333333334,19200,2.90678334236145,0.13699699570209992,0.13588080633737304,78.31795243800089,6.25
214,2.973036527633667,158.8978276943582,346.8100138802733,1299.7240329432636,-37.31535819651897,15.625,7.790113694535998,0.1,0.01069188117980957,0.29463648796081543,0.05028967,0.011629971,112.6797261679756,-0.08300591659115342,0.7940774167421799,15.625,19200,2.8644847869873047,0.12478239921315484,0.061662520518449435,74.29855095668691,6.25
215,2.793818712234497,96.72856413231416,256.6698456029452,1174.7517390683022,-36.07729172991942,11.458333333333334,8.543238428898015,0.1,0.010666608810424805,0.30583667755126953,0.048727106,0.011878326,111.08460996440945,-0.07990031381517522,0.48280801951815827,11.458333333333334,19200,2.843965768814087,0.2625926425436311,0.10224257868214448,74.50863718948223,6.25
216,2.774052619934082,78.60178383412854,239.6728500378198,1097.2122798645394,-35.36972644910251,7.291666666666667,7.817304153751396,0.1,0.01072835922241211,0.2606818675994873,0.048269343,0.0129317045,107.83632735138137,-0.08260874717985763,0.3930162528201424,7.291666666666667,19200,2.8276631832122803,0.12138491810197756,0.07598612423372117,69.62771341521726,6.25
217,2.8547561168670654,127.77966771624348,302.2979341363195,1262.5518960736217,-37.53836533417414,11.458333333333334,6.574463635280846,0.1,0.012111425399780273,0.25469350814819336,0.051107325,0.014621201,109.83066138786758,-0.07713500086022816,0.6384899991397718,11.458333333333334,19200,2.831235408782959,0.18395399040896424,0.13632690283455445,70.41983196896548,6.25
218,2.7836410999298096,188.69386865575402,333.2486414027093,1163.8016179082551,-36.571476170698546,17.708333333333332,9.723900755238557,0.1,0.011475086212158203,0.2998940944671631,0.04913954,0.010314603,117.71698211465623,-0.07506964854016655,0.9434720181265002,17.708333333333332,19200,2.7873940467834473,0.11843351509791115,0.07634400135336461,73.53007135436711,6.25
219,2.914236068725586,92.0649875750082,241.2375850596695,1050.0525864989113,-37.99473191192621,8.333333333333334,8.328662061228858,0.1,0.01080179214477539,0.3044700622558594,0.049937923,0.011810375,115.15178266069144,-0.0788308973666385,0.4599191026333614,8.333333333333334,19200,2.8059213161468506,0.1751626258792949,0.1207833743902999,79.55449440700654,6.25
220,2.8373444080352783,47.16978543749875,178.0946133880436,898.1723450010325,-36.07260100215208,5.208333333333333,6.138720153660383,0.1,0.011057376861572266,0.2830212116241455,0.046833094,0.017685894,108.35358293837217,-0.08331229988472975,0.23564603344860358,5.208333333333333,19200,2.7992653846740723,0.30456873929306993,0.15145094541791515,84.32921210175734,6.25
221,2.915259838104248,89.05830037277497,250.38877708302724,997.7812602106949,-37.91386117413955,9.375,7.9844839151944855,0.1,0.010834932327270508,0.2998840808868408,0.052521095,0.013450132,106.42405468181245,-0.07969712303136058,0.4453028769686394,9.375,19200,2.788109540939331,0.1884636310297052,0.11256883857215705,79.84200247410718,6.25
222,2.8974411487579346,86.61118088575994,220.50685691918892,1044.715169945916,-38.018019595783414,8.333333333333334,8.055088616212085,0.1,0.011164665222167969,0.29137134552001953,0.053348623,0.011293133,104.4427673022072,-0.07818057512000447,0.4330694248799955,8.333333333333334,19200,2.787238836288452,0.2626310753570202,0.14246890329599599,85.12971307047587,6.25
223,2.8616275787353516,139.2703618359756,291.57868429393926,1345.600248087475,-34.03733452675832,12.5,8.151622419846666,0.1,0.010793447494506836,0.31301188468933105,0.053092036,0.009513026,107.92552675558404,-0.07426452869733684,0.6957354713026632,12.5,19200,2.7963571548461914,0.18949188431307307,0.11017987274206828,80.59080742306074,6.25
224,2.883655548095703,110.17182274979598,276.2745507182186,1086.489083092383,-37.456249424592365,10.416666666666666,8.19636444538721,0.1,0.01103353500366211,0.25878286361694336,0.04947219,0.011607826,108.15015635500525,-0.0783065118869028,0.550235154779764,10.416666666666666,19200,2.844546318054199,0.20001764262441457,0.1283890976536036,78.69764158018435,6.25
225,3.005152463912964,162.18565781766668,305.5540765131459,1190.4469684883284,-37.149380515714185,13.541666666666666,7.584398334107954,0.1,0.010767459869384766,0.3022646903991699,0.05068952,0.013082754,113.55370650127139,-0.07345061528451283,0.8096743847154871,13.541666666666666,19200,2.903546094894409,0.15149262932737131,0.12002666211040375,85.9142820074593,6.25
226,2.837557792663574,101.34925345519572,262.4190768108409,1309.5806632508436,-35.9088916618146,8.333333333333334,8.275344138881293,0.1,0.011475086212158203,0.31947898864746094,0.046180047,0.012709451,112.33326119666383,-0.07596549231564566,0.5057011743510209,8.333333333333334,19200,2.919163942337036,0.17050222431259598,0.1335347254468382,62.21563193020864,0.0
227,2.8002989292144775,68.81348339742071,233.07833723896857,1046.84975302773,-38.651797419740944,6.25,6.757053530590587,0.1,0.010988235473632812,0.2852656841278076,0.04464281,0.021472778,107.98128341673952,-0.08738123705588034,0.34366042961078636,6.25,19200,2.8449556827545166,0.1480229270648471,0.08682323166997635,75.01192297363772,6.25
228,2.8503427505493164,97.42696107460775,257.6327921254154,1221.4066448216938,-37.5972695351173,10.416666666666666,10.541078336670237,0.1,0.011150360107421875,0.31545162200927734,0.05396417,0.0105716,106.92585118252634,-0.08118536616914178,0.48714796716419156,10.416666666666666,19200,2.8906383514404297,0.21883713008057323,0.12614609706316235,82.94316903444299,6.25
229,2.8183228969573975,108.37913957493988,270.8197426995002,1090.8905306218269,-35.03605939411082,9.375,8.30131555855197,0.1,0.011904716491699219,0.3052980899810791,0.049718976,0.010789476,107.0711800217677,-0.07705216953231404,0.5419061638010193,9.375,19200,2.9281864166259766,0.12920680908519938,0.094448916793242,82.46380706034688,6.25
230,3.077570915222168,125.65107001072197,281.24102153555725,1007.7478263115638,-34.48015255955177,14.583333333333334,7.884812417193707,0.1,0.011420011520385742,0.3063366413116455,0.048106406,0.013026006,108.92916902066312,-0.07341035843690948,0.6280479748964237,14.583333333333334,19200,2.9124393463134766,0.13389312962000882,0.07462089720801808,81.29751430955572,6.25
231,2.919846296310425,105.61626446274754,276.61700196836307,1013.7067147974926,-35.74453764673282,12.5,8.764984406513149,0.1,0.010985612869262695,0.2505366802215576,0.04787255,0.011785671,108.59787856487158,-0.0860759052199959,0.5278824281133375,12.5,19200,2.8674395084381104,0.14169651349758725,0.09280012988905274,85.83336885791341,6.25
232,2.804141044616699,108.36252940570155,245.2108366947301,981.5640806918617,-38.420228729828175,8.333333333333334,6.3271300968538355,0.1,0.010816812515258789,0.299389123916626,0.05144911,0.014595432,108.57434364895457,-0.08025897251352852,0.5416160274864715,8.333333333333334,19200,2.861173391342163,0.12452662724488592,0.096748075874721,91.66217263860062,6.25
233,2.8363983631134033,66.93307757991191,232.12842564861688,1032.0482337372935,-36.095997522277464,8.333333333333334,6.971021877393572,0.1,0.010901689529418945,0.30385661125183105,0.053458773,0.01326687,104.4102170420503,-0.088029039306873,0.33447096069312693,8.333333333333334,19200,2.87671160697937,0.12624161426934696,0.08806626994690771,87.0926866051913,6.25
234,2.8814358711242676,109.03614946388548,250.91513127881203,802.8387471586501,-38.33689216349497,13.541666666666666,5.790195970874298,0.1,0.011545896530151367,0.28771233558654785,0.05015927,0.01625945,104.87281028423382,-0.07918501003084054,0.5449816566358261,13.541666666666666,19200,2.943690776824951,0.16624871083992454,0.09646838763818032,99.49448755852251,6.25
235,3.0296621322631836,104.70801084040586,264.11302174484206,1206.2608403430427,-38.38410291490764,10.416666666666666,7.898704602599105,0.1,0.011302947998046875,0.2711350917816162,0.050367758,0.012973702,104.85633033985103,-0.0762418628622898,0.5235498038043769,10.416666666666666,19200,2.9189062118530273,0.20054683432087597,0.07866528508088474,101.76898452635528,6.25
236,2.87866473197937,173.59763411570006,319.3216414899051,1111.0487877334895,-31.984047491066605,14.583333333333334,8.625492290343988,0.1,0.011909008026123047,0.3036918640136719,0.05049645,0.011725558,111.73046071743593,-0.07451693317093366,0.867149733495733,14.583333333333334,19200,2.8885841369628906,0.11025113217406987,0.07352385668343031,94.96899544974585,6.25
237,2.8478775024414062,72.69973579201293,210.55070142816083,900.6691270293869,-36.01719185450937,5.208333333333333,6.93175937612131,0.1,0.011661291122436523,0.25612735748291016,0.046994045,0.013550198,107.82738822489364,-0.078998864501307,0.3635011354986932,5.208333333333333,19200,2.827882766723633,0.23034456090277627,0.1253338370065367,90.97167012483581,6.25
238,2.8108630180358887,85.26492925646026,243.67852691440902,1098.8667326690131,-32.07785381699125,7.291666666666667,9.41137740175125,0.1,0.011701583862304688,0.30588197708129883,0.049251843,0.008626552,105.5711423280503,-0.07950722284101515,0.4252844438256515,7.291666666666667,19200,2.8704066276550293,0.13247186362535263,0.06594196145048256,88.47589752476559,6.25
239,2.8771908283233643,126.0948569895143,304.10638482275783,1433.9865088493632,-39.08423850368458,9.375,8.040237496372303,0.1,0.01333165168762207,0.31234288215637207,0.054312635,0.011761148,107.6235137941967,-0.07827025000477211,0.6304797499952279,9.375,19200,2.8321683406829834,0.18898046442626748,0.12345652288902981,88.0024948182084,6.25
240,2.8916471004486084,94.69671928790147,260.16973073978477,1002.2308747643044,-33.606364852161434,9.375,8.224567262192982,0.1,0.011206626892089844,0.25310778617858887,0.04827361,0.014239915,106.33083434356718,-0.07984708384565825,0.4730695828210085,9.375,19200,2.8493502140045166,0.14302014407537725,0.09792541956445498,86.67550931024782,6.25
241,3.0178844928741455,135.72318271287227,301.15446282738395,1141.8902561672699,-36.391405114123266,13.541666666666666,7.608242185534192,0.1,0.011289119720458984,0.25370264053344727,0.055748336,0.014392569,109.27006918049769,-0.07866785265255657,0.6782071473474435,13.541666666666666,19200,2.900744676589966,0.0981723303748108,0.07538081328025587,92.24373169860031,6.25
242,2.823779821395874,182.62907648836804,346.85876610695226,1142.3643304639543,-37.65055729362762,19.791666666666668,7.237537282086243,0.1,0.011730670928955078,0.2915065288543701,0.04938346,0.01496991,116.60596991128472,-0.07205028822035804,0.912949711779642,19.791666666666668,19200,2.9413394927978516,0.12380582490423223,0.0886682238486057,102.49847632131824,6.25
243,2.8060362339019775,84.74176847220461,252.56938086799727,1097.3823644354197,-38.18655003533613,7.291666666666667,8.520456001785778,0.1,0.01189422607421875,0.30556750297546387,0.053520318,0.011310574,113.41954976737671,-0.0837864342268151,0.4235052324398516,7.291666666666667,19200,2.9761860370635986,0.21298756731331192,0.08676702552498185,98.7970518675709,6.25
244,2.846226692199707,136.56722565253077,295.9994937597597,1215.4414232051854,-33.718514443828916,14.583333333333334,7.398455557424166,0.1,0.011187314987182617,0.30257177352905273,0.049565952,0.012574028,115.73431735589212,-0.0734040652499348,0.6828459347500653,14.583333333333334,19200,2.9301061630249023,0.20548872625614914,0.07754894576669819,70.0167226486044,0.0
245,2.7467153072357178,127.3712546384573,283.85287636555057,1013.4118366489627,-36.582815094685024,15.625,6.865056227613938,0.1,0.011234521865844727,0.25940799713134766,0.051814757,0.013832437,116.89801108414864,-0.08083297148680986,0.6368753618465236,15.625,19200,2.8963160514831543,0.13258256773434093,0.08162971670726185,72.99014392204361,0.0
246,2.7782254219055176,138.0517901957602,291.04504509809294,1181.9989881531633,-35.781213874919494,13.541666666666666,7.743887100990691,0.1,0.010885477066040039,0.2456376552581787,0.050319638,0.010993422,119.0133889953098,-0.07223736258635922,0.6902626374136407,13.541666666666666,19200,2.8233866691589355,0.17979505592889902,0.12552874404483969,82.95208491287006,6.25
247,2.9491560459136963,123.71850874264108,271.61253399924607,1093.2755281620384,-37.33975889886004,10.416666666666666,8.16816776429272,0.1,0.010643482208251953,0.31702733039855957,0.050912123,0.012296686,119.48390097004292,-0.07682381035585091,0.6181761896441492,10.416666666666666,19200,2.8079257011413574,0.16648165423145023,0.11584669055251744,100.93705862828344,6.25
248,2.819305658340454,71.46464642766443,231.66833630399765,1077.2399158670678,-36.96726356280018,7.291666666666667,5.842473311631963,0.1,0.011330604553222656,0.2565028667449951,0.044833437,0.014801376,114.68197551580508,-0.08559042397824486,0.3571179093550884,7.291666666666667,19200,2.803651809692383,0.22901469369888125,0.13064864923565317,88.93750503159926,6.25
249,2.8295047283172607,76.51844173063326,258.9817065331988,1189.0110224388748,-36.38911569154372,9.375,6.948703891189723,0.1,0.011380672454833984,0.30248451232910156,0.04992374,0.013274796,110.8656221372879,-0.08135549312312775,0.3826028402102056,9.375,19200,2.853142499923706,0.09987779408049448,0.06811577013650336,95.74830082566125,6.25
250,2.8660783767700195,67.1801993087232,207.36669476692333,966.4973617917711,-37.476509883720745,9.375,6.378096963834618,0.1,0.010933399200439453,0.27596068382263184,0.053001888,0.018641993,106.49707985443143,-0.07680181411485303,0.33548985255181357,9.375,19200,2.8252925872802734,0.1356420784874248,0.09354210131028833,89.06844053576536,6.25
251,2.8443222045898438,124.2268497596607,293.83406245564345,1046.53572489522,-36.439426911951806,13.541666666666666,7.149337055200026,0.1,0.010742664337158203,0.3095264434814453,0.05073136,0.012410015,108.27005684495435,-0.0761562824920476,0.620510384174619,13.541666666666666,19200,2.7891743183135986,0.12833417262389193,0.058606972365369665,95.14976524981154,6.25
252,2.8703062534332275,151.5776624557366,324.2731331790721,1182.9310956697616,-37.67903534001946,11.458333333333334,8.259998652140768,0.1,0.010687589645385742,0.2973027229309082,0.053108767,0.01013157,112.60081740603258,-0.08479469063752965,0.7579136426958039,11.458333333333334,19200,2.7380142211914062,0.10536298259062273,0.07387092515496937,92.12431419820659,6.25
253,2.8875718116760254,112.98750024892745,254.65565002696806,979.2940966674884,-34.38665963506129,10.416666666666666,7.266468385029528,0.1,0.011321067810058594,0.2589387893676758,0.048863027,0.011329436,112.63948569032206,-0.08255611272099779,0.5647355539456688,10.416666666666666,19200,2.770892858505249,0.1618229826511445,0.09376088761426124,100.64279043198448,6.25
254,2.8398830890655518,158.39584645883664,315.48718356098493,1163.1687471546368,-35.56822335682198,13.541666666666666,8.086418259432874,0.1,0.011227607727050781,0.3175313472747803,0.05032642,0.012494656,117.21512176717351,-0.07780927271807173,0.7913573939485948,13.541666666666666,19200,2.8092281818389893,0.11786745566943224,0.07953288873859884,96.4201918756512,6.25
255,2.8058054447174072,202.26429483776337,343.7495088749579,1099.2434207606664,-35.29868266210626,20.833333333333332,7.103545966338285,0.1,0.011144638061523438,0.3091261386871338,0.045696348,0.012500824,125.7200390742325,-0.06949457071054195,1.0113387626227912,20.833333333333332,19200,2.8298020362854004,0.11343210811961169,0.06286013562452386,98.17239728171604,6.25
256,2.819342851638794,104.23313837944642,287.05421688042946,1385.7513706603158,-34.562384280384045,11.458333333333334,9.225917741433886,0.1,0.013350486755371094,0.31372570991516113,0.04990015,0.01121212,123.5713490047539,-0.08215787662005711,0.5207587900466095,11.458333333333334,19200,2.8680965900421143,0.14217071192944056,0.06914705760066675,97.41794314883343,6.25
257,3.047046422958374,63.63197796340504,193.92493003293558,1030.5537617214773,-36.03214693176742,5.208333333333333,7.033207540849062,0.1,0.012697458267211914,0.30252599716186523,0.046337243,0.014888894,117.57741190061901,-0.07954874734530983,0.31774291932135695,5.208333333333333,19200,2.847207546234131,0.19663916508727133,0.14736068389896573,99.62162275616284,6.25
258,2.843644857406616,218.35162052617844,354.4078015714363,1147.744624487964,-36.83466171892939,20.833333333333332,8.022926399799132,0.1,0.012828350067138672,0.26807236671447754,0.050507344,0.01247561,127.65483276317497,-0.06303130659553509,1.091552026737798,20.833333333333332,19200,2.910703420639038,0.1085383064924659,0.07563868337136039,90.59655951210927,6.25
259,2.780118465423584,148.35158753034636,313.53828858044574,1598.6650603094963,-34.76519644262852,12.5,7.725176369964653,0.1,0.011121988296508789,0.29292750358581543,0.052535594,0.013560098,129.72450823989212,-0.07740237658251327,0.7413476234174866,12.5,19200,2.89853835105896,0.14641960562947595,0.10470605730428116,62.07215377410802,0.0
260,2.834618091583252,151.99480406429834,301.53379476315394,1170.6669595982412,-35.79130796271279,11.458333333333334,7.129751141184593,0.1,0.011385202407836914,0.24692916870117188,0.045026597,0.013676682,131.95153782233274,-0.07543300097601167,0.759983665690655,11.458333333333334,19200,2.856287956237793,0.11064648861581848,0.05883128314258774,77.61469364664435,6.25
261,2.753740072250366,110.42106953764153,278.77135980686467,1128.1743705735503,-37.94688704910417,9.375,7.724241600166973,0.1,0.010917425155639648,0.2889678478240967,0.050660297,0.014593115,129.79849099386362,-0.0795523680910802,0.5519059652422532,9.375,19200,2.8981685638427734,0.13469939140371176,0.11338387437516723,73.83691583238185,6.25
262,2.7649643421173096,156.85071527998258,330.6264193265711,1139.8605500991785,-36.78881253844498,14.583333333333334,8.147487681740419,0.1,0.011198997497558594,0.24846982955932617,0.049896497,0.012180257,132.50371342247553,-0.07615413589893949,0.7840541974343939,14.583333333333334,19200,2.8880081176757812,0.14031100014895465,0.0689578992770962,84.38326814420778,6.25
263,2.7849457263946533,157.92164394503627,325.0531767374637,1147.301498349457,-33.9450389183967,17.708333333333332,7.734486751883168,0.1,0.010814189910888672,0.24681854248046875,0.049763493,0.0138212135,135.0455064747316,-0.07581280859100083,0.7891871914089993,17.708333333333332,19200,2.7930288314819336,0.10149650587366965,0.05357853747640793,95.444212902322,6.25
264,2.8100364208221436,138.11945834560478,293.7522283852375,1086.515968623214,-34.25068377315986,9.375,7.804824097506546,0.1,0.011017084121704102,0.29495859146118164,0.04662564,0.0123357205,135.35290166181895,-0.07669381755550488,0.6903895157778285,9.375,19200,2.7459144592285156,0.10545133546864276,0.0694959414647071,95.14915745759876,6.25
265,2.8472766876220703,123.28113807580667,294.6873654006032,1129.3900921763855,-37.257513651370296,11.458333333333334,9.470556818979833,0.1,0.011147499084472656,0.30509066581726074,0.05517402,0.008558172,134.14572530321772,-0.07963478891259435,0.615573544420739,11.458333333333334,19200,2.7337071895599365,0.10548830712441962,0.07916526756545086,90.66673617615993,6.25
266,2.901550531387329,182.24082646293115,338.7091398656597,1234.5943703516182,-35.057477197556075,19.791666666666668,8.083371977695938,0.1,0.01105046272277832,0.25451159477233887,0.05409012,0.01010424,138.95523541918908,-0.0735771277482432,0.9107978722517567,19.791666666666668,19200,2.7596917152404785,0.07375518613935621,0.053402884730812,94.9048169838808,6.25
267,2.8694562911987305,138.76138814329644,293.6769284605832,1178.9597446832115,-35.357514630665,16.666666666666668,5.663592654650804,0.1,0.01117396354675293,0.25396037101745605,0.051328193,0.018471496,138.93585069159982,-0.07867489178065379,0.6934084415526794,16.666666666666668,19200,2.8084566593170166,0.08165893330995994,0.07383051334895294,94.3952774487263,6.25
268,3.0576953887939453,151.39557642704645,314.9169702015849,1047.3453203732727,-34.957076718608505,13.541666666666666,8.55119379360443,0.1,0.012336969375610352,0.3166048526763916,0.04963295,0.010991956,140.1818232651445,-0.07760953530473963,0.7555154646952603,13.541666666666666,19200,2.7913012504577637,0.0972460172831191,0.06041572637687119,93.90204136264671,6.25
269,2.8558900356292725,146.11407802506093,269.2704335776527,903.8751405420962,-37.9404809382816,13.541666666666666,7.859324063772217,0.1,0.011102676391601562,0.25185585021972656,0.04547897,0.012540926,140.77504874113612,-0.07130083495645395,0.729949165043546,13.541666666666666,19200,2.783156394958496,0.12846087143564816,0.0859270425272805,86.29029298985503,6.25
270,2.8407623767852783,142.75045699087093,329.37140010116326,1212.898714269322,-36.50675318081774,14.583333333333334,6.711567730913383,0.1,0.013289690017700195,0.32975149154663086,0.04093358,0.012086139,140.9725895661096,-0.08020235211571686,0.7137559812176164,14.583333333333334,19200,2.929492473602295,0.09791542914502992,0.050426967256936774,85.99634472465812,6.25
271,2.8696396350860596,164.3214998737797,324.53508912035954,1277.5610797350148,-37.75705755078363,18.75,7.4828054823465795,0.1,0.010828018188476562,0.3129584789276123,0.049577713,0.0140514895,143.30748059687662,-0.0792241765591686,0.8211924901074982,18.75,19200,2.880772829055786,0.0986358949875672,0.07283738669166409,75.24900245915605,6.25
272,2.8320744037628174,127.74687192456834,293.61705480433073,1066.5829609532034,-37.38378562270855,13.541666666666666,7.57483476889131,0.1,0.011298418045043945,0.3166542053222656,0.048951123,0.013380606,141.7514197296458,-0.08084742374832839,0.6385275762516717,13.541666666666666,19200,2.8838932514190674,0.12595322946504814,0.07930649820263794,70.73990118552902,6.25
273,2.796393871307373,113.45200046587581,257.4671872549348,1000.2454900956295,-36.83017129098018,11.458333333333334,6.9083581071197395,0.1,0.010646581649780273,0.258542537689209,0.05097103,0.014894358,138.9214778032688,-0.07690438055082437,0.5668456194491756,11.458333333333334,19200,2.8810112476348877,0.16230480085668275,0.11814037794781507,66.97565970618602,6.25
274,3.0078558921813965,128.15039197134732,278.35812512974644,1219.7095708021802,-36.92764603705946,12.5,5.714744608894038,0.1,0.010955572128295898,0.2985198497772217,0.04991328,0.019323848,137.84436922007666,-0.07695656845274419,0.6407517648805893,12.5,19200,2.815840721130371,0.1551320036940154,0.1017248915543543,66.70780427508087,6.25
275,2.772240161895752,136.26283006598737,310.09433632083403,1281.6285766094807,-35.11070402469848,14.583333333333334,5.60393325195641,0.1,0.010884523391723633,0.30324673652648926,0.048874747,0.01621997,137.68621530466774,-0.08326436429939148,0.6811106357006084,14.583333333333334,19200,2.8432483673095703,0.12211115629797915,0.07091541404711013,64.40945160540576,6.25
276,2.7632510662078857,154.7724869310838,312.9310294562269,1196.7247408362534,-37.37089071685028,14.583333333333334,7.954732890391257,0.1,0.011146068572998047,0.2489778995513916,0.050580923,0.011208522,139.39484246730933,-0.07613514594463962,0.7732398540553603,14.583333333333334,19200,2.832597017288208,0.14350162162501584,0.085571939398633,63.67754589568013,6.25
277,2.781595230102539,139.40568685026736,290.8337925677037,1217.1158632818347,-35.620733632678835,14.583333333333334,6.782329774679556,0.1,0.010643959045410156,0.3033902645111084,0.0518697,0.013496647,139.39592690560514,-0.07442260551062695,0.6968273944893731,14.583333333333334,19200,2.8234951496124268,0.1312186152156029,0.07726909369604533,63.48759733258579,6.25
278,2.81966495513916,158.97460284660946,358.1909256823948,1317.1592417194852,-38.552327984567924,16.666666666666668,7.530281340191941,0.1,0.010860919952392578,0.30753040313720703,0.047619723,0.015426508,141.35379449970557,-0.07866902577599584,0.7942476408906707,16.666666666666668,19200,2.8820388317108154,0.0749638792203814,0.04691448194135734,68.99558063274196,6.25
279,2.99402117729187,128.51593784191337,280.04299420876526,1151.2149952351187,-36.98816384230867,12.5,6.140841217683099,0.1,0.010742425918579102,0.2545757293701172,0.049759116,0.016930517,140.07000883392635,-0.07950548070560635,0.6415361859610603,12.5,19200,2.8260576725006104,0.14934317999859503,0.07969081220254719,71.29251100816252,6.25
280,2.895892381668091,113.99855301085279,277.2996324475295,1038.6292000976227,-33.06608839206489,10.416666666666666,6.283068143637234,0.1,0.011102676391601562,0.24989080429077148,0.048016775,0.014952673,137.46286325161898,-0.08062484729779719,0.5691668193688694,10.416666666666666,19200,2.861100435256958,0.15803169703981446,0.08325770243253205,70.2985693436632,6.25
281,2.8896396160125732,134.04403191622234,276.17123174434926,1113.1252299416933,-37.351421866109575,15.625,6.537698083306511,0.1,0.010691165924072266,0.308349609375,0.05036926,0.0148305725,137.12098011807933,-0.0820738395029161,0.6693844938304174,15.625,19200,2.887421131134033,0.1462568692463514,0.07483014556610845,72.81484940264014,6.25
282,2.891420364379883,153.2748954843552,305.52656167427415,1129.126182429876,-34.46306662968936,16.666666666666668,8.391064167526112,0.1,0.01289987564086914,0.26433444023132324,0.046566002,0.0117176045,138.73637165470691,-0.07090800283234096,0.7659669971676589,16.666666666666668,19200,2.8855655193328857,0.10549659764048709,0.07641084624601131,76.93898715859865,6.25
283,2.911095142364502,90.75779215825723,262.91659179957276,1215.843696058763,-35.808103143399954,8.333333333333334,7.197707683108208,0.1,0.011207818984985352,0.31923532485961914,0.047004998,0.014422795,133.93851370506195,-0.0814197600385897,0.4529552399614103,8.333333333333334,19200,2.8238136768341064,0.15357347765328105,0.10196114847309157,78.6791001101134,6.25
284,2.9063706398010254,126.46447386362036,288.1389272134185,1328.8011160709764,-36.57839293097815,12.5,8.141421425085749,0.1,0.011756181716918945,0.2544441223144531,0.04677818,0.012603016,133.19110972091778,-0.08080184898736807,0.6310731510126318,12.5,19200,2.7563693523406982,0.09227622861511015,0.0659810948499266,74.43610569487358,6.25
285,3.0396018028259277,154.3513066754015,307.8424598923398,1099.5888491646872,-36.97401013859841,15.625,7.66354416411122,0.1,0.01089620590209961,0.31110262870788574,0.04679714,0.0134480065,135.30712941636614,-0.07886917705177729,0.771339156281556,15.625,19200,2.7061045169830322,0.07815715127896918,0.060674460684107506,81.98761813930527,6.25
286,2.827873468399048,137.0576475797117,313.6762493774476,1255.9140597899057,-33.799724408385764,12.5,8.606921238335026,0.1,0.011308431625366211,0.2591216564178467,0.04737779,0.011995177,135.4821812327007,-0.07429352968038651,0.68487313698628,12.5,19200,2.6785755157470703,0.11755177152643796,0.06956804383071759,76.22562282359327,6.25
287,2.828462600708008,98.2507697022578,262.40261543122483,1291.6513653687678,-34.63888148286577,7.291666666666667,6.1981590900730446,0.1,0.01115107536315918,0.31208181381225586,0.047688972,0.016629782,131.75904007965642,-0.0812343234901687,0.4912656765098313,7.291666666666667,19200,2.6799628734588623,0.1272683816872214,0.08665649439677174,79.05268866438033,6.25
288,2.817260503768921,111.14516367583424,252.07941589013257,1058.2592174724005,-36.610938545827935,10.416666666666666,11.370683937510673,0.1,0.011423349380493164,0.30849409103393555,0.05270789,0.007671777,129.6976524392742,-0.07718774464998039,0.5553122553500197,10.416666666666666,19200,2.8244636058807373,0.1194517157413452,0.08508421284211468,75.98428999960369,6.25
289,2.8480257987976074,96.61578029867398,266.2659942201153,1235.083694282318,-38.17958916969945,10.416666666666666,5.969735010412024,0.1,0.011209964752197266,0.3222970962524414,0.05144931,0.013725623,126.3894652252142,-0.08129547716324667,0.48287118950342006,10.416666666666666,19200,2.9679083824157715,0.12947295323100808,0.08677081261470586,79.00397069880106,6.25
290,2.8411498069763184,107.72285687291826,273.16586460486053,1181.835725272567,-36.33422153099984,10.416666666666666,6.5913713184512535,0.1,0.011061429977416992,0.31221890449523926,0.043161675,0.014057,124.5228043899846,-0.07429729783329843,0.5386193688333683,10.416666666666666,19200,2.9708974361419678,0.09366015882720477,0.0736530893234905,80.28732868899709,6.25
291,2.8153791427612305,108.63929461061366,282.92975267435213,1215.3224433530745,-38.774934716757585,12.5,7.867508938548793,0.1,0.011439800262451172,0.3105788230895996,0.047336627,0.009569854,122.9344534120475,-0.08158753999137675,0.5432041266752899,12.5,19200,2.980332851409912,0.10968525199593382,0.07108026853043652,85.29103847431315,6.25
292,2.8052003383636475,146.38813316675086,337.08215331943126,1235.139599172305,-35.14538541348289,15.625,6.6038047535659405,0.1,0.011482715606689453,0.26409220695495605,0.046614215,0.01624018,125.27982138751784,-0.08244226584149107,0.7304744008251755,15.625,19200,2.9726927280426025,0.11106733163128057,0.061484378039352486,75.71571242989197,6.25
293,2.834812641143799,126.32101946577522,320.1990894008099,1462.1502033569682,-37.069856022923624,14.583333333333334,7.059089999463596,0.1,0.010954856872558594,0.25692176818847656,0.049249087,0.014503572,125.38394119534358,-0.07546286334381119,0.6314121366561887,14.583333333333334,19200,2.935033082962036,0.11772635426962201,0.06430963674742432,75.68272158461454,6.25
294,2.8281595706939697,171.05905227497604,353.9711791231996,1389.8044354773383,-38.186384265969195,16.666666666666668,6.51759942075718,0.1,0.010871171951293945,0.2955496311187744,0.053114608,0.01488391,129.95145230330684,-0.07928049632681486,0.8544695036731852,16.666666666666668,19200,2.91379976272583,0.07930070585922336,0.054780333456710746,94.0850297008489,6.25
295,2.840820074081421,68.55913946244726,247.12550679112195,1252.2025191437526,-36.360501210402155,7.291666666666667,8.122233314961498,0.1,0.011138916015625,0.2833065986633301,0.050026752,0.012280116,123.81222101922089,-0.08760756677221253,0.3428090998944542,7.291666666666667,19200,2.904252290725708,0.1270202338556194,0.06772582099475769,82.29156700326848,6.25
296,2.9796292781829834,174.40154350166154,328.4740134734272,1104.076254880897,-35.45353288791455,15.625,7.583135262025056,0.1,0.011148929595947266,0.3142092227935791,0.047237195,0.014602759,128.87115326746493,-0.07110961423772645,0.8718070524289402,15.625,19200,2.9106051921844482,0.08780572892440347,0.059454599732020746,86.79409686107832,6.25
297,2.7686736583709717,121.3758080739171,283.49727545817245,1215.160057826638,-38.15320306942031,11.458333333333334,6.50824137381786,0.1,0.010899782180786133,0.2501668930053711,0.054610502,0.0146120135,128.12161874811014,-0.07894896458820115,0.6064677020784655,11.458333333333334,19200,2.876683473587036,0.11429746988550994,0.07376370128628124,92.34327719102819,6.25
298,2.790954113006592,121.56143417048104,283.47458935521416,1139.8528657938805,-36.90710831025704,11.458333333333334,8.680988695561862,0.1,0.01066136360168457,0.29553937911987305,0.05244712,0.0116282245,127.46560029034723,-0.07718783048390547,0.6071871695160945,11.458333333333334,19200,2.827791929244995,0.12578060950989306,0.07785234466196687,85.81052650940266,6.25
299,2.8153328895568848,107.33499284195348,273.87195291674016,1312.3490591774596,-34.345119428663786,8.333333333333334,6.485063546650239,0.1,0.01071310043334961,0.26531982421875,0.04710268,0.012937911,125.45253954550785,-0.07373964582485461,0.5364686875084788,8.333333333333334,19200,2.798233985900879,0.19312138021677533,0.10542149605619328,80.57874823433889,6.25
300,2.8326258659362793,111.20091740451834,257.0745816876389,1131.6422579171642,-35.67412349595612,6.25,7.855406531192432,0.1,0.010820150375366211,0.30861973762512207,0.050815023,0.011742364,124.0273773314089,-0.07628522162988373,0.556006445036783,6.25,19200,2.8564741611480713,0.1506302005984153,0.10194225050651225,71.26107057520825,6.25
301,3.049321413040161,130.8448597172274,303.2918838120887,1202.0050433208423,-36.86421167096935,15.625,7.671175253055136,0.1,0.011068582534790039,0.31384921073913574,0.045630164,0.012174888,124.70912556999076,-0.08494470851838566,0.6527636248149477,15.625,19200,2.8342628479003906,0.08116805386416992,0.04277936519046278,80.04264595340638,6.25
302,2.871361255645752,105.63806019148404,270.74669649924044,1114.5395977285,-36.41195531743053,11.458333333333334,8.505624193868275,0.1,0.016455650329589844,0.3230299949645996,0.04542003,0.010524662,122.8020190321401,-0.08180198230234607,0.5279896843643206,11.458333333333334,19200,2.704345226287842,0.14295276909846077,0.07583989142014233,77.5600206954741,6.25
303,2.8744146823883057,123.0988162434479,278.7629180600484,1048.2595052927272,-36.50383962757529,9.375,5.406163370204828,0.1,0.011703968048095703,0.3141486644744873,0.049703848,0.016375287,122.83169875327087,-0.07866895062814644,0.6152893827051867,9.375,19200,2.719839572906494,0.1232106840190886,0.06710139641868669,85.07567860923648,6.25
304,2.8265573978424072,104.08146878327602,273.12921876079224,1223.7424237027178,-35.80040314044929,10.416666666666666,9.25789908660355,0.1,0.011369705200195312,0.31383538246154785,0.05100515,0.009489548,120.95667575627138,-0.08001453326153081,0.5201938000718026,10.416666666666666,19200,2.8281028270721436,0.1860200755918672,0.11268207551509743,72.77989205326986,6.25
305,2.8309545516967773,116.10428292044116,271.8763321057772,1056.9052652562657,-38.29686803953339,13.541666666666666,7.750165307889978,0.1,0.011054277420043945,0.2818105220794678,0.048220478,0.015291409,120.47143647268837,-0.07634703908990516,0.5803196275767616,13.541666666666666,19200,2.843698024749756,0.08150628322663532,0.056494895134079445,84.4157154477062,6.25
306,2.920356035232544,93.9428931297016,279.98408097171364,1265.1111260690604,-35.717600409962536,11.458333333333334,8.6684562272367,0.1,0.01192474365234375,0.31746482849121094,0.05349223,0.013354279,117.81858213838969,-0.08172886162016542,0.4697294717131679,11.458333333333334,19200,2.879452705383301,0.09608838638212114,0.041940310138628,87.89785316643027,6.25
307,2.8084089756011963,129.52107248215768,288.57692300857747,1151.0029480627045,-39.00751871678152,10.416666666666666,5.655084659670883,0.1,0.01084756851196289,0.30466508865356445,0.050078698,0.019343061,118.98883117276648,-0.07760373070926331,0.6473962692907368,10.416666666666666,19200,2.8730945587158203,0.1008290032767427,0.06455662167195954,77.83799864967618,6.25
308,2.7780117988586426,114.92513979411041,286.0945353783045,1107.82024721284,-38.26595217676248,13.541666666666666,7.610720761520478,0.1,0.011502742767333984,0.30092573165893555,0.051141605,0.012418748,118.58246203490089,-0.083491554924427,0.5742167784089064,13.541666666666666,19200,2.9258203506469727,0.09362280225094177,0.06848624974052717,79.59664909602478,6.25
309,2.73907732963562,169.7032120359762,314.93796312299315,1136.5596871432115,-38.31105152097324,17.708333333333332,7.997330095407973,0.1,0.011549949645996094,0.30660414695739746,0.049673323,0.010771824,123.69453703500842,-0.07418852295703819,0.8476864770429619,17.708333333333332,19200,2.955327272415161,0.07448189816518527,0.050645196874415384,75.07313553987032,6.25
310,2.7954776287078857,129.90200096356193,294.9315512448187,1261.5884568477875,-34.61830864547117,11.458333333333334,6.668854770321468,0.1,0.011202812194824219,0.2624778747558594,0.04495889,0.015431649,124.31528342786378,-0.07506464888150433,0.6493103511184957,11.458333333333334,19200,2.9099783897399902,0.12932840289398115,0.09622597062238002,77.59792076244844,6.25
311,2.803765058517456,115.03033142156994,264.4269471484976,1043.767531898837,-34.001520823174346,12.5,6.346791883138938,0.1,0.010796308517456055,0.2960522174835205,0.050931145,0.015257245,123.38678822723439,-0.0777582179000068,0.5749501154333266,12.5,19200,2.8675808906555176,0.10884424883607342,0.05779264820281663,84.1527167198546,6.25
312,2.9737465381622314,179.02538532286584,369.62532110560477,1259.9242968219055,-37.5890585195223,17.708333333333332,8.588229212503908,0.1,0.010730504989624023,0.25325465202331543,0.051904544,0.010610141,128.95064793679754,-0.07611602315864166,0.8947173101746916,17.708333333333332,19200,2.8366246223449707,0.09828922342284455,0.05535641677265116,82.34493865207396,6.25
313,2.8975090980529785,176.16781751663657,310.57772364273956,1068.451304536804,-37.39488331677761,19.791666666666668,6.556809031941159,0.1,0.010958433151245117,0.30005955696105957,0.047916878,0.015524848,133.67236489478145,-0.07686018085689533,0.8806398191431049,19.791666666666668,19200,2.883596658706665,0.07881834491966001,0.05152318436451487,71.48038323334681,6.25
314,2.868121385574341,143.40627709286318,274.86107183874657,1082.0367315703033,-37.12990847020543,14.583333333333334,7.335691268650384,0.1,0.010793924331665039,0.250995397567749,0.047049943,0.012817335,134.64575611458963,-0.07858587162803515,0.7168307950386316,14.583333333333334,19200,2.8380286693573,0.14082173216856647,0.07806416082242942,78.04089515470733,6.25
315,2.9314825534820557,112.98244911701715,236.2505479856728,913.5377123672132,-34.96032233311362,11.458333333333334,6.598425579182597,0.1,0.01127481460571289,0.30704426765441895,0.049656034,0.015764793,132.4794254148324,-0.07175137538686038,0.5644986246131396,11.458333333333334,19200,2.819535493850708,0.23951839297395378,0.11014441046829086,62.783147081057784,6.25
316,2.941333055496216,137.26164548234217,295.99062943939106,1145.4036454951147,-35.03219444969541,13.541666666666666,8.535529638144022,0.1,0.011557579040527344,0.2529599666595459,0.046321556,0.01097943,132.95764742158337,-0.08057063425646907,0.6860960324101976,13.541666666666666,19200,2.8597161769866943,0.11075202903434478,0.08406973373511256,68.22304645012952,6.25
317,2.9225776195526123,143.9061688409822,296.5014715255232,1225.25164164747,-37.67400690804656,15.625,7.056482096984119,0.1,0.011821508407592773,0.3203601837158203,0.046872202,0.01565869,134.05249956352324,-0.07900885946790609,0.7193244738654273,15.625,19200,2.900270462036133,0.08028956463967342,0.055491881546591335,75.6383789061565,6.25
318,2.8117096424102783,95.47546846095138,237.037846875887,1052.3814180434856,-36.01993309135318,11.458333333333334,8.255926160123773,0.1,0.011423826217651367,0.31804847717285156,0.04667472,0.013926363,130.19479645326606,-0.07615967250902322,0.47738199415764343,11.458333333333334,19200,2.845319986343384,0.21636009227992167,0.09904611712277281,72.80327748365765,6.25
319,2.9224910736083984,114.19144222440157,273.4527553836838,1513.8818996736559,-33.65905612976525,12.5,5.73973815637835,0.1,0.010902881622314453,0.3167843818664551,0.055884082,0.017199604,128.59446103037962,-0.07758012405525894,0.5703365426114079,12.5,19200,2.829376220703125,0.1672230545991699,0.13313262520806893,70.39222264612259,6.25
320,2.9404520988464355,113.36331153675629,259.79425940988904,1045.2039451145965,-33.69981889781386,14.583333333333334,8.62512624890746,0.1,0.012708425521850586,0.25138330459594727,0.052489508,0.011420523,127.0713460810173,-0.07504743468148733,0.5666192319851794,14.583333333333334,19200,2.7221415042877197,0.17818227794757385,0.07278129720826282,76.42037179146838,6.25
321,2.886417865753174,155.26180616382302,304.5935755247871,1139.4586069936352,-37.349693312198696,14.583333333333334,8.360924988699916,0.1,0.011081218719482422,0.30136775970458984,0.04677429,0.013306205,129.89039208929788,-0.07784406764422332,0.7763225990224433,14.583333333333334,19200,2.752741575241089,0.20044974950050165,0.1307129186782373,92.99713188233989,6.25
322,2.915463924407959,153.87692478191227,307.2645374300167,1145.7191719350428,-37.78552605861598,13.541666666666666,7.105070392100362,0.1,0.011880159378051758,0.32612133026123047,0.05278738,0.014989007,132.28904535855932,-0.07769532920279003,0.7693880041305433,13.541666666666666,19200,2.8916454315185547,0.12514011062678304,0.07120033658676107,96.27865740865693,6.25
323,3.0670835971832275,146.23262496662434,318.0278308176538,1227.6649179189708,-37.400258562023566,12.5,6.8992682659172,0.1,0.011380672454833984,0.2808213233947754,0.050161064,0.012051076,133.68340331936582,-0.0734097473101384,0.7311735860231949,12.5,19200,2.9027860164642334,0.11468609736594393,0.07203589205234577,85.440898449743,6.25
324,2.795353651046753,113.26024823979692,267.2123513151348,1112.0268474738443,-36.865356143963,9.375,7.411263553397566,0.1,0.010757207870483398,0.30654025077819824,0.05163372,0.01244905,131.64108781140894,-0.08348021459381742,0.5656864520728492,9.375,19200,2.8478219509124756,0.11582277447114243,0.0738976989593054,68.08877325739579,0.0
325,2.870867967605591,131.37026840048716,271.8753496083933,1082.5205943861863,-31.778750306793548,10.416666666666666,6.793220741546738,0.1,0.010816574096679688,0.25209784507751465,0.053092193,0.014242416,131.61400587031676,-0.07232221559570146,0.6564277844042984,10.416666666666666,19200,2.828195571899414,0.18610884084447177,0.1026008388603922,87.98848638378087,6.25
326,2.912471055984497,127.07591957516554,284.6729704936572,1097.0883086671226,-31.88515617718045,14.583333333333334,8.21091555368175,0.1,0.011126279830932617,0.31125402450561523,0.052995924,0.012276137,131.16019724080164,-0.07628800170947614,0.6345453316238573,14.583333333333334,19200,2.9092791080474854,0.13468879082624238,0.061032604819583273,75.23413526734076,0.0
327,2.945783853530884,121.41959867195396,303.0496186039038,1165.1121627337288,-33.79620766302248,11.458333333333334,9.051435535527473,0.1,0.01107025146484375,0.26415228843688965,0.048518017,0.012033112,130.18613738391687,-0.07769087109738962,0.6068924622359436,11.458333333333334,19200,2.8972041606903076,0.10143332881352789,0.061312942636715426,57.20804276590125,0.0
328,2.8789894580841064,144.37913922363978,307.91795315694213,1186.0756706475313,-33.66186898626811,14.583333333333334,7.86263059653314,0.1,0.011609077453613281,0.29743289947509766,0.048199866,0.012039405,131.60543756788917,-0.07227559659646987,0.7214744034035302,14.583333333333334,19200,2.8288166522979736,0.1580065192343929,0.0795147985446951,70.84375953024505,0.0
329,3.1284055709838867,99.77736411937131,245.2411856616909,1197.202190385917,-37.200492823667204,9.375,8.898705950195163,0.1,0.010919332504272461,0.2532787322998047,0.04661426,0.013863108,128.4226302230374,-0.08340554860796145,0.4980527847253718,9.375,19200,2.910853624343872,0.2078429513436865,0.11437205356368574,76.15740330755989,0.0
330,2.9424684047698975,152.26951024981938,304.33252911145405,1199.0803353212352,-37.62243155792834,10.416666666666666,7.225990364406947,0.1,0.012110471725463867,0.3132195472717285,0.048360057,0.014558364,130.8073182257156,-0.07989658223969735,0.7609367510936359,10.416666666666666,19200,2.936464548110962,0.11565890411180495,0.07407064214296769,61.97100979042936,0.0
331,2.92584490776062,119.97021248462097,249.28309577883883,1102.3096638721865,-35.63909800213492,10.416666666666666,6.8545285355546675,0.1,0.010770559310913086,0.2501194477081299,0.049901202,0.014500255,129.72360765160613,-0.08137978834757985,0.5996618783190869,10.416666666666666,19200,2.825049638748169,0.13006570328651734,0.07342422817958791,55.19148610435445,0.0
332,2.899988889694214,111.22238874897413,237.72708547935727,954.3013360780791,-34.999165555148636,10.416666666666666,6.907165867677096,0.1,0.011194467544555664,0.3142096996307373,0.050199647,0.015076164,127.87348576134292,-0.07409831671903057,0.5554850166143027,10.416666666666666,19200,2.8436458110809326,0.15359327025389127,0.07606400463270417,64.22925531715177,0.0
