iteration,time_sampling,stoc_pol_mean,stoc_pol_std,stoc_pol_max,stoc_pol_min,rollout_success,alpha,delta,time_vpg,time_npg,kl_dist,surr_improvement,running_score,rwd_sparse,rwd_dense,success_percentage,num_samples,time_VF,VF_error_before,VF_error_after,eval_score,eval_success
0,5.128877878189087,-336.0754204976601,27.80678194122673,-265.59094224192637,-408.48193129885226,0.0,1.0108774675280674,0.1,0.15676283836364746,0.5182373523712158,0.055732243,0.10295575,-336.0754204976601,-3.2882886124317596,-3.3598638512009757,0.0,9600,1.034447193145752,0.9995904367987445,0.20989167410333867,-299.04800785666896,0.0
1,5.068786859512329,-334.62025846740704,26.764973612370582,-260.3601223279715,-403.2127648919692,0.0,1.3003433019896915,0.1,0.012001276016235352,0.3523867130279541,0.04656617,0.07426792,-335.9299042946348,-3.2737458044674845,-3.345411218037493,0.0,9600,0.9878964424133301,0.21072663381913762,0.11002553504809368,-299.12559773436976,0.0
2,4.94506311416626,-336.94106039642185,29.90621682590159,-264.10510576663523,-405.1438722261562,0.0,1.2552872977275855,0.1,0.011078596115112305,0.3701660633087158,0.054463245,0.08456324,-336.0310199048135,-3.2965514312359225,-3.368360828650266,0.0,9600,1.0163965225219727,0.11438580094480366,0.0837502545806805,-299.0462972428538,0.0
3,4.959192514419556,-336.0388057471995,30.724099402663928,-250.35702548486205,-406.204485985608,0.0,1.2563090319147965,0.1,0.010059118270874023,0.30477428436279297,0.04722191,0.07891153,-336.0317984890521,-3.287845390221447,-3.3593719619330784,0.0,9600,1.0143165588378906,0.0933262930022941,0.06240483375321835,-300.9627798543873,0.0
4,5.052776575088501,-332.7749552788543,26.04622694515412,-258.9624388075755,-401.2290076845199,0.0,1.2314823807075097,0.1,0.014763593673706055,0.32712554931640625,0.050098024,0.08559431,-335.70611416803234,-3.255121750673034,-3.3268118185310445,0.0,9600,1.1160244941711426,0.06296340243740044,0.033293887230945486,-303.4157028466068,0.0
5,5.00174355506897,-334.4064860869923,28.73527461813334,-281.5675346501655,-395.31800503552483,0.0,1.1953861954454572,0.1,0.010617733001708984,0.3353843688964844,0.050061554,0.0865574,-335.57615135992836,-3.271489380900119,-3.3430620798663306,0.0,9600,1.4236423969268799,0.041183389155609956,0.0150691538734144,-300.8607305329663,0.0
6,4.974630355834961,-339.53650935920473,28.015821858389156,-276.3284115159083,-400.01474868451993,0.0,1.250949617942261,0.1,0.04321789741516113,0.45400500297546387,0.049798783,0.080856554,-335.972187159856,-3.3225564554238445,-3.3941357973823867,0.0,9600,1.5503005981445312,0.01783726943740039,0.0059825388810889795,-302.05453795706035,0.0
7,5.567059278488159,-337.48100756506824,28.44600367019593,-268.4172408090671,-399.8666362281663,0.0,1.276944413766023,0.1,0.044406890869140625,0.4439089298248291,0.050123677,0.07944393,-336.1230692003772,-3.302004182097962,-3.373780844104972,0.0,9600,1.502840280532837,0.007139291921872865,0.0035500995894124647,-299.76306695476114,0.0
8,4.670265436172485,-329.62849695002075,27.22067973965186,-271.6188668865977,-389.92133986543166,0.0,1.2420087335212793,0.1,0.010418891906738281,0.33410191535949707,0.04819626,0.07897538,-335.47361197534156,-3.2234468569313974,-3.295368457256389,0.0,9600,1.4120967388153076,0.005269222968675588,0.0030470289846303237,-297.6529254452287,0.0
9,4.9268200397491455,-334.2627101801144,29.318014172640193,-268.2573425785045,-413.30620971806366,0.0,1.228936250498025,0.1,0.010031700134277344,0.3405568599700928,0.05215713,0.081657805,-335.35252179581886,-3.2695786189202196,-3.3415411776083075,0.0,9600,1.4351723194122314,0.004266412108076437,0.0028724333069860514,-295.2677293743481,0.0
10,5.153960227966309,-331.52724389791837,28.07740389272925,-257.94903081968874,-396.8256229428214,0.0,1.178392624332172,0.1,0.021185874938964844,0.5927944183349609,0.0528043,0.08349506,-334.9699940060288,-3.2421773720509743,-3.31434356229874,0.0,9600,1.5150890350341797,0.004320878235294754,0.0028940201876375073,-297.17590658618843,0.0
11,5.162148475646973,-326.99203359988934,28.96061311537671,-253.5768420689798,-386.8082525737956,0.0,1.271137892514581,0.1,0.01056981086730957,0.38426780700683594,0.04909285,0.08085125,-334.17219796541485,-3.1974606129123395,-3.269121331504779,0.0,9600,1.437422752380371,0.004198283201395347,0.002786073208131737,-299.48695627957756,0.0
12,5.00176215171814,-334.8091533895502,27.730885161203204,-273.26567821137854,-406.8841877562364,0.0,1.2403272515118813,0.1,0.011168479919433594,0.4224812984466553,0.05075731,0.07823434,-334.2358935078284,-3.275159402290607,-3.3469439496602704,0.0,9600,1.4344265460968018,0.003948314097738689,0.002332151676877957,-299.61691433696114,0.0
13,5.139101028442383,-326.85200864398513,26.45086264507833,-267.17063993050436,-380.27683188721335,0.0,1.2437719689072195,0.1,0.01141810417175293,0.5562057495117188,0.05071064,0.08260243,-333.49750502144406,-3.19586313834847,-3.267723117177166,0.0,9600,1.5682704448699951,0.003631432998168312,0.0018870834375164845,-300.4991394165471,0.0
14,4.924572467803955,-327.7425345499652,30.836140902156988,-252.87896904441348,-393.43157845270036,0.0,1.2466859737241809,0.1,0.050459861755371094,0.3939640522003174,0.050916262,0.07880518,-332.9220079742962,-3.2047442888895223,-3.2766757922531795,0.0,9600,1.5802280902862549,0.003127557200723919,0.002004755429397653,-299.0642774968622,0.0
15,5.1839354038238525,-326.2042565381587,27.268227623592608,-261.91309233048054,-384.2613853427483,0.0,1.2658043796893228,0.1,0.009850263595581055,0.39656877517700195,0.049184397,0.076249465,-332.2502328306825,-3.189630865260119,-3.261147667830919,0.0,9600,1.4512279033660889,0.0033391549199106477,0.002078284016351302,-298.23994634593885,0.0
16,5.663663864135742,-328.5972179662837,29.252353348752166,-253.8134251286082,-391.8119848762764,0.0,1.228551028647847,0.1,0.043958187103271484,0.44899749755859375,0.050936107,0.07990921,-331.8849313442426,-3.2138729272796245,-3.285262264174943,0.0,9600,1.4613783359527588,0.0030066827487588072,0.001920948180679732,-299.7751529870061,0.0
17,5.113951921463013,-323.64569739741125,28.611864513195876,-250.4555933943838,-387.389864139554,0.0,1.2214255907329343,0.1,0.010719060897827148,0.3016364574432373,0.050927762,0.08516183,-331.06100794955944,-3.16429103370157,-3.2357178304318412,0.0,9600,1.472313404083252,0.003142020217335908,0.0020156890943512948,-299.65332168484076,0.0
18,5.143932580947876,-322.0272572560247,26.867779031748157,-262.1066175755064,-394.4966468982224,0.0,1.2131672164772078,0.1,0.011891841888427734,0.4075801372528076,0.051854253,0.08176979,-330.157632880206,-3.1484088592909694,-3.219441984522193,0.0,9600,1.5873818397521973,0.0028533627331973634,0.0015891263625150566,-296.4617267071313,0.0
19,5.312246799468994,-321.9164557449127,29.028495135837858,-253.78772924904177,-384.9810594705914,0.0,1.1892761983939144,0.1,0.01735854148864746,0.3716461658477783,0.05049206,0.08062542,-329.33351516667665,-3.147744903914417,-3.2183866925033495,0.0,9600,1.599762201309204,0.002675321158098724,0.001642569642956405,-299.29039724727767,0.0
20,4.933525562286377,-313.42789322633206,29.988952345954363,-238.79932556889233,-380.8305485510306,0.0,1.2453126661748373,0.1,0.011684417724609375,0.4600229263305664,0.05006118,0.07724552,-327.74295297264223,-3.0628657917003177,-3.1337842110937415,0.0,9600,1.0102577209472656,0.0029588917878935824,0.0016446730805617508,-298.84373483058016,0.0
21,4.919852256774902,-318.9880824259228,27.563893853820392,-249.4634856506936,-373.03056808004493,0.0,1.1580697601304217,0.1,0.011090993881225586,0.4929039478302002,0.050152313,0.08763525,-326.8674659179703,-3.1181534630561303,-3.18909696518794,0.0,9600,1.4789402484893799,0.002835007829941998,0.0014171076105540111,-298.3491828257245,0.0
22,5.132066488265991,-320.4349770694832,25.521741845458322,-263.71262736234985,-373.595813927147,0.0,1.1194638773198837,0.1,0.010283946990966797,0.32390880584716797,0.051585138,0.08945261,-326.2242170331216,-3.1327015582698636,-3.2035572930535534,0.0,9600,1.3919119834899902,0.0027691829298730135,0.001191860051891325,-292.5059517612622,0.0
23,5.080941200256348,-314.95061583371125,26.05589278376177,-250.69936477744187,-385.81267227643787,0.0,1.2220242836980897,0.1,0.011233091354370117,0.33379435539245605,0.04936501,0.08424141,-325.09685691318055,-3.0774032774105105,-3.148825534983953,0.0,9600,1.4045295715332031,0.00236032921943178,0.0012571302380315244,-287.73847832558715,0.0
24,5.179764747619629,-315.04540258100747,29.030634470172767,-265.8618956223995,-407.74018417032,0.0,1.146843902509418,0.1,0.010056018829345703,0.32297182083129883,0.04979885,0.08712877,-324.09171147996324,-3.0783284631955596,-3.1495209086574274,0.0,9600,1.4000117778778076,0.0022425679555086947,0.0013402920061349624,-284.3243921421026,0.0
25,5.1965906620025635,-313.5067456042822,29.53491273867406,-230.13366965165412,-390.88326294650204,0.0,1.190687423881222,0.1,0.010282039642333984,0.29039835929870605,0.049204163,0.085910685,-323.03321489239516,-3.0632305232084,-3.1347012987701013,0.0,9600,1.3942723274230957,0.0028787919612485347,0.0012561346716446205,-283.78823768023494,0.0
26,4.966134786605835,-310.5957537563027,26.742045230566823,-242.5715293065137,-372.75612192316356,0.0,1.2171978936519234,0.1,0.010226726531982422,0.31972527503967285,0.051355354,0.0853236,-321.78946877878593,-3.034267097227565,-3.1055288484847807,0.0,9600,1.3964667320251465,0.0025428690658595315,0.0008518376860538007,-281.78638165857376,0.0
27,5.137303113937378,-311.3132484144269,27.553934452539153,-254.7132802333409,-412.7081091483259,0.0,1.080555344178898,0.1,0.01114201545715332,0.3550384044647217,0.050873883,0.085464045,-320.74184674235005,-3.041241845013731,-3.1125991446704124,0.0,9600,1.422210693359375,0.0018975940998623986,0.0008375209500189903,-280.64352103638896,0.0
28,5.192390203475952,-303.8279042269103,27.625629577636165,-245.5684949978693,-362.97026073901486,0.0,1.0807030966042812,0.1,0.015247106552124023,0.32740306854248047,0.051313978,0.08754501,-319.0504524908061,-2.9666261411130646,-3.038027159848182,0.0,9600,1.4705417156219482,0.0024083906984325386,0.0009766823856441863,-282.10721290810284,0.0
29,5.455512046813965,-302.78641633536864,25.694559198547672,-234.02099143526738,-373.6146557356598,0.0,1.1423204495843875,0.1,0.01118922233581543,0.35787034034729004,0.05040062,0.08899845,-317.4240488752623,-2.9564806922381206,-3.027401712745687,0.0,9600,1.432969331741333,0.0021769723971326624,0.0007426508784334215,-280.21590271319394,0.0
30,5.41377592086792,-307.8052080297859,27.95907838138125,-248.43248821877964,-386.43958087272205,0.0,1.1071381811121401,0.1,0.010603189468383789,0.342120885848999,0.05081378,0.096910976,-316.46216479071467,-3.0063329344810423,-3.0775173258157267,0.0,9600,1.4286298751831055,0.001962611222080509,0.0007172604571022423,-282.38653867574186,0.0
31,5.206520318984985,-303.10527144690326,26.11794014074859,-244.64668777283714,-359.21402588228324,0.0,1.1513000152290964,0.1,0.014496088027954102,0.42958545684814453,0.050529037,0.08260897,-315.12647545633354,-2.9597272453117416,-3.0306961135353774,0.0,9600,1.421926736831665,0.0028852775009337306,0.001094243347908345,-281.14435816246123,0.0
32,5.2329421043396,-299.7220126192712,25.371675136413295,-223.9889676535238,-346.5592487644869,0.0,1.0820597656340516,0.1,0.05453085899353027,0.4895179271697998,0.050254893,0.09051363,-313.5860291726273,-2.926215704915251,-2.9970355930426984,0.0,9600,1.4191436767578125,0.0024142852514617533,0.0008659926439144798,-279.0786520437406,0.0
33,5.196556329727173,-293.59073325748267,28.18716996663877,-226.04073191475374,-357.22919364917504,0.0,1.1360189563889356,0.1,0.010164022445678711,0.3596029281616211,0.05015918,0.09505788,-311.5864995811129,-2.8645765519245536,-2.9354632048075495,0.0,9600,1.4501526355743408,0.0023562266105052383,0.0008299653723878522,-274.6768407382511,0.0
34,5.1631059646606445,-292.63256739026065,23.60491179387938,-238.22835427031586,-350.9617983892317,0.0,1.1496527086506594,0.1,0.040787696838378906,0.3542945384979248,0.049424432,0.08878794,-309.6911063620277,-2.8549903299059722,-2.926066227870089,0.0,9600,1.435326337814331,0.002188571534004981,0.0009521322501378149,-270.90814707333834,0.0
35,4.83134651184082,-296.1557783655066,25.49264803836641,-225.46802856043763,-355.8329530257028,0.0,1.124819888136801,0.1,0.010015726089477539,0.5765283107757568,0.049860463,0.0869762,-308.3375735623756,-2.890396097473768,-2.961470727589262,0.0,9600,1.5613458156585693,0.0023172179473178018,0.0009516934446419581,-266.5611047677836,0.0
36,5.128191709518433,-291.7949756491273,29.015086653379157,-222.17466029348589,-361.4052606422401,0.0,1.0943226172018161,0.1,0.01142573356628418,0.35398149490356445,0.05172283,0.09067726,-306.6833137710508,-2.8470605792270867,-2.9179746193592258,0.0,9600,1.437213659286499,0.002246708003535473,0.000772592886418976,-264.16015582381146,0.0
37,5.13267970085144,-285.58881268719574,23.446641224965198,-220.67294668533629,-354.06692691874383,0.0,1.151433407028968,0.1,0.011423110961914062,0.369762659072876,0.050426345,0.087080166,-304.5738636626653,-2.7853713020400175,-2.8559947277516415,0.0,9600,1.5553553104400635,0.0017260117774976014,0.0007285103779594459,-261.03590102288126,0.0
38,5.158951997756958,-288.4819577222481,26.45499899608384,-234.82440252088597,-350.0015185348578,0.0,1.0866810884172584,0.1,0.010001182556152344,0.3242480754852295,0.05133716,0.097779244,-302.9646730686236,-2.814417972848777,-2.884875584183168,0.0,9600,1.4601805210113525,0.00245044697850086,0.0008665966687302769,-258.6098661129338,0.0
39,5.29679536819458,-291.4007596252639,26.278063013983523,-240.58729029259558,-365.77511098008705,0.0,1.1173562434450808,0.1,0.010164022445678711,0.38826942443847656,0.05128224,0.086391084,-301.80828172428767,-2.843361712425233,-2.913882134841747,0.0,9600,1.5202887058258057,0.0018485626484518645,0.0006863215130327459,-258.88244910805895,0.0
40,5.256258010864258,-284.4373456784888,25.277113587095954,-220.8221676998851,-339.98690105901466,0.0,1.1264369182549387,0.1,0.010019779205322266,0.33786725997924805,0.05032472,0.08772087,-300.0711881197078,-2.7741482348314945,-2.844415312872894,0.0,9600,1.4879143238067627,0.002278095892045751,0.0007923094199752597,-259.3349612288186,0.0
41,5.129436731338501,-284.74957265594315,25.81710946188781,-222.21739432993635,-362.66015625402093,0.0,1.118309409561266,0.1,0.010162830352783203,0.32740187644958496,0.05151309,0.09138617,-298.53902657333134,-2.776954542156659,-2.8474579448747117,0.0,9600,1.490678310394287,0.0019305388883718861,0.0007137103254161,-257.22527972372103,0.0
42,5.177507400512695,-282.4779276034488,27.21794157234122,-228.42636725397892,-348.1655886417664,0.0,1.1467101893809992,0.1,0.04461216926574707,0.4050867557525635,0.051328264,0.09024395,-296.9329166763431,-2.754260616979881,-2.8246718309368286,0.0,9600,1.8057100772857666,0.0020470785898200287,0.0005795683863977145,-258.94525027848465,0.0
43,4.972815275192261,-278.4812158464631,25.847116608826962,-215.6453303474148,-342.444033423658,0.0,1.1518502565455586,0.1,0.012386083602905273,0.3408937454223633,0.050338287,0.08844673,-295.0877465933551,-2.7142120134239485,-2.7847793739277216,0.0,9600,1.5111308097839355,0.0025305243637875293,0.0007834772625476201,-258.2824946528933,0.0
44,4.835710525512695,-284.99897023494253,26.82858398573942,-207.11393216921124,-360.3607672394926,0.0,1.0768626476748262,0.1,0.008842945098876953,0.32007837295532227,0.050937034,0.08911377,-294.07886895751386,-2.7795611773898745,-2.849845237436098,0.0,9600,1.445584774017334,0.0021048750553842523,0.0007377184779564462,-254.8721118904947,0.0
45,5.182214021682739,-277.5243979446934,25.405625365571424,-230.52920463621092,-345.6043095512771,0.0,1.1476712661700683,0.1,0.010678529739379883,0.3330550193786621,0.05049706,0.094928004,-292.4234218562318,-2.705241693978252,-2.775278396236819,0.0,9600,1.4819679260253906,0.001960725531818192,0.0006212845247860571,-254.55703215451098,0.0
46,5.145828008651733,-283.6751283230451,24.55513506495157,-230.59819508154757,-343.27885492562257,0.0,1.0703769808747745,0.1,0.010282039642333984,0.3575923442840576,0.049620356,0.09107638,-291.54859250291315,-2.7661186746219215,-2.836684279361529,0.0,9600,1.4856629371643066,0.0015329568170772314,0.0005508798235632426,-254.9705859506492,0.0
47,5.319550514221191,-281.20438250957653,25.03956284056394,-224.2591037505788,-349.95237859736886,0.0,1.118377720230734,0.1,0.010826587677001953,0.3367345333099365,0.051885247,0.089415975,-290.5141715035795,-2.741833913343053,-2.8120866998914917,0.0,9600,1.5050692558288574,0.0016243559720315953,0.0005454056497121057,-254.54903909322564,0.0
48,5.151429891586304,-278.10927425462955,26.930993087286488,-219.06545457962653,-361.8269342919951,0.0,1.081907870664659,0.1,0.011932611465454102,0.3530426025390625,0.051081408,0.09540088,-289.27368177868453,-2.7110910486574498,-2.7813165802150954,0.0,9600,1.4831602573394775,0.002049834209563396,0.0006134821900966403,-252.9629214368116,0.0
49,5.253284454345703,-276.2487063253706,29.2567628206086,-216.83769371953449,-363.4864440086764,0.0,1.1368917904110103,0.1,0.012242317199707031,0.3806309700012207,0.050153345,0.08198597,-287.97118423335314,-2.692600598490266,-2.7627818012398175,0.0,9600,1.510939598083496,0.0021367888051169923,0.0006248691685598246,-252.73687968399048,0.0
50,5.4161598682403564,-274.04644574938493,21.26386398618615,-227.82845485394267,-321.53783810330066,0.0,1.1919906701230247,0.1,0.010690689086914062,0.3867833614349365,0.0503701,0.085160926,-286.57871038495637,-2.6703682475786503,-2.740573649067967,0.0,9600,1.6166996955871582,0.0024408897790338057,0.0007910740121458206,-253.09704814748875,0.0
51,4.479186534881592,-274.39119443356003,23.706544198855966,-222.26449669698874,-340.495392468094,0.0,1.1075535232487839,0.1,0.010883092880249023,0.4652130603790283,0.051818203,0.0878598,-285.35995878981674,-2.674160658862233,-2.744044716835278,0.0,9600,1.508730173110962,0.0019110051895907146,0.0005180213798059415,-251.8861441077259,0.0
52,4.976977586746216,-270.90381166109245,22.539171246326664,-215.97464645736355,-324.9144766098614,0.0,1.109270829681051,0.1,0.050139427185058594,0.46810078620910645,0.051025685,0.09740195,-283.9143440769443,-2.6389665373107842,-2.7092934059442633,0.0,9600,1.6362385749816895,0.002006941578922681,0.0004921604984641706,-252.03875949423963,0.0
53,4.939578294754028,-269.49470079034825,27.115231005001856,-199.64405948490406,-330.5412485941793,0.0,1.0766856356572252,0.1,0.011420726776123047,0.39008402824401855,0.050310034,0.09142779,-282.4723797482847,-2.624963700454936,-2.6951362373433803,0.0,9600,1.7143340110778809,0.001972187028745795,0.0006821473463314027,-252.59118038636626,0.0
54,4.846873760223389,-271.3418454553217,24.935552086370407,-218.8078101817022,-334.7933172158882,0.0,1.094920661787186,0.1,0.010607242584228516,0.3457207679748535,0.05016802,0.0932473,-281.3593263189884,-2.643678697592848,-2.713595105946128,0.0,9600,1.544708251953125,0.001833999231054832,0.0006063196396139869,-252.38711400816044,0.0
55,5.116904973983765,-268.5012609743958,23.658698102347415,-221.14305244826772,-319.5938978346345,0.0,1.1195725992049412,0.1,0.010209321975708008,0.33805322647094727,0.049985826,0.093253024,-280.07351978452914,-2.6149941972327793,-2.6852601614478093,0.0,9600,1.5210578441619873,0.002119160761504467,0.0006666538293575362,-250.84531250197057,0.0
56,5.211694717407227,-270.77192635604166,24.687962519658537,-206.26350757305005,-320.60095765102375,0.0,1.1121680122848339,0.1,0.01024770736694336,0.31771063804626465,0.050960377,0.095458604,-279.1433604416804,-2.638327691065534,-2.708101413134211,0.0,9600,1.5691862106323242,0.0016702271399357288,0.0005412344511699754,-250.36200032234024,0.0
57,5.062877178192139,-265.8539855182873,26.423433807159824,-197.2045331215534,-327.21124963106246,0.0,1.145871000639058,0.1,0.04175233840942383,0.32151222229003906,0.05042391,0.09078633,-277.81442294934106,-2.5891570980467757,-2.658965151500008,0.0,9600,1.5293197631835938,0.0016950266390527255,0.0006496063929208217,-249.33047221315854,0.0
58,5.220507621765137,-267.19523821992766,22.883344936152223,-212.73137520585578,-327.8522377749022,0.0,1.0826979604953435,0.1,0.010941267013549805,0.3356306552886963,0.05094234,0.097370304,-276.75250447639974,-2.602621364130043,-2.6723252238378445,0.0,9600,1.5285241603851318,0.001810327933174916,0.000662713662219575,-250.98500888848275,0.0
59,5.379072427749634,-265.9135691611303,26.060655047193592,-206.00243464475528,-319.81468984833145,0.0,1.1090933114860895,0.1,0.044568777084350586,0.3702583312988281,0.050796285,0.0902306,-275.6686109448728,-2.5903104680464057,-2.659719952497053,0.0,9600,1.540381669998169,0.0016638046242940694,0.0007479827802945388,-249.67499135815626,0.0
60,4.961758375167847,-267.9640412122446,22.620744900936597,-218.36388901652285,-336.49745204679135,0.0,1.1348928750434522,0.1,0.009351491928100586,0.3238832950592041,0.05030339,0.0885531,-274.89815397161,-2.6103027610867326,-2.679998761781066,0.0,9600,1.5007824897766113,0.001791911431958324,0.0004658385244100395,-249.79126232188779,0.0
61,5.091954469680786,-267.40344658588606,24.591041656220163,-205.62829082256104,-355.1479912582374,0.0,1.1478127518826393,0.1,0.010375499725341797,0.3581697940826416,0.05162378,0.090464294,-274.1486832330376,-2.6047029191182673,-2.6744392030141615,0.0,9600,1.5639097690582275,0.0015487859172341847,0.0005389042896074204,-248.0100643236944,0.0
62,4.508780241012573,-259.18656789572043,26.959103000383877,-187.38699073020464,-313.88608813376794,0.0,1.104935812405068,0.1,0.010002851486206055,0.3207533359527588,0.05130378,0.09108257,-272.6524716993059,-2.5227475878572525,-2.592455509665745,0.0,9600,1.5148704051971436,0.0017502589752458548,0.0005076607279744813,-250.66666830026276,0.0
63,4.941617012023926,-259.6059865926482,23.2906312767712,-207.72813333630026,-315.7820762256865,0.0,1.12387452897746,0.1,0.014258384704589844,0.40949463844299316,0.050184023,0.089557685,-271.3478231886402,-2.527179758924411,-2.596580268783628,0.0,9600,1.6558079719543457,0.0016269907579744732,0.0005114570083362619,-249.33268327566844,0.0
64,5.06507134437561,-258.076207012416,27.67633063026728,-192.63509234746527,-316.82957957605703,0.0,1.0660679415444387,0.1,0.011604547500610352,0.37430596351623535,0.05021606,0.103403,-270.02066157101774,-2.511700928416524,-2.5811492219390035,0.0,9600,1.8247194290161133,0.001631555196382114,0.0005440593834983129,-249.54086157700544,0.0
65,5.294421911239624,-257.3967681001423,22.737942226161245,-202.10952575592833,-315.37599048852724,0.0,1.1234133585614816,0.1,0.009519815444946289,0.3213977813720703,0.05025682,0.09745301,-268.7582722239302,-2.50483927381168,-2.574245719364599,0.0,9600,1.525977373123169,0.0015760501414183092,0.0005332252520247107,-250.07693009005308,0.0
66,5.500213384628296,-258.01522690101,23.919328785819424,-209.56002728620922,-321.0250282276431,0.0,1.1281077901396879,0.1,0.009740352630615234,0.31124305725097656,0.05054977,0.08605155,-267.6839676916382,-2.511223228675174,-2.5805397496185716,0.0,9600,1.479187250137329,0.0019039756987309713,0.0006687117972358697,-248.7765195046128,0.0
67,5.235051870346069,-259.63229274324334,27.68760051942566,-202.63063767341566,-333.87303983460595,0.0,1.1499858647117764,0.1,0.010055065155029297,0.3117947578430176,0.05005694,0.08895789,-266.8788001967987,-2.5272776325801583,-2.5967202277918275,0.0,9600,1.451939344406128,0.0017964820763754668,0.0004993139584957125,-247.1687622581416,0.0
68,5.006588935852051,-258.8525413525087,24.766449739754663,-198.6154622225222,-315.4058189082893,0.0,1.095849669729876,0.1,0.012008905410766602,0.3926568031311035,0.050821554,0.084857315,-266.0761743123697,-2.519619393808212,-2.5891543582641514,0.0,9600,1.457080602645874,0.0015674005012502065,0.0005520356491903239,-249.60264807846488,0.0
69,5.149710655212402,-257.3062543844975,23.630654295346297,-195.57874232144178,-311.82221782303,0.0,1.1329481822069647,0.1,0.009521722793579102,0.3168654441833496,0.051360555,0.0859849,-265.19918231958246,-2.50428234033046,-2.5735152531698398,0.0,9600,1.4017760753631592,0.0019062465716509428,0.0007239744360624544,-249.11302133680573,0.0
70,4.998755216598511,-255.9721093959024,23.93527299565616,-192.9627790440846,-316.8599568553024,0.0,1.1314421758540778,0.1,0.009554147720336914,0.34410810470581055,0.049804516,0.09124666,-264.2764750272145,-2.491438450664323,-2.5604927198083205,0.0,9600,1.4219253063201904,0.0018614856398972465,0.0006383882208896269,-249.68092971184748,0.0
71,4.817678928375244,-257.9873590025533,25.681050387026957,-204.18205004823503,-317.6442727889963,0.0,1.057756403164045,0.1,0.044831037521362305,0.3241715431213379,0.050879188,0.10220834,-263.64756342474834,-2.511323582644101,-2.580286403462608,0.0,9600,1.447857141494751,0.002233682439362635,0.0005498694533603659,-248.68124927537065,0.0
72,5.088352918624878,-254.33234396488976,26.208195867591854,-193.86142577700141,-316.6095465097575,0.0,1.0981017677046843,0.1,0.035806894302368164,0.3848605155944824,0.050648723,0.094948255,-262.71604147876246,-2.4743993327782663,-2.5435195161371222,0.0,9600,1.45542311668396,0.0020020958368952586,0.0007057673357051156,-249.75912671421275,0.0
73,4.988634347915649,-256.7512485078512,24.276189782080237,-195.04026211623534,-308.06949588480404,0.0,1.1190723751790685,0.1,0.04402422904968262,0.38971638679504395,0.05064517,0.08973319,-262.1195621816713,-2.4988864917300795,-2.567846079867031,0.0,9600,1.4417791366577148,0.0014166335208689517,0.0005925629870060429,-248.54624265561412,0.0
74,5.2015557289123535,-256.5142161521923,28.583024035720403,-193.22511255234963,-319.6744024055874,0.0,1.1357474502830494,0.1,0.010705232620239258,0.3224315643310547,0.050930455,0.088215746,-261.55902757872343,-2.4967756354377673,-2.565780033372384,0.0,9600,1.4696788787841797,0.001914025560107387,0.0005446162162355119,-245.97783447626912,0.0
75,4.995760679244995,-254.88919764061234,25.01628122642372,-193.75927861416974,-336.13173879451847,0.0,1.156344360434169,0.1,0.03418374061584473,0.34878063201904297,0.049329616,0.094977535,-260.89204458491236,-2.4808862049038347,-2.5494591628858854,0.0,9600,1.4201972484588623,0.001923461893593024,0.0006199172012360186,-245.80932799652484,0.0
76,5.228590250015259,-255.0827688751826,24.720610727092403,-196.42537990864733,-311.78942651632303,0.0,1.0614569200023678,0.1,0.010018110275268555,0.33521103858947754,0.04969103,0.10449247,-260.3111170139394,-2.482486675977601,-2.5514064850886036,0.0,9600,1.3950750827789307,0.0021792611143877797,0.0006422608941341272,-244.59860414067003,0.0
77,5.272484064102173,-251.69134695900667,27.716505036231805,-190.51609728135807,-320.29131348341286,0.0,1.0842177712694996,0.1,0.010074138641357422,0.33333396911621094,0.05011461,0.08830556,-259.44914000844614,-2.448574652513081,-2.5175367796119468,0.0,9600,1.4527902603149414,0.0019527861497534269,0.0005924215780885488,-245.77015194718388,0.0
78,5.287546157836914,-259.6475323757841,25.545508801063555,-194.8824800996626,-318.0426128890049,0.0,1.1374311598290767,0.1,0.009881258010864258,0.35924196243286133,0.050483327,0.09395857,-259.4689792451799,-2.527546256365238,-2.596817925577547,0.0,9600,1.386657476425171,0.0016442415929011063,0.00047149824863638914,-246.68170051748007,0.0
79,5.145798921585083,-249.42984898062505,23.895382272695198,-195.45123210445323,-320.82372209969293,0.0,1.0645488766245816,0.1,0.009468555450439453,0.35005664825439453,0.050662752,0.104843274,-258.4650662187244,-2.426086772753206,-2.4950755137378793,0.0,9600,1.3842763900756836,0.001954751221425216,0.0005390593341439224,-245.21372308251895,0.0
80,4.904421806335449,-252.02053484392255,28.308935168257413,-193.9820787648256,-329.3659005593732,0.0,1.1308754476166765,0.1,0.009545087814331055,0.341174840927124,0.05026348,0.08645874,-257.82061308124423,-2.4517653970714623,-2.5210036310015735,0.0,9600,1.3434860706329346,0.0015903442920969357,0.00037022252610466506,-245.73440712604443,0.0
81,5.040127277374268,-252.3084462919917,22.919002033647764,-191.1750580009111,-296.539734435266,0.0,1.066487630083272,0.1,0.009944438934326172,0.30666446685791016,0.049696323,0.09258535,-257.269396402319,-2.454718250350972,-2.523766080149866,0.0,9600,1.3273773193359375,0.0021057194849589816,0.0006327286085127027,-244.81569572079968,0.0
82,4.28266167640686,-251.14014058777772,25.203815793684146,-178.89930646919902,-308.72442687680797,0.0,1.0421034908483275,0.1,0.012546300888061523,0.31497645378112793,0.050339278,0.09137162,-256.65647082086485,-2.443151400581742,-2.5120459587265414,0.0,9600,1.311105728149414,0.0015243538662499483,0.00035047277680530064,-245.27790049503426,0.0
83,4.8912718296051025,-249.13693436133198,24.047694908718118,-192.96652632690277,-313.031583102266,0.0,1.105494206386272,0.1,0.056645870208740234,0.6550970077514648,0.050146755,0.09390517,-255.90451717491158,-2.4230130803456977,-2.492003839636086,0.0,9600,1.3331317901611328,0.0017137600238750275,0.0005209604174412414,-245.44379148498894,0.0
84,4.942455291748047,-248.91122267844094,26.21622128259018,-192.9047330311772,-302.9996646893954,0.0,1.0903048169562237,0.1,0.018232345581054688,0.2966012954711914,0.050413683,0.08592318,-255.20518772526452,-2.420573035018609,-2.489747975775583,0.0,9600,1.3606188297271729,0.0018362303138295668,0.0004952974717742065,-244.65470194043544,0.0
85,4.27100133895874,-249.037835785177,26.492464752891802,-191.86025298683032,-312.4426260575276,0.0,1.0598214168112268,0.1,0.00896906852722168,0.3059380054473877,0.050688516,0.10089517,-254.58845253125577,-2.4216797659345826,-2.491078232852161,0.0,9600,1.3606808185577393,0.0016847986779925394,0.0004753702039213992,-243.51750976627426,0.0
86,4.926361560821533,-247.65676154524172,25.59391796097837,-191.56202594340743,-324.23154650525163,0.0,1.043849763373363,0.1,0.009133577346801758,0.31586194038391113,0.05059254,0.0974322,-253.89528343265437,-2.407984747841114,-2.4771900355867906,0.0,9600,1.3905255794525146,0.0016152006486599064,0.000501405867931419,-245.17949732766232,0.0
87,5.124176979064941,-253.88099951433358,28.00574546774684,-187.5277239130701,-316.7137410251264,0.0,1.1263645649521794,0.1,0.008700370788574219,0.31587886810302734,0.04973133,0.09495424,-253.8938550408223,-2.4701660815178124,-2.5394337848166506,0.0,9600,1.433154821395874,0.001714712412906841,0.00042851680929008405,-245.34961963969994,0.0
88,5.274772644042969,-248.23377281718808,24.994871747243295,-183.02879276000965,-316.5836179269625,0.0,1.13983122471784,0.1,0.010680675506591797,0.33537745475769043,0.049366787,0.08885365,-253.3278468184589,-2.412975536293924,-2.482862815736986,0.0,9600,1.400573968887329,0.0019808141740102676,0.0005359886935840084,-244.14624849636738,0.0
89,5.122360706329346,-244.3644317063588,26.87202704483854,-191.14331050477537,-308.39347272885067,0.0,1.1123054318663206,0.1,0.00994110107421875,0.4458281993865967,0.05006364,0.09100119,-252.43150530724893,-2.3745875057873422,-2.4442437587008556,0.0,9600,1.4845373630523682,0.002099894125355855,0.0005717252693313349,-244.09374709826326,0.0
90,4.831540584564209,-245.01592792990218,26.076340598911994,-184.45646396178083,-301.7609077690498,0.0,1.034550154245997,0.1,0.010846614837646484,0.3852577209472656,0.04980791,0.094105825,-251.68994756951426,-2.3809212819381553,-2.450872152325744,0.0,9600,1.4900529384613037,0.0019132557514084027,0.0005115664479127522,-243.62775305931567,0.0
91,4.907886266708374,-243.36162658835065,25.076977798984267,-180.66545575118076,-307.90394202931566,0.0,1.067073121742508,0.1,0.0587465763092041,0.36826658248901367,0.050168816,0.092086986,-250.8571154713979,-2.364196584460198,-2.434200507027887,0.0,9600,1.4125351905822754,0.0014773603956253253,0.00047664221473009606,-242.78872057986467,0.0
92,4.858363389968872,-245.2516798038339,27.294083619736718,-186.28891197756082,-339.79883801481674,0.0,1.1344280745429194,0.1,0.009189605712890625,0.3096578121185303,0.050630428,0.09230663,-250.2965719046415,-2.383032413594013,-2.4533875002612064,0.0,9600,1.5048439502716064,0.0016234424511899594,0.0004634294749238064,-241.47485216885914,0.0
93,4.979017972946167,-246.94291483921884,22.377114981949283,-199.59633843413448,-291.8067925580221,0.0,1.0806547166426184,0.1,0.014049053192138672,0.3742249011993408,0.050958376,0.09354723,-249.96120619809923,-2.3999987724575,-2.4703136219107544,0.0,9600,1.4276862144470215,0.001389002056078225,0.00041684205298720783,-241.48114140030373,0.0
94,5.004922866821289,-246.56959411201748,26.34291590074321,-180.8415038786903,-305.9048395581761,0.0,1.1556901780015127,0.1,0.00933837890625,0.29116344451904297,0.048991606,0.08129242,-249.62204498949106,-2.395752910070321,-2.4663583136409133,0.0,9600,1.4170787334442139,0.0015009650298602416,0.0004552860915879427,-241.179120319077,0.0
95,4.756977796554565,-250.34629337725983,24.54388294640924,-203.85820596970296,-315.6386262403031,0.0,1.0830665109816777,0.1,0.021590709686279297,0.32664942741394043,0.05040689,0.0945417,-249.69446982826796,-2.4329944856398575,-2.5038550896670446,0.0,9600,1.4367938041687012,0.0014963327125854828,0.0005009804853176562,-240.57579539359529,0.0
96,5.153287649154663,-243.08056212273854,26.241677383167765,-177.44976319105638,-313.69296529450037,0.0,1.103096642869487,0.1,0.03401470184326172,0.29328179359436035,0.049897455,0.098136544,-249.03307905771504,-2.3609267242783045,-2.431601532749858,0.0,9600,1.410438060760498,0.0015476578945574004,0.00045611217959228977,-241.25204846056852,0.0
97,5.0740110874176025,-245.79374298045545,24.638721207660822,-171.22069528203676,-322.9728610955611,0.0,1.0645474384684488,0.1,0.009568214416503906,0.31926488876342773,0.050154235,0.09127713,-248.70914544998908,-2.3881077625141605,-2.45871557497423,0.0,9600,1.3879764080047607,0.0016716902112384915,0.0004645752251800807,-242.08144333787192,0.0
98,5.149903774261475,-248.9737417662253,25.36502153886139,-170.82394797593022,-298.99888990385307,0.0,1.1287278425617107,0.1,0.009490489959716797,0.31525421142578125,0.050590377,0.08720283,-248.7356050816127,-2.41928596589484,-2.4903873603183695,0.0,9600,1.411240816116333,0.0018565666844266736,0.0004909699981209589,-240.34263733529974,0.0
99,5.271486282348633,-249.2296204795549,27.416640942327298,-174.0563618460897,-327.82524995861957,0.0,1.1492809330484735,0.1,0.010026216506958008,0.337693452835083,0.050364528,0.08929498,-248.78500662140692,-2.421725547969197,-2.492834299028749,0.0,9600,1.5750727653503418,0.0014652659897701687,0.0005112398885688481,-240.00948956724432,0.0
100,4.9331629276275635,-240.30846036004183,23.627602653595368,-180.92746168000392,-282.9483727589158,0.0,1.1604314430614013,0.1,0.009711742401123047,0.29305005073547363,0.050951768,0.08235188,-247.93735199527043,-2.33320459357668,-2.403861864221225,0.0,9600,1.4198050498962402,0.0016308700413219903,0.0005199092953300119,-240.05650836964153,0.0
101,4.8090434074401855,-244.28295274779734,25.942557447317977,-185.86421595717255,-343.6172703848696,0.0,1.1226626753030073,0.1,0.009571552276611328,0.42044878005981445,0.050774086,0.0937252,-247.57191207052313,-2.372349014685358,-2.443474392197879,0.0,9600,1.370138168334961,0.0016094295106698466,0.0004374556310807589,-240.39009325670486,0.0
102,4.833394289016724,-240.44481747541764,22.318137928881136,-184.62535383017408,-286.5208533289151,0.0,1.1372840526937453,0.1,0.008793830871582031,0.30153918266296387,0.050207946,0.090969235,-246.8592026110126,-2.3340283041397076,-2.405229820033388,0.0,9600,1.371443271636963,0.0014187870039445315,0.0004390709235244425,-239.91187361575462,0.0
103,4.806896686553955,-246.41935191408822,24.819696511084793,-186.92117353226757,-298.0291451996331,0.0,1.07333310159938,0.1,0.010816335678100586,0.3714010715484619,0.04985739,0.0890734,-246.81521754132018,-2.39370765309177,-2.4649948822946453,0.0,9600,1.475597620010376,0.0015376957576440904,0.0003957846611007522,-240.624929173208,0.0
104,4.788457155227661,-243.0494409101863,25.546631166164328,-180.57917594903154,-296.12944099995553,0.0,1.056774528878885,0.1,0.07110905647277832,0.3511810302734375,0.05099428,0.09184421,-246.4386398782068,-2.35988626429484,-2.431378029166281,0.0,9600,1.365410566329956,0.0016690590329677905,0.0003818262402669312,-243.3298069869232,0.0
105,4.8822102546691895,-246.92194309189856,26.783042880327017,-186.26023028375994,-321.77611059359907,0.0,1.0612999090343658,0.1,0.008877038955688477,0.31018948554992676,0.050161026,0.09766585,-246.48697019957598,-2.3982155368532294,-2.4699276309447193,0.0,9600,1.3489644527435303,0.0017315904850428708,0.0004477324723447436,-241.53072880973872,0.0
106,4.804043531417847,-239.35945589467156,24.484777385291228,-189.6178581623445,-296.73284589814864,0.0,1.0396021542376037,0.1,0.06960487365722656,0.5886867046356201,0.050437752,0.100579455,-245.77421876908556,-2.3228028919965653,-2.394423814565418,0.0,9600,1.3878710269927979,0.0014209592269262329,0.000400450470723817,-240.88628953993435,0.0
107,5.10450005531311,-244.75775019749244,23.542535133844,-189.70652695143303,-313.8097619108385,0.0,1.072371652854821,0.1,0.008271932601928711,0.2906012535095215,0.050966438,0.096033916,-245.67257191192627,-2.3766814932932196,-2.4484853604148,0.0,9600,1.443894863128662,0.001917689403406566,0.0005153462118114853,-241.87583733597015,0.0
108,4.88442063331604,-242.68278848047495,25.820817449354408,-176.47264766896618,-312.6021063988646,0.0,1.040704770505756,0.1,0.009309053421020508,0.32077598571777344,0.050754167,0.103366904,-245.37359356878113,-2.3559260564828137,-2.4276856384475463,0.0,9600,1.4240570068359375,0.0016780607339402288,0.0005193917242506454,-244.59910291257538,0.0
109,4.883987665176392,-238.69440374237502,25.328578156161644,-178.36811062840866,-297.0768060202107,0.0,1.0561412989701173,0.1,0.009743452072143555,0.3261432647705078,0.050460838,0.0899388,-244.70567458614053,-2.3166611723145705,-2.3879791873648215,0.0,9600,1.4503917694091797,0.0013710834874383847,0.0003737694964128435,-243.41890227815975,0.0
110,4.865720987319946,-240.99566608521286,23.752305005143075,-182.80399212530511,-293.01221308351296,0.0,1.074002995228702,0.1,0.06010890007019043,0.35807132720947266,0.04968192,0.0881238,-244.33467373604776,-2.3394894238787303,-2.4109078755473035,0.0,9600,1.3879337310791016,0.001771786730388745,0.0004176880955122408,-242.30914595760981,0.0
111,4.833230257034302,-236.9993526095747,22.99853673101692,-169.55507750556527,-297.89037679522255,0.0,1.1033638588812302,0.1,0.015425920486450195,0.36881089210510254,0.05098556,0.10428506,-243.60114162340045,-2.2992833582671297,-2.371053049833232,0.0,9600,1.322026252746582,0.0015290444604666392,0.0004095168724110841,-242.01519864386722,0.0
112,4.9136786460876465,-239.09136161376924,24.181569416702388,-190.5849570181108,-289.9729181588585,0.0,1.1543068055465568,0.1,0.027120351791381836,0.30481410026550293,0.050092954,0.08558234,-243.15016362243733,-2.3200497210735866,-2.39173878118325,0.0,9600,1.4018089771270752,0.001795760780012712,0.0004126718363193541,-241.3149804296309,0.0
113,4.701417446136475,-241.93594161335068,19.65433146590821,-196.01082103931512,-299.02396550017096,0.0,1.0779809171721233,0.1,0.010195016860961914,0.35515546798706055,0.05014466,0.09083486,-243.02874142152865,-2.348685072402501,-2.4200802819156726,0.0,9600,1.0052833557128906,0.0012580199757211774,0.00037643466482734106,-241.94106596908964,0.0
114,5.410969018936157,-238.67771231409122,20.694070452519167,-184.8955377403704,-278.1066079312011,0.0,1.0905921241559555,0.1,0.016725540161132812,0.31497907638549805,0.04895517,0.08253486,-242.5936385107849,-2.315935581334784,-2.3875477848076545,0.0,9600,1.3131580352783203,0.0013454233858184192,0.0003519314808006528,-240.68270744943095,0.0
115,4.953486442565918,-239.64045702618694,26.574957860222103,-182.59589629786666,-303.8175452885557,0.0,1.1386702396326587,0.1,0.008531570434570312,0.27852964401245117,0.050828107,0.09623722,-242.29832036232511,-2.325868811927361,-2.3972325865018345,0.0,9600,1.3186209201812744,0.001381515484206669,0.00038399715742846774,-238.683628414851,0.0
116,4.885188341140747,-240.26504990063992,24.16489985905335,-176.44042326746694,-305.8937641738716,0.0,1.0900643935269247,0.1,0.02107977867126465,0.3304431438446045,0.05046748,0.09232962,-242.0949933161566,-2.3319812645352687,-2.403658221119344,0.0,9600,1.5195019245147705,0.0016485904882488657,0.0003838279046899267,-238.60038898470987,0.0
117,4.973697185516357,-239.48860311320996,24.14875769158199,-191.831786087174,-299.4984512689612,0.0,1.096297145038837,0.1,0.009157896041870117,0.3061199188232422,0.05027832,0.08687593,-241.83435429586194,-2.3237377184143626,-2.3957384914578874,0.0,9600,1.447761058807373,0.0015718353461772322,0.0004108287100282989,-237.34311125134434,0.0
118,5.187828779220581,-243.52430778697445,21.20285047226603,-192.5427364353845,-291.64732696129056,0.0,1.017389762097683,0.1,0.01317596435546875,0.4027369022369385,0.05045142,0.093357675,-242.0033496449732,-2.364150908199289,-2.4360124791251443,0.0,9600,1.4452784061431885,0.0013316065724860904,0.00036966462272769815,-238.4339853353868,0.0
119,4.903106212615967,-245.2630593565968,22.145522087144318,-174.9806407409171,-302.2117760592165,0.0,1.0471015290043102,0.1,0.008175373077392578,0.3131108283996582,0.048594188,0.09531031,-242.32932061613556,-2.3817974407662876,-2.453340139824414,0.0,9600,1.2893424034118652,0.0014912307894699127,0.000346413266302317,-238.48837121820787,0.0
120,4.837547540664673,-244.28912757128606,22.64851327307357,-204.80250082521633,-317.44219253141324,0.0,1.1217342028058945,0.1,0.02110886573791504,0.5567529201507568,0.050232448,0.098252885,-242.52530131165062,-2.3719404825091837,-2.4438148500611967,0.0,9600,1.2971346378326416,0.0011580835950848478,0.0003258531201566122,-236.81633028921232,0.0
121,4.915199041366577,-237.7581537917914,25.246421794397193,-179.06504533585212,-300.01650063236457,0.0,1.1628174739844952,0.1,0.009833574295043945,0.4007260799407959,0.049115438,0.088564955,-242.0485865596647,-2.3066813047362706,-2.378576989280616,0.0,9600,1.2486090660095215,0.001418818437740734,0.00037102517789895607,-238.72692872987696,0.0
122,4.643259048461914,-237.73728825275023,24.337025215834203,-183.95916354077073,-300.4483273958949,0.0,1.0702069830749659,0.1,0.014721870422363281,0.32695698738098145,0.050065614,0.09291613,-241.61745672897325,-2.306781699228633,-2.378253800952017,0.0,9600,1.321631669998169,0.0014263571988956504,0.0002942633431663278,-237.9965034811318,0.0
123,4.729288339614868,-235.86184481869955,23.555483379655225,-182.08494109353194,-301.95037987675767,0.0,1.051005414856102,0.1,0.008407115936279297,0.30662012100219727,0.050189022,0.102538146,-241.0418955379459,-2.288101386198973,-2.3596944946726315,0.0,9600,1.291264295578003,0.0014121262300629176,0.0005749785619693265,-237.2913226023723,0.0
124,4.916533470153809,-242.52141335949258,27.65159405874469,-179.71179380425787,-312.6762132263587,0.0,1.0300383538537092,0.1,0.009430170059204102,0.300961971282959,0.049139466,0.0969461,-241.18984732010057,-2.3546009355308084,-2.426047632524773,0.0,9600,1.265721321105957,0.0014984425556115802,0.00030420438066021004,-235.95355953291627,0.0
125,5.046863555908203,-235.29514429748846,22.972841781413983,-174.41601109202225,-294.6910731504331,0.0,1.0951534017541071,0.1,0.010163068771362305,0.32105445861816406,0.04972418,0.091395184,-240.60037701783935,-2.282362403420033,-2.3538816331429087,0.0,9600,1.3480238914489746,0.0013218777416705272,0.00035892401550839025,-235.47853961793606,0.0
126,5.078625679016113,-239.26614408477693,22.427639757234125,-177.14611399294822,-295.4215411606032,0.0,1.1641406591549297,0.1,0.010563135147094727,0.33328962326049805,0.050387677,0.092219464,-240.4669537245331,-2.3223970970870487,-2.3935727438908656,0.0,9600,1.2846407890319824,0.001149624246478051,0.0002784645227964144,-235.11898868988504,0.0
127,5.000461578369141,-238.66907844654426,23.411661135649954,-185.3359016624444,-288.72439924914033,0.0,1.1262022333762298,0.1,0.009584426879882812,0.24417567253112793,0.050094668,0.0888816,-240.28716619673423,-2.3161053950807706,-2.387538499682519,0.0,9600,1.271981954574585,0.0010256785931607958,0.0002546851952695191,-234.0594096982211,0.0
128,5.104310750961304,-237.19489776816383,25.770025904327394,-176.69848097242576,-295.73317399316966,0.0,1.0312083659058358,0.1,0.009175539016723633,0.2702901363372803,0.049446024,0.08080839,-239.9779393538772,-2.301735063346472,-2.3729697078186565,0.0,9600,1.4460434913635254,0.0019405831846022032,0.0004067782479628135,-234.43930787304367,0.0
129,4.176288843154907,-234.95516449438117,24.75492668871703,-174.3583314294387,-305.91524941455117,0.0,1.0899776947751392,0.1,0.05553078651428223,0.7203900814056396,0.050704982,0.098213494,-239.4756618679276,-2.278700280133728,-2.350476271851383,0.0,9600,1.4768846035003662,0.0012270718685489421,0.00032753574290463966,-233.9061774916246,0.0
130,4.905837535858154,-238.45201030105366,24.448831829374246,-191.86655680081088,-315.76787575156237,0.0,1.0969363921140751,0.1,0.008728742599487305,0.2297821044921875,0.048968635,0.08730358,-239.37329671124022,-2.3137936428437036,-2.385375082287162,0.0,9600,1.3192932605743408,0.0015058150467164488,0.0003199101045902999,-233.10019586703993,0.0
131,4.736584424972534,-242.4128959600002,24.22575174503392,-184.3195552258092,-299.50171182832713,0.0,1.111437279818644,0.1,0.008440971374511719,0.24501991271972656,0.049946226,0.08625619,-239.67725663611623,-2.3536021872643498,-2.424888983147472,0.0,9600,1.3035285472869873,0.0018114278462314694,0.00033888615144083925,-232.04253479599555,0.0
132,4.736329078674316,-236.5780526013926,24.926520961119255,-185.4126997769589,-287.0898450428112,0.0,1.0052069483597565,0.1,0.02118206024169922,0.8675746917724609,0.050054345,0.10444864,-239.36733623264388,-2.2951149286183914,-2.3665686806222466,0.0,9600,1.4145939350128174,0.0013354738754244415,0.0003119233593287592,-232.19334567138532,0.0
133,4.841291189193726,-236.75268543920174,23.827132354518298,-182.78049092194308,-299.981810872441,0.0,1.050877118890018,0.1,0.009947538375854492,0.32259321212768555,0.04984379,0.092122346,-239.10587115329966,-2.29707044893558,-2.3685344477237047,0.0,9600,1.6861958503723145,0.0016698331356899277,0.00038059720889890625,-232.59360952467281,0.0
134,4.926957130432129,-242.43199162542678,25.376614223985417,-187.42042128800642,-307.0004002825321,0.0,1.0992176233816606,0.1,0.0187680721282959,0.30322885513305664,0.049827013,0.08799837,-239.43848320051237,-2.353332979964985,-2.4254827062840048,0.0,9600,1.3352558612823486,0.001094622423230482,0.00029814779053366795,-233.3462918250215,0.0
135,5.087039470672607,-233.55741834186165,22.908117374795918,-185.51504856397383,-289.47968001418985,0.0,1.0160232631460027,0.1,0.008948802947998047,0.29166722297668457,0.048983324,0.10503622,-238.8503767146473,-2.2644859177894197,-2.3365361392896706,0.0,9600,1.3506569862365723,0.0012013277513787859,0.0002704079585471314,-234.95582219347983,0.0
136,5.053539752960205,-233.47482827656404,22.286262981416726,-171.9452846094509,-283.3070376373886,0.0,1.0515805346012708,0.1,0.009413719177246094,0.2966771125793457,0.049558077,0.09344608,-238.312821870839,-2.2639603938654562,-2.3356295771584734,0.0,9600,1.504028081893921,0.0012731690917445438,0.0003103958570959289,-234.05621328467998,0.0
137,5.061148643493652,-237.02123144075063,23.147281095956977,-184.1946160739332,-291.9541308156624,0.0,1.104200475693603,0.1,0.009596109390258789,0.47086334228515625,0.04955505,0.09597207,-238.18366282783018,-2.298932612690628,-2.371231367507407,0.0,9600,1.512204885482788,0.001198550322350344,0.0003019709269738319,-232.498782769554,0.0
138,5.182184219360352,-238.04450562364548,24.226686962591774,-165.89812276961533,-294.929358515469,0.0,1.0520688301777674,0.1,0.06162118911743164,1.283137559890747,0.049611993,0.09559108,-238.1697471074117,-2.3090735526444495,-2.381401074077376,0.0,9600,1.5087969303131104,0.0009252932365398292,0.0002468367312002336,-232.54619374856688,0.0
139,4.898445129394531,-237.65257173001547,22.26241497227469,-178.16167012098262,-286.8032955794418,0.0,1.0256352688207138,0.1,0.017714262008666992,0.3151817321777344,0.050505888,0.10206622,-238.11802956967207,-2.3055785880316755,-2.37753193318872,0.0,9600,1.3466055393218994,0.0011468847251278546,0.00029797137059158537,-233.09135122149843,0.0
140,4.8880839347839355,-239.09924453797657,23.8155317918036,-161.16525520758245,-297.2999011749184,0.0,1.0164622142745903,0.1,0.009280681610107422,0.2792551517486572,0.049600095,0.0942052,-238.21615106650253,-2.319728375121466,-2.391908817565522,0.0,9600,1.2937166690826416,0.0010642548915669036,0.00021880974897159797,-232.24078843158802,0.0
141,4.722838401794434,-236.4795768094766,25.035031829543104,-184.43611248358482,-290.5316120027317,0.0,1.0458532920143284,0.1,0.032967329025268555,0.3094520568847656,0.049973838,0.099132255,-238.04249364079993,-2.2937803075828556,-2.3658575944436446,0.0,9600,1.2596995830535889,0.0016105952320290993,0.00026730104389074424,-230.22493244676372,0.0
142,4.7404844760894775,-236.62007225258094,26.89905868784059,-182.42850769531074,-305.49987130176464,0.0,1.0471693668251456,0.1,0.04164576530456543,0.36582255363464355,0.049809683,0.093047656,-237.90025150197803,-2.2948618638468954,-2.367199687590221,0.0,9600,1.2979519367218018,0.0012699357725089349,0.0002923723131640854,-230.5910407950987,0.0
143,4.940981864929199,-238.94388876088806,24.57666006539471,-187.27747320745857,-318.4824662356388,0.0,1.0495736503947708,0.1,0.04213857650756836,0.4675285816192627,0.049587406,0.091474146,-238.00461522786904,-2.3178815801421675,-2.3902674087530236,0.0,9600,1.398709774017334,0.0014816795133172586,0.0002818871787660781,-229.88376398680057,0.0
144,5.0025153160095215,-237.32579465645827,24.168650524256567,-181.6979465195958,-284.3627058808693,0.0,1.073595210844083,0.1,0.00997781753540039,0.36084985733032227,0.049809452,0.10006182,-237.93673317072796,-2.302210501828325,-2.374258683952888,0.0,9600,1.3860795497894287,0.001296160632795839,0.00029903174227768756,-228.66498925707992,0.0
145,5.106144905090332,-238.8543944384788,21.747093519778264,-190.21815097940868,-297.17856116836043,0.0,1.0636042313133491,0.1,0.008114814758300781,0.3086378574371338,0.050018165,0.08920444,-238.02849929750303,-2.317289147577466,-2.3896029232033076,0.0,9600,1.3000435829162598,0.0011547349906742255,0.00028823139651791996,-228.8248445352579,0.0
146,5.031449317932129,-235.57511393629648,22.871341071195193,-180.4472396191721,-294.81728426859104,0.0,1.0263156713636987,0.1,0.008679389953613281,0.3027794361114502,0.049792543,0.086314134,-237.7831607613824,-2.284220358752645,-2.356739111548334,0.0,9600,1.2900872230529785,0.0009125463213184521,0.0002147893772005165,-228.5187042491329,0.0
147,4.982051849365234,-237.1629150813071,26.147026393131767,-174.36056683337006,-292.97860254782375,0.0,1.0932305435119534,0.1,0.009383678436279297,0.37360334396362305,0.049799804,0.0876327,-237.7211361933749,-2.300181657214741,-2.372335985272931,0.0,9600,1.4242253303527832,0.0011300561306759613,0.0003476951959627644,-229.08620890924536,0.0
148,5.183757305145264,-235.54734292709955,22.43713093970213,-189.79019065258498,-287.411875090666,0.0,1.0387381866974388,0.1,0.00979924201965332,0.45938658714294434,0.050061997,0.10349182,-237.50375686674735,-2.284143031094966,-2.3564011923996797,0.0,9600,1.4188716411590576,0.001300245198297702,0.0003282603638797042,-228.18961841420418,0.0
149,4.888007164001465,-236.91101843921192,26.28121859026839,-178.24613934153817,-293.11037795562464,0.0,1.0648339263347721,0.1,0.04237675666809082,0.3284189701080322,0.049384866,0.09887904,-237.4444830239938,-2.2974017207295754,-2.3700738948173696,0.0,9600,1.4063987731933594,0.000906811826596698,0.00029310446531741457,-228.81012697965656,0.0
150,4.797825336456299,-232.01387733422007,24.56334192937645,-177.50668540464088,-288.7653850581276,0.0,1.0387421949230737,0.1,0.048288583755493164,0.34519052505493164,0.050285317,0.09533073,-236.90142245501642,-2.2485092659965047,-2.3211565872577355,0.0,9600,1.3361101150512695,0.0013082020223320983,0.0003046324919196268,-228.53442962202868,0.0
151,4.89692759513855,-235.83958577620277,23.280213717596784,-173.13091753937377,-294.30889783063,0.0,1.0673376461092206,0.1,0.04363822937011719,0.3170769214630127,0.049990382,0.09889704,-236.79523878713505,-2.286614841658093,-2.359282801381122,0.0,9600,1.4379370212554932,0.0010188456248554376,0.0002551016369285202,-229.276856076155,0.0
152,4.930729866027832,-231.7201548921014,27.738573352216456,-162.19878162361422,-310.26329696991115,0.0,1.0864982355447537,0.1,0.01014089584350586,0.365889310836792,0.04965948,0.10048816,-236.2877303976317,-2.245598029056259,-2.31844383831515,0.0,9600,1.4649569988250732,0.0013879014144065995,0.00034690483427563174,-229.16786555266097,0.0
153,5.230427026748657,-233.9625651346007,25.449205772012583,-168.6394647246309,-291.1119436410542,0.0,1.0323031078077602,0.1,0.05791616439819336,0.4114234447479248,0.051024005,0.12550533,-236.0552138713286,-2.267718216922948,-2.3405591941338164,0.0,9600,1.6426808834075928,0.0010825788019904465,0.00024209139482163236,-228.82815669619333,0.0
154,5.1042914390563965,-234.31949549946125,23.655983753256468,-171.3140984497169,-302.6764331701649,0.0,1.1202102001515455,0.1,0.008930683135986328,0.29073429107666016,0.050358023,0.08648343,-235.88164203414186,-2.2716641529432824,-2.344230990120574,0.0,9600,1.326582431793213,0.000830141676791621,0.000283486056478183,-228.40898092095975,0.0
155,5.055915832519531,-232.798933489353,23.868905031176755,-184.06952609444443,-281.1985446363063,0.0,1.1529985601186759,0.1,0.01090693473815918,0.29206418991088867,0.049867533,0.0838623,-235.57337117966298,-2.256219262502909,-2.32897611345866,0.0,9600,1.3687620162963867,0.0014696966177281156,0.0003090667903561181,-227.52858765101283,0.0
156,5.115109205245972,-236.72850649746303,23.669570013947578,-176.06142826330307,-286.0999732024903,0.0,1.0808881664204775,0.1,0.03991961479187012,0.30127406120300293,0.04994207,0.09468475,-235.688884711443,-2.2951024189836073,-2.368319707225471,0.0,9600,1.4234833717346191,0.001293206958023071,0.00024734684624623564,-227.45424954030483,0.0
157,5.253119945526123,-234.93809708856028,23.142192289603184,-186.46517946113627,-303.562613127936,0.0,1.048630174473102,0.1,0.02319645881652832,0.41474199295043945,0.049848936,0.09593556,-235.6138059491547,-2.2775620644005916,-2.3503531692903814,0.0,9600,1.5157036781311035,0.001170612384563027,0.000245509810251036,-226.97801013987817,0.0
158,4.902464866638184,-233.46253657422866,23.338075594153313,-182.21102148559117,-294.38687479740406,0.0,1.0339793677968538,0.1,0.04281902313232422,0.6394760608673096,0.050092734,0.09949231,-235.3986790116621,-2.2627285941420565,-2.3355157707458334,0.0,9600,1.3996882438659668,0.0012648286100677324,0.0002507879351162043,-225.981314950715,0.0
159,4.849952220916748,-235.42503696003982,22.317763370517028,-185.80080319238286,-300.7187201347872,0.0,1.0566325065810356,0.1,0.050829172134399414,0.34160470962524414,0.049826697,0.09761444,-235.40131480649987,-2.282384695566349,-2.355261064189625,0.0,9600,1.7566206455230713,0.0015445227545124185,0.000348053120163509,-226.24438987231076,0.0
160,4.8445725440979,-238.06154432196982,24.351459257690195,-183.2657039014071,-291.8851306648256,0.0,1.1106377024501124,0.1,0.056200504302978516,0.40373897552490234,0.050068103,0.09819185,-235.66733775804687,-2.308443202388691,-2.381511117103713,0.0,9600,1.3587570190429688,0.0009458119648557454,0.0002507285651694427,-226.3189081404536,0.0
161,4.756118059158325,-230.7059915769139,23.776003305964643,-182.99435186859648,-301.6217596223451,0.0,1.1409192454967472,0.1,0.03165841102600098,0.3383598327636719,0.049735334,0.085678294,-235.17120313993357,-2.235520058296366,-2.3080310343379287,0.0,9600,1.4357788562774658,0.001164745678584081,0.00024758490040528394,-226.23121654649393,0.0
162,4.72917914390564,-234.02701415705255,23.331433206936175,-184.58176417245087,-308.27970747494044,0.0,0.9648297111708828,0.1,0.009228229522705078,0.29689836502075195,0.049264044,0.11604165,-235.05678424164546,-2.2686414459972735,-2.341217802147886,0.0,9600,1.3611040115356445,0.001514406993539119,0.0002899299593151701,-226.60194552994298,0.0
163,4.808899164199829,-233.3998982949872,23.049728332464852,-167.2117882804392,-304.17713031445123,0.0,1.0813400701578044,0.1,0.05225419998168945,0.49260926246643066,0.049905784,0.09053698,-234.89109564697964,-2.26219771469229,-2.334964430564034,0.0,9600,1.4814987182617188,0.0012443384755242172,0.0002800469670729945,-226.5852557427684,0.0
164,4.931156158447266,-235.32721344969318,24.6051793869891,-164.94395825541798,-294.19354766046433,0.0,1.086396764795576,0.1,0.009972095489501953,0.3723142147064209,0.050055716,0.09337925,-234.934707427251,-2.2812710668933796,-2.3540938998066196,0.0,9600,1.4840757846832275,0.0010415516754979882,0.0002910908382214809,-226.40859160457893,0.0
165,4.302330732345581,-232.72902817906518,23.572858090451298,-169.86312053281418,-281.1773925572479,0.0,1.091632636488621,0.1,0.020580768585205078,0.3133578300476074,0.04978558,0.09253263,-234.71413950243243,-2.2557678554925045,-2.3282136127116306,0.0,9600,1.387721300125122,0.0016349680289748864,0.0002458941604379328,-226.53904319310033,0.0
166,5.0860936641693115,-232.98050086581657,21.313490635514082,-183.87724588418686,-284.4881551391346,0.0,1.0638365350242078,0.1,0.02520275115966797,0.3106839656829834,0.049669757,0.08806648,-234.54077563877087,-2.25857755557835,-2.3309404075899383,0.0,9600,1.423494577407837,0.0017497276616531606,0.00031425059819543207,-226.3425469865691,0.0
167,4.853271722793579,-234.39151898330704,23.088187421407994,-166.24229437378156,-285.0020081427433,0.0,1.077494062270654,0.1,0.009684085845947266,0.2849092483520508,0.05053568,0.095984064,-234.52584997322447,-2.2721183187174283,-2.3448747285013076,0.0,9600,1.3896703720092773,0.0011783427318365386,0.00028666992553476306,-226.03366697168926,0.0
168,5.159174680709839,-232.74412972656464,19.74883956929541,-191.3003515213037,-286.75318517951126,0.0,1.0242551753508276,0.1,0.01056981086730957,0.5761892795562744,0.051470593,0.10031972,-234.3476779485585,-2.255898021116279,-2.328372581509748,0.0,9600,1.5142052173614502,0.0012503360533982467,0.00027978640694823853,-225.65922204315115,0.0
169,4.840071201324463,-232.50742914946628,23.044839864098932,-171.6339056894432,-285.2111021339685,0.0,1.0557094183835594,0.1,0.032785654067993164,0.6330704689025879,0.050106,0.09527564,-234.1636530686493,-2.2540661442522563,-2.326085081232948,0.0,9600,1.5360705852508545,0.0010806346627555193,0.0002519399063563492,-224.72602535392804,0.0
170,4.986873388290405,-234.0652930553581,24.59207832867432,-182.05425230793236,-289.95655642645863,0.0,1.0641704831008203,0.1,0.047870635986328125,0.47042250633239746,0.049893945,0.10361676,-234.15381706732018,-2.2698939570980787,-2.3416267926287513,0.0,9600,1.5213561058044434,0.001198384194808325,0.00025159245474898204,-225.89017606532286,0.0
171,4.925185918807983,-235.6341083161498,22.760864782287612,-178.0335296390377,-304.8483226138598,0.0,1.0553411576549203,0.1,0.00951838493347168,0.33580470085144043,0.049665004,0.10158798,-234.30184619220316,-2.2852840088854243,-2.357220859545159,0.0,9600,1.4157538414001465,0.000977538464161873,0.000259596448659223,-227.01481714471117,0.0
172,4.97207236289978,-233.71359470720768,23.122769709893845,-177.05101287065577,-292.9183170795477,0.0,1.0464593914821139,0.1,0.010041236877441406,0.49367189407348633,0.05017403,0.09188528,-234.2430210437036,-2.266244590194649,-2.3379858456728217,0.0,9600,1.4039697647094727,0.001472951419829217,0.00031620241906366313,-226.8683561786077,0.0
173,4.785506010055542,-234.9585959290333,21.88922571668099,-178.27574903882498,-290.9392214084803,0.0,1.0900912709631658,0.1,0.02773261070251465,0.3009679317474365,0.05013243,0.0930196,-234.31457853223657,-2.278396606114878,-2.350548221099809,0.0,9600,1.3811817169189453,0.0011028118143349122,0.0002595981591966249,-228.09882842486707,0.0
174,4.745676279067993,-234.0927526001749,20.811296345058334,-191.02279587868327,-287.08532531461657,0.0,1.0468553106759726,0.1,0.013244390487670898,0.2811622619628906,0.0497219,0.097174816,-234.2923959390304,-2.270114366075465,-2.3419725917285192,0.0,9600,1.3408970832824707,0.0014208487911922137,0.00029035769203851594,-228.94892981241276,0.0
175,5.0308380126953125,-233.26628956476907,20.924049893375997,-169.29423542753895,-282.7320749270703,0.0,1.0634804519778935,0.1,0.008458852767944336,0.2771930694580078,0.05042373,0.08958003,-234.18978530160427,-2.261487290627635,-2.3337944797111474,0.0,9600,1.4448339939117432,0.0012155063344707338,0.00026460155353615473,-228.546328700488,0.0
176,5.05369234085083,-234.6260704701481,21.271031177437255,-187.6517205850128,-280.16367268102283,0.0,1.0472605794281211,0.1,0.04155230522155762,0.6265273094177246,0.049954623,0.087738805,-234.23341381845867,-2.2753169606774155,-2.347182733215201,0.0,9600,1.4991674423217773,0.0008496845892592617,0.00023377799810865422,-229.1736337527911,0.0
177,5.057828187942505,-228.48054746434676,23.41649583822404,-183.82362782822298,-287.99655600214714,0.0,1.1091495265261924,0.1,0.011907100677490234,0.40010571479797363,0.05045489,0.09481499,-233.6581271830475,-2.214236333082358,-2.28595266350615,0.0,9600,1.4699420928955078,0.001380315510049362,0.0002783914980067283,-228.3709467061795,0.0
178,5.246420383453369,-226.86963428675054,21.649446272787298,-186.4970805546463,-278.17611702505894,0.0,1.0342818505811322,0.1,0.010002374649047852,0.24922704696655273,0.04966509,0.09264205,-232.97927789341782,-2.1981794914046113,-2.2698218491440616,0.0,9600,1.8314385414123535,0.0012507067650728322,0.0002182183537594423,-228.1469625357687,0.0
179,4.835129976272583,-233.7095931954027,22.976270988606228,-185.55905446769816,-328.08850599887717,0.0,1.138977697988555,0.1,0.08505082130432129,0.8324084281921387,0.050144553,0.09234592,-233.05230942361632,-2.2663723758813106,-2.3381711195240356,0.0,9600,1.3540222644805908,0.0012454905987662082,0.0002649119847501419,-228.01244053744705,0.0
180,4.889664173126221,-231.72342260995285,21.51933631346195,-180.81688436569465,-274.7135876604721,0.0,1.1017047827185336,0.1,0.008563041687011719,0.3075368404388428,0.05044082,0.08488481,-232.91942074225,-2.2469275182294886,-2.318103994511755,0.0,9600,1.3425335884094238,0.0014291537465431275,0.000297749779094454,-226.8461101463883,0.0
181,4.92065954208374,-228.67905578991443,23.649080640108046,-173.04904040554374,-292.825595668842,0.0,1.0991558307081548,0.1,0.04222917556762695,0.4099299907684326,0.04951714,0.09432151,-232.49538424701643,-2.216342521450924,-2.2878681317843808,0.0,9600,1.5139834880828857,0.0009831906441263567,0.0001995702115877801,-226.83181389970412,0.0
182,4.856577396392822,-231.84888832473155,24.242264297914215,-174.39780669106182,-281.3932251351003,0.0,1.113606698271997,0.1,0.008428096771240234,0.2852051258087158,0.049565334,0.08698588,-232.43073465478795,-2.2487160565633473,-2.319444678458462,0.0,9600,1.288435697555542,0.0012443658142707497,0.00030377509466392904,-225.80363763337493,0.0
183,4.849414825439453,-234.79903778739694,23.827615270387874,-179.83861961469455,-286.74893982364085,0.0,1.0082535994386874,0.1,0.009072065353393555,0.3031296730041504,0.049703617,0.088628836,-232.66756496804885,-2.2779725076906137,-2.3489337626848648,0.0,9600,1.319093942642212,0.0010723235639124157,0.0002536832454699093,-226.17101352326853,0.0
184,5.097164154052734,-231.1395449282388,21.217292070460445,-174.71710994895284,-302.7472441639618,0.0,1.0857889182435285,0.1,0.009077072143554688,0.3336939811706543,0.050432317,0.09273646,-232.51476296406787,-2.241863177416519,-2.3124502713933865,0.0,9600,1.3575317859649658,0.0008587799570581511,0.00021253696040235225,-227.8208236038509,0.0
185,5.027529001235962,-229.55810415578404,20.476006102832674,-187.26534090011614,-273.0917133919626,0.0,1.1088641686334144,0.1,0.008808135986328125,0.32720470428466797,0.04996678,0.09332762,-232.2190970832395,-2.226559440221781,-2.2967947977751804,0.0,9600,1.3421080112457275,0.001099321909980107,0.00022158922931959902,-227.5615235803025,0.0
186,5.09997820854187,-232.63985273917385,22.084528034979062,-181.7217669609908,-294.47311386229427,0.0,0.9544604387536778,0.1,0.00923919677734375,0.3119943141937256,0.05021565,0.08292709,-232.26117264883294,-2.256871729983327,-2.3274090831491203,0.0,9600,1.297633171081543,0.0019730617498225442,0.00031620927461311894,-226.8838410146472,0.0
187,4.995818853378296,-230.35204547901904,21.58432667905541,-176.71807834262114,-282.76907950283373,0.0,0.9883566594601274,0.1,0.03655290603637695,0.3082101345062256,0.050258666,0.09662378,-232.07025993185155,-2.2343166015235805,-2.304672103496362,0.0,9600,1.3217179775238037,0.0014535341331260517,0.00031488994719693764,-226.84473890617068,0.0
188,5.024119138717651,-231.47688044642268,21.088369403817133,-175.051489436942,-280.0435950684525,0.0,1.0162150070418814,0.1,0.0418858528137207,0.4143187999725342,0.050319213,0.09540206,-232.0109219833087,-2.245128312873786,-2.315716074337546,0.0,9600,1.4043335914611816,0.0012453332666442505,0.0002948190651002052,-227.14425368147414,0.0
189,4.846075534820557,-233.7692190025277,22.690304928619113,-174.30118347075563,-291.1071574693682,0.0,1.0252266004138666,0.1,0.04162240028381348,0.41893649101257324,0.050057884,0.09870477,-232.1867516852306,-2.2684098430380355,-2.3386391116732326,0.0,9600,1.4772555828094482,0.0012848634799123265,0.0002692882767055065,-226.3209718297221,0.0
190,4.796073913574219,-231.5523883207278,23.232358062612086,-171.9084466862397,-300.3049188851422,0.0,1.0480344486407887,0.1,0.010549545288085938,0.39705562591552734,0.05013108,0.09166593,-232.12331534878035,-2.2466430115547142,-2.316673052758,0.0,9600,1.3413009643554688,0.001108913415067351,0.00026997206419789233,-226.19983578681482,0.0
191,4.910597085952759,-228.29793225600838,22.348257381356646,-174.34935218481522,-281.4259953651572,0.0,1.107057958771732,0.1,0.00901341438293457,0.3327763080596924,0.04952611,0.09547459,-231.74077703950317,-2.2137396478714213,-2.2842101508606167,0.0,9600,1.3968470096588135,0.0010375554738691149,0.00020926294639616816,-225.84910535850253,0.0
192,4.7779905796051025,-229.96579663842954,21.43601294062357,-185.39713076517094,-283.81762108000123,0.0,1.0031661519088335,0.1,0.010735034942626953,0.3093681335449219,0.049561627,0.09381722,-231.56327899939583,-2.2298414190332316,-2.300771172614521,0.0,9600,1.340277910232544,0.001952195046359467,0.0004008129976149425,-226.5963300251388,0.0
193,4.917626142501831,-235.35595578025973,23.355280225286837,-188.17046494691164,-296.87796708522404,0.0,1.1552780503506952,0.1,0.009422063827514648,0.26551079750061035,0.049798597,0.09309167,-231.94254667748223,-2.283762009690648,-2.354627892036157,0.0,9600,1.3524463176727295,0.0010838672436576226,0.00023955701982886123,-227.30583511565806,0.0
194,4.744044303894043,-232.57611717467364,21.000157903483597,-188.42749309385476,-292.4991907133623,0.0,1.0866186136592368,0.1,0.04306483268737793,0.3919181823730469,0.050281927,0.089359835,-232.00590372720137,-2.2564745687748986,-2.3268188411403403,0.0,9600,1.4883410930633545,0.0010400630170052305,0.00022030386664488092,-226.18140197511954,0.0
195,5.144328594207764,-232.17973625246762,24.420688583239322,-171.38467391483482,-304.8899703679467,0.0,0.9753418759739447,0.1,0.011005401611328125,0.364793062210083,0.04935167,0.09811603,-232.023286979728,-2.2524562863151405,-2.322706975582923,0.0,9600,1.3919622898101807,0.0012712386514154648,0.00021411516389971164,-223.95421020515903,0.0
196,4.942447662353516,-232.4217317031221,22.58889784721974,-180.4272334420895,-281.72041839760067,0.0,0.9868381611712571,0.1,0.05516839027404785,0.4477987289428711,0.049728,0.112865895,-232.0631314520674,-2.2549442308290923,-2.325190508055616,0.0,9600,1.710695505142212,0.0011501483194342587,0.00023058954133228486,-225.2756209204271,0.0
197,5.044886350631714,-236.2882928416992,24.443084971919724,-165.34191445388956,-290.993558408643,0.0,1.0213908064849624,0.1,0.09180426597595215,0.621880292892456,0.05022295,0.087560065,-232.48564759103058,-2.2934806893760906,-2.363939518144583,0.0,9600,1.4236812591552734,0.0012744091092530831,0.00026611209556119615,-225.94092966922238,0.0
198,4.589735746383667,-232.5075105120762,21.71660084349658,-192.5672839621887,-281.6231478485777,0.0,1.008068310494332,0.1,0.07323336601257324,0.6714355945587158,0.04992652,0.10433986,-232.48783388313515,-2.255858514196919,-2.3259608904335107,0.0,9600,1.5726501941680908,0.0012539367993861916,0.0002335362308343351,-226.72006645219898,0.0
199,4.84511399269104,-231.69266610441164,23.468493084307617,-169.30501055805678,-283.9649829569425,0.0,0.9600873385775031,0.1,0.08125948905944824,0.7764348983764648,0.04893662,0.09966322,-232.4083171052628,-2.2477584715861076,-2.3178179207481278,0.0,9600,1.4640514850616455,0.001312759388009799,0.000272623029057351,-227.99277618716877,0.0
200,4.6847240924835205,-228.8397832844731,22.768005589651935,-176.67791496649656,-281.4576208938013,0.0,1.0639076779251966,0.1,0.08204793930053711,0.7872135639190674,0.049759634,0.100213535,-232.05146372318384,-2.2198981029202085,-2.2895109331766945,0.0,9600,1.481642246246338,0.0012726615119931291,0.00027146165465392815,-229.64472919587135,0.0
201,4.916208982467651,-229.12100810104778,24.902130191601405,-175.5607663559589,-301.03709873636603,0.0,1.0222207679733781,0.1,0.04364657402038574,0.42672181129455566,0.050546143,0.09083094,-231.75841816097025,-2.222663305203047,-2.29221514841266,0.0,9600,1.3517627716064453,0.0011488352289387705,0.00021382236828186904,-226.403851824519,0.0
202,4.817581653594971,-230.2160813386406,21.203413607876602,-177.14274943099204,-286.39388815736015,0.0,1.020593078350198,0.1,0.05521512031555176,0.4042360782623291,0.049772073,0.09199503,-231.6041844787373,-2.233466768165784,-2.3030805833476937,0.0,9600,1.8998653888702393,0.0013655871816953202,0.00030971307414973077,-224.64835435809536,0.0
203,4.899363279342651,-226.98500927033248,24.68540419088311,-169.4266292094083,-276.6676895310997,0.0,1.035612716575633,0.1,0.08205270767211914,0.3492741584777832,0.050404508,0.095776305,-231.14226695789682,-2.2012682888542354,-2.270903700009963,0.0,9600,1.318587303161621,0.0017300441149316976,0.0002739333609896537,-223.17225571692634,0.0
204,5.025116920471191,-230.59852583409847,21.3502754679907,-182.66666285038147,-288.0951503310436,0.0,1.0501751128643386,0.1,0.02034735679626465,0.3562195301055908,0.049751338,0.09270945,-231.087892845517,-2.2372845788096196,-2.3072030605828844,0.0,9600,1.351029872894287,0.0012044697013895206,0.0003045981359876816,-223.41279532567668,0.0
205,5.0904881954193115,-233.75358321507937,25.710439483473664,-184.87054658803018,-319.2511288632462,0.0,1.017920335838295,0.1,0.08278679847717285,0.9805309772491455,0.050030693,0.0965309,-231.35446188247323,-2.2693804003128304,-2.338641815935111,0.0,9600,1.644603967666626,0.0015075888009208553,0.00031943051485593067,-225.25672281659007,0.0
206,5.252179145812988,-232.75582723546862,23.247737778416532,-168.40675768883483,-292.29737301667336,0.0,1.039122017715305,0.1,0.09437704086303711,1.090547800064087,0.049823508,0.08910388,-231.49459841777275,-2.259033087458575,-2.3285806981668125,0.0,9600,1.5565464496612549,0.0013108589009292453,0.00024936994114249954,-226.8106038783103,0.0
207,5.140035390853882,-227.6219749115725,25.360909902617323,-178.12791665359447,-277.8621055549485,0.0,1.0140493446464285,0.1,0.04570317268371582,0.2601587772369385,0.04957261,0.104371056,-231.10733606715274,-2.2075128344905965,-2.277244351506829,0.0,9600,1.3716888427734375,0.001239901488021572,0.0002500700170040816,-225.88950489879986,0.0
208,4.741981744766235,-234.13578917106744,24.367976983408937,-169.30885613191361,-289.76608761182894,0.0,0.912081724192246,0.1,0.06059122085571289,0.7724864482879639,0.04993197,0.088145144,-231.41018137754423,-2.2723529374854086,-2.3422538988637838,0.0,9600,1.6553528308868408,0.0020137645183472197,0.00022282667401273332,-226.97406372823588,0.0
209,4.975570440292358,-226.3539099575827,21.708930852495353,-181.4951510814861,-274.1745042454198,0.0,0.9827537144386527,0.1,0.09237170219421387,0.6625738143920898,0.04996651,0.11506551,-230.90455423554806,-2.1943263618880238,-2.2644372210672468,0.0,9600,1.584439992904663,0.0014601233285713522,0.00021871045554409732,-225.25955824111998,0.0
210,4.77691125869751,-229.20866883381487,22.84992317968457,-185.30876245056274,-292.7337653619956,0.0,1.0054941093711212,0.1,0.009690046310424805,0.4233667850494385,0.049724936,0.1104939,-230.73496569537474,-2.223509619891862,-2.2931360362348965,0.0,9600,1.373183250427246,0.0012165546753128006,0.00020958174892539037,-226.40002936489424,0.0
211,4.9307756423950195,-237.4603027231848,23.456962887702606,-168.01876907350882,-290.9626456075537,0.0,1.0680459286960622,0.1,0.0674433708190918,0.6365666389465332,0.049676813,0.088941775,-231.40749939815575,-2.3061380518459846,-2.3755842204855,0.0,9600,1.525742530822754,0.0016839100628633498,0.00027594033006776817,-226.58181464460358,0.0
212,4.900294542312622,-233.86394339603126,20.24921161519905,-184.43733727866874,-290.1180176747599,0.0,1.0096715304775077,0.1,0.04339456558227539,0.3889143466949463,0.0497735,0.10265608,-231.6531437979433,-2.2699181891299918,-2.3395576365957935,0.0,9600,1.3939063549041748,0.0009767949582373586,0.0002116304557162516,-225.48257733010723,0.0
213,4.751510381698608,-229.08680794474228,24.333127605532464,-182.70067232672795,-287.72264799204845,0.0,1.0176627975319712,0.1,0.009194374084472656,0.3044900894165039,0.0495101,0.09385555,-231.3965102126232,-2.222804443634253,-2.2920452471068766,0.0,9600,1.377234935760498,0.0013044281403222096,0.0002474364574724654,-225.51112442670905,0.0
214,5.019891738891602,-230.3570483219311,23.96840186612645,-171.48453225486134,-285.8535688515847,0.0,1.0345068866253524,0.1,0.043932199478149414,0.3332223892211914,0.050322298,0.09762766,-231.292564023554,-2.2347998080931024,-2.3045872574967663,0.0,9600,1.367295742034912,0.0016097685337001075,0.00030601675150373597,-224.78495945592385,0.0
215,5.1322362422943115,-230.17098781679775,22.052608115486354,-179.58759119668977,-275.3523170187403,0.0,1.0252237903514057,0.1,0.1017143726348877,1.0393903255462646,0.050114382,0.098161966,-231.1804064028784,-2.2323835248504533,-2.3026350200306163,0.0,9600,1.6697731018066406,0.00110528900559603,0.0002053386666713468,-222.82670380259938,0.0
216,5.047255039215088,-229.86076858215628,24.469464044603875,-177.91835662223664,-289.2715008053459,0.0,1.054925170693295,0.1,0.07841753959655762,0.5009634494781494,0.049679257,0.09938731,-231.04844262080618,-2.2297332588514247,-2.299774734958501,0.0,9600,1.464878797531128,0.0008766601962568307,0.00023423615657964034,-224.8067520435486,0.0
217,5.233664512634277,-226.0508229826104,22.589373510925178,-172.82141667543758,-274.0293247020841,0.0,0.9999778278095744,0.1,0.053116559982299805,0.6892337799072266,0.049957518,0.10200673,-230.54868065698662,-2.1915923252222407,-2.261585154890471,0.0,9600,1.413419485092163,0.0011493129217727297,0.00027389218123789256,-224.76332404222447,0.0
218,4.908643484115601,-229.8179558427821,23.337214482129472,-182.1106921526274,-290.37222718942013,0.0,1.0373628113424516,0.1,0.07432746887207031,1.0560131072998047,0.04938869,0.10057881,-230.47560817556618,-2.229389035005742,-2.2991353902794893,0.0,9600,1.994035005569458,0.0010924147419858635,0.00021751432551169562,-223.9896539515796,0.0
219,4.694612979888916,-231.68240728665,20.44451199371759,-180.7430610330035,-273.0288154035548,0.0,1.0293101413257373,0.1,0.10089468955993652,0.8944568634033203,0.04962069,0.092911504,-230.59628808667458,-2.247578318123081,-2.3179665637920293,0.0,9600,1.6383395195007324,0.0011738092667828086,0.00020779732009732147,-223.94032021750027,0.0
220,4.769372224807739,-227.88686214722907,22.599586961312845,-168.36251918701709,-288.3627468020802,0.0,1.1617649487396238,0.1,0.04184389114379883,0.43191051483154297,0.050085142,0.085995615,-230.32534549273004,-2.2100448837581723,-2.279873645819088,0.0,9600,1.5601091384887695,0.0009946216515948406,0.00021604961489055883,-223.61550412619192,0.0
221,4.775754690170288,-233.69820512397678,22.796273904843066,-174.75038267527876,-294.9604954113785,0.0,0.996854029200474,0.1,0.08155965805053711,0.9032456874847412,0.050355677,0.10421166,-230.6626314558547,-2.2675705536180923,-2.3380136949002206,0.0,9600,1.5421056747436523,0.001073734036118865,0.0001504893142388168,-222.93010143043597,0.0
222,4.806689739227295,-232.29336635882555,24.169195321699245,-176.79739603939782,-290.51081365965416,0.0,1.0242870006131564,0.1,0.09652256965637207,1.0355989933013916,0.050121263,0.09841612,-230.8257049461518,-2.253740119271674,-2.3239537770804084,0.0,9600,1.4817652702331543,0.0011302715637329765,0.000217836927683632,-223.54410252248107,0.0
223,4.948406934738159,-227.68495959444,19.781735531177187,-183.4381033565385,-303.0051533898357,0.0,0.9693369343204429,0.1,0.009480476379394531,0.34957242012023926,0.04976793,0.108757704,-230.51163041098064,-2.2073962414299406,-2.2779607330196066,0.0,9600,1.449521780014038,0.0011393062519885436,0.00021835251610678573,-222.33999684927505,0.0
224,4.9966559410095215,-229.23555908387007,25.610791533453874,-177.92273020635943,-278.96884959474244,0.0,1.0595261933075455,0.1,0.12691092491149902,1.611992359161377,0.049579687,0.11465304,-230.3840232782696,-2.2228328287104446,-2.293524983979074,0.0,9600,1.8481550216674805,0.0010356744453892436,0.00019205459504676903,-222.81860232255937,0.0
225,5.176904201507568,-232.93570919265042,24.034550785114256,-186.12460837857626,-304.0992498204096,0.0,1.0661829193385057,0.1,0.09039807319641113,0.9081168174743652,0.049879394,0.091873094,-230.6391918697077,-2.260424656972797,-2.3304789405301176,0.0,9600,1.2135167121887207,0.001746975360659997,0.00024086460902581158,-222.12866126045236,0.0
226,4.4684600830078125,-229.95118400200138,21.621676335479687,-176.2660984548341,-288.1160744396768,0.0,1.05579836516547,0.1,0.07955312728881836,0.9625039100646973,0.049923602,0.097717986,-230.57039108293708,-2.2303512712438622,-2.300769971410349,0.0,9600,1.5352931022644043,0.0010804628513264888,0.00022115690075968125,-222.0245468231841,0.0
227,5.0546770095825195,-229.79587937203382,21.500121671906903,-169.49723847549706,-314.85085294655283,0.0,1.0543690006719477,0.1,0.08891057968139648,0.978236198425293,0.049872875,0.10431833,-230.49293991184675,-2.2286722585063825,-2.2988007803876003,0.0,9600,1.6336545944213867,0.0014273202188682715,0.00022880961656369911,-222.1967080640595,0.0
228,5.02556037902832,-233.41709879501892,23.056577359967513,-178.39681986694782,-321.66102249688777,0.0,1.0337595319676547,0.1,0.09115004539489746,1.7082834243774414,0.049161293,0.09144798,-230.78535580016398,-2.2649841495232885,-2.335015917499368,0.0,9600,1.6538400650024414,0.0014973073401461055,0.00021187007725609986,-220.74141758945092,0.0
229,4.960073709487915,-233.70928775848824,23.989709822991813,-174.9885443406005,-302.5843624820654,0.0,1.1043417860918452,0.1,0.10214376449584961,0.7775917053222656,0.05001973,0.09398866,-231.07774899599642,-2.267793244578684,-2.338198537156488,0.0,9600,1.5505361557006836,0.0011504821580687215,0.00021155181479706116,-220.81176165477325,0.0
230,4.935033082962036,-228.94162270610278,23.30631889996361,-174.1746669285291,-287.82838001858164,0.0,1.0227117949513878,0.1,0.08855295181274414,0.38020920753479004,0.04997008,0.10424942,-230.86413636700706,-2.220438085738469,-2.2905374712023328,0.0,9600,1.3516597747802734,0.0012396754207691604,0.00025981747817704497,-218.16758548472401,0.0
231,4.94928765296936,-227.0765518620965,24.10834951883207,-163.08626781557456,-295.93159167168545,0.0,1.0508445226828962,0.1,0.10219550132751465,0.8591344356536865,0.04996914,0.1130232,-230.485377916516,-2.2015536406525733,-2.271688504455063,0.0,9600,1.7873995304107666,0.001436690996565151,0.0002125639396273233,-221.3547004958113,0.0
232,4.763887166976929,-229.53048232086383,21.971375453267402,-171.59801366301193,-270.15916309823876,0.0,1.0491219406034724,0.1,0.08092236518859863,0.9262979030609131,0.049285967,0.10218154,-230.3898883569508,-2.225678013497248,-2.2961150655558593,0.0,9600,1.430647373199463,0.0011497034810012755,0.00023216936584640138,-222.364509232037,0.0
233,4.862425327301025,-231.4363982033642,23.16370894233417,-171.57799102516012,-284.25227309033573,0.0,1.0523996308031176,0.1,0.009427070617675781,0.29787111282348633,0.04957351,0.08722933,-230.49453934159214,-2.244995399142236,-2.3154539813464434,0.0,9600,1.306652545928955,0.0011648183205404008,0.0001882058649893471,-222.081921631568,0.0
234,4.8661651611328125,-226.86901480724353,25.96213849431552,-171.9321428323168,-308.15500608979613,0.0,1.0200233254836972,0.1,0.00881052017211914,0.3176589012145996,0.04948737,0.10116168,-230.1319868881573,-2.1997025832989165,-2.269687162471004,0.0,9600,1.3149700164794922,0.0010381933688691915,0.0002318074291862954,-219.52602240814073,0.0
235,5.23150897026062,-228.4470758612274,22.898610248086865,-168.2384587889214,-280.64813506978084,0.0,1.043259435953591,0.1,0.10668492317199707,1.5292630195617676,0.04927404,0.09386307,-229.96349578546432,-2.215586842597745,-2.285484107318236,0.0,9600,1.458986759185791,0.001164823865004149,0.00020169518197573523,-220.1702907875782,0.0
236,5.147454023361206,-229.29926535893983,27.259595005225204,-168.87476866382775,-305.2782004692866,0.0,1.0113652311374801,0.1,0.08844184875488281,0.8642499446868896,0.049903613,0.112379864,-229.89707274281187,-2.2259271165500842,-2.294193238468928,0.0,9600,1.7762179374694824,0.0016877621306893367,0.0003639502826374281,-220.06550992628675,0.0
237,5.1693761348724365,-232.19596731388114,23.60139550269869,-180.44040777692646,-285.06137517409326,0.0,1.0127155117759772,0.1,0.08231830596923828,0.9488434791564941,0.04959084,0.08692493,-230.1269621999188,-2.2525301074918,-2.322963383372069,0.0,9600,1.3707780838012695,0.0012086929327195899,0.00019575219792974222,-220.7214862417864,0.0
238,5.294000625610352,-232.4912323941264,23.959881828657835,-185.07900633766445,-287.97787103212977,0.0,1.0890435113569852,0.1,0.04405403137207031,0.3777763843536377,0.04963425,0.09287211,-230.36338921933958,-2.2553771589314358,-2.325769536200919,0.0,9600,1.5470035076141357,0.0014085456735127872,0.00021348186642655242,-220.58784956652303,0.0
239,4.963491678237915,-231.20493301707043,21.728272696789222,-184.22559941566303,-285.03824541705444,0.0,1.0939014964746865,0.1,0.08145928382873535,0.5235908031463623,0.049988627,0.08423392,-230.4475435991127,-2.243119146781003,-2.313185010056781,0.0,9600,1.7712533473968506,0.000998157698100292,0.00029919112397473567,-220.64639489372698,0.0
240,4.813825845718384,-229.361724983341,23.00420680526077,-153.47452923015197,-278.9068013238301,0.0,1.054802254239437,0.1,0.08394241333007812,1.0824263095855713,0.05015478,0.10328104,-230.33896173753556,-2.224552263223295,-2.294674266560261,0.0,9600,1.3535449504852295,0.0010030646971064877,0.00018280274118339285,-220.97125468715683,0.0
241,4.781940698623657,-227.26751463241558,22.633601115109034,-181.3970960698458,-278.5643398653003,0.0,1.0689523671478791,0.1,0.009759187698364258,0.2834615707397461,0.050206978,0.08825728,-230.03181702702355,-2.203880742478825,-2.273813056418539,0.0,9600,1.374645709991455,0.0011352123466376127,0.00022844672943656414,-221.60215144616996,0.0
242,4.91959023475647,-225.52387897478425,22.193889007570494,-163.5214589521095,-270.76315509971323,0.0,1.0605976652975253,0.1,0.07109189033508301,1.312171220779419,0.04896637,0.09823243,-229.58102322179963,-2.1865192812932706,-2.2564209084254654,0.0,9600,1.67936110496521,0.0009594950619626373,0.0001859395722777687,-221.10773754722484,0.0
243,4.836205720901489,-226.63362235146784,24.12750170527815,-168.10066536453834,-282.2827120539413,0.0,1.0992102017733467,0.1,0.10074925422668457,0.7174556255340576,0.050494213,0.0945423,-229.28628313476645,-2.19774432929238,-2.267542716496516,0.0,9600,1.3936989307403564,0.0009265091719560065,0.0001972770486853384,-221.4873412827098,0.0
244,4.7328715324401855,-224.51696275206686,24.264275190279932,-163.9667915728348,-282.73957048191824,0.0,1.0796327819893454,0.1,0.011781930923461914,0.3060014247894287,0.04958858,0.09000288,-228.80935109649647,-2.1765686111527067,-2.2462277171415246,0.0,9600,1.4248533248901367,0.0012244247621069346,0.0002682639111434067,-220.79037252459926,0.0
245,5.1427319049835205,-230.868519922841,21.85246557282285,-182.51692436206972,-284.29711984260416,0.0,0.9978983457981855,0.1,0.07388687133789062,0.48097991943359375,0.050452545,0.10510836,-229.01526797913093,-2.2395197511657576,-2.309655236121106,0.0,9600,1.6838953495025635,0.0011618961361963426,0.00020071446126191967,-219.67650145555808,0.0
246,5.1364288330078125,-232.73109793335732,20.99437421369169,-188.28018188518703,-270.7999381493273,0.0,1.0929497065009042,0.1,0.10298466682434082,0.8438935279846191,0.049604345,0.09273172,-229.38685097455357,-2.258409357347578,-2.3282555241949328,0.0,9600,1.7543671131134033,0.0018603708502010733,0.0002920422624506927,-220.11005432640604,0.0
247,5.143438816070557,-229.32686846672246,20.635354862345014,-186.89008760874754,-296.2874749034603,0.0,1.045646495424741,0.1,0.08554935455322266,0.771925687789917,0.049754478,0.10514497,-229.38085272377046,-2.224068583412674,-2.29424076645739,0.0,9600,1.6572868824005127,0.0011153192751874865,0.00021854602029500766,-223.58514605440294,0.0
248,5.103821277618408,-232.53657779017817,21.772595486117837,-187.1766255907242,-301.8422061174238,0.0,1.0986627534428999,0.1,0.10080242156982422,0.8715925216674805,0.049473573,0.08085597,-229.69642523041125,-2.256174537128608,-2.326275059928621,0.0,9600,1.8417425155639648,0.0016113699151940658,0.0002579124928778015,-222.5080825858082,0.0
249,4.943003416061401,-232.77329464294715,22.07758978316639,-178.36524888245543,-282.69831394727316,0.0,1.0538729620283702,0.1,0.1070256233215332,0.685063362121582,0.050423004,0.08979368,-230.00411217166484,-2.258984757302932,-2.328787834324841,0.0,9600,2.052184820175171,0.0008131453523577573,0.00019965723010177694,-219.67484877732994,0.0
250,4.911677598953247,-227.54292778096183,23.36556259559044,-177.86734349989163,-274.83037008550247,0.0,1.0716897193351163,0.1,0.07258176803588867,0.5540509223937988,0.049833972,0.09186711,-229.75799373259454,-2.206828137488334,-2.2764618510761316,0.0,9600,1.5642848014831543,0.001150312550473911,0.0002476001031743643,-219.29172788251117,0.0
251,4.964625835418701,-229.68280869258263,25.326342749591692,-171.03447796456706,-297.9158847876782,0.0,1.0656903160465196,0.1,0.11155080795288086,1.0954344272613525,0.04952899,0.088229805,-229.75047522859336,-2.22856811312478,-2.297932501364194,0.0,9600,1.936380386352539,0.0011230295847888055,0.00022759964013761968,-218.78132657958292,0.0
252,4.893781661987305,-233.2348919099287,20.76660708766369,-188.93997987571828,-290.15622899495037,0.0,1.0810895701684107,0.1,0.0999288558959961,1.085496425628662,0.049966726,0.09322471,-230.0989168967269,-2.263956847073509,-2.333253723144589,0.0,9600,1.8628692626953125,0.0011609936606003781,0.00020815549974868692,-220.07207335648343,0.0
253,4.910532712936401,-225.17677301531134,20.260044689304728,-174.01811138693773,-283.3359296664683,0.0,1.0962180783546471,0.1,0.09503173828125,1.3395681381225586,0.04973465,0.09507571,-229.60670250858536,-2.1838445900844428,-2.252853791598177,0.0,9600,1.8217260837554932,0.0017127970713634259,0.0003090494183694328,-220.793796990925,0.0
254,4.283819675445557,-222.31308402048512,23.613835224648675,-179.3531876785941,-292.81410049123957,0.0,0.9902293622166017,0.1,0.09916901588439941,0.957655668258667,0.049465645,0.113092475,-228.87734065977534,-2.1551100806676273,-2.2242941548863677,0.0,9600,1.8327147960662842,0.0012938301993303538,0.00023164546913168646,-222.38348980851075,0.0
255,5.120052337646484,-230.8011890549573,23.159257422483808,-173.49145742554938,-277.7736025574467,0.0,1.0241100577406799,0.1,0.09349322319030762,0.9290084838867188,0.049993604,0.09233356,-229.06972549929355,-2.239854008925317,-2.309010090798133,0.0,9600,1.69773530960083,0.0012056945435062272,0.00020876722203496816,-221.58533592672546,0.0
256,5.09531307220459,-229.81245067678967,22.438190940164883,-172.84016616273027,-284.3998889903111,0.0,1.0219882639101245,0.1,0.09860348701477051,0.74717116355896,0.050285675,0.08839753,-229.14399801704317,-2.2304354272245415,-2.299215772694142,0.0,9600,1.7957584857940674,0.0009432544143902358,0.00019760092543139054,-221.38802962444507,0.0
257,4.716987371444702,-232.12828607978452,23.82162238108974,-176.11149350867203,-309.09943671030084,0.0,1.0518251175843258,0.1,0.11293172836303711,0.7992215156555176,0.049695127,0.09743695,-229.4424268233173,-2.2529032066002297,-2.3221176121877494,0.0,9600,1.5714411735534668,0.001466510240197963,0.0002452807142131952,-221.70456406709252,0.0
258,5.217978000640869,-229.0548987656983,24.611360025501583,-172.33800867205966,-294.66606259388806,0.0,1.0578666836615545,0.1,0.042313337326049805,0.7406339645385742,0.05029247,0.14156497,-229.40367401755543,-2.2221274802789295,-2.2915491213304344,0.0,9600,1.6591684818267822,0.0014151738730328201,0.0002945543174685851,-221.36261422961522,0.0
259,4.971545457839966,-231.8898135846571,24.575640649724352,-175.46408911340723,-287.68419202496034,0.0,1.078979772895495,0.1,0.09516429901123047,1.53486967086792,0.04990732,0.09030172,-229.65228797426562,-2.2508124552654927,-2.3199305979922404,0.0,9600,1.837683916091919,0.001414763811158582,0.00023466540173490132,-221.97034294072088,0.0
260,4.905899286270142,-223.49513846971934,20.964715340369818,-168.08978001641282,-285.0206203362913,0.0,1.03971723652421,0.1,0.07541847229003906,0.7951920032501221,0.049849503,0.08644288,-229.036573023811,-2.167246212998234,-2.2360854907997383,0.0,9600,1.60860013961792,0.0012905800047441948,0.00026369618040398743,-220.92620569577645,0.0
261,4.854259729385376,-225.55113267949545,19.404630539213624,-189.21495174791522,-268.00478152898626,0.0,1.0307902275912846,0.1,0.06818556785583496,0.6306874752044678,0.049671933,0.10086094,-228.68802898937943,-2.1877956726190977,-2.2568185646327534,0.0,9600,1.4333045482635498,0.0010586758497273837,0.0002522523465859582,-219.9603169229807,0.0
262,4.671741247177124,-228.2479767964445,20.42782244267812,-178.52284299879403,-277.8993601819152,0.0,1.0171733580774884,0.1,0.009308815002441406,0.31772494316101074,0.049992073,0.09855787,-228.64402377008597,-2.214203699145775,-2.283472099135305,0.0,9600,1.58847975730896,0.0011154858203165853,0.00026281904489742304,-220.83856705065995,0.0
263,4.910689115524292,-229.3808182746899,22.44872926193178,-186.64135047608508,-277.24942511781336,0.0,0.9885618057238875,0.1,0.09513211250305176,1.3804080486297607,0.049886208,0.10287332,-228.71770322054635,-2.2262085660320463,-2.2948066869799963,0.0,9600,1.7352561950683594,0.001045121508295022,0.00017085547815191428,-220.21099836580706,0.0
264,5.005266904830933,-227.91115897492546,22.967768260358262,-184.69690306723885,-289.7794356737392,0.0,0.9730444606170477,0.1,0.10813045501708984,0.9589889049530029,0.04983652,0.097287476,-228.63704879598427,-2.211159820849143,-2.2801265561255675,0.0,9600,2.2379555702209473,0.0008330200674432347,0.0002584834684906881,-219.5505884480238,0.0
265,4.87440824508667,-227.49135091801315,22.57632395249588,-173.67204547178525,-301.1990969480906,0.0,1.0017104047348664,0.1,0.08553028106689453,1.1005277633666992,0.04936332,0.09602122,-228.52247900818716,-2.207170950981832,-2.27590084165334,0.0,9600,1.6293351650238037,0.0013667345729366292,0.00025508345678080163,-219.35120657909954,0.0
266,4.8550331592559814,-230.13246560660536,24.932895270850857,-168.9122613801878,-289.35023805530267,0.0,1.040789012068674,0.1,0.08783149719238281,0.8279128074645996,0.049530137,0.095283255,-228.68347766802898,-2.2336570209754054,-2.30259286975583,0.0,9600,1.507507085800171,0.001082131752360128,0.00020944002897306047,-220.4345037778673,0.0
267,5.065322160720825,-230.02421433371782,22.48952502696541,-177.22114069123552,-282.0829628483024,0.0,1.0162312316953996,0.1,0.08497858047485352,0.7636456489562988,0.049879957,0.089499205,-228.81755133459788,-2.2325686709415478,-2.301066444210663,0.0,9600,1.3015227317810059,0.0013366995492181443,0.0002066607737412533,-221.04989102829734,0.0
268,5.054201126098633,-224.84578451632217,20.846261346375147,-177.48167175608873,-283.7684053939716,0.0,1.0905843926773762,0.1,0.1012125015258789,2.8193376064300537,0.04941392,0.10043211,-228.4203746527703,-2.1816413777755304,-2.249605590829582,0.0,9600,2.289799690246582,0.0011857727735231742,0.0001821908104633581,-221.18404163058295,0.0
269,5.033848524093628,-230.33605233206035,21.310389406851694,-184.35598658842494,-284.86724052230454,0.0,1.1386516504584807,0.1,0.057852745056152344,0.39404964447021484,0.049326237,0.08765001,-228.6119424206993,-2.2360861527765774,-2.3044472948872454,0.0,9600,1.457575798034668,0.001239519673930029,0.00023291107284501765,-221.66519365480758,0.0
270,4.828929424285889,-231.32273968212505,22.964534205998163,-166.41355539406965,-284.7449807890906,0.0,1.0443076345732853,0.1,0.06906270980834961,0.5848126411437988,0.04916066,0.087075375,-228.88302214684188,-2.2459333957436187,-2.3142761235261418,0.0,9600,1.504357099533081,0.000994429717090286,0.0001698533146273737,-219.65407550228002,0.0
271,4.84590482711792,-229.0909158498542,22.795628161047585,-177.98638551654622,-275.7481897493227,0.0,1.0316298765292913,0.1,0.09647154808044434,1.0331366062164307,0.049713124,0.08770984,-228.9038115171431,-2.223938090949916,-2.291962320707605,0.0,9600,1.8819904327392578,0.0012862344548780266,0.00018077945082500162,-220.29698653922333,0.0
272,4.846074342727661,-226.6821066158816,21.788704812806,-178.04467448201822,-286.22997059464404,0.0,1.0341352727239541,0.1,0.09730982780456543,0.9706873893737793,0.05021079,0.09780873,-228.68164102701695,-2.199924355951851,-2.2680313569247663,0.0,9600,2.1108646392822266,0.0010118192101383385,0.00020045218421664977,-220.66356706217258,0.0
273,4.859923601150513,-226.2044405995749,21.721808777691987,-168.89236324870117,-277.3077470605947,0.0,1.0572409985070865,0.1,0.12469339370727539,1.1722984313964844,0.0497049,0.098518424,-228.43392098427276,-2.195491845936003,-2.2632403622845563,0.0,9600,1.610506296157837,0.0013663362467937566,0.0002168188805960696,-220.15521334867807,0.0
274,4.904029846191406,-228.0361917186649,22.31200015401486,-175.36596172776157,-280.8258002162066,0.0,1.0415234849884536,0.1,0.042382001876831055,0.8391711711883545,0.049004372,0.10665559,-228.394148057712,-2.2132624147764086,-2.2814377131884096,0.0,9600,1.4098713397979736,0.0008747030737327919,0.00022477390709402806,-220.07831999749382,0.0
275,4.64893651008606,-227.31085607287812,18.683732400432255,-187.91777867909752,-276.68618621389834,0.0,1.0115432831213023,0.1,0.031020402908325195,0.3977339267730713,0.049765054,0.09656873,-228.2858188592286,-2.2059109835912123,-2.274250127400673,0.0,9600,1.762807846069336,0.0011133576316212626,0.00023005120832999035,-220.97848299123027,0.0
276,5.041118144989014,-224.6435538143653,21.42668012915268,-179.69819696390982,-281.6443938059341,0.0,1.0786832145083396,0.1,0.09735345840454102,1.0149221420288086,0.049874842,0.099040076,-227.9215923547423,-2.1794051558865277,-2.24768584289139,0.0,9600,1.8201932907104492,0.0018348108811473004,0.00021197835534492458,-220.2574546656835,0.0
277,5.11916971206665,-230.13828038111683,21.15066063627969,-177.70390813308217,-282.1735573512066,0.0,1.0607554318793697,0.1,0.11017465591430664,1.3382573127746582,0.05009411,0.098559506,-228.14326115737975,-2.2342114835647258,-2.302379152568044,0.0,9600,1.654522180557251,0.001547999612302478,0.0002630876440747131,-220.39420514003086,0.0
278,5.109139442443848,-231.96656210829963,22.182756997099155,-178.56360926237136,-276.6173285446344,0.0,1.0183720200510953,0.1,0.07592320442199707,0.6356003284454346,0.05005695,0.094322965,-228.52559125247174,-2.252097235826407,-2.320772642571431,0.0,9600,1.733595848083496,0.0013308726855774985,0.00020492514633394695,-219.961970981488,0.0
279,4.940862655639648,-227.9689178314616,20.916741846760548,-181.8054404337017,-289.60406742049685,0.0,0.9859537365674105,0.1,0.08009529113769531,0.7706499099731445,0.049994424,0.10572634,-228.4699239103707,-2.212526050221476,-2.2808146133730975,0.0,9600,1.6580486297607422,0.0012928415359859432,0.00021758945910965477,-219.46362082732816,0.0
280,4.969631671905518,-231.29894382032708,23.09141167205521,-178.24890385906212,-283.29911331381345,0.0,0.9958067675054836,0.1,0.09757781028747559,1.1283435821533203,0.0503142,0.10113246,-228.75282590136635,-2.245939241507669,-2.314088184280447,0.0,9600,1.5724153518676758,0.00112381821798558,0.0001797001740356747,-220.3304941679324,0.0
281,4.709575653076172,-229.27001122352053,23.860468815371405,-178.82029643699823,-289.1598034655335,0.0,1.0712300184573675,0.1,0.08746194839477539,1.155233383178711,0.0500284,0.09270643,-228.80454443358178,-2.2252519069087815,-2.293778358573855,0.0,9600,1.7943787574768066,0.0011428402566070533,0.00018859321217751422,-220.3843137294141,0.0
282,4.404268503189087,-228.1953877273281,22.03112989371664,-180.37420155511913,-275.755292061617,0.0,1.129000562985986,0.1,0.09292125701904297,0.6720848083496094,0.04980673,0.086352944,-228.74362876295643,-2.214732095860323,-2.2829396056962192,0.0,9600,1.9539129734039307,0.001287820836064399,0.00026856429739633586,-219.38617580239818,0.0
283,4.896197319030762,-226.74319151374775,18.467033739866757,-177.91424787192074,-285.89900839850395,0.0,1.0050321830336917,0.1,0.07176041603088379,0.7280404567718506,0.05003075,0.102332436,-228.5435850380356,-2.1998681382013068,-2.268478180043362,0.0,9600,1.4047260284423828,0.00132960237396258,0.00020099362983405503,-218.54125938055526,0.0
284,4.700531721115112,-226.1979841805988,20.701559931377684,-177.94904302339606,-285.96707136595916,0.0,0.9972977447400415,0.1,0.00914764404296875,0.3301095962524414,0.050290033,0.092276245,-228.3090249522919,-2.1943334872349727,-2.2629421314573555,0.0,9600,1.9925708770751953,0.0010395695552100957,0.00019261747767650527,-218.0597027838104,0.0
285,5.205449104309082,-227.77726231248812,21.277111600517223,-176.03346121079255,-274.5495357200522,0.0,1.0311113183661353,0.1,0.10044980049133301,0.8469333648681641,0.050236896,0.09121424,-228.25584868831152,-2.2104228199782483,-2.2789599465480106,0.0,9600,1.7237708568572998,0.001009542782192961,0.00019205317255614307,-219.4568366382581,0.0
286,5.207162857055664,-228.04294600871683,23.799097633853386,-185.92548144282276,-294.147909545089,0.0,1.002271043017629,0.1,0.07464051246643066,0.8628511428833008,0.050093014,0.09680777,-228.23455842035204,-2.2130016692347496,-2.281516148258243,0.0,9600,1.770354986190796,0.0016701650925600568,0.00021379451528086586,-219.81401773137262,0.0
287,5.1848671436309814,-224.86698258846835,23.345490104106826,-162.02942349314438,-279.9224335253575,0.0,0.9966714124234449,0.1,0.09204888343811035,0.9538466930389404,0.050230004,0.10670005,-227.8978008371637,-2.1813966921317025,-2.249680724649534,0.0,9600,1.965996265411377,0.0011653208100240067,0.00021655457859132225,-220.31105482965924,0.0
288,5.133367300033569,-228.83018122920816,22.048589006330232,-179.72213407031475,-290.8871166815786,0.0,1.1005873524045844,0.1,0.08638238906860352,0.8328475952148438,0.050090834,0.109524675,-227.99103887636815,-2.2210457743019014,-2.2894131743386885,0.0,9600,1.7502572536468506,0.0019320602601631074,0.00025689399138094257,-219.73871442643778,0.0
289,5.1720335483551025,-226.8165194808489,21.589663894064977,-182.13333280344406,-287.3927720771291,0.0,1.0409778109619463,0.1,0.09504556655883789,1.12209153175354,0.049662203,0.10811025,-227.87358693681622,-2.2010076359157313,-2.269134835818258,0.0,9600,1.6931045055389404,0.0011988656142030117,0.00022974806549810753,-221.11716897750966,0.0
290,4.7124550342559814,-226.25196720607732,26.541654489174007,-172.28714595839276,-284.7939234863037,0.0,1.045155855377414,0.1,0.09220504760742188,0.8126249313354492,0.05022685,0.0960369,-227.71142496374233,-2.19547906752836,-2.2635802045771993,0.0,9600,1.5557012557983398,0.0014584660137447717,0.00019579174946383684,-219.54078645098136,0.0
291,4.807880401611328,-227.1489268738144,21.120309113498234,-160.46831223195278,-279.8885260944215,0.0,1.0098278963755414,0.1,0.030313491821289062,0.3425307273864746,0.049488902,0.10250086,-227.65517515474954,-2.2047424689401667,-2.272632762006856,0.0,9600,1.6780962944030762,0.001433666510371801,0.0002244471342816956,-220.0179956972292,0.0
292,4.860939264297485,-223.9170178180491,23.190774548045,-176.94410884187832,-291.14393493737043,0.0,1.0106270823813976,0.1,0.013171672821044922,0.3705630302429199,0.0494901,0.09860023,-227.28135942107951,-2.172776747671079,-2.2403443951926305,0.0,9600,1.498142957687378,0.002403775681165643,0.00024971630097257676,-219.9072189778924,0.0
293,4.743933200836182,-226.87928076621938,21.43821237385395,-174.80401107904572,-274.9950344505791,0.0,1.0027414528353515,0.1,0.08789873123168945,0.6464385986328125,0.049450073,0.09849184,-227.24115155559352,-2.202153343796533,-2.2699254904201838,0.0,9600,1.6835837364196777,0.00156471752782984,0.00021018546988649286,-218.83453796652296,0.0
294,4.936867952346802,-229.72864816685578,21.92302976883735,-180.04835424387707,-305.89794848524195,0.0,1.0781608099598599,0.1,0.09646010398864746,0.6217188835144043,0.049783945,0.07960586,-227.48990121671974,-2.230582202111837,-2.298426554223068,0.0,9600,1.9091928005218506,0.0028258211624300014,0.00032399592462939913,-219.28391329945686,0.0
295,4.9129698276519775,-225.14213519186652,23.038468596078356,-159.29555543856824,-292.4697340020959,0.0,1.0246750669655766,0.1,0.11526870727539062,1.2085368633270264,0.04956406,0.098014615,-227.25512461423443,-2.1848902498435443,-2.252477471247666,0.0,9600,1.8329169750213623,0.0013711088607251513,0.00028094230279468284,-218.83939959927952,0.0
296,5.177874326705933,-226.87026931549045,23.093407616436064,-176.45201913560877,-280.9847695285249,0.0,1.0627873788480238,0.1,0.07857561111450195,0.6015415191650391,0.049714275,0.086902425,-227.21663908436003,-2.2020597617501863,-2.269640656522989,0.0,9600,1.413337230682373,0.0016628331262544265,0.0002424727079537045,-219.42414905550166,0.0
297,5.03119969367981,-223.54193620099326,23.730139862260867,-171.57054854176477,-287.36892205366667,0.0,1.0650193764854048,0.1,0.08120536804199219,1.4951121807098389,0.049741033,0.095363475,-226.84916879602335,-2.1689047875943164,-2.236476175342202,0.0,9600,1.754850149154663,0.0015457870451828682,0.0003061085914257159,-218.42396288748301,0.0
298,4.949821949005127,-229.0346951448321,22.54889416966103,-181.02048430097804,-310.9698528016293,0.0,0.972368050311556,0.1,0.11792874336242676,1.0579912662506104,0.049456045,0.104790054,-227.06772143090424,-2.223713500897912,-2.291533147300681,0.0,9600,1.6193382740020752,0.001793229869151515,0.00023400988586624446,-219.3901627581107,0.0
299,4.6276609897613525,-228.87031096246173,21.41886494509101,-183.13770054853268,-271.3971485002713,0.0,1.0457916747608584,0.1,0.0738515853881836,1.7082889080047607,0.049586676,0.08944929,-227.24798038405999,-2.221767609955861,-2.2896250164904686,0.0,9600,1.625178337097168,0.0013919024596239949,0.000254613600711634,-218.9357319815036,0.0
300,4.744784355163574,-223.13929258905873,21.96039290084298,-182.6157645324483,-280.77355530431527,0.0,1.0435711127154432,0.1,0.08783197402954102,1.120854377746582,0.049594264,0.10238794,-226.83711160455988,-2.16502693241986,-2.232637327252616,0.0,9600,1.8921525478363037,0.0015185981605423465,0.00022089416632115497,-217.3779745187086,0.0
301,4.890558242797852,-226.50123826726008,24.128014218706305,-176.16325486011547,-279.49249505046623,0.0,1.106266679476682,0.1,0.09405255317687988,1.5222368240356445,0.049249984,0.08810819,-226.8035242708299,-2.1985359076759523,-2.266027833328245,0.0,9600,1.4409058094024658,0.0012012082406801443,0.00020722990600010932,-217.92129227367894,0.0
302,4.696016311645508,-230.61137733962198,24.42106228379587,-174.8759017160907,-306.6157461605502,0.0,0.9889652750445496,0.1,0.04302406311035156,0.3529841899871826,0.04945158,0.093956836,-227.18430957770912,-2.2399558103081385,-2.3071171467425415,0.0,9600,1.5715746879577637,0.002202110087773914,0.0002495365123917988,-218.95302403269108,0.0
303,4.941586971282959,-225.7053991165321,22.291286579219335,-175.11828208954876,-292.17524107279854,0.0,0.9869248831764726,0.1,0.08931255340576172,0.718003511428833,0.049802784,0.12021288,-227.0364185315914,-2.190732001598397,-2.2582201852040606,0.0,9600,2.3454668521881104,0.0012990249561981154,0.00023571332513153823,-218.1031310018235,0.0
304,4.677048444747925,-227.61471239095033,23.6555400753124,-174.8802546586954,-278.54250115627633,0.0,0.9714094266350903,0.1,0.10386419296264648,1.1560611724853516,0.05023593,0.09271224,-227.09424791752733,-2.2097131672546264,-2.277216505085128,0.0,9600,1.5611262321472168,0.0013615905193487224,0.00021808349955624516,-219.2381316555684,0.0
305,4.975858688354492,-229.36509822574632,22.157906488339947,-167.03631407150687,-288.6925802608594,0.0,0.9702501950266552,0.1,0.04949331283569336,0.49078822135925293,0.049606837,0.11038141,-227.32133294834924,-2.2268222215727875,-2.2947261438712636,0.0,9600,1.4678232669830322,0.0011004076029521592,0.00019537195292841517,-218.74388047328108,0.0
306,5.068592548370361,-225.6042214576348,24.11422808017432,-179.9409644317315,-291.2161926278853,0.0,0.9949525878414714,0.1,0.10054159164428711,0.6914854049682617,0.049581736,0.097646,-227.1496217992778,-2.1897718407753035,-2.2571710005424106,0.0,9600,1.6926157474517822,0.001998791698389325,0.0002519244357338141,-219.31253543657095,0.0
307,4.935823917388916,-225.88779997194578,25.61014672049599,-167.86616303099063,-281.34965120619665,0.0,0.9996547252843462,0.1,0.09719419479370117,0.3768324851989746,0.04941462,0.101906456,-227.02343961654464,-2.1925392044253416,-2.2597866779586195,0.0,9600,1.4268875122070312,0.001694849206813497,0.00021674010127474395,-219.67284237919412,0.0
308,5.307623386383057,-228.09820591635648,23.479912782563748,-174.03483837148386,-277.0979331563717,0.0,0.9944702967400036,0.1,0.07625389099121094,0.8818762302398682,0.049796358,0.10238982,-227.13091624652583,-2.216896210168509,-2.282117808365687,0.0,9600,1.7464170455932617,0.0020634729602681213,0.0002516884354696568,-219.84081585114603,0.0
309,4.965052127838135,-227.8218462028567,25.668628805234295,-170.8912975474119,-309.63470197420025,0.0,1.019328404042967,0.1,0.07991361618041992,0.9256606101989746,0.049484607,0.10618857,-227.20000924215893,-2.2117372440492553,-2.2791873767157838,0.0,9600,1.9653959274291992,0.001585655095425097,0.00020978459450848486,-220.3260885633341,0.0
310,4.66152286529541,-227.1280935754439,23.248566306544603,-176.520163293133,-287.41551110666836,0.0,1.0612609009463074,0.1,0.08533334732055664,1.157592535018921,0.04954583,0.09591745,-227.19281767548742,-2.204796331688199,-2.2722428126753407,0.0,9600,1.3477075099945068,0.0012186269416399466,0.00020907885030686641,-220.76525499993514,0.0
311,4.85562539100647,-226.26779048745652,23.009575282119524,-174.57406342105875,-278.01106279510225,0.0,1.03993117592273,0.1,0.009093284606933594,0.3196544647216797,0.04971766,0.11019899,-227.10031495668431,-2.1964472767691743,-2.2637798975117653,0.0,9600,1.35791015625,0.0014166753088840564,0.00022341357180536128,-221.31863643581605,0.0
312,4.8486692905426025,-224.9867813538092,20.89245172979613,-172.14302397769092,-280.8637306883537,0.0,1.0289026657503062,0.1,0.08681654930114746,1.4112982749938965,0.04956642,0.113625295,-226.8889615963968,-2.183493022317933,-2.2511155682998676,0.0,9600,1.9815499782562256,0.0016828019237819633,0.00023699120943286616,-222.2780211134127,0.0
313,4.900948524475098,-225.78664739698627,20.636322710297577,-184.00474279320755,-287.3224309152239,0.0,1.065059340587443,0.1,0.1080622673034668,1.0089709758758545,0.049634278,0.101890095,-226.77873017645575,-2.1922511184182434,-2.259045347807528,0.0,9600,1.3154280185699463,0.0018329995705052018,0.0002621685339649432,-221.00987376993595,0.0
314,5.082944631576538,-227.6897410458596,22.61978952191875,-181.2171255335481,-291.6123632635675,0.0,1.0494327459439672,0.1,0.0953366756439209,0.5193541049957275,0.0502491,0.09301434,-226.86983126339615,-2.2101542888849997,-2.2779142309998703,0.0,9600,1.5227975845336914,0.0010433670393815446,0.0002167289596664556,-220.66489206281298,0.0
315,5.178913831710815,-226.86594938044573,21.85378256292093,-178.94298156659886,-275.1781749055138,0.0,1.0793022417898677,0.1,0.10405492782592773,0.5965912342071533,0.04994314,0.10294747,-226.86944307510112,-2.20197938478753,-2.2696724856543997,0.0,9600,1.3848471641540527,0.0012063530451302954,0.0002539033937615659,-220.01097616338163,0.0
316,5.103806495666504,-229.49523032394427,23.418235328522595,-176.50147438031325,-288.9069118932406,0.0,1.0291559615205286,0.1,0.11111998558044434,0.6987705230712891,0.049832977,0.096748404,-227.13202179998544,-2.2292762285769547,-2.2961570443331443,0.0,9600,1.7464523315429688,0.001470815772910761,0.00022635122378192652,-220.40053153524104,0.0
317,5.05385160446167,-226.22764714244423,20.59972988392534,-175.81285494039972,-273.3448555826944,0.0,1.0501947019106033,0.1,0.07438802719116211,0.7918133735656738,0.04986287,0.09949694,-227.04158433423132,-2.1958136072811927,-2.263358046325921,0.0,9600,1.718644618988037,0.0011018338207337574,0.00020059017834937878,-220.55687641686444,0.0
318,5.226591348648071,-221.36101818811485,20.291820179558613,-165.54482969422824,-284.37826240566733,0.0,1.084320247394446,0.1,0.10034465789794922,1.1704890727996826,0.049892776,0.09430167,-226.47352771961968,-2.147401666261861,-2.2147739650024394,0.0,9600,1.7169456481933594,0.0011688025425171426,0.00024362578682151148,-219.00515139369728,0.0
319,4.572843551635742,-228.808562022369,22.10466112054336,-182.65353700106428,-288.55292833147416,0.0,1.0822960164859332,0.1,0.09041285514831543,0.4922292232513428,0.049771976,0.085485056,-226.7070311498946,-2.221696474666865,-2.2892256549996084,0.0,9600,1.5332825183868408,0.0020114404658290873,0.00020466102222089534,-218.6935240733029,0.0
320,4.879626750946045,-224.11781285211745,21.726129969787063,-171.42595927716314,-266.5525495507326,0.0,1.0051277252473627,0.1,0.014606237411499023,0.36484241485595703,0.04969058,0.121181555,-226.44810932011688,-2.175542664077392,-2.2423360636304395,0.0,9600,1.570580244064331,0.0019508652619023119,0.0002372203464613323,-218.58688107036215,0.0
321,4.83798623085022,-222.13479383890595,19.557635170060465,-178.07055047127466,-275.31160058259354,0.0,1.10162608423278,0.1,0.0699758529663086,0.5646860599517822,0.050220072,0.0914136,-226.01677777199578,-2.155194736482819,-2.222481920841624,0.0,9600,1.6442952156066895,0.0011363472726806717,0.0002131206898745237,-217.69596713798092,0.0
322,4.95897102355957,-225.70958568914986,22.87526730736945,-169.12952139686692,-276.2539574831267,0.0,1.0853912398598817,0.1,0.09276413917541504,0.8315503597259521,0.050497454,0.09661042,-225.9860585637112,-2.1908099767005322,-2.258212643840969,0.0,9600,1.9067778587341309,0.0010363212268900868,0.00021716104282184912,-218.53933814818123,0.0
323,5.04561710357666,-226.19114083817965,24.54015677033353,-164.66773962008878,-278.8429317595983,0.0,1.0945158972757998,0.1,0.08464813232421875,0.8140380382537842,0.050577074,0.092850775,-226.00656679115806,-2.195735509841848,-2.2630633035593037,0.0,9600,1.777327537536621,0.0009000749575415875,0.00020032082829991513,-219.15619744537628,0.0
324,5.198055744171143,-229.77336304366577,21.77089200053649,-188.34798842018913,-297.1548041215772,0.0,1.088833302264558,0.1,0.12245416641235352,0.8501901626586914,0.0498615,0.08904762,-226.38324641640884,-2.2310562849315434,-2.298793033384599,0.0,9600,2.4176321029663086,0.0010129277635646803,0.00021360593264683017,-218.76948117441646,0.0
325,5.083755016326904,-225.99703110319874,19.532684369674584,-183.791852753256,-268.0029522575241,0.0,1.105311351447602,0.1,0.07927489280700684,0.9069626331329346,0.050067775,0.088240005,-226.34462488508782,-2.1938690803110408,-2.261047954005804,0.0,9600,1.649782419204712,0.0011401594929074188,0.0002144328173434449,-220.23485880686383,0.0
326,5.03941535949707,-223.6689507698021,20.898344300490013,-173.3525280223082,-275.07852026587847,0.0,0.9960587016456077,0.1,0.05848383903503418,0.9398963451385498,0.049718898,0.1053748,-226.07705747355925,-2.1706247385528434,-2.2377233986508496,0.0,9600,1.609593391418457,0.0008244179434883672,0.0002085206947152555,-219.3422867291551,0.0
327,5.11781907081604,-225.02781913338868,23.302322128019807,-168.86295350240763,-296.22432192341887,0.0,1.0731124759805994,0.1,0.06493711471557617,0.4269089698791504,0.04948595,0.08718154,-225.97213363954222,-2.1846000313743943,-2.251254988315409,0.0,9600,1.7086031436920166,0.0024235503351961872,0.0002695558713315149,-220.27824991145155,0.0
328,4.829775333404541,-228.79242923039934,21.65632619170833,-176.45715277180247,-286.51427699934413,0.0,1.0090997283804668,0.1,0.1042029857635498,1.1315383911132812,0.049970258,0.10683825,-226.25416319862794,-2.2219221028856198,-2.288924613358248,0.0,9600,2.234272003173828,0.0014737047118591844,0.00025076916074045645,-220.424867784605,0.0
329,4.706057071685791,-223.80687564799896,18.644192844581333,-171.81851827665847,-273.26454738477355,0.0,0.9575234396734043,0.1,0.10129523277282715,0.6112098693847656,0.04997314,0.12962994,-226.00943444356506,-2.1720296032627426,-2.23915300082992,0.0,9600,1.549215316772461,0.0016308614083574136,0.0002564857183329926,-219.80624352968618,0.0
330,4.86828351020813,-229.04785350969857,21.848817839781663,-159.93969967722185,-280.65519675952385,0.0,1.0741216217161933,0.1,0.09443950653076172,0.6514229774475098,0.049824312,0.08994241,-226.31327635017843,-2.224245693812048,-2.29168230061871,0.0,9600,1.6379504203796387,0.0012979509414458887,0.00028149075749961204,-220.2010291282406,0.0
331,4.884869575500488,-223.602684678002,22.025277076088805,-163.90062054066507,-267.73864252607325,0.0,1.0104382914428307,0.1,0.12735986709594727,0.6692306995391846,0.049753122,0.10163004,-226.0422171829608,-2.1702311586499508,-2.237087183070553,0.0,9600,1.5777785778045654,0.0011712384270781743,0.00021094938978328566,-221.51469537532722,0.0
332,4.840841770172119,-223.81723576836376,22.08021955972157,-180.66026550461868,-284.38150788993687,0.0,0.9807583735715499,0.1,0.07341837882995605,1.4854183197021484,0.049739514,0.108924955,-225.8197190415011,-2.1731240378798233,-2.2392808296241578,0.0,9600,1.6394391059875488,0.0014677696673069413,0.00021624564458127825,-220.94613140092207,0.0
333,4.875581741333008,-223.1987546620668,19.155111608743024,-177.09110433585906,-272.95300500002963,0.0,1.0295035732878934,0.1,0.09407925605773926,0.8395991325378418,0.049840722,0.09899017,-225.55762260355766,-2.1667679395532162,-2.2330527766904327,0.0,9600,1.6360194683074951,0.0018022320301513983,0.0004172336150557348,-220.53947267851225,0.0
334,4.921274662017822,-222.38453172435152,23.64547029424042,-165.5316419474689,-277.9934170898208,0.0,1.0103126048320201,0.1,0.09248661994934082,0.8389132022857666,0.050191607,0.09926166,-225.24031351563707,-2.1581841413555805,-2.224981226045325,0.0,9600,1.7836167812347412,0.0014908601611718707,0.00020563418212309425,-221.38358361127212,0.0
335,5.0892252922058105,-225.09070341701127,23.97700544684018,-160.6045532335218,-295.13808885585394,0.0,1.0234870257204354,0.1,0.07944560050964355,1.5330078601837158,0.05004071,0.10566751,-225.22535250577448,-2.1857840550600893,-2.252040495543028,0.0,9600,2.2655231952667236,0.001060791722254493,0.00017713276064771692,-220.78206868994602,0.0
336,5.177909851074219,-224.24409760312577,20.541924512217197,-180.0605100123793,-271.5234136234786,0.0,1.0668018739382747,0.1,0.10530376434326172,0.9556357860565186,0.049624193,0.091236986,-225.12722701550962,-2.177474209386668,-2.243440294518139,0.0,9600,1.6337060928344727,0.001461482760693165,0.00021302853469893764,-220.13798519376405,0.0
337,4.963051795959473,-222.63704594911363,22.947954710077852,-156.45872563483687,-287.8048423018405,0.0,1.0959694071507144,0.1,0.09882831573486328,1.6356761455535889,0.049870033,0.09367368,-224.87820890887002,-2.161259572648753,-2.227474447005832,0.0,9600,1.5034794807434082,0.0012645639404423093,0.00023072241477646702,-220.30821409309286,0.0
338,5.073701620101929,-220.5363363427466,23.368670485157786,-172.6007715381479,-282.3612173279912,0.0,0.9639160425750659,0.1,0.0919187068939209,1.0332920551300049,0.049563605,0.1058681,-224.44402165225767,-2.140624234838907,-2.206584855324131,0.0,9600,1.6464953422546387,0.001084552102410382,0.00021147428334312426,-219.4785356242384,0.0
339,4.694827318191528,-222.64856172124962,21.99659038019131,-179.33453850095998,-275.0095880166769,0.0,1.0262415386779604,0.1,0.05451250076293945,0.6532447338104248,0.04975757,0.10312717,-224.26447565915686,-2.160809273991274,-2.2277238802647563,0.0,9600,1.8828110694885254,0.001189482430673327,0.0002116145797302481,-219.38271824526282,0.0
340,4.808224439620972,-229.33545429309206,21.805595198423834,-175.081244789663,-296.7092742300378,0.0,1.0732951927574332,0.1,0.026755332946777344,0.39141297340393066,0.0499195,0.082298175,-224.7715735225504,-2.2284118274146416,-2.2945109896294613,0.0,9600,1.8057217597961426,0.001961491304450357,0.00026810721337786617,-219.92102789082043,0.0
341,4.753971338272095,-223.60106184067868,19.99980863561519,-185.360215771439,-283.4081651349578,0.0,0.9833651385326412,0.1,0.07566261291503906,0.40471625328063965,0.04964459,0.10444719,-224.65452235436322,-2.1711917612219893,-2.2369500328933025,0.0,9600,1.6831870079040527,0.0019781180529105497,0.0002575978266410948,-218.56742082511278,0.0
342,4.909868478775024,-222.0919141933263,19.293324616929418,-179.12852676130547,-268.8256829909827,0.0,1.0318269521640353,0.1,0.10827779769897461,0.6503102779388428,0.049766395,0.09770118,-224.39826153825953,-2.1560242494193775,-2.2221969477677184,0.0,9600,1.79002046585083,0.001426357953475693,0.00024338981872948563,-218.87236156255585,0.0
343,4.847508907318115,-224.15802282801246,20.491012418622777,-171.41636959041423,-277.4638967677166,0.0,1.0148301795770722,0.1,0.09111833572387695,0.8321487903594971,0.04918695,0.10360509,-224.37423766723484,-2.1767394127461226,-2.2426662246633815,0.0,9600,1.5714128017425537,0.0014510950051152092,0.000253592781482878,-219.03983560065114,0.0
344,4.9167375564575195,-219.84188581354488,22.92368469390012,-173.98511289188875,-278.23808712566,0.0,1.0792517550129512,0.1,0.07791733741760254,1.9067447185516357,0.050053358,0.10236465,-223.92100248186586,-2.1332016491333476,-2.199447920808616,0.0,9600,1.4734182357788086,0.0014724999498307502,0.00025693964534573597,-219.2985740665021,0.0
345,5.136742353439331,-227.95573223195117,21.439689141361004,-177.12693796435246,-282.87763726707726,0.0,1.0591253328302122,0.1,0.13061213493347168,1.001598834991455,0.04978332,0.09343749,-224.32447545687438,-2.214857488233701,-2.280847194317449,0.0,9600,1.6305713653564453,0.0017586857031419787,0.00023663551386148818,-218.9908816940113,0.0
346,5.0241334438323975,-224.72874390332103,20.955545073555857,-177.48141894368646,-285.2342976174476,0.0,1.019421451768865,0.1,0.08321928977966309,1.1266489028930664,0.049233723,0.09219999,-224.36490230151904,-2.1822429376250487,-2.2484144958411356,0.0,9600,1.5875091552734375,0.0021362167430439383,0.0002955030197555071,-218.19608041320083,0.0
347,5.0109899044036865,-225.15075414901276,20.505235040916848,-175.3147695832047,-287.73792017280715,0.0,1.0236078653634633,0.1,0.08779692649841309,1.6968448162078857,0.05015502,0.09488671,-224.44348748626842,-2.1863948003884146,-2.2527139018142486,0.0,9600,1.6436529159545898,0.001404446772515414,0.0002816064037902453,-217.8766561904902,0.0
348,5.168477535247803,-220.57329506345582,22.60146777554384,-161.86506552744234,-275.24965790321716,0.0,1.0706217061362013,0.1,0.07422828674316406,0.5636663436889648,0.05037855,0.09251886,-224.05646824398715,-2.140686318225636,-2.2069337344043087,0.0,9600,1.5905625820159912,0.0017483003667886072,0.00023275684556514457,-217.43539982891272,0.0
