iteration,time_sampling,stoc_pol_mean,stoc_pol_std,stoc_pol_max,stoc_pol_min,rollout_success,alpha,delta,time_vpg,time_npg,kl_dist,surr_improvement,running_score,rwd_sparse,rwd_dense,success_percentage,num_samples,time_VF,VF_error_before,VF_error_after,eval_score,eval_success
0,2.9976108074188232,-25.22102190751963,0.8318195281919164,-23.136127384694102,-27.209286946269295,0.0,9.652865344942802,0.1,0.012209653854370117,0.31920957565307617,0.048818678,0.008570621,-25.22102190751963,-0.12603746486840325,-0.12603746486840325,0.0,19200,1.6917932033538818,1.0101301962686244,0.009913261564695795,-26.156170025639796,0.0
1,2.765568971633911,-25.925836489342505,1.3083027052280967,-22.184889036350903,-28.80319457077797,0.0,9.906787290819183,0.1,0.01132345199584961,0.3009943962097168,0.052199617,0.009142378,-25.29150336570192,-0.12956096385427973,-0.12956096385427973,0.0,19200,1.6688899993896484,0.019259406470892963,0.004563195200680329,-24.698981999008417,0.0
2,2.8260607719421387,-24.74792518100215,1.2530490640100893,-21.178488251024373,-27.37808625989796,0.0,5.39632061428504,0.1,0.010755062103271484,0.2638742923736572,0.048829358,0.016390666,-25.237145547231947,-0.1236770409490136,-0.1236770409490136,0.0,19200,2.1291565895080566,0.0083611447768285,0.0036437890267940047,-23.061851182582245,0.0
3,2.8327391147613525,-23.283562039525602,0.8034642297517067,-21.582658579228617,-25.125575972391772,0.0,4.164431414940678,0.1,0.011441230773925781,0.3179757595062256,0.05285515,0.02464735,-25.04178719646131,-0.11635899855781535,-0.11635899855781535,0.0,19200,2.490614891052246,0.004534563020653955,0.0018184040793196487,-20.475150950660478,0.0
4,2.8313913345336914,-20.6631392276166,0.7017123381780408,-18.76564459803512,-22.566635702944463,0.0,5.572012378295594,0.1,0.011298656463623047,0.24723339080810547,0.050013956,0.018577665,-24.603922399576838,-0.1032730723364401,-0.1032730723364401,0.0,19200,2.4511313438415527,0.024286631056502982,0.002202690000827996,-18.89951800785308,0.0
5,3.0475430488586426,-19.072658990416468,0.6677575692908977,-17.310151243207272,-21.393825863098158,0.0,4.368838716317796,0.1,0.01097559928894043,0.25327324867248535,0.053064026,0.022776222,-24.0507960586608,-0.09532869781489302,-0.09532869781489302,0.0,19200,2.5762939453125,0.012905445990717877,0.002572135896163081,-17.11955661219062,0.0
6,2.8408055305480957,-17.460899215919248,0.5347167657324219,-15.736856979350192,-18.627616701173793,0.0,4.919964278685563,0.1,0.011054515838623047,0.3129615783691406,0.056167107,0.018204432,-23.391806374386647,-0.08728005967469947,-0.08728005967469947,0.0,19200,2.583488702774048,0.01773630247545711,0.002240152607027587,-15.756833187353479,0.0
7,2.841373920440674,-16.138749392256983,0.39438272881420655,-15.112362819688103,-16.786688243160047,0.0,6.410137561374178,0.1,0.011287212371826172,0.2866833209991455,0.05317093,0.016273022,-22.666500676173683,-0.08067481736677498,-0.08067481736677498,0.0,19200,2.6281917095184326,0.011711394057793274,0.0015459217555309152,-14.699376717549512,0.0
8,2.85050630569458,-15.05849590757292,0.3473266374872111,-14.229587301220795,-15.820714511187592,0.0,7.239468958970872,0.1,0.011706829071044922,0.30831289291381836,0.055275816,0.011951846,-21.90570019931361,-0.07528082712086025,-0.07528082712086025,0.0,19200,2.7014176845550537,0.009489669150512674,0.001386118761843909,-13.820564965345772,0.0
9,2.8697376251220703,-14.150528230170286,0.26398614540226717,-13.42936927489801,-14.775416492973962,0.0,5.694835700551517,0.1,0.012562274932861328,0.3123650550842285,0.054146685,0.019803194,-21.130183002399278,-0.07074310730446724,-0.07074310730446724,0.0,19200,2.6750121116638184,0.0060183161949331826,0.0009811963385046956,-13.011577757398163,0.0
10,2.8405771255493164,-13.32011764191688,0.22510019047279564,-12.866459698444613,-13.878063461377224,0.0,6.603961329547423,0.1,0.010907411575317383,0.3230929374694824,0.052986555,0.014761147,-20.34917646635104,-0.06659620716061515,-0.06659620716061515,0.0,19200,2.6200897693634033,0.007577051606471374,0.0009099157640032697,-12.307185262938766,0.0
11,2.8510186672210693,-12.564264194534175,0.2042302542336443,-12.05547896122419,-13.166136148607759,0.0,3.754518768183613,0.1,0.010957717895507812,0.2774930000305176,0.054605756,0.026072258,-19.570685239169354,-0.06281970935341931,-0.06281970935341931,0.0,19200,2.5699472427368164,0.007771950060053972,0.0007011563862671401,-11.806073581626567,0.0
12,2.845034599304199,-12.107266172357262,0.20339547056276439,-11.638798072415677,-12.746705881656872,0.0,4.142619361106028,0.1,0.011096000671386719,0.31725549697875977,0.057239935,0.019306527,-18.824343332488144,-0.060535266626004856,-0.060535266626004856,0.0,19200,2.6093926429748535,0.0022252329691334616,0.0007627540596525383,-11.405872845430004,0.0
13,2.8552839756011963,-11.66785957398404,0.1339361526013127,-11.402853391855396,-11.960969726411914,0.0,3.6277401024272433,0.1,0.011237144470214844,0.26201891899108887,0.05349072,0.027104866,-18.108694956637734,-0.05833922649228591,-0.05833922649228591,0.0,19200,2.51147198677063,0.0024313851343017103,0.0005293979678650709,-11.116300678878199,0.0
14,2.9282920360565186,-11.314720810218612,0.10640871028380985,-11.10681091884227,-11.56668940403877,0.0,4.394948845331901,0.1,0.011111974716186523,0.2567126750946045,0.05483387,0.023304895,-17.429297541995822,-0.05657323121934941,-0.05657323121934941,0.0,19200,2.570208787918091,0.0014299376025867859,0.0003877285190284918,-10.95944597088614,0.0
15,2.910034418106079,-11.112979422618805,0.0803278181852121,-10.965489552519603,-11.338261299996267,0.0,5.639017245084744,0.1,0.010743856430053711,0.24547958374023438,0.05351136,0.023625512,-16.79766573005812,-0.05556413499145391,-0.05556413499145391,0.0,19200,2.4418458938598633,0.0006397047935267397,0.0003291750922198211,-10.975065956298565,0.0
16,3.076152801513672,-11.069718088582343,0.07932190335230975,-10.883591385704229,-11.31535966382629,0.0,6.095489711954159,0.1,0.010814189910888672,0.2490701675415039,0.05229263,0.01544758,-16.224870965910544,-0.055346712042369794,-0.055346712042369794,0.0,19200,2.50498628616333,0.0005541983248266391,0.0003545097255187102,-10.94732483906597,0.0
17,2.845250368118286,-11.007561606407554,0.07532510036175655,-10.79544595832172,-11.217050016437376,0.0,7.655173210340148,0.1,0.01191854476928711,0.3229043483734131,0.052680787,0.012394839,-15.703140029960245,-0.05503506190718623,-0.05503506190718623,0.0,19200,2.489345073699951,0.0005728877183961768,0.0003209451399800146,-10.879248863952366,0.0
18,2.8832645416259766,-10.9461906580607,0.06534814231080611,-10.782442213828334,-11.133536258939367,0.0,4.136919684071904,0.1,0.01081991195678711,0.2887837886810303,0.05313886,0.017941354,-15.22744509277029,-0.05472884182976182,-0.05472884182976182,0.0,19200,2.296130418777466,0.00034612026260388135,0.0003300805331799234,-10.891505704291276,0.0
19,2.8503472805023193,-10.934848493705433,0.061904449157937816,-10.73961509695975,-11.082227283639606,0.0,8.32186669416735,0.1,0.011496305465698242,0.31853461265563965,0.054386735,0.013897929,-14.798185432863805,-0.05467149035264653,-0.05467149035264653,0.0,19200,2.235339641571045,0.000542536132931867,0.0002861747380541994,-10.898556641190778,0.0
20,2.8598785400390625,-10.905019097958577,0.06164969582486483,-10.760341661864578,-11.039934220382433,0.0,8.945234280528814,0.1,0.010878801345825195,0.31922316551208496,0.044928823,0.009337176,-14.408868799373282,-0.05452244227332639,-0.05452244227332639,0.0,19200,2.2451837062835693,0.0004576212397073975,0.00030582867918944325,-10.875684155511324,0.0
21,2.9004364013671875,-10.864907960148775,0.0653378117615302,-10.7240543907714,-11.008102673113006,0.0,6.464117944214932,0.1,0.012212753295898438,0.30455589294433594,0.04367454,0.01270316,-14.054472715450832,-0.05432193130180928,-0.05432193130180928,0.0,19200,2.2267096042633057,0.0003211980364554724,0.00029056056154875415,-10.830659874490003,0.0
22,2.881065845489502,-10.836743787758701,0.06683646537137247,-10.688763884863373,-11.011271226496492,0.0,8.364419742744502,0.1,0.010790109634399414,0.23894333839416504,0.049880218,0.011837296,-13.732699822681619,-0.0541811805762421,-0.0541811805762421,0.0,19200,2.0183169841766357,0.00030671412460582927,0.0002953354597453613,-10.796119007139929,0.0
23,2.8895838260650635,-10.782632916175166,0.0632130577247367,-10.654810926874017,-10.961574551405878,0.0,5.1998267915218825,0.1,0.011005401611328125,0.31188249588012695,0.052058484,0.020248283,-13.437693132030972,-0.05391064597895337,-0.05391064597895337,0.0,19200,1.8763010501861572,0.0002878871463042225,0.0003486958552388393,-10.747259278662687,0.0
24,2.8738973140716553,-10.69487151282919,0.06506608747497357,-10.522519041731355,-10.849536165944054,0.0,4.671109555495375,0.1,0.011862993240356445,0.2845160961151123,0.049052995,0.017212076,-13.163410970110794,-0.05347198971350151,-0.05347198971350151,0.0,19200,1.9493377208709717,0.000578422150592568,0.000278498967906913,-10.726772374205243,0.0
25,2.8721940517425537,-10.717069976325826,0.05606842346898625,-10.579849427152405,-10.848414186692363,0.0,5.249225740223506,0.1,0.011143922805786133,0.2725951671600342,0.051337894,0.027885815,-12.918776870732298,-0.053583648983422626,-0.053583648983422626,0.0,19200,1.9428997039794922,0.0002456750716980855,0.0002582497319331251,-10.771142508036197,0.0
26,2.9338769912719727,-10.715894020178041,0.06130965436800933,-10.572243777516235,-10.845941799498437,0.0,4.211014074455238,0.1,0.011114835739135742,0.3043496608734131,0.05128871,0.01109125,-12.698488585676872,-0.05357707140407691,-0.05357707140407691,0.0,19200,1.9808435440063477,0.00031599897879381884,0.00030789212635704894,-10.760965881114874,0.0
27,3.103065252304077,-10.710957924521551,0.05817693024690815,-10.559761575267316,-10.87117881041264,0.0,6.323791864701531,0.1,0.011284589767456055,0.27300000190734863,0.04635494,0.017934822,-12.499735519561339,-0.05355239400964062,-0.05355239400964062,0.0,19200,2.065131425857544,0.00033804896616972547,0.0002561721021551098,-10.666246221858776,0.0
28,2.871232509613037,-10.624040065296574,0.05924174920957298,-10.513940082712192,-10.815891574894998,0.0,5.059556800830357,0.1,0.010487794876098633,0.2656121253967285,0.04701683,0.022996536,-12.312165974134864,-0.05311850217958782,-0.05311850217958782,0.0,19200,2.077404737472534,0.00039608983876399323,0.0002815606520255954,-10.62886804645053,0.0
29,2.8602678775787354,-10.605496603371906,0.04937884428467803,-10.469932111584482,-10.761065313862765,0.0,4.0781640594005255,0.1,0.010856389999389648,0.27381348609924316,0.05058522,0.01905286,-12.14149903705857,-0.0530267173603128,-0.0530267173603128,0.0,19200,2.061293125152588,0.00022054551619191812,0.00027721558134755916,-10.580171214332406,0.0
30,2.875910997390747,-10.559080718876956,0.0550130526920324,-10.437900230628596,-10.678077610355436,0.0,5.634370023763141,0.1,0.011427640914916992,0.3213615417480469,0.050388698,0.011119768,-11.98325720524041,-0.052794557452463586,-0.052794557452463586,0.0,19200,1.9736099243164062,0.00025613666606302024,0.0002627937998154048,-10.519168751299862,0.0
31,2.8613624572753906,-10.50655757672266,0.058877952017117346,-10.388373356126461,-10.626597727703317,0.0,4.750722318007282,0.1,0.010928630828857422,0.2508711814880371,0.052909512,0.02535763,-11.835587242388634,-0.05253287044471192,-0.05253287044471192,0.0,19200,1.9152131080627441,0.0002563208217082153,0.0002528813204868928,-10.457772878019473,0.0
32,2.978914737701416,-10.463462974556467,0.05667066891456759,-10.321711983463413,-10.587691407979692,0.0,6.914125786409612,0.1,0.011358261108398438,0.2570207118988037,0.046694797,0.018622927,-11.698374815605419,-0.05231775827142185,-0.05231775827142185,0.0,19200,1.9918055534362793,0.00023957497050177223,0.0002851024624371137,-10.396003800953991,0.0
33,2.913175106048584,-10.43193209336558,0.05075674806753399,-10.326294810851671,-10.556415872528047,0.0,5.772910392522786,0.1,0.011035919189453125,0.3137080669403076,0.04578686,0.023363931,-11.571730543381435,-0.05216064023818495,-0.05216064023818495,0.0,19200,1.9295783042907715,0.0002309780933123857,0.0002398174324567692,-10.37978232803584,0.0
34,2.8907039165496826,-10.43063279413607,0.05515752083337282,-10.301380494205908,-10.602855293555171,0.0,3.7785914802566447,0.1,0.011373281478881836,0.2475748062133789,0.050248414,0.03155457,-11.457620768456898,-0.052154139077931844,-0.052154139077931844,0.0,19200,1.9441511631011963,0.000315325591433891,0.00025328239585661264,-10.342952145741204,0.0
35,2.8825271129608154,-10.40972165232847,0.05438615840989909,-10.227715761278388,-10.522541400098403,0.0,7.175386404654371,0.1,0.010766267776489258,0.24546575546264648,0.05314931,0.013035904,-11.352830856844054,-0.05205017398748776,-0.05205017398748776,0.0,19200,1.9512100219726562,0.00022849102490436974,0.0002262877853298229,-10.289737794586461,0.0
36,2.904662847518921,-10.359269349291724,0.04502860877527697,-10.261027998463435,-10.457232377889186,0.0,5.5818695176454955,0.1,0.02098870277404785,0.3406217098236084,0.049473718,0.018339688,-11.253474706088822,-0.05179805839086474,-0.05179805839086474,0.0,19200,1.9236786365509033,0.00023317643021668607,0.00022387874650345841,-10.260057900480033,0.0
37,2.882626533508301,-10.350419663647633,0.04717092588517681,-10.250097776743912,-10.489362928923086,0.0,4.201255597699354,0.1,0.010977983474731445,0.32227373123168945,0.049477022,0.018067902,-11.163169201844704,-0.05175421018613957,-0.05175421018613957,0.0,19200,1.9883685111999512,0.00030219463358122664,0.00021799309794401858,-10.236388409736849,0.0
38,3.1054091453552246,-10.303693823585043,0.05076688516089192,-10.192907564001528,-10.432287304726499,0.0,3.1829203141547286,0.1,0.01153254508972168,0.3297569751739502,0.052985057,0.028154727,-11.077221664018738,-0.05152025129474828,-0.05152025129474828,0.0,19200,1.9727704524993896,0.00027481814726062765,0.00022706988888203787,-10.22337582313819,0.0
39,2.977189779281616,-10.286652875697913,0.03884577147192347,-10.182152332828313,-10.38987310435334,0.0,7.793463652944993,0.1,0.011786222457885742,0.2559661865234375,0.050150152,0.012710997,-10.998164785186656,-0.05143535548901034,-0.05143535548901034,0.0,19200,1.8559544086456299,0.00020316849676388883,0.0002040545999614739,-10.159021850511303,0.0
40,2.869887590408325,-10.219811415207422,0.04259484048212422,-10.13412545998862,-10.320942977780923,0.0,5.33347999329966,0.1,0.01146245002746582,0.25447630882263184,0.048857637,0.018003186,-10.920329448188733,-0.05110159454445836,-0.05110159454445836,0.0,19200,1.8777050971984863,0.00030449398171922265,0.00019909981124832492,-10.138617773650559,0.0
41,2.913311719894409,-10.198099305157632,0.03984108755071886,-10.099041252666813,-10.31204914826508,0.0,9.699456735923905,0.1,0.010930538177490234,0.3094799518585205,0.0480862,0.009349764,-10.848106433885622,-0.05099316991297853,-0.05099316991297853,0.0,19200,1.8810572624206543,0.00019479878471238615,0.0002164543936738911,-10.102090471344098,0.0
42,2.8819620609283447,-10.16918780203361,0.03269802402467854,-10.08338544752599,-10.251579458554225,0.0,8.203081002787114,0.1,0.011200666427612305,0.3070073127746582,0.04353269,-0.0024693457,-10.780214570700423,-0.050848825448540726,-0.050848825448540726,0.0,19200,1.9334979057312012,0.0001765666721770118,0.0001831669041973497,-10.081353405475662,0.0
43,2.889866352081299,-10.148297415416431,0.03420491169299492,-10.072183876405692,-10.231206550742488,0.0,6.8103858350877555,0.1,0.011052131652832031,0.24830913543701172,0.04848516,0.020245798,-10.717022855172024,-0.05074479560525849,-0.05074479560525849,0.0,19200,1.900465965270996,0.0001804914695767435,0.00019240378706944242,-10.068840722326334,0.0
44,3.0603976249694824,-10.153039298963693,0.03517654583871129,-10.06800909400344,-10.230318073293727,0.0,5.1345061039871345,0.1,0.01149439811706543,0.3285536766052246,0.048555665,0.020351116,-10.66062449955119,-0.050768486688303645,-0.050768486688303645,0.0,19200,2.0308403968811035,0.0001883146169750905,0.00020353538494366944,-10.033150468943907,0.0
45,2.884509563446045,-10.108393566822874,0.02992321324072602,-10.038609445677556,-10.19597051130021,0.0,6.616319605159761,0.1,0.011129617691040039,0.332122802734375,0.048261546,0.0032583554,-10.605401406278359,-0.0505454113362289,-0.0505454113362289,0.0,19200,1.901228904724121,0.00018335333237970495,0.00018118608147367916,-10.016467167420746,0.0
46,2.9150893688201904,-10.08810280516806,0.03461651630321026,-10.00732354272943,-10.160865341493345,0.0,5.4024510452052885,0.1,0.01068568229675293,0.302396297454834,0.04929378,0.0061204275,-10.55367154616733,-0.050444222863271215,-0.050444222863271215,0.0,19200,1.8138954639434814,0.00018327612511192861,0.00018397892328391038,-10.007218793807565,0.0
47,2.903973340988159,-10.082778124004696,0.034842171036714456,-9.98933460390473,-10.17328033795701,0.0,9.499739535373239,0.1,0.011087656021118164,0.25113773345947266,0.043483067,0.0124869915,-10.506582203951067,-0.05041765776812898,-0.05041765776812898,0.0,19200,1.9578871726989746,0.00018639499562746997,0.00019742986862218934,-9.96885647677173,0.0
48,2.9087886810302734,-10.066982764841272,0.03524788711268346,-9.992742772423542,-10.149991223866955,0.0,8.222241194980588,0.1,0.010828256607055664,0.251434326171875,0.047366135,0.014300954,-10.462622260040089,-0.05033882551000266,-0.05033882551000266,0.0,19200,1.882493257522583,0.00018717206442040403,0.00019574397484579592,-9.948420611841163,0.0
49,3.097043991088867,-10.04393035797239,0.034275887590284625,-9.986794606188083,-10.14159134865402,0.0,6.500139737409332,0.1,0.01112508773803711,0.2520277500152588,0.04694472,0.010838608,-10.420753069833319,-0.05022366842586889,-0.05022366842586889,0.0,19200,1.9097695350646973,0.00021458796609338072,0.00018663322101591785,-9.919600278417555,0.0
50,2.874819755554199,-10.017634838763438,0.0316975193869628,-9.945442825251478,-10.081475831652439,0.0,5.646543842301252,0.1,0.011133670806884766,0.3288609981536865,0.048493262,0.024501424,-10.380441246726331,-0.050092335284684375,-0.050092335284684375,0.0,19200,1.8941333293914795,0.00018290280228159788,0.00020395240631601843,-9.910943942143248,0.0
51,2.9368298053741455,-10.018221810652902,0.027471019342644416,-9.945615904672895,-10.09256479799154,0.0,5.062927716866751,0.1,0.011321544647216797,0.24886631965637207,0.05213331,0.016288964,-10.344219303118988,-0.0500954939862163,-0.0500954939862163,0.0,19200,1.7742114067077637,0.00021639630839954117,0.00023450924193998038,-9.908826513309364,0.0
52,2.8764779567718506,-10.013454432545563,0.03636291133118436,-9.93142461519906,-10.115722628442267,0.0,7.783208249094868,0.1,0.010823249816894531,0.24831485748291016,0.044169024,0.0053539113,-10.311142816061647,-0.05007162177429058,-0.05007162177429058,0.0,19200,1.8004865646362305,0.0002389831539772206,0.00021636310766729605,-9.88801358374777,0.0
53,2.924670457839966,-9.988994976558908,0.030951467333638693,-9.914336313383851,-10.064896123554643,0.0,5.0944272503924735,0.1,0.011032342910766602,0.24843859672546387,0.048470173,0.023523288,-10.278928032111374,-0.04994957553973267,-0.04994957553973267,0.0,19200,1.8658101558685303,0.00018482556535739502,0.0001844631199668707,-9.889444405892181,0.0
54,3.053622245788574,-9.988683376648806,0.0311404188524412,-9.904388014980247,-10.130803388886186,0.0,8.770809136419564,0.1,0.013195276260375977,0.2721126079559326,0.05167198,0.009788574,-10.249903566565118,-0.04994796573729071,-0.04994796573729071,0.0,19200,1.976996660232544,0.00019403667397674797,0.00019463232285400867,-9.876916234051691,0.0
55,2.9022719860076904,-9.969552533075507,0.03094036403256012,-9.910838125902941,-10.065485104194412,0.0,5.16274181802545,0.1,0.010683774948120117,0.24571990966796875,0.047616933,0.027140874,-10.221868463216158,-0.04985232130773767,-0.04985232130773767,0.0,19200,1.9252943992614746,0.00016990767402817584,0.0002537126640217435,-9.873045139521842,0.0
56,2.8958451747894287,-9.979657376249762,0.027666070564080932,-9.919904069433976,-10.076233875727945,0.0,5.0508847943628385,0.1,0.010972023010253906,0.25532054901123047,0.05175152,0.015167957,-10.19764735451952,-0.04990304766072882,-0.04990304766072882,0.0,19200,1.9256057739257812,0.0002297465670068455,0.00020093267298380783,-9.887601765620794,0.0
57,2.8920342922210693,-10.013465515282128,0.0386051113834643,-9.939498047839452,-10.128314573833288,0.0,7.467668879182673,0.1,0.01124715805053711,0.253711462020874,0.04996781,0.019905156,-10.17922917059578,-0.05007198279423831,-0.05007198279423831,0.0,19200,1.9717581272125244,0.0002559906930660061,0.00018731592783689186,-9.86019767008169,0.0
58,2.9175803661346436,-9.967672033768897,0.029075222056245534,-9.891684413059748,-10.025730736082584,0.0,6.569673976339914,0.1,0.010846853256225586,0.25400781631469727,0.05092865,0.019142501,-10.158073456913094,-0.04984320299032737,-0.04984320299032737,0.0,19200,1.8202261924743652,0.00022241894848633423,0.00018212156760964048,-9.857245421126914,0.0
59,3.06130051612854,-9.965248676199925,0.02585066925456725,-9.906644674009778,-10.062469359557433,0.0,5.19372355262941,0.1,0.010640382766723633,0.24876976013183594,0.05255899,0.027555121,-10.138790978841778,-0.04983108754457602,-0.04983108754457602,0.0,19200,1.8090412616729736,0.0001933016273989663,0.00018143954698370492,-9.85804210444773,0.0
60,2.9202144145965576,-9.966746847261525,0.027379805960408485,-9.898822548784368,-10.034441031422553,0.0,4.92614660693801,0.1,0.010755062103271484,0.2537376880645752,0.05083549,0.01932814,-10.121586565683751,-0.04983870249387653,-0.04983870249387653,0.0,19200,1.8838601112365723,0.0001706983900922034,0.00016830214703186615,-9.909820383250125,0.0
61,2.888472080230713,-10.021816202921242,0.03106875567754227,-9.96044819134447,-10.09703466256173,0.0,8.209663686165701,0.1,0.010780096054077148,0.2528398036956787,0.051000644,0.009464294,-10.1116095294075,-0.050114017578235415,-0.050114017578235415,0.0,19200,1.929429531097412,0.0002141084318023531,0.0001815222016568653,-9.863599851273541,0.0
62,2.9189774990081787,-9.97413631644307,0.02664802311503154,-9.91120766085199,-10.046841601208047,0.0,7.282368482734272,0.1,0.010824203491210938,0.2538762092590332,0.046107147,0.00959133,-10.097862208111057,-0.04987561577126165,-0.04987561577126165,0.0,19200,1.934894323348999,0.0002111331178657663,0.00018816123470780666,-9.86480190875696,0.0
63,2.9453248977661133,-9.978024482147761,0.03329023226029028,-9.90545474641901,-10.065781951928397,0.0,4.6958384303841605,0.1,0.011623620986938477,0.258256196975708,0.04933873,0.009330705,-10.085878435514728,-0.04989514290023942,-0.04989514290023942,0.0,19200,2.0024824142456055,0.00017646954903625982,0.0001779971393067085,-9.82700162577012,0.0
64,2.965975522994995,-9.925288960522611,0.0259790258210966,-9.86909923872114,-10.007304052655023,0.0,5.160813179614537,0.1,0.010749101638793945,0.24580788612365723,0.05183682,0.012452976,-10.069819488015517,-0.04963149100511904,-0.04963149100511904,0.0,19200,1.933868646621704,0.00021865029240124886,0.00019134633764772603,-9.828256305788562,0.0
65,3.053037166595459,-9.928205640286413,0.02680626776285228,-9.874042012669078,-10.003108198194335,0.0,4.6602110696270875,0.1,0.010604619979858398,0.24655413627624512,0.05060295,0.009616348,-10.055658103242607,-0.04964614573659334,-0.04964614573659334,0.0,19200,1.9352991580963135,0.000195908293880843,0.00017541300727398761,-9.820201612959567,0.0
66,2.9137470722198486,-9.924922685538581,0.027229828335373605,-9.871147012182199,-10.004467010548858,0.0,6.302352529137033,0.1,0.011167764663696289,0.2696497440338135,0.05095001,0.014808664,-10.042584561472205,-0.04962957257054631,-0.04962957257054631,0.0,19200,1.9603736400604248,0.00018157116725932954,0.00020650564140052278,-9.832194821874987,0.0
67,2.8772213459014893,-9.930593764662223,0.0289898240035407,-9.86759309514775,-10.005644393872494,0.0,7.754297030854915,0.1,0.011320829391479492,0.24653911590576172,0.03959664,0.014796268,-10.031385481791208,-0.04965814407590478,-0.04965814407590478,0.0,19200,1.7828409671783447,0.00021380346858677034,0.00017904695477560318,-9.825082370651169,0.0
68,2.8716342449188232,-9.919822685752067,0.028024836340008897,-9.858239965416754,-9.990446987803788,0.0,7.650649871201118,0.1,0.011080503463745117,0.25056910514831543,0.050793823,0.017675884,-10.020229202187295,-0.049604317635573825,-0.049604317635573825,0.0,19200,1.8175792694091797,0.00017789135587987544,0.0001955121613347706,-9.835613231315067,0.0
69,2.9127066135406494,-9.931286191831719,0.032342945006778985,-9.869601903195532,-10.023236780629611,0.0,6.89229589980126,0.1,0.012131452560424805,0.2608785629272461,0.046792585,0.01211269,-10.011334901151738,-0.04966154586820191,-0.04966154586820191,0.0,19200,1.9712765216827393,0.0001771591329242529,0.0001799298398849078,-9.818421293803253,0.0
70,3.15936279296875,-9.901799951633073,0.022616301766967883,-9.847385018865548,-9.952134007664773,0.0,5.661906789171773,0.1,0.01169133186340332,0.26842546463012695,0.050203335,0.023368906,-10.000381406199873,-0.0495141515929658,-0.0495141515929658,0.0,19200,1.8957922458648682,0.0001695121397421114,0.00016442295379125198,-9.823062500107307,0.0
71,2.8906314373016357,-9.904459820950196,0.02649281074818409,-9.851036559432092,-9.97485465687792,0.0,5.142451980510649,0.1,0.01100921630859375,0.24798274040222168,0.0491079,0.02777159,-9.990789247674906,-0.04952750254249259,-0.04952750254249259,0.0,19200,1.9000959396362305,0.00016819758351367616,0.00017132496914182738,-9.81631435233805,0.0
72,2.8607966899871826,-9.900016049900906,0.024320634477090316,-9.84288948244131,-9.971417764425448,0.0,7.0807342834901075,0.1,0.010606765747070312,0.2479724884033203,0.049205195,0.015409908,-9.981711927897507,-0.049505341579836916,-0.049505341579836916,0.0,19200,1.8506813049316406,0.00016828495498281938,0.00018513880064814387,-9.80692087213756,0.0
73,2.8734543323516846,-9.890589239030446,0.022506962302203462,-9.836046489799623,-9.950797253753931,0.0,3.682584820310571,0.1,0.011066436767578125,0.252122163772583,0.049153123,0.03266436,-9.972599659010802,-0.04945823559631882,-0.04945823559631882,0.0,19200,1.8968894481658936,0.00018210501163873217,0.0001694517456964422,-9.801056533576663,0.0
74,2.899782180786133,-9.89289287435624,0.023058080752621262,-9.832893431154451,-9.98064188410471,0.0,10.735266596423378,0.1,0.010639190673828125,0.24718475341796875,0.046241987,0.004534548,-9.964628980545346,-0.049469711219386925,-0.049469711219386925,0.0,19200,1.9166984558105469,0.00017600155505652923,0.000177539817902461,-9.794114027008067,0.0
75,2.8809595108032227,-9.883625957320683,0.022445675839509384,-9.823342736763005,-9.937832845100226,0.0,5.952898741577356,0.1,0.012728214263916016,0.26063990592956543,0.046169866,0.015471236,-9.95652867822288,-0.04942329257845065,-0.04942329257845065,0.0,19200,1.9345052242279053,0.00021839356598779355,0.0001812300700539274,-9.790575685766447,0.0
76,3.0691375732421875,-9.893324908149587,0.02759100713623157,-9.84144948991516,-9.957257977704403,0.0,4.895568963739853,0.1,0.01111602783203125,0.2524988651275635,0.04973997,0.020982321,-9.95020830121555,-0.04947184794169016,-0.04947184794169016,0.0,19200,1.894366979598999,0.00020528237893086343,0.00021000842091309558,-9.78369834825686,0.0
77,2.8849730491638184,-9.865650447273126,0.02016974227213009,-9.81741552057271,-9.924455544085006,0.0,10.535286739684642,0.1,0.010860681533813477,0.24602055549621582,0.0499454,-0.003204193,-9.941752515821308,-0.04933346550009954,-0.04933346550009954,0.0,19200,1.9052226543426514,0.00019824543246526835,0.00018961841746549174,-9.800081653840632,0.0
78,2.8762903213500977,-9.880712430743877,0.020089103782633976,-9.834938086757386,-9.943966409439426,0.0,4.279716930039791,0.1,0.010787725448608398,0.24631237983703613,0.051120855,0.027219359,-9.935648507313564,-0.04940864762507441,-0.04940864762507441,0.0,19200,1.9144093990325928,0.0002362281818252735,0.0001766710946927317,-9.806441914898647,0.0
79,2.906136989593506,-9.897244834836693,0.025094789714166472,-9.844029396269823,-9.968543416440072,0.0,5.57327836903387,0.1,0.011326313018798828,0.25029492378234863,0.050648194,0.023214228,-9.931808140065877,-0.049491381120028675,-0.049491381120028675,0.0,19200,2.027249813079834,0.00017980790531693032,0.00021150543215327358,-9.805218720007206,0.0
80,2.9312002658843994,-9.882767982642612,0.0242958809466093,-9.831029656097545,-9.951141610023852,0.0,9.590992003712724,0.1,0.011255502700805664,0.24805641174316406,0.052019585,0.01381428,-9.926904124323551,-0.04941897712583657,-0.04941897712583657,0.0,19200,1.9801411628723145,0.00020773070082588882,0.0001805022501343762,-9.789713743790358,0.0
81,2.887279748916626,-9.867031480581774,0.021624883326616145,-9.814771289096022,-9.91697660339254,0.0,6.105758598624674,0.1,0.011143207550048828,0.26021671295166016,0.04858448,0.016669173,-9.920916859949374,-0.049340376509407174,-0.049340376509407174,0.0,19200,2.0083093643188477,0.00018807506801738405,0.00019447764481195484,-9.79618590030064,0.0
82,2.918388605117798,-9.881770381508149,0.02384546206660713,-9.828878903080433,-9.943135238302542,0.0,6.10445579625594,0.1,0.011267662048339844,0.2489304542541504,0.048096996,0.009697491,-9.91700221210525,-0.049414135675987035,-0.049414135675987035,0.0,19200,1.8909425735473633,0.00018994244653019516,0.00019196903400972977,-9.79688172684733,0.0
83,2.9307150840759277,-9.881731953212169,0.021084924475278786,-9.81767506907677,-9.930576653064737,0.0,3.1882545295235065,0.1,0.01092529296875,0.24941301345825195,0.050728265,0.033866122,-9.913475186215942,-0.04941386475312328,-0.04941386475312328,0.0,19200,1.8564622402191162,0.00018746779000429768,0.00017051314404077915,-9.793100647679259,0.0
84,2.901050567626953,-9.875112527556933,0.018438165943348152,-9.830809017052152,-9.914705239756922,0.0,6.969540322362777,0.1,0.011493682861328125,0.25283241271972656,0.048676737,0.011530156,-9.90963892035004,-0.049380766428120136,-0.049380766428120136,0.0,19200,1.8711798191070557,0.00016871629295203935,0.00017348771115694244,-9.795625761471074,0.0
85,2.9172885417938232,-9.878319315013126,0.01927679564728001,-9.809739556346305,-9.910920135877,0.0,5.998160359292961,0.1,0.011331558227539062,0.2476661205291748,0.048958074,0.015008231,-9.906506959816351,-0.04939684676765823,-0.04939684676765823,0.0,19200,1.9189527034759521,0.00018061904934079244,0.0001817308183046596,-9.798011241867378,0.0
86,2.9022679328918457,-9.878007047953782,0.020748639513870796,-9.83192616849412,-9.958570072158365,0.0,5.105716711086785,0.1,0.010715723037719727,0.252216100692749,0.04831694,0.027344195,-9.903656968630093,-0.04939525834942906,-0.04939525834942906,0.0,19200,1.9357988834381104,0.00018184276025749776,0.0001652450650386089,-9.805402078473959,0.0
87,3.030029296875,-9.883139850881987,0.020710709994548965,-9.844639026752118,-9.944574892322061,0.0,9.239480419601962,0.1,0.011585712432861328,0.2585182189941406,0.048745964,0.010294892,-9.901605256855284,-0.049420854122205836,-0.049420854122205836,0.0,19200,2.0195047855377197,0.00017337835136503482,0.00018121809063290054,-9.812370099944207,0.0
88,2.912447214126587,-9.892722105372288,0.022547309869455228,-9.852944499807753,-9.963879180032103,0.0,5.998287986108561,0.1,0.011296987533569336,0.25943684577941895,0.049636662,0.017298842,-9.900716941706984,-0.04946879025643994,-0.04946879025643994,0.0,19200,1.9095101356506348,0.00017673510506404372,0.00023078866685234805,-9.808766262225607,0.0
89,2.9537506103515625,-9.88638219847431,0.023640979487143086,-9.843666485999469,-9.949670484244024,0.0,9.526720115611512,0.1,0.010900259017944336,0.24594402313232422,0.045333423,0.0132856425,-9.899283467383716,-0.04943708010088129,-0.04943708010088129,0.0,19200,1.9345495700836182,0.0002539842402680881,0.00022144889469154122,-9.804815246906056,0.0
90,2.8860666751861572,-9.88340925165008,0.02103271382895545,-9.836223282500763,-9.92848572923466,0.0,11.23610631524984,0.1,0.011195659637451172,0.2583787441253662,0.04571222,0.012816982,-9.897696045810353,-0.049422284124987954,-0.049422284124987954,0.0,19200,1.9540319442749023,0.0002081794797573414,0.0001713195119065704,-9.81452582552171,0.0
91,2.9001526832580566,-9.899113874904385,0.025057431426152396,-9.84912153988405,-9.980292346931071,0.0,4.973315523587428,0.1,0.010978460311889648,0.2515561580657959,0.048371777,0.024484,-9.897837828719757,-0.04950078520968385,-0.04950078520968385,0.0,19200,1.9005367755889893,0.00018775706268959205,0.00017527290066911971,-9.804087086239523,0.0
92,2.888432025909424,-9.884424763818094,0.020983243383687386,-9.835917122361847,-9.927334309149343,0.0,5.810527796201526,0.1,0.015449762344360352,0.2981109619140625,0.050303206,0.02288456,-9.89649652222959,-0.04942736291293326,-0.04942736291293326,0.0,19200,1.7937734127044678,0.0001811659532581027,0.00019344116756702014,-9.802341723120378,0.0
93,2.8964128494262695,-9.886394105575492,0.02206937758560354,-9.819650222049582,-9.94799565426913,0.0,7.5676868613837405,0.1,0.011161088943481445,0.27541637420654297,0.044791363,0.01670758,-9.895486280564182,-0.049437221537829874,-0.049437221537829874,0.0,19200,1.8722777366638184,0.000195855092041512,0.00018081595992289968,-9.804857517789006,0.0
94,2.9153008460998535,-9.895518343872522,0.022713282773171275,-9.832246394294886,-9.956609894633129,0.0,5.548968035051548,0.1,0.01108860969543457,0.2651033401489258,0.050937228,0.024443189,-9.895489486895016,-0.04948275995751811,-0.04948275995751811,0.0,19200,1.9054450988769531,0.0002004149733981057,0.00018457033166676345,-9.810493533709227,0.0
95,2.9217474460601807,-9.912295718125646,0.022586730407607312,-9.857562662981241,-9.972345438808125,0.0,9.349303013208525,0.1,0.01095271110534668,0.245741605758667,0.048704155,0.014291064,-9.89717011001808,-0.04956666529469639,-0.04956666529469639,0.0,19200,1.9123196601867676,0.00018632419218113047,0.0001889563501257186,-9.803345004999631,0.0
96,2.890977382659912,-9.90447526823597,0.02473228818078547,-9.833609631248002,-9.959210964122784,0.0,3.998846672290074,0.1,0.011193513870239258,0.28782057762145996,0.05223401,0.018570907,-9.897900625839869,-0.04952739162319895,-0.04952739162319895,0.0,19200,1.8680915832519531,0.00019093370576916613,0.0001854283283212159,-9.798736899230832,0.0
97,2.9283344745635986,-9.881567132514611,0.02273337897382946,-9.828642631446971,-9.936629865079492,0.0,6.524449936681208,0.1,0.011097431182861328,0.2506544589996338,0.048787206,0.016102446,-9.896267276507343,-0.049412994988256236,-0.049412994988256236,0.0,19200,1.9106063842773438,0.00017538808173291333,0.00018410534054717013,-9.797310463201773,0.0
98,3.114708662033081,-9.879811589092673,0.022610075689130895,-9.832742203302168,-9.942906461238092,0.0,6.711787007067113,0.1,0.012354373931884766,0.28005552291870117,0.049084675,0.017168116,-9.894621707765877,-0.049404173276711705,-0.049404173276711705,0.0,19200,1.9548213481903076,0.00019140596369886733,0.0001761810655700358,-9.799411572679514,0.0
99,2.898249626159668,-9.866315909235405,0.01823009613667042,-9.8289544604287,-9.909405075095332,0.0,6.107442509703896,0.1,0.01080322265625,0.25261545181274414,0.055315245,0.006128872,-9.89179112791283,-0.049336687539811803,-0.049336687539811803,0.0,19200,1.9491078853607178,0.00017316546584637596,0.00019170767939863904,-9.810441956650756,0.0
100,2.939516544342041,-9.880609188362076,0.01941258917156533,-9.838375139006315,-9.934460696912923,0.0,7.863247463286334,0.1,0.011297464370727539,0.25310730934143066,0.046932556,0.012923045,-9.890672933957756,-0.04940815217938747,-0.04940815217938747,0.0,19200,1.915989637374878,0.00019059390491716724,0.00021752554918499646,-9.800545660419242,0.0
101,2.90714430809021,-9.882030225650295,0.02348596321867606,-9.816077195743002,-9.92659811265586,0.0,7.62146681349372,0.1,0.011207103729248047,0.2568821907043457,0.048825264,0.012546584,-9.88980866312701,-0.0494152629991978,-0.0494152629991978,0.0,19200,1.8287436962127686,0.0002316467810674911,0.00018937382195022243,-9.799072965664426,0.0
102,2.9016478061676025,-9.884231641241382,0.021211785638461628,-9.83810258736513,-9.938507026283277,0.0,5.677374302674716,0.1,0.011176347732543945,0.2515122890472412,0.050046735,0.013539321,-9.889250960938446,-0.04942608103585274,-0.04942608103585274,0.0,19200,1.8246080875396729,0.0001885478730145103,0.00016916135817445247,-9.806798354085526,0.0
103,3.0856332778930664,-9.894967732867736,0.0254531821512308,-9.833411649353327,-9.94919423226344,0.0,5.318108619476297,0.1,0.010573863983154297,0.2566215991973877,0.050881036,0.018900013,-9.889822638131376,-0.04947959093745771,-0.04947959093745771,0.0,19200,1.8323581218719482,0.00018441820541157818,0.00022364641705330783,-9.806413815189527,0.0
104,2.934235095977783,-9.877913095736611,0.023999793718140167,-9.819859605574289,-9.938023420104102,0.0,3.921190457975279,0.1,0.011168956756591797,0.26487159729003906,0.048521783,0.026309071,-9.8886316838919,-0.0493946194977369,-0.0493946194977369,0.0,19200,1.8866865634918213,0.00023144572036890075,0.0001848295003096502,-9.797100829937918,0.0
105,2.883028268814087,-9.861808022565283,0.018252245085095233,-9.825108361803924,-9.909892066046211,0.0,6.279392666974035,0.1,0.011290550231933594,0.25675487518310547,0.048277542,0.029139645,-9.88594931775924,-0.04931413034103818,-0.04931413034103818,0.0,19200,1.9094343185424805,0.0001928534202008431,0.0002089114042157897,-9.793424896626771,0.0
106,2.882996082305908,-9.862397329972643,0.01910759286875693,-9.827616234901548,-9.911085256504137,0.0,9.071031184952489,0.1,0.011686563491821289,0.2564542293548584,0.046594348,0.014063021,-9.88359411898058,-0.04931707989915545,-0.04931707989915545,0.0,19200,1.9623160362243652,0.00021250156435277502,0.0002037186897040689,-9.792571361858293,0.0
107,2.897839307785034,-9.867746867336429,0.022887596081472734,-9.814321098574782,-9.91749614656709,0.0,7.808978488902579,0.1,0.015700817108154297,0.26077890396118164,0.047247462,0.010381653,-9.882009393816165,-0.04934370644115186,-0.04934370644115186,0.0,19200,1.8212120532989502,0.00021569047030951292,0.00018345716226678924,-9.783776153064451,0.0
108,2.900141716003418,-9.847562491220394,0.017759824355355162,-9.816043613623773,-9.912389849582524,0.0,5.221642779212697,0.1,0.011351823806762695,0.2455427646636963,0.052591864,0.021246847,-9.878564703556588,-0.0492429304153764,-0.0492429304153764,0.0,19200,1.781186819076538,0.0001942134465407174,0.0002323081091392313,-9.784556874487723,0.0
109,2.876466989517212,-9.846833892778081,0.016032723804810658,-9.8011920219644,-9.883261038988207,0.0,6.940012792360893,0.1,0.011008739471435547,0.2540576457977295,0.050754655,0.013483524,-9.875391622478737,-0.04923923369782582,-0.04923923369782582,0.0,19200,1.8699605464935303,0.00023902687752140215,0.00017686762407092331,-9.774672901066639,0.0
110,2.8925535678863525,-9.833433842713006,0.015975511783160194,-9.788748061794081,-9.877974068240835,0.0,6.857054667603252,0.1,0.010514259338378906,0.25439906120300293,0.051278066,0.013081588,-9.871195844502164,-0.0491722910055666,-0.0491722910055666,0.0,19200,1.9765331745147705,0.0001856284933527652,0.0001675541332786992,-9.772655605818871,0.0
111,2.8952839374542236,-9.833625670080663,0.01631616062682944,-9.795078921288315,-9.866861473391559,0.0,6.718883359629804,0.1,0.011727333068847656,0.25385046005249023,0.049999706,0.017061941,-9.867438827060015,-0.049173235891068263,-0.049173235891068263,0.0,19200,2.076568841934204,0.00016477127098944445,0.00018074853831680948,-9.772159952619589,0.0
112,2.8904869556427,-9.831715262866135,0.016092748730093226,-9.793748969921854,-9.870505625661357,0.0,6.633166782613965,0.1,0.011503934860229492,0.26030516624450684,0.049666677,0.017805358,-9.863866470640627,-0.0491636530753445,-0.0491636530753445,0.0,19200,1.9806554317474365,0.00018435145314901343,0.0001810847118873328,-9.775664132114333,0.0
113,2.959237575531006,-9.831761847390874,0.015022379522488485,-9.796513072281337,-9.864438047345464,0.0,6.840987529967994,0.1,0.010976314544677734,0.25012922286987305,0.052270573,0.018000703,-9.860656008315651,-0.04916394704989855,-0.04916394704989855,0.0,19200,1.9821486473083496,0.00018310078767267915,0.00017639590543161896,-9.77556601457077,0.0
114,3.0279178619384766,-9.829075802210822,0.015017163150096888,-9.788031435488257,-9.872189047934064,0.0,7.059909965828196,0.1,0.011633634567260742,0.24646663665771484,0.050223123,0.005403986,-9.85749798770517,-0.049150580671835864,-0.049150580671835864,0.0,19200,1.9806396961212158,0.00017597506548406178,0.0001986928132764112,-9.781375531075462,0.0
115,2.8999388217926025,-9.837252340337228,0.015587934306000806,-9.80733046195284,-9.881175965922939,0.0,5.7748133069996515,0.1,0.011084556579589844,0.2507913112640381,0.050939072,0.017720122,-9.855473422968377,-0.04919141826602596,-0.04919141826602596,0.0,19200,1.9763686656951904,0.00018981980722185276,0.00020300376880354813,-9.777617486363463,0.0
116,2.8865725994110107,-9.83144309592161,0.01491271104750695,-9.803598270264995,-9.874592914040816,0.0,6.5150334192596615,0.1,0.010771989822387695,0.24927735328674316,0.051595043,0.014376993,-9.853070390263701,-0.04916237962046022,-0.04916237962046022,0.0,19200,1.8959834575653076,0.00019819368864195042,0.00017845701073315165,-9.78628354683677,0.0
117,2.9155941009521484,-9.841832731937616,0.016583866974711186,-9.81021202982366,-9.882964451661625,0.0,7.687961954140711,0.1,0.010881423950195312,0.2469944953918457,0.042927645,0.018529652,-9.851946624431093,-0.04921433250015406,-0.04921433250015406,0.0,19200,1.92264723777771,0.00018804984236925597,0.00018190993275055687,-9.786198147633865,0.0
118,2.8681931495666504,-9.83795762136301,0.014387492463589512,-9.811453535995431,-9.887921877197867,0.0,8.272086651469923,0.1,0.011780023574829102,0.264251708984375,0.04850744,0.01404029,-9.850547724124286,-0.04919500579808839,-0.04919500579808839,0.0,19200,1.9405393600463867,0.0001768037778934005,0.00018420913957629026,-9.782089452713016,0.0
119,2.9803054332733154,-9.837211000030885,0.014278065504630063,-9.799905286408626,-9.890793670969323,0.0,7.101006046296054,0.1,0.011034011840820312,0.2525644302368164,0.050556954,0.018554453,-9.849214051714945,-0.04919127070861266,-0.04919127070861266,0.0,19200,1.9482340812683105,0.00018952594226872812,0.00021931583327922756,-9.779737336588624,0.0
120,2.9040651321411133,-9.838453088386208,0.017959336768070527,-9.80333459543761,-9.91121076947431,0.0,4.502655606822221,0.1,0.011029481887817383,0.25342440605163574,0.049167123,0.02704414,-9.848137955382072,-0.049197487573463004,-0.049197487573463004,0.0,19200,1.9222030639648438,0.00022198916455588969,0.0001764244527807515,-9.782789627640213,0.0
121,2.8979780673980713,-9.836594049618013,0.017463797985719853,-9.790116579852658,-9.876374149323516,0.0,6.288237696599798,0.1,0.011078834533691406,0.2636542320251465,0.04903818,0.02722693,-9.846983564805665,-0.049188165934167825,-0.049188165934167825,0.0,19200,1.8813512325286865,0.0001798257728071748,0.00018050365161969054,-9.783556378724473,0.0
122,2.8686130046844482,-9.837595976994683,0.015361283474482047,-9.801549204867644,-9.872593169684725,0.0,7.003421903995975,0.1,0.010944843292236328,0.24962091445922852,0.048709884,0.017692056,-9.846044806024567,-0.049193202164264094,-0.049193202164264094,0.0,19200,1.841803789138794,0.00018142143890397165,0.00020412699852078616,-9.779076513950024,0.0
123,2.8888049125671387,-9.829281242067184,0.01596188360488816,-9.792408042356456,-9.870808792552232,0.0,5.31260647862582,0.1,0.010742425918579102,0.2498784065246582,0.04984932,0.028087452,-9.84436844962883,-0.04915163810806212,-0.04915163810806212,0.0,19200,1.8639473915100098,0.00019864673924589315,0.0001743642011605551,-9.782831451990027,0.0
124,2.9155657291412354,-9.831640345432925,0.015268885784627748,-9.79070065441754,-9.885133718470831,0.0,5.576793978919723,0.1,0.011160850524902344,0.2577831745147705,0.04986268,0.011112404,-9.84309563920924,-0.04916345264087194,-0.04916345264087194,0.0,19200,1.8377411365509033,0.0001785759048082628,0.0001951980098642683,-9.776250124545436,0.0
125,3.106123447418213,-9.823583069021955,0.013139238927484576,-9.795909007665767,-9.850373623531086,0.0,3.6567639073043,0.1,0.011442422866821289,0.2524373531341553,0.049982917,0.027628649,-9.841144382190512,-0.0491231354840932,-0.0491231354840932,0.0,19200,1.8686318397521973,0.0001950203929347913,0.00017745877651136182,-9.77633296393507,0.0
126,2.8950817584991455,-9.821881324194745,0.018223274077718142,-9.783773494704846,-9.869198047991015,0.0,6.375963726368351,0.1,0.010880231857299805,0.2510523796081543,0.05202503,0.020637512,-9.839218076390937,-0.04911463341568648,-0.04911463341568648,0.0,19200,1.9101920127868652,0.00018325216415852365,0.00018222585360837327,-9.775590443744868,0.0
127,2.887025833129883,-9.815259012632692,0.014282873319187579,-9.778138615877651,-9.849663413068063,0.0,8.377877205756873,0.1,0.010640382766723633,0.2463219165802002,0.051585086,0.014553374,-9.836822170015113,-0.04908153105693005,-0.04908153105693005,0.0,19200,1.880474328994751,0.00018548463399783866,0.00018735687987275144,-9.78492482023179,0.0
128,2.901228666305542,-9.820344415594123,0.012299717816482768,-9.795085348307047,-9.851687887447342,0.0,6.543355236661174,0.1,0.012877702713012695,0.257098913192749,0.04911296,0.008810687,-9.835174394573013,-0.049106995373202934,-0.049106995373202934,0.0,19200,1.8899095058441162,0.00019007039281058828,0.00018554902371097936,-9.780427057946751,0.0
129,2.8911845684051514,-9.820220206718773,0.015062498493112295,-9.78879819567467,-9.850836638057789,0.0,7.289086276060737,0.1,0.010773181915283203,0.24713897705078125,0.04584279,0.021990787,-9.833678975787588,-0.049106339343437944,-0.049106339343437944,0.0,19200,1.8381152153015137,0.00018647598544760323,0.0002487548203755789,-9.775891991767097,0.0
130,2.9065499305725098,-9.813059365240658,0.012717135710372144,-9.789521964592382,-9.856061629785573,0.0,3.9898377912996157,0.1,0.011733055114746094,0.26544904708862305,0.049278006,0.024927532,-9.831617014732895,-0.04907064008655438,-0.04907064008655438,0.0,19200,1.9548099040985107,0.00026457170022026427,0.00018239325940605625,-9.771494729949154,0.0
131,3.0639395713806152,-9.815918687355191,0.013999788938002898,-9.787573197613609,-9.856819631441471,0.0,8.446207344959442,0.1,0.011072635650634766,0.2485349178314209,0.05095372,0.013140998,-9.830047181995125,-0.04908489285663892,-0.04908489285663892,0.0,19200,1.89631986618042,0.00017925940017877388,0.000202965123498463,-9.77333776575005,0.0
132,2.9092843532562256,-9.824120867340328,0.015020777255332738,-9.789178081280257,-9.864906021098482,0.0,6.606498607463269,0.1,0.011465787887573242,0.252490758895874,0.050663516,0.018129382,-9.829454550529647,-0.04912586706890231,-0.04912586706890231,0.0,19200,1.8919527530670166,0.00019445128679856962,0.00019081475508286966,-9.771430527552408,0.0
133,2.90226149559021,-9.825926304030913,0.013952553142183024,-9.788459935782733,-9.859730663954583,0.0,8.679419877452839,0.1,0.010710000991821289,0.24689936637878418,0.053324796,0.011327628,-9.829101725879774,-0.049134913236809984,-0.049134913236809984,0.0,19200,1.8437142372131348,0.00019198826589787116,0.00020190046579778142,-9.769336491369558,0.0
134,2.902216911315918,-9.824518908415582,0.013398579910638607,-9.791503499745579,-9.863012149645552,0.0,6.118563854833814,0.1,0.012190818786621094,0.30613136291503906,0.052846607,0.008946811,-9.828643444133355,-0.04912779385827761,-0.04912779385827761,0.0,19200,1.8589913845062256,0.00021106019665304517,0.00018414224925802501,-9.767776128122483,0.0
135,2.882736921310425,-9.819411231315847,0.013733665171220464,-9.790247626402225,-9.860687465052443,0.0,5.715951058984583,0.1,0.010699748992919922,0.24805688858032227,0.049951088,0.020994972,-9.827720222851605,-0.049102261266444645,-0.049102261266444645,0.0,19200,1.8690154552459717,0.00018011373027543247,0.0001820059681352372,-9.763141894525269,0.0
136,2.991457939147949,-9.819251877615143,0.013083190232410452,-9.791496095616326,-9.849563095054561,0.0,8.28454194724657,0.1,0.011209487915039062,0.25618600845336914,0.04980355,0.015167414,-9.826873388327957,-0.049101507403559154,-0.049101507403559154,0.0,19200,1.9090640544891357,0.00018434161985358296,0.00019288862360984137,-9.765857018158805,0.0
137,2.9200172424316406,-9.829863536764075,0.016558449990718815,-9.791078140389507,-9.868621553142857,0.0,5.748425601595674,0.1,0.010768651962280273,0.24345088005065918,0.052134123,0.009262023,-9.82717240317157,-0.049154508672872355,-0.049154508672872355,0.0,19200,1.8911795616149902,0.00017809730529173593,0.0002127002861430147,-9.771932784184905,0.0
138,2.887378692626953,-9.85033180649958,0.01785231371617541,-9.806710728692758,-9.893336470600927,0.0,7.111392693309047,0.1,0.011150598526000977,0.24752283096313477,0.050025918,0.010058097,-9.829488343504371,-0.04925682289940592,-0.04925682289940592,0.0,19200,1.9082801342010498,0.00020232064817761488,0.00025977381471997175,-9.772296303805817,0.0
139,2.9156272411346436,-9.843625912669479,0.015873546716751268,-9.803697584590042,-9.886701147618052,0.0,5.538198897462558,0.1,0.011053323745727539,0.2467057704925537,0.052351326,0.018827451,-9.830902100420882,-0.04922326300011851,-0.04922326300011851,0.0,19200,1.8954200744628906,0.0002548465485442567,0.000193390008943026,-9.783185375066187,0.0
140,2.919881582260132,-9.857014405680241,0.019752847094381895,-9.820968767771854,-9.90350561508279,0.0,9.061137355296855,0.1,0.01178121566772461,0.25145411491394043,0.04816326,0.013132204,-9.833513330946818,-0.04929023300678259,-0.04929023300678259,0.0,19200,1.951244831085205,0.00020022709681039288,0.0002134430838576671,-9.786836965229309,0.0
141,2.879906415939331,-9.867218627593848,0.017407056377272294,-9.830622614898736,-9.920400506281368,0.0,7.448876370569515,0.1,0.010914087295532227,0.2488541603088379,0.050832376,0.011306408,-9.836883860611522,-0.04934115392934846,-0.04934115392934846,0.0,19200,1.9289391040802002,0.0001901594783731817,0.0002107358919387591,-9.78397468200297,0.0
142,3.0908844470977783,-9.86318412652588,0.019338242293274976,-9.824254484494235,-9.909721148775471,0.0,6.507314104013956,0.1,0.010695219039916992,0.25359392166137695,0.051791444,0.014467862,-9.839513887202958,-0.04932104523599496,-0.04932104523599496,0.0,19200,1.942213535308838,0.00021680875519220784,0.0002153635355245656,-9.79550010165994,0.0
143,2.9160196781158447,-9.866938871720516,0.016723521175628846,-9.823561939610135,-9.907194297809298,0.0,5.3711362584709335,0.1,0.011494636535644531,0.24936509132385254,0.049226534,0.017662045,-9.842256385654714,-0.04933984459170451,-0.04933984459170451,0.0,19200,1.924917459487915,0.00022605749934310175,0.00019816504780937984,-9.778867961141124,0.0
144,2.8843462467193604,-9.858323263685856,0.017128698806602338,-9.818877260187987,-9.900544317332118,0.0,9.423548482401149,0.1,0.011332988739013672,0.2494490146636963,0.04964576,0.0033392953,-9.843863073457829,-0.049296688579314095,-0.049296688579314095,0.0,19200,1.9725618362426758,0.0001898346731429807,0.0001803847826928637,-9.796772145796847,0.0
145,2.9078290462493896,-9.867022993938251,0.019491934988960832,-9.82175955571092,-9.922451916768274,0.0,5.805003422532406,0.1,0.0111083984375,0.25493597984313965,0.04880315,0.015542495,-9.84617906550587,-0.04934015450646051,-0.04934015450646051,0.0,19200,1.9977035522460938,0.0002012753345767736,0.00020869215353158684,-9.789687024979672,0.0
146,2.9054296016693115,-9.859898697280213,0.019367821936856974,-9.817860062015555,-9.93108478985553,0.0,4.410553184671116,0.1,0.010878324508666992,0.2490549087524414,0.049751233,0.019294962,-9.847551028683304,-0.04930459052007465,-0.04930459052007465,0.0,19200,1.9771158695220947,0.00020383601599314774,0.00018599783187014696,-9.794766198854502,0.0
147,2.9857475757598877,-9.871023807683363,0.020741606165176833,-9.823174129444958,-9.917913737781118,0.0,7.482327526284389,0.1,0.010698556900024414,0.2484123706817627,0.04853246,0.01962264,-9.84989830658331,-0.04936018520598772,-0.04936018520598772,0.0,19200,1.9192051887512207,0.00018809846172925383,0.00019786906454060679,-9.807264690700148,0.0
148,2.9430105686187744,-9.883736900619873,0.020503107444703607,-9.825991147762002,-9.927787924259956,0.0,5.209151544999844,0.1,0.011020898818969727,0.2507655620574951,0.049940057,0.013042469,-9.853282165986966,-0.04942369289267515,-0.04942369289267515,0.0,19200,1.8345117568969727,0.00020585350186258378,0.00022441116874815184,-9.790976039065416,0.0
149,2.9011940956115723,-9.866508341021039,0.02233318377694296,-9.809262742992948,-9.925659955197418,0.0,6.672583056074903,0.1,0.012420892715454102,0.289581298828125,0.050629973,0.0163853,-9.854604783490373,-0.04933756005782549,-0.04933756005782549,0.0,19200,1.7376196384429932,0.0002806864571452992,0.0002093881290143814,-9.783510648970772,0.0
150,2.896005153656006,-9.850542002354294,0.020292547866389402,-9.812129624378434,-9.904244075856022,0.0,9.442648345016995,0.1,0.011035680770874023,0.24675464630126953,0.046482176,0.013990681,-9.854198505376766,-0.04925776876104678,-0.04925776876104678,0.0,19200,1.7714238166809082,0.00019349437622519908,0.0002028065598919452,-9.78499182725847,0.0
151,2.901099681854248,-9.855579217849575,0.018131849084258165,-9.8165775929725,-9.905455727389235,0.0,6.915243097911911,0.1,0.010748624801635742,0.25171899795532227,0.04990585,0.016066205,-9.854336576624048,-0.04928296792891305,-0.04928296792891305,0.0,19200,1.8505754470825195,0.0002101424286583282,0.00018949391387406954,-9.786101346693396,0.0
152,3.107799530029297,-9.852113934195884,0.02095483956213363,-9.799925278893342,-9.906204999248853,0.0,5.758722698554754,0.1,0.011101961135864258,0.27213621139526367,0.053374622,0.009449113,-9.854114312381231,-0.04926576647232259,-0.04926576647232259,0.0,19200,1.887131690979004,0.000188868224465913,0.00018442601257327224,-9.788920678256908,0.0
153,2.8873348236083984,-9.851939429426535,0.016800817374160965,-9.820165893874432,-9.895052602992834,0.0,6.381050073671222,0.1,0.010795354843139648,0.2555215358734131,0.04942726,0.025044713,-9.853896824085762,-0.049264856339257236,-0.049264856339257236,0.0,19200,1.8082635402679443,0.00018314084386591493,0.00020634149224524356,-9.783379191855552,0.0
154,2.924189329147339,-9.853983513829855,0.018574817499470066,-9.80607782357367,-9.901622070704335,0.0,4.923246174486395,0.1,0.011030435562133789,0.2539365291595459,0.05123053,0.021109562,-9.853905493060171,-0.049275036050698044,-0.049275036050698044,0.0,19200,1.8697750568389893,0.00020207858642517425,0.00017821987456300393,-9.78650150871002,0.0
155,2.9787890911102295,-9.848396424274638,0.016620393260702238,-9.815372951471463,-9.89594111808726,0.0,5.2774537565710755,0.1,0.011887073516845703,0.27718544006347656,0.05278038,0.009604769,-9.853354586181618,-0.04924705839049063,-0.04924705839049063,0.0,19200,1.9648492336273193,0.00017743638915203804,0.0001822400260344964,-9.789298105806274,0.0
156,2.90305495262146,-9.842594657158816,0.016005701478287077,-9.808158266707299,-9.880988121296271,0.0,6.041410469059032,0.1,0.01100468635559082,0.24680161476135254,0.049248856,0.012431645,-9.852278593279339,-0.04921797290700023,-0.04921797290700023,0.0,19200,1.97066330909729,0.00017736867391101931,0.0001943890198099591,-9.802508045389612,0.0
157,2.8903746604919434,-9.856688343218632,0.02002259976384193,-9.806040438125969,-9.910066275733538,0.0,6.689787442808706,0.1,0.010936737060546875,0.2525191307067871,0.050021216,0.01491601,-9.852719568273269,-0.04928857558855044,-0.04928857558855044,0.0,19200,2.043135166168213,0.00021616314017399035,0.0001862018447040661,-9.794377830388509,0.0
158,2.9168174266815186,-9.85289529324282,0.01775709390845857,-9.809135883379819,-9.910557200622895,0.0,7.325505674787423,0.1,0.010682106018066406,0.251201868057251,0.04830888,0.019070603,-9.852737140770225,-0.049269546314147115,-0.049269546314147115,0.0,19200,1.9870116710662842,0.00019707427813348135,0.00018320180883911718,-9.790813836331917,0.0
159,2.895761728286743,-9.850601551215986,0.014996174716152012,-9.821875402870122,-9.890747767464918,0.0,6.410326452737027,0.1,0.011443376541137695,0.24752140045166016,0.0511665,0.007887277,-9.8525235818148,-0.04925807482713765,-0.04925807482713765,0.0,19200,2.0370335578918457,0.00017929047160462037,0.0002102421610913815,-9.796238206662425,0.0
160,2.9009501934051514,-9.845978393338951,0.017174821429611117,-9.807516157474474,-9.890399236363391,0.0,5.499075768817978,0.1,0.010950088500976562,0.25612521171569824,0.048432983,0.014057002,-9.851869062967216,-0.04923496859857294,-0.04923496859857294,0.0,19200,2.00490665435791,0.00020274836967966816,0.0001737602463462692,-9.799970335125547,0.0
161,2.9292240142822266,-9.852535925272997,0.017385361942166347,-9.818150531042761,-9.908362342825088,0.0,5.716368310741928,0.1,0.010619401931762695,0.24961423873901367,0.050332554,0.011962257,-9.851935749197795,-0.04926777289278944,-0.04926777289278944,0.0,19200,1.9158897399902344,0.00017786642824477162,0.00020096598279972382,-9.796077656953232,0.0
162,2.888385057449341,-9.845709843929994,0.013884632832771653,-9.816007332972427,-9.89862096941034,0.0,6.766213702532144,0.1,0.010689973831176758,0.24771738052368164,0.0513066,0.014286384,-9.851313158671013,-0.0492336937624458,-0.0492336937624458,0.0,19200,1.9289157390594482,0.00018931011820492538,0.00030536558402221876,-9.78773665949253,0.0
163,3.054194211959839,-9.843839298754453,0.018471848610718652,-9.802783495019549,-9.88107883762455,0.0,7.804822713814659,0.1,0.011028051376342773,0.2531895637512207,0.047807734,0.015735652,-9.850565772679358,-0.0492243204619928,-0.0492243204619928,0.0,19200,1.9468121528625488,0.00029710956520610343,0.00023039646869257285,-9.786211700558706,0.0
164,2.9000511169433594,-9.844508837064218,0.017319452557178826,-9.810126089337288,-9.90705155397077,0.0,4.761288396454172,0.1,0.010824203491210938,0.24908828735351562,0.04745442,0.021390019,-9.849960079117846,-0.049227597242984644,-0.049227597242984644,0.0,19200,1.9314825534820557,0.000226784492663817,0.00018246927850582874,-9.787349769031698,0.0
165,2.9136970043182373,-9.84764777386692,0.017680257520072636,-9.812879677260124,-9.89396900811605,0.0,8.220799157376527,0.1,0.01116180419921875,0.24934720993041992,0.05062081,0.01131434,-9.849728848592754,-0.04924336480144185,-0.04924336480144185,0.0,19200,1.9908595085144043,0.0001851061533005728,0.00022362686293575575,-9.792021918660357,0.0
166,2.8761649131774902,-9.85144101086832,0.019487511937048993,-9.810675955133881,-9.907286650077387,0.0,4.013794674808723,0.1,0.011317253112792969,0.2523775100708008,0.049248334,0.017094135,-9.84990006482031,-0.04926241712700971,-0.04926241712700971,0.0,19200,1.9791243076324463,0.00022403750082778756,0.00019217110961860183,-9.793403928303192,0.0
167,2.903059244155884,-9.850987225620024,0.015712579503292173,-9.815690454219865,-9.896561159690668,0.0,6.338373603357725,0.1,0.011040210723876953,0.25113487243652344,0.048505947,0.021026345,-9.850008780900282,-0.04926007876097368,-0.04926007876097368,0.0,19200,1.8955860137939453,0.00019192923062329176,0.000168113869098171,-9.801420691790792,0.0
168,2.8960509300231934,-9.856839926107904,0.016827072435226853,-9.817666848596653,-9.905330571577936,0.0,8.055540728683601,0.1,0.010770559310913086,0.24816203117370605,0.046913434,0.010987524,-9.850691895421043,-0.049289361835395146,-0.049289361835395146,0.0,19200,1.8388350009918213,0.00016884708681530317,0.00022844013681234338,-9.807220779866146,0.0
169,2.915606737136841,-9.861434513467808,0.016956104573993207,-9.81027580260181,-9.893290777329092,0.0,5.491644290329849,0.1,0.011569499969482422,0.24768495559692383,0.04720622,0.017522894,-9.85176615722572,-0.04931216853275511,-0.04931216853275511,0.0,19200,1.7871818542480469,0.00023950883387212165,0.00018199942006987888,-9.810706362310514,0.0
170,2.9007577896118164,-9.869692904112156,0.01941816477570644,-9.83055507614159,-9.93821821278809,0.0,7.255789471817274,0.1,0.011114120483398438,0.2510044574737549,0.050740432,0.013987883,-9.853558831914363,-0.04935356144462447,-0.04935356144462447,0.0,19200,1.8476741313934326,0.0001804968465474604,0.00019667976841118205,-9.808697390011169,0.0
171,2.876288414001465,-9.865490774321428,0.02033324527782077,-9.830534394274903,-9.924479461776906,0.0,5.709269234175659,0.1,0.011080026626586914,0.2499089241027832,0.047998168,0.019200968,-9.854752026155069,-0.04933269136202573,-0.04933269136202573,0.0,19200,1.898850440979004,0.00019298411659654245,0.00018088310863847849,-9.811904364907864,0.0
172,2.9214916229248047,-9.861100909446542,0.01750965212614338,-9.830313256509326,-9.909882436946392,0.0,5.662977747077449,0.1,0.011190414428710938,0.24911999702453613,0.048160456,0.016257424,-9.855386914484217,-0.04931068356923526,-0.04931068356923526,0.0,19200,1.9594659805297852,0.0001788749060966085,0.0002272748811461474,-9.798047136221088,0.0
173,2.891787052154541,-9.8499359227712,0.019746927204614163,-9.81304003450206,-9.950023810424065,0.0,6.792789407802,0.1,0.011925220489501953,0.26276063919067383,0.04995895,0.013710847,-9.854841815312916,-0.04925492075629845,-0.04925492075629845,0.0,19200,2.0251851081848145,0.0002133964989952233,0.00019921018619088228,-9.79583678367894,0.0
174,3.1234543323516846,-9.854210819665761,0.021497540579302865,-9.81067891721649,-9.906607527911413,0.0,6.1525340277987315,0.1,0.013391494750976562,0.258378267288208,0.05067164,0.01309658,-9.854778715748202,-0.04927628987356333,-0.04927628987356333,0.0,19200,1.9774200916290283,0.00019928063457487827,0.00023236121588399676,-9.796893392868324,0.0
175,2.9132745265960693,-9.850807980416272,0.019938166547787312,-9.79869741591308,-9.909644200762566,0.0,6.564245005711057,0.1,0.010662078857421875,0.24935483932495117,0.046997957,0.020016853,-9.854381642215008,-0.049259351655447536,-0.049259351655447536,0.0,19200,1.9292497634887695,0.00022605984764015075,0.00018371046451837642,-9.802928321409581,0.0
176,2.9014053344726562,-9.854437743966947,0.021518683322356538,-9.808413115304766,-9.899580915365872,0.0,5.776595352883924,0.1,0.010847330093383789,0.25432753562927246,0.05017833,0.010726827,-9.854387252390202,-0.049277442574337214,-0.049277442574337214,0.0,19200,1.9437994956970215,0.00017264086416665525,0.00017677797693999914,-9.801896275125536,0.0
177,2.9243619441986084,-9.85101038028755,0.021145160152510927,-9.80638225614521,-9.91024677018077,0.0,5.270896449988394,0.1,0.011634111404418945,0.24788379669189453,0.051747195,0.022242602,-9.854049565179938,-0.04926038518048015,-0.04926038518048015,0.0,19200,1.9070661067962646,0.00017593595397098028,0.00018761845432451336,-9.802787496334584,0.0
178,2.896751880645752,-9.852955947974428,0.020992616750310927,-9.807916486526823,-9.924654482687869,0.0,8.796283669687135,0.1,0.011234045028686523,0.2464768886566162,0.052031007,0.005620939,-9.853940203459388,-0.04927012754851267,-0.04927012754851267,0.0,19200,1.897881269454956,0.0001870607658849542,0.00018097421783855425,-9.799651549298765,0.0
179,2.9265589714050293,-9.8351927117032,0.015963276134979963,-9.794661098354457,-9.878672852265119,0.0,6.341895928412905,0.1,0.012562274932861328,0.26065802574157715,0.04893793,0.017365512,-9.85206545428377,-0.04918132163467218,-0.04918132163467218,0.0,19200,1.987785816192627,0.00019530485527948033,0.00019471213625256507,-9.806125293599319,0.0
180,3.1184918880462646,-9.843084376307475,0.017833698040686474,-9.803501779906986,-9.894282584676839,0.0,8.352539612895509,0.1,0.010634183883666992,0.24611639976501465,0.047837615,0.013775061,-9.851167346486141,-0.04922074191862177,-0.04922074191862177,0.0,19200,1.7883474826812744,0.0001999955077323171,0.00018745167191389406,-9.805212971823048,0.0
181,2.905391216278076,-9.842984648629177,0.016835562449524617,-9.80447888978802,-9.886273265593196,0.0,4.97635131303541,0.1,0.010912418365478516,0.2471320629119873,0.046109203,0.010244835,-9.850349076700445,-0.049220136500990774,-0.049220136500990774,0.0,19200,1.823199987411499,0.00019740130037887392,0.0001924141778333783,-9.797544257687479,0.0
182,2.9061872959136963,-9.843928144536383,0.016741043910603135,-9.806652847917425,-9.89782316066214,0.0,6.429401196066606,0.1,0.010809898376464844,0.24759721755981445,0.04668547,-0.008766081,-9.849706983484039,-0.0492249319267174,-0.0492249319267174,0.0,19200,1.8774175643920898,0.0001952770677636578,0.00019946177768308599,-9.788869915308604,0.0
183,2.889476776123047,-9.841409844985222,0.018782283619375048,-9.79682945771728,-9.914756670378596,0.0,9.386593505267975,0.1,0.011387825012207031,0.25051188468933105,0.053556684,0.013948475,-9.848877269634157,-0.04921228229317041,-0.04921228229317041,0.0,19200,1.9575371742248535,0.00022283019918655777,0.00017947050208658286,-9.796289661075821,0.0
184,2.8958470821380615,-9.843142227090967,0.01806473001886262,-9.803682528011576,-9.89866587369551,0.0,7.836962954966697,0.1,0.010766029357910156,0.250795841217041,0.05061614,0.010540881,-9.848303765379837,-0.04922097015047466,-0.04922097015047466,0.0,19200,1.8815906047821045,0.00017805943076577952,0.0003772713837754132,-9.800625543885118,0.0
185,3.0522332191467285,-9.85516339803446,0.019435425098619147,-9.812757829612204,-9.91525169483026,0.0,6.028153599524189,0.1,0.010511159896850586,0.24753618240356445,0.04741605,0.015479563,-9.8489897286453,-0.049281041810803665,-0.049281041810803665,0.0,19200,1.9328711032867432,0.00038072728027068256,0.00024614576370250534,-9.791031587791888,0.0
186,2.9117300510406494,-9.834427530958711,0.01869133865178343,-9.787828298901752,-9.883195582757498,0.0,5.973991079399832,0.1,0.011003732681274414,0.25346851348876953,0.047887713,0.012658098,-9.84753350887664,-0.049177346213900984,-0.049177346213900984,0.0,19200,2.012071132659912,0.0002176089752904651,0.00021441091010378376,-9.790483505691235,0.0
187,2.9406750202178955,-9.842784723291158,0.019170495277616266,-9.806807200101192,-9.923467030598626,0.0,4.558104646793952,0.1,0.011023283004760742,0.24843716621398926,0.054171704,0.015070198,-9.847058630318093,-0.049219163425079315,-0.049219163425079315,0.0,19200,2.0143988132476807,0.0002008796953103672,0.0001902475997553236,-9.806641953222586,0.0
188,2.940838098526001,-9.849161216609957,0.021235183355858937,-9.799540783034816,-9.909429606386878,0.0,4.74995734757219,0.1,0.011084318161010742,0.24899792671203613,0.046264708,0.026801541,-9.84726888894728,-0.049250986156839864,-0.049250986156839864,0.0,19200,1.9240198135375977,0.0001800468121736053,0.000189369827809347,-9.8000733385325,0.0
189,2.9042882919311523,-9.85189889024039,0.02309049673959596,-9.806647433182638,-9.948808184201484,0.0,4.744441798214478,0.1,0.010861873626708984,0.24829602241516113,0.050417162,0.019430446,-9.847731889076591,-0.04926473613245688,-0.04926473613245688,0.0,19200,1.9197897911071777,0.00019062535604828272,0.00019499058156180734,-9.804611286112529,0.0
190,2.890312910079956,-9.854176242432265,0.01873690952585985,-9.817010460109875,-9.900434469237725,0.0,6.187040519498274,0.1,0.010858774185180664,0.24696755409240723,0.050550457,0.0030400641,-9.84837632441216,-0.04927608999424521,-0.04927608999424521,0.0,19200,1.8252229690551758,0.00019024184211768988,0.00021348228230149075,-9.797728194154233,0.0
191,3.0976617336273193,-9.85392772327648,0.02115679643990644,-9.804424324751675,-9.925153790633521,0.0,8.543162210255176,0.1,0.011471986770629883,0.24862456321716309,0.052470647,0.007379543,-9.848931464298591,-0.0492749330770087,-0.0492749330770087,0.0,19200,1.8735041618347168,0.00022244530890745833,0.00020673791899153657,-9.788909601346827,0.0
192,2.909121036529541,-9.836360236499514,0.020984363754229567,-9.789342705399074,-9.897809502326878,0.0,6.251069009423664,0.1,0.011040687561035156,0.2500934600830078,0.049801875,0.01744491,-9.847674341518685,-0.04918703092405008,-0.04918703092405008,0.0,19200,1.9480533599853516,0.00024044167852613394,0.00019912250631828136,-9.790168575814477,0.0
193,2.9079999923706055,-9.836510423184306,0.020996252864263164,-9.793839951196183,-9.888339684949393,0.0,7.526543447780445,0.1,0.011036396026611328,0.2503383159637451,0.05448175,0.009882275,-9.846557949685248,-0.049187853313793474,-0.049187853313793474,0.0,19200,1.9593112468719482,0.0001972550870814314,0.00019190974473262177,-9.798178549409233,0.0
194,2.9027583599090576,-9.83991667944046,0.01833534473235152,-9.792092396649045,-9.892023590954986,0.0,4.94690082953979,0.1,0.011204242706298828,0.2503528594970703,0.04781454,0.017127886,-9.84589382266077,-0.04920481934328136,-0.04920481934328136,0.0,19200,1.878709316253662,0.00018836901471335803,0.0002307635675182913,-9.796834269123863,0.0
195,2.911208391189575,-9.839130684760448,0.01881681360907517,-9.787400456869843,-9.889254804006422,0.0,3.5445057470077708,0.1,0.011294126510620117,0.2553541660308838,0.049648553,0.024282284,-9.84521750887074,-0.0492008898938714,-0.0492008898938714,0.0,19200,1.9703748226165771,0.00022739531829619466,0.00019570436612198475,-9.801029247850913,0.0
196,2.8967039585113525,-9.848278571347086,0.018657515230139574,-9.798744213957512,-9.912719149618042,0.0,3.2935932037985545,0.1,0.010876655578613281,0.24842023849487305,0.050695483,0.023249157,-9.845523615118374,-0.0492466981766358,-0.0492466981766358,0.0,19200,1.9575188159942627,0.00020646207663782616,0.0001949415967140403,-9.798586090332797,0.0
197,2.897386074066162,-9.844326170947609,0.01924659728253885,-9.803587401169445,-9.8937953029992,0.0,9.302168697860616,0.1,0.01072072982788086,0.24584054946899414,0.04695546,0.015333916,-9.845403870701299,-0.04922691476894477,-0.04922691476894477,0.0,19200,1.8783478736877441,0.00019716483833840656,0.0002559085361516718,-9.787571844682567,0.0
198,2.904235363006592,-9.83573552784195,0.01992556092714268,-9.786086812673425,-9.892392374550749,0.0,4.760071004510332,0.1,0.01084136962890625,0.24991941452026367,0.048712566,0.024155049,-9.844437036415364,-0.049184062254352644,-0.049184062254352644,0.0,19200,1.9228174686431885,0.0002798738211382985,0.0001971212804490097,-9.793474012518624,0.0
199,2.9535818099975586,-9.843986833760725,0.02118546425522838,-9.788912170448462,-9.913864446098396,0.0,6.952507065198709,0.1,0.010785579681396484,0.25336432456970215,0.04905032,0.020312358,-9.8443920161499,-0.0492252953620674,-0.0492252953620674,0.0,19200,2.038304090499878,0.00018921461822468596,0.00022060191734528357,-9.790819572595922,0.0
200,2.9301977157592773,-9.837346134250637,0.01660061692923434,-9.791443586048757,-9.875781668891445,0.0,6.113010753145093,0.1,0.012038469314575195,0.2696225643157959,0.0503536,0.016278744,-9.843687427959974,-0.049192140739548605,-0.049192140739548605,0.0,19200,2.0364041328430176,0.00021719135202978422,0.00020153412038440122,-9.796134288228327,0.0
201,2.896317720413208,-9.833982322045015,0.01703997855779034,-9.795032737120678,-9.8712557859076,0.0,4.775494063763134,0.1,0.01366877555847168,0.2631862163543701,0.048323967,0.015320335,-9.84271691736848,-0.049175252343307975,-0.049175252343307975,0.0,19200,1.970745325088501,0.00021011648128590186,0.0001936120183098223,-9.795795852463648,0.0
202,2.91155743598938,-9.831702416304356,0.01809821268693817,-9.793858442288446,-9.889924542427371,0.0,11.450172446374204,0.1,0.011024951934814453,0.2517251968383789,0.05140088,0.0073416666,-9.841615467262068,-0.049163859130586844,-0.049163859130586844,0.0,19200,1.9399092197418213,0.0001926241749662885,0.00018763074272092889,-9.788253116893285,0.0
203,2.898908853530884,-9.830311960685444,0.018039382065424974,-9.797348919089826,-9.881115137124565,0.0,9.734563578359019,0.1,0.011065006256103516,0.25098085403442383,0.05247209,0.013880423,-9.840485116604407,-0.049156786340448656,-0.049156786340448656,0.0,19200,1.8759286403656006,0.00019891533201974804,0.00020577873171443069,-9.789573619198936,0.0
204,2.9213807582855225,-9.824714496709186,0.01472594647333866,-9.790629849877552,-9.862572443217209,0.0,5.808319257119386,0.1,0.010879039764404297,0.24547195434570312,0.049924973,0.019927846,-9.838908054614887,-0.04912885716642686,-0.04912885716642686,0.0,19200,1.8505265712738037,0.00021382677197977543,0.00018444290337498023,-9.793681965339069,0.0
205,2.912252187728882,-9.832921466461556,0.018840923187019985,-9.80005721244841,-9.875179093208454,0.0,6.552395125314497,0.1,0.01156759262084961,0.2519357204437256,0.049835145,0.014261411,-9.838309395799554,-0.04916989292682481,-0.04916989292682481,0.0,19200,1.9311997890472412,0.0001910879151693267,0.00018434412317033775,-9.79119338606621,0.0
206,2.9353883266448975,-9.840574022254467,0.01966952452436282,-9.79714342262268,-9.886904091140199,0.0,5.713108830620414,0.1,0.01107931137084961,0.25275588035583496,0.05304433,0.012470225,-9.838535858445045,-0.04920815117766723,-0.04920815117766723,0.0,19200,1.9287033081054688,0.00017549271484833075,0.00018234537564597157,-9.789908716469254,0.0
207,3.1181044578552246,-9.827185216917465,0.017669186543237934,-9.776949268336834,-9.8693373303208,0.0,5.875560951046575,0.1,0.011008262634277344,0.24977564811706543,0.050183725,0.015107171,-9.837400794292288,-0.04914120848594541,-0.04914120848594541,0.0,19200,1.9662237167358398,0.00018212246134722805,0.00018417129203616287,-9.788149582904012,0.0
208,2.8936424255371094,-9.82539087320757,0.017429136926523908,-9.78020062216083,-9.87600424396606,0.0,7.175152024278625,0.1,0.011157035827636719,0.24602270126342773,0.047752175,0.0090618385,-9.836199802183817,-0.04913223432890151,-0.04913223432890151,0.0,19200,1.9694342613220215,0.0001806686503024366,0.0001844285667151984,-9.782522687198249,0.0
209,2.9119598865509033,-9.828025668185166,0.01996869281377283,-9.785568184771256,-9.893506160005527,0.0,4.591114909802172,0.1,0.010815143585205078,0.24794340133666992,0.049863923,0.026678799,-9.835382388783952,-0.04914542456316329,-0.04914542456316329,0.0,19200,1.9240615367889404,0.00019018067562096266,0.00017678903330790226,-9.785184076953975,0.0
210,2.883991241455078,-9.839936195582089,0.019143607474887112,-9.80374327800323,-9.888190134313062,0.0,6.388160680026618,0.1,0.011116504669189453,0.26228952407836914,0.049102645,0.016184647,-9.835837769463765,-0.04920495056162424,-0.04920495056162424,0.0,19200,1.9291834831237793,0.0001752953134595055,0.00018360198609408758,-9.788188065325993,0.0
211,2.902959108352661,-9.851708424116765,0.021085907921282118,-9.80199856978542,-9.925578868109126,0.0,7.829499781737705,0.1,0.010598897933959961,0.24588727951049805,0.053336978,0.011281413,-9.837424834929065,-0.049263820699041505,-0.049263820699041505,0.0,19200,1.9054999351501465,0.00019385528979466417,0.00017996240975372938,-9.77415005374932,0.0
212,2.9223756790161133,-9.83207421313744,0.020009912382017995,-9.792246009518246,-9.904205088359205,0.0,6.020933390999551,0.1,0.011531591415405273,0.25101232528686523,0.049320724,0.013526666,-9.836889772749903,-0.049165713409455636,-0.049165713409455636,0.0,19200,1.9065351486206055,0.00018874397519925566,0.00017693873073592397,-9.775601917346565,0.0
213,3.104038715362549,-9.824565364761868,0.01912364723152553,-9.782202049800626,-9.889855431018724,0.0,8.338129096553764,0.1,0.010965824127197266,0.24967622756958008,0.04667103,0.013009267,-9.835657331951099,-0.04912815415625794,-0.04912815415625794,0.0,19200,1.8936715126037598,0.0001802392969053867,0.0001933748996556216,-9.780285097150538,0.0
214,2.9053664207458496,-9.839708184966238,0.01952037134113581,-9.800637619179922,-9.887090824305378,0.0,11.0871401359266,0.1,0.010735511779785156,0.247056245803833,0.04829349,0.012913513,-9.836062417252613,-0.049203888740242126,-0.049203888740242126,0.0,19200,1.9053070545196533,0.00018088879162202854,0.00019500679581820488,-9.78856601519118,0.0
215,2.8954641819000244,-9.851128893681844,0.020519096648561164,-9.812028313143024,-9.910873058523304,0.0,6.862464057937062,0.1,0.01122593879699707,0.24886250495910645,0.05087602,0.0134974485,-9.837569064895536,-0.04926086738716976,-0.04926086738716976,0.0,19200,1.941293478012085,0.0001936407578069284,0.00018607213200324188,-9.787341944099703,0.0
216,2.890385627746582,-9.858916928772999,0.01933534400836858,-9.807678707377557,-9.915604245652997,0.0,6.645340878296597,0.1,0.010892629623413086,0.24840998649597168,0.050160382,0.016537054,-9.839703851283282,-0.04929995216080188,-0.04929995216080188,0.0,19200,1.9801084995269775,0.00018731017486414838,0.00020306503609402194,-9.792185202886436,0.0
217,2.8995723724365234,-9.860910908277312,0.020276480152998596,-9.81497262292117,-9.908173678658766,0.0,4.678343848873819,0.1,0.010856151580810547,0.24694132804870605,0.049261235,0.022822058,-9.841824556982685,-0.04930993725736871,-0.04930993725736871,0.0,19200,2.041524887084961,0.0002011714535125347,0.00026859169131406013,-9.791165821677941,0.0
218,3.0835304260253906,-9.87058287211272,0.022484454532049943,-9.81877133561674,-9.94183792019099,0.0,6.585464468246265,0.1,0.010745525360107422,0.24677753448486328,0.054756597,0.01792689,-9.844700388495689,-0.04935830004174504,-0.04935830004174504,0.0,19200,2.0782697200775146,0.0002798185477131697,0.00017356726144361192,-9.792444391054449,0.0
219,2.9330532550811768,-9.856435264706715,0.02062676333286115,-9.810120043739518,-9.92299813715658,0.0,8.481609097008825,0.1,0.011298894882202148,0.2573513984680176,0.051736653,0.0093400935,-9.84587387611679,-0.04928751905811496,-0.04928751905811496,0.0,19200,2.007538318634033,0.00018531672191327917,0.00021035210109579918,-9.793890186250358,0.0
220,2.919348955154419,-9.860187472903284,0.021142229633655807,-9.809050237154816,-9.922914077448437,0.0,7.962840366421138,0.1,0.014656543731689453,0.27907538414001465,0.03943793,0.0103175705,-9.84730523579544,-0.049306287522185056,-0.049306287522185056,0.0,19200,1.9805512428283691,0.00021254690937371658,0.00022633238863596332,-9.770094462977202,0.0
221,2.87331223487854,-9.832282124177608,0.018152925859768354,-9.786914005379977,-9.880154563857822,0.0,7.532991749212257,0.1,0.011049509048461914,0.25511598587036133,0.05087856,0.013089461,-9.845802924633658,-0.04916680450133393,-0.04916680450133393,0.0,19200,1.9563775062561035,0.00018970763180215997,0.00018353895371709826,-9.760324510220647,0.0
222,2.867638111114502,-9.836406117511826,0.01843203481325633,-9.804158974004963,-9.898572816988935,0.0,7.816155707539689,0.1,0.011038780212402344,0.24891448020935059,0.050250884,0.014639017,-9.844863243921475,-0.04918749394023473,-0.04918749394023473,0.0,19200,1.9406335353851318,0.0001811726556950972,0.00019904977951235172,-9.763136747820758,0.0
223,2.8916635513305664,-9.833906277578896,0.018215098135932396,-9.799014172027283,-9.878620550458399,0.0,6.494836222564082,0.1,0.011866569519042969,0.24866175651550293,0.04482048,0.016866772,-9.843767547287218,-0.049174976314708546,-0.049174976314708546,0.0,19200,1.9116661548614502,0.00019236283186731772,0.00018491735716488438,-9.75942156228284,0.0
224,3.085503101348877,-9.841980579664915,0.019065987593302428,-9.797033170420486,-9.907545659159307,0.0,5.973543126647978,0.1,0.010983705520629883,0.24996685981750488,0.05052743,0.019434622,-9.843588850524988,-0.049215327608054006,-0.049215327608054006,0.0,19200,2.008120536804199,0.00019511700903155417,0.00016367366801943778,-9.76629447610562,0.0
225,2.903317451477051,-9.854397970066751,0.023904815280434335,-9.807948594016333,-9.92728749041211,0.0,5.747242896076723,0.1,0.010923385620117188,0.25058984756469727,0.052782785,0.018474394,-9.844669762479164,-0.04927739887884064,-0.04927739887884064,0.0,19200,2.0544395446777344,0.0001646492360683793,0.0002019216292719583,-9.770002819231223,0.0
226,2.9372565746307373,-9.841725401520973,0.018147214821150857,-9.797477572499975,-9.89295359375189,0.0,6.8101596943636595,0.1,0.010963916778564453,0.2553534507751465,0.04714579,0.012986676,-9.844375326383346,-0.04921408641920736,-0.04921408641920736,0.0,19200,2.0005886554718018,0.0001998698796389344,0.00018039030793696027,-9.7727010371075,0.0
227,2.9130859375,-9.845316218132913,0.017367846044983582,-9.800336933035696,-9.901475028559213,0.0,5.351589263459312,0.1,0.01062321662902832,0.24643683433532715,0.05167952,0.017847158,-9.844469415558303,-0.04923195501818591,-0.04923195501818591,0.0,19200,1.9589104652404785,0.0001780532497707619,0.00018360110262477343,-9.77705994625611,0.0
228,2.8766462802886963,-9.83927846843334,0.01847403598053555,-9.793423015879052,-9.884543052082194,0.0,5.366443118024649,0.1,0.010928630828857422,0.24821043014526367,0.045237783,0.019092605,-9.843950320845806,-0.04920179949459569,-0.04920179949459569,0.0,19200,1.9369349479675293,0.0001842034658896183,0.0001834611016212444,-9.765366044091685,0.0
229,2.964560031890869,-9.841961893315649,0.02128823724528175,-9.793917550874788,-9.905608288358307,0.0,6.9195576973284965,0.1,0.01125788688659668,0.24894046783447266,0.05307296,0.0059094145,-9.843751478092791,-0.049215175085080276,-0.049215175085080276,0.0,19200,1.940993309020996,0.000189560286442228,0.00017119222017557875,-9.805114878329697,0.0
230,2.892758369445801,-9.884920792862188,0.020403196215311246,-9.849619059833353,-9.939436874384128,0.0,5.9482996694332035,0.1,0.011152267456054688,0.2523915767669678,0.051728193,0.018752301,-9.847868409569731,-0.04942995548815295,-0.04942995548815295,0.0,19200,1.8534519672393799,0.0001769492350732577,0.00019362063016284335,-9.779816719630386,0.0
231,2.9105072021484375,-9.872651407279138,0.024936793590120077,-9.825619812931063,-9.934902110793884,0.0,6.74011146177738,0.1,0.010941505432128906,0.24779748916625977,0.05125107,0.011568181,-9.850346709340672,-0.04936857537128921,-0.04936857537128921,0.0,19200,1.941380500793457,0.00019698834937186173,0.00017810856144915505,-9.78869642711889,0.0
232,2.8718996047973633,-9.858706331625465,0.022189873443705783,-9.816132093948644,-9.914569720215097,0.0,5.136093058218107,0.1,0.0113677978515625,0.25903820991516113,0.050932538,0.014232354,-9.851182671569152,-0.0492988628492168,-0.0492988628492168,0.0,19200,1.935256004333496,0.0001811669300989456,0.00020969685956077753,-9.793588210692212,0.0
233,2.92118763923645,-9.869340755488492,0.022562921597063575,-9.827167639887604,-9.97273833500679,0.0,5.8859006155539975,0.1,0.011058568954467773,0.2506449222564697,0.04675211,0.013535988,-9.852998479961085,-0.04935197184917454,-0.04935197184917454,0.0,19200,1.8758180141448975,0.00022880739055846036,0.00019760467366750618,-9.801308882577983,0.0
234,2.9064838886260986,-9.862990084377964,0.021275370646855533,-9.820594610752297,-9.90987024902938,0.0,5.759400465321738,0.1,0.011060953140258789,0.24881482124328613,0.052502707,0.019145738,-9.853997640402774,-0.04932025964619313,-0.04932025964619313,0.0,19200,1.8059308528900146,0.0002095656808781036,0.00021561559766261875,-9.807491072833937,0.0
235,3.099619150161743,-9.87489136686561,0.022317302823236615,-9.816740496007663,-9.941944566169962,0.0,7.280921870326416,0.1,0.010982990264892578,0.24675321578979492,0.04535869,0.0131242955,-9.856087013049057,-0.04937973305358676,-0.04937973305358676,0.0,19200,1.8699512481689453,0.00022770464327931693,0.0001846969752258613,-9.795003955464086,0.0
236,2.9065628051757812,-9.872559509342892,0.023112498541174135,-9.82366665021713,-9.927770709014132,0.0,7.9222012689445656,0.1,0.010891437530517578,0.24752092361450195,0.050410282,0.010258686,-9.857734262678441,-0.04936809240414216,-0.04936809240414216,0.0,19200,1.8681159019470215,0.00019363597665513282,0.0002100107211155815,-9.784697259576568,0.0
237,2.9164154529571533,-9.848602323939438,0.017613135427344034,-9.805014182346426,-9.895351647279433,0.0,9.571085312000928,0.1,0.010898351669311523,0.253068208694458,0.049489725,0.011160179,-9.85682106880454,-0.04924830790311393,-0.04924830790311393,0.0,19200,1.9619052410125732,0.0001925765233978125,0.00018825604364768956,-9.795431790181885,0.0
238,2.910299777984619,-9.85365657115485,0.01529387276838693,-9.822567518099184,-9.917488527635902,0.0,7.168190661356822,0.1,0.011365175247192383,0.2530703544616699,0.046751115,0.017476926,-9.856504619039573,-0.04927351482564452,-0.04927351482564452,0.0,19200,2.036498785018921,0.00019684401494876816,0.000189341928296141,-9.788942516253188,0.0
239,2.9162063598632812,-9.853129715724881,0.019034175963503704,-9.799894343249113,-9.91795443943417,0.0,4.110374354751634,0.1,0.010819673538208008,0.25373077392578125,0.050314553,0.022535387,-9.856167128708105,-0.04927095158896455,-0.04927095158896455,0.0,19200,2.087385892868042,0.00019402372302689257,0.000195628043364105,-9.78243760628391,0.0
240,2.9808616638183594,-9.845792503013984,0.023886510692818844,-9.794148790633754,-9.924984696297928,0.0,8.717336491927611,0.1,0.01158285140991211,0.2511770725250244,0.048764866,0.015329154,-9.855129666138694,-0.04923426122652528,-0.04923426122652528,0.0,19200,2.030673027038574,0.0002050785489529028,0.0002401801829285481,-9.769205845010722,0.0
241,2.9270448684692383,-9.836654717785946,0.021649955739818025,-9.790664780553335,-9.898103330388542,0.0,8.374892746431996,0.1,0.011224746704101562,0.25334668159484863,0.048547797,0.013266756,-9.85328217130342,-0.04918861289210236,-0.04918861289210236,0.0,19200,1.9641270637512207,0.00023378308146040664,0.00018840551332990806,-9.783843878746122,0.0
242,2.890685558319092,-9.844355443166647,0.02134125320829329,-9.800506828829247,-9.902703401156447,0.0,9.309474103298458,0.1,0.010971546173095703,0.24761223793029785,0.054111212,0.010789938,-9.852389498489742,-0.049227149867196486,-0.049227149867196486,0.0,19200,1.9518320560455322,0.00019526913104885347,0.00017372644329831258,-9.789748163335451,0.0
243,2.886295795440674,-9.84249745912724,0.01964085725231097,-9.80133791481052,-9.889474207091135,0.0,4.640140634721855,0.1,0.010560274124145508,0.26057887077331543,0.049093932,0.017558033,-9.851400294553493,-0.04921780370280197,-0.04921780370280197,0.0,19200,1.921933889389038,0.00017409806369427566,0.00018751028749788097,-9.79461363011427,0.0
244,2.903855085372925,-9.850328387569547,0.0229267513919176,-9.803235632451374,-9.939264516632107,0.0,9.245185629515005,0.1,0.010893106460571289,0.24780750274658203,0.047408007,0.011563962,-9.851293103855097,-0.04925698627246793,-0.04925698627246793,0.0,19200,1.9317045211791992,0.00019387542979459527,0.00018297424477658068,-9.78542030291539,0.0
245,2.901465892791748,-9.84666588292928,0.01982526540262397,-9.798357507592865,-9.90522231929318,0.0,6.7975188580931665,0.1,0.010862112045288086,0.2504580020904541,0.050519478,0.010457487,-9.850830381762515,-0.04923867092194157,-0.04923867092194157,0.0,19200,1.896369457244873,0.00018025105181683485,0.00027311237790792007,-9.80073066047671,0.0
246,3.0632545948028564,-9.853387259053823,0.02107396661604182,-9.817961289931187,-9.914666352434798,0.0,10.162802451309984,0.1,0.011867523193359375,0.2639474868774414,0.050247405,0.007776683,-9.851086069491647,-0.04927228165753528,-0.04927228165753528,0.0,19200,1.982299566268921,0.00027706274010614186,0.0001757072163234187,-9.798422872584784,0.0
247,2.9264371395111084,-9.84874349657328,0.019032785922498026,-9.799723925855062,-9.901392627671855,0.0,7.574175821574324,0.1,0.011004924774169922,0.24689841270446777,0.050047264,0.012226947,-9.85085181219981,-0.04924911957142181,-0.04924911957142181,0.0,19200,1.9665350914001465,0.00017889176803617782,0.00020148152703112858,-9.787012238938402,0.0
248,2.9111812114715576,-9.84108837811471,0.022991786996300462,-9.793020587734622,-9.904221617982412,0.0,9.633166928027313,0.1,0.011332511901855469,0.25063395500183105,0.051403046,0.011675081,-9.8498754687913,-0.04921083752880379,-0.04921083752880379,0.0,19200,1.9471027851104736,0.00020486803229324244,0.0001889976103348491,-9.80150378198657,0.0
249,2.885315179824829,-9.849436755722644,0.021670350179403372,-9.795328699911698,-9.923051222399899,0.0,5.511562807379904,0.1,0.010940313339233398,0.2577073574066162,0.0475137,0.024334367,-9.849831597484435,-0.04925258828510267,-0.04925258828510267,0.0,19200,1.960392951965332,0.0001801161008476059,0.0001896953917752713,-9.79323250029778,0.0
250,2.895932674407959,-9.845582555216701,0.022584428879870333,-9.788966281564248,-9.90928273752997,0.0,7.759705141874944,0.1,0.011986732482910156,0.257598876953125,0.047471598,0.011038491,-9.849406693257661,-0.049233268785772,-0.049233268785772,0.0,19200,2.004912853240967,0.00019243784555630987,0.00018825444106618526,-9.776448603584582,0.0
251,3.1027047634124756,-9.84008707934211,0.019429117655499577,-9.795959830657711,-9.912380118113523,0.0,5.0660324535116255,0.1,0.01084136962890625,0.24744391441345215,0.04973003,0.02108968,-9.848474731866105,-0.04920583674538619,-0.04920583674538619,0.0,19200,1.9920856952667236,0.00018788816441135556,0.0001774821138261029,-9.772951913894568,0.0
252,2.898049831390381,-9.842630025417952,0.020425191403947614,-9.796163539589124,-9.892509784587912,0.0,5.994982618064843,0.1,0.010873079299926758,0.2548828125,0.04825474,0.011974195,-9.84789026122129,-0.049218486973577454,-0.049218486973577454,0.0,19200,1.9835398197174072,0.00017841541806566064,0.00020458167143161006,-9.765824075218307,0.0
253,2.9325108528137207,-9.838273968683636,0.020810121140582314,-9.788746447017038,-9.916815611881422,0.0,4.27881361200108,0.1,0.012599706649780273,0.2611696720123291,0.05237099,0.02346793,-9.846928631967524,-0.049196691917497676,-0.049196691917497676,0.0,19200,2.0258901119232178,0.00021283517006062826,0.0001895022670379394,-9.760723871445688,0.0
254,2.9368486404418945,-9.827553158629089,0.01955949445323778,-9.78460399714359,-9.878833979052361,0.0,13.085046795332008,0.1,0.011068105697631836,0.2542867660522461,0.045025498,0.014870757,-9.84499108463368,-0.04914319109585228,-0.04914319109585228,0.0,19200,1.9578325748443604,0.00020640770738426562,0.00018808605455333978,-9.768614637116649,0.0
255,2.9241201877593994,-9.83401671543592,0.019114182182332257,-9.794998280968198,-9.889051188979664,0.0,6.562731502887032,0.1,0.010729312896728516,0.2594757080078125,0.050018147,0.013792634,-9.843893647713905,-0.04917552563856186,-0.04917552563856186,0.0,19200,1.9145030975341797,0.0001988025318382231,0.00019335279191705807,-9.76386991175132,0.0
256,2.969602346420288,-9.842579544937324,0.022768251102132233,-9.799744599883367,-9.893868545902256,0.0,6.383534524677667,0.1,0.010616779327392578,0.24706506729125977,0.053608444,0.0092601,-9.843762237436248,-0.04921824257796451,-0.04921824257796451,0.0,19200,1.9236929416656494,0.00019534112726918328,0.00018197955788474505,-9.74873281261744,0.0
257,2.9125401973724365,-9.830610592958573,0.01973677040215786,-9.785367679944187,-9.885233972598725,0.0,6.9305662206116665,0.1,0.010710477828979492,0.25473976135253906,0.052727334,0.01600317,-9.842447072988481,-0.04915849372345613,-0.04915849372345613,0.0,19200,1.867105484008789,0.000201025656437387,0.0002132142172583835,-9.786581344260206,0.0
258,2.9080426692962646,-9.861591308835235,0.020488684726083107,-9.81156699033335,-9.905230292884614,0.0,6.89140912274682,0.1,0.011105775833129883,0.24594759941101074,0.047821812,0.017304901,-9.844361496573157,-0.04931339466130628,-0.04931339466130628,0.0,19200,1.9032955169677734,0.0002499556985301274,0.00018354423325925732,-9.788892224344615,0.0
259,2.909207820892334,-9.869969870742759,0.020250800975458668,-9.827736417992098,-9.928872039958607,0.0,6.399205470245791,0.1,0.010766983032226562,0.24752473831176758,0.047857843,0.019795205,-9.846922333990118,-0.04935523142142726,-0.04935523142142726,0.0,19200,1.9305312633514404,0.00019017165578901946,0.00020882153921754704,-9.747087122470898,0.0
260,2.9164247512817383,-9.838647203271156,0.021099154546350588,-9.784546303737178,-9.883612888822155,0.0,6.135350698604172,0.1,0.010838747024536133,0.2512328624725342,0.04571625,0.014049164,-9.846094820918223,-0.04919860491553548,-0.04919860491553548,0.0,19200,1.893549919128418,0.00022636671059871456,0.00020498695840178916,-9.747351844548316,0.0
261,2.9329476356506348,-9.840051416792948,0.017905930766609162,-9.804518406546666,-9.910445509500407,0.0,4.879384952613637,0.1,0.010570526123046875,0.246995210647583,0.054563686,0.009071822,-9.845490480505696,-0.049205548543621934,-0.049205548543621934,0.0,19200,1.8631782531738281,0.000225255332611872,0.0001781521047060309,-9.753171449256952,0.0
262,3.0681111812591553,-9.830588717694019,0.01723323499614031,-9.792144902943772,-9.875150478741741,0.0,7.767187420567795,0.1,0.010901927947998047,0.2524428367614746,0.051659275,0.007240132,-9.844000304224528,-0.049158257079966995,-0.049158257079966995,0.0,19200,1.8831474781036377,0.00017996651680514302,0.00021557893835690353,-9.758765864498839,0.0
263,2.9141454696655273,-9.829138812065882,0.017751561375923975,-9.790465817522398,-9.873520927707284,0.0,10.185656309567076,0.1,0.010998010635375977,0.24889183044433594,0.049908925,0.014964343,-9.842514155008663,-0.04915099445974206,-0.04915099445974206,0.0,19200,1.891596794128418,0.00021694595578733992,0.00019118102770533603,-9.750585521431304,0.0
264,2.8895387649536133,-9.813561967907217,0.017592737129303804,-9.768001743442625,-9.858420571086851,0.0,6.586615160768143,0.1,0.010481595993041992,0.24576449394226074,0.05065808,0.0150217945,-9.83961893629852,-0.04907311851143372,-0.04907311851143372,0.0,19200,1.8524425029754639,0.0001988950429383323,0.00020919126544270792,-9.75136992401682,0.0
265,2.907226324081421,-9.81782952628191,0.016997618799396798,-9.782030860548646,-9.867991640110699,0.0,7.20095479880882,0.1,0.010728120803833008,0.2499697208404541,0.048990823,0.010589802,-9.837439995296858,-0.04909445567762697,-0.04909445567762697,0.0,19200,1.953406572341919,0.00020525361646010887,0.00018756611039880347,-9.755304007277473,0.0
266,2.8988709449768066,-9.822427443639322,0.017047783204055863,-9.783255992094727,-9.860167439245863,0.0,4.893392621097946,0.1,0.010538578033447266,0.24513649940490723,0.052548986,0.014953087,-9.835938740131104,-0.04911738681781069,-0.04911738681781069,0.0,19200,1.9165265560150146,0.0001925600695902734,0.00021705981645098313,-9.76040032934656,0.0
267,2.9558756351470947,-9.818910558882726,0.017316299881069544,-9.780524437572552,-9.895680846129322,0.0,3.2077589942057285,0.1,0.011656522750854492,0.2644960880279541,0.051252894,0.025408309,-9.834235922006267,-0.04909984663349685,-0.04909984663349685,0.0,19200,1.9446525573730469,0.00022108799142973805,0.00019387045266118516,-9.759463001465782,0.0
268,3.1240768432617188,-9.816936558038437,0.015698400055319545,-9.78538022990411,-9.856298274050639,0.0,4.173884502674472,0.1,0.0114288330078125,0.2509427070617676,0.0511225,0.014182535,-9.832505985609483,-0.04909000731234917,-0.04909000731234917,0.0,19200,1.9166438579559326,0.00019529518650420746,0.00021146460107310749,-9.759843689297243,0.0
269,2.897676944732666,-9.813781317682226,0.012931763077115991,-9.783128391360759,-9.849175840162824,0.0,7.646788765680026,0.1,0.010935544967651367,0.2531089782714844,0.05292502,0.006812345,-9.830633518816757,-0.049074172305152264,-0.049074172305152264,0.0,19200,1.9487409591674805,0.00021564234154859344,0.00017596328393402384,-9.756101142884178,0.0
270,2.8796870708465576,-9.810124485298948,0.014474273354595744,-9.7782011178107,-9.844245274917391,0.0,4.792457732646606,0.1,0.010973691940307617,0.2523648738861084,0.049653888,0.023072394,-9.828582615464978,-0.04905587706897863,-0.04905587706897863,0.0,19200,1.9721784591674805,0.00017605093424366162,0.0002052295375737507,-9.752343431996225,0.0
271,2.892019033432007,-9.807493435474623,0.016477445945410438,-9.770291440885947,-9.856619282269046,0.0,3.463594671661718,0.1,0.01088261604309082,0.2515549659729004,0.05066803,0.023974024,-9.826473697465943,-0.049042760912734816,-0.049042760912734816,0.0,19200,1.939222812652588,0.00020096511522434422,0.00020410431288769146,-9.750625176756435,0.0
272,2.890916585922241,-9.803637938080811,0.01495610899944271,-9.77649885889365,-9.842581721000434,0.0,5.338299083862078,0.1,0.010882377624511719,0.25130605697631836,0.048812073,0.02032935,-9.82419012152743,-0.049023530802828987,-0.049023530802828987,0.0,19200,1.9121925830841064,0.0001924664135632557,0.00016978068254858676,-9.759653982451312,0.0
273,3.079741954803467,-9.805606084823765,0.014162897736534081,-9.770192503280558,-9.83935698459758,0.0,5.939137315172417,0.1,0.010675907135009766,0.25756168365478516,0.05247561,0.015545567,-9.822331717857063,-0.04903330919003257,-0.04903330919003257,0.0,19200,1.890561819076538,0.00016848001681370162,0.00016972814834962348,-9.762623761641837,0.0
274,2.951178789138794,-9.810203500838474,0.014943871715742055,-9.782821933103456,-9.855930402796462,0.0,8.685630461402095,0.1,0.010983705520629883,0.2533907890319824,0.04641829,0.01157001,-9.821118896155204,-0.04905630456498614,-0.04905630456498614,0.0,19200,1.8584837913513184,0.00016908441670270862,0.00018767219499806875,-9.768310907086278,0.0
275,2.7223281860351562,-9.813272085569372,0.016113811444806087,-9.78073792807889,-9.864781867641932,0.0,5.068805240402971,0.1,0.01091146469116211,0.2465534210205078,0.050729163,0.01822132,-9.82033421509662,-0.04907163373984306,-0.04907163373984306,0.0,19200,1.8838648796081543,0.00018932904785900524,0.0002450539267806619,-9.769017741458317,0.0
276,2.6784920692443848,-9.819773909766004,0.01676057179810024,-9.783727750110943,-9.860463653370838,0.0,5.4187726998501455,0.1,0.010756254196166992,0.24613332748413086,0.050630804,0.018195251,-9.82027818456356,-0.04910415919148117,-0.04910415919148117,0.0,19200,1.9620637893676758,0.0002659259923797321,0.0001799425972286711,-9.77169459133416,0.0
277,2.7166457176208496,-9.812470791210501,0.018233082449821896,-9.775494497028278,-9.872893188773759,0.0,10.240935753251094,0.1,0.010898828506469727,0.25515055656433105,0.046694387,0.009563107,-9.819497445228254,-0.04906768279913743,-0.04906768279913743,0.0,19200,1.9652130603790283,0.00017720870943860583,0.000179127950180028,-9.77965347461441,0.0
278,2.702855110168457,-9.825377335820411,0.015535027590820219,-9.786377328443988,-9.865271337237651,0.0,6.24039582902891,0.1,0.010953426361083984,0.24446606636047363,0.050280377,0.019332888,-9.82008543428747,-0.04913221856811495,-0.04913221856811495,0.0,19200,1.9381332397460938,0.00019523454746364825,0.00017494882483053836,-9.774756613019132,0.0
279,2.8893160820007324,-9.827349434399322,0.016629695473026316,-9.792286463672816,-9.884550271445919,0.0,6.055485569926521,0.1,0.01076817512512207,0.24559402465820312,0.050374288,0.003323609,-9.820811834298656,-0.04914206380403383,-0.04914206380403383,0.0,19200,1.9372186660766602,0.00017741783375887615,0.00017442380797766957,-9.76743662925181,0.0
280,2.8421149253845215,-9.829598784486127,0.018444328898596804,-9.787444659025358,-9.888595109069957,0.0,7.7033808010310025,0.1,0.011013031005859375,0.2505176067352295,0.051825695,0.0083047515,-9.821690529317403,-0.049153320934337975,-0.049153320934337975,0.0,19200,1.9211623668670654,0.00017413650211259846,0.00021027248522424174,-9.76619515772245,0.0
281,2.795729160308838,-9.844143388909316,0.019320386511840777,-9.797073716945404,-9.894858806124692,0.0,4.15547992572542,0.1,0.010821819305419922,0.2540779113769531,0.04997885,0.008829617,-9.823935815276595,-0.0492260288536196,-0.0492260288536196,0.0,19200,1.8397233486175537,0.00020123251316925717,0.00017553007093407046,-9.76368509688946,0.0
282,2.9024555683135986,-9.819475239058143,0.014276337634096355,-9.79031438196981,-9.860973789901983,0.0,7.767858210116241,0.1,0.010720252990722656,0.24657821655273438,0.047341723,0.012468691,-9.82348975765475,-0.049102694481685534,-0.049102694481685534,0.0,19200,1.8851966857910156,0.0001731186410272522,0.0001629785384202715,-9.759826747486898,0.0
283,2.8555428981781006,-9.81843965128504,0.015964169042660556,-9.777863192849876,-9.877998018350413,0.0,5.200562657380689,0.1,0.011070966720581055,0.24506068229675293,0.047482643,0.028603941,-9.82298474701778,-0.049097529996784794,-0.049097529996784794,0.0,19200,1.8850624561309814,0.00016567613303363352,0.0001709404998063384,-9.755392412733148,0.0
284,2.951204538345337,-9.821916296472649,0.016093842106186106,-9.77705313868789,-9.860520191450329,0.0,4.185965642132702,0.1,0.010677337646484375,0.24650859832763672,0.048569903,0.030793956,-9.822877901963265,-0.04911488636526142,-0.04911488636526142,0.0,19200,1.8772399425506592,0.00017235965349474743,0.00016277853080233593,-9.75841063864248,0.0
285,2.947596788406372,-9.818917187952316,0.01437791457908389,-9.790799392197592,-9.870531271605737,0.0,6.87201228318259,0.1,0.010800600051879883,0.2475876808166504,0.050614424,0.012740246,-9.822481830562172,-0.049100018620014584,-0.049100018620014584,0.0,19200,1.9024107456207275,0.00016320639045419404,0.00016820962909769863,-9.755136350390032,0.0
286,2.916942596435547,-9.806519014972285,0.014309263736234338,-9.776953723635124,-9.843731220751444,0.0,6.611983375932838,0.1,0.01104116439819336,0.2504847049713135,0.052495442,0.011948001,-9.820885549003183,-0.04903793722362637,-0.04903793722362637,0.0,19200,1.972886562347412,0.00017679882774928102,0.0001686468462076883,-9.764637936466972,0.0
287,2.9062745571136475,-9.8110771106301,0.017276021278063644,-9.779018396154898,-9.858314546264946,0.0,7.954392747566144,0.1,0.01073312759399414,0.24686551094055176,0.04832441,0.019744085,-9.819904705165875,-0.04906077554238031,-0.04906077554238031,0.0,19200,2.0233922004699707,0.00017223452728442996,0.00016774584937854684,-9.775742506842601,0.0
288,2.8949761390686035,-9.828284368348003,0.01716942760184826,-9.782765461198782,-9.872886874138246,0.0,7.178802577405898,0.1,0.010984659194946289,0.24753403663635254,0.04682125,0.021276029,-9.820742671484089,-0.04914670064443808,-0.04914670064443808,0.0,19200,2.060035467147827,0.00017093797752898887,0.00022316313785480913,-9.7723938924342,0.0
289,2.9051241874694824,-9.832717611947293,0.016282249143907343,-9.803170740619287,-9.89684099377081,0.0,6.8523816066940855,0.1,0.010947227478027344,0.24820876121520996,0.049711052,0.0069061215,-9.821940165530409,-0.04916894346655776,-0.04916894346655776,0.0,19200,1.9945244789123535,0.00024395412596408777,0.0002475862314489383,-9.772419908453505,0.0
290,3.0871589183807373,-9.829413867058406,0.017005821827025636,-9.797307676134086,-9.870202019236938,0.0,6.704241918574917,0.1,0.010821104049682617,0.24556708335876465,0.050701994,0.0148469135,-9.822687535683208,-0.04915240394903633,-0.04915240394903633,0.0,19200,1.834385633468628,0.00023991125952322037,0.00017507867051504174,-9.760072994524828,0.0
291,2.87829852104187,-9.816344280472615,0.015638075013135105,-9.779595482724313,-9.855197873528986,0.0,6.158919770163798,0.1,0.011300086975097656,0.25594496726989746,0.050453957,0.01443997,-9.82205321016215,-0.04908705211941896,-0.04908705211941896,0.0,19200,1.8213045597076416,0.00017156676622546538,0.00018754941902779902,-9.754889925286761,0.0
292,2.7949841022491455,-9.808992866310804,0.01426262127299337,-9.767140980425111,-9.840903065532144,0.0,4.752612242748304,0.1,0.010648012161254883,0.24486708641052246,0.051682405,0.026537817,-9.820747175777015,-0.04905026482360043,-0.04905026482360043,0.0,19200,1.8214306831359863,0.00019248959992724358,0.00017924192303732018,-9.75478725509071,0.0
293,2.8827309608459473,-9.805240471361293,0.01627729369852976,-9.773465415446273,-9.853888115538885,0.0,6.962886959990967,0.1,0.010950088500976562,0.2469174861907959,0.051517278,0.016535865,-9.819196505335443,-0.04903155543771626,-0.04903155543771626,0.0,19200,1.8351871967315674,0.0001737248073898233,0.00021417585637044462,-9.754797438485745,0.0
294,2.9196701049804688,-9.804660890749195,0.014479508032989342,-9.777508172870405,-9.84136845720986,0.0,6.519182214588483,0.1,0.010851383209228516,0.2470862865447998,0.050228283,0.0146105625,-9.817742943876818,-0.04902864034493384,-0.04902864034493384,0.0,19200,1.91510009765625,0.0002164895450062647,0.00016851432696440757,-9.74565373636059,0.0
295,2.977977752685547,-9.79251820891397,0.01406953128070965,-9.767262428880958,-9.846300476510521,0.0,7.8437485392770405,0.1,0.010981082916259766,0.24937653541564941,0.048562963,0.012346007,-9.815220470380533,-0.048967998588821816,-0.048967998588821816,0.0,19200,2.009654998779297,0.0001760707235958517,0.00016971111484339935,-9.737374861902747,0.0
296,2.7524330615997314,-9.791672983203142,0.013434658803244924,-9.763332021163224,-9.834378910737115,0.0,5.705999383112051,0.1,0.011737346649169922,0.25937604904174805,0.04867256,0.025689805,-9.812865721662794,-0.04896380713070642,-0.04896380713070642,0.0,19200,2.0646448135375977,0.00017238701735561003,0.0002212355977179615,-9.738091103164914,0.0
297,2.749354124069214,-9.788176130125537,0.011678928387066976,-9.76117542041507,-9.826701312709286,0.0,5.917184869394932,0.1,0.010952949523925781,0.24678683280944824,0.047954265,0.016122056,-9.810396762509068,-0.048946324727763064,-0.048946324727763064,0.0,19200,1.9488182067871094,0.00022817906476547037,0.00018407210761254287,-9.742063658224435,0.0
298,2.6933391094207764,-9.79464083330832,0.01335170067504347,-9.760921371953174,-9.825508580741456,0.0,6.744043807773557,0.1,0.01129150390625,0.24864912033081055,0.048621602,0.01603921,-9.808821169588994,-0.04897863427291111,-0.04897863427291111,0.0,19200,1.9262816905975342,0.00020370952886047643,0.0001644526233841849,-9.735230428665888,0.0
299,2.688133478164673,-9.787393452638907,0.011915507980151847,-9.760786240097637,-9.810946985397143,0.0,4.938400066915365,0.1,0.011455535888671875,0.24848151206970215,0.050945614,0.019771257,-9.806678397893986,-0.048942390263447426,-0.048942390263447426,0.0,19200,1.8536603450775146,0.00016839029711838716,0.00018732198618545077,-9.737506634344719,0.0
300,2.676488161087036,-9.790192180719878,0.013472193153209569,-9.761480654347556,-9.823368272633608,0.0,7.222716954781514,0.1,0.01118016242980957,0.24776196479797363,0.050581362,0.0057912,-9.805029776176577,-0.04895638323701267,-0.04895638323701267,0.0,19200,1.8815865516662598,0.0001889491158894141,0.000176827540753255,-9.732339702446128,0.0
301,2.714515209197998,-9.783241229254914,0.013192162891566134,-9.757644643688954,-9.822019834207833,0.0,5.245793105322711,0.1,0.010909318923950195,0.2459278106689453,0.04760953,0.02198941,-9.80285092148441,-0.04892159595443287,-0.04892159595443287,0.0,19200,1.931333303451538,0.00018343311036625302,0.00016973268069252396,-9.733877442281074,0.0
302,2.7396581172943115,-9.784987804510545,0.013358487974144784,-9.751713181944737,-9.82080682182403,0.0,6.775142574448679,0.1,0.011156320571899414,0.2548999786376953,0.051769182,0.011452331,-9.801064609787025,-0.04893037938849615,-0.04893037938849615,0.0,19200,1.902693510055542,0.00017127897220611596,0.00018169398700834105,-9.729696027208524,0.0
303,2.7162158489227295,-9.77945507926428,0.01299244674232481,-9.754232006742468,-9.827057362910988,0.0,9.436491691892815,0.1,0.010927677154541016,0.24314427375793457,0.05308593,0.009666312,-9.798903656734751,-0.04890277917727482,-0.04890277917727482,0.0,19200,1.919687032699585,0.0001676763185413764,0.00017944953085196927,-9.73817558294872,0.0
304,2.675353765487671,-9.78810946343411,0.012792291712957945,-9.75406579666322,-9.818225708785619,0.0,11.727558335465947,0.1,0.010558128356933594,0.25121521949768066,0.04884126,0.012190437,-9.797824237404686,-0.04894602094943926,-0.04894602094943926,0.0,19200,1.9799394607543945,0.00018448278371131224,0.0001771302881340076,-9.74669271548947,0.0
305,2.7559244632720947,-9.795990623268336,0.013164834587868976,-9.766955808401848,-9.8268905363452,0.0,7.642150884230528,0.1,0.010717153549194336,0.25057411193847656,0.05230759,0.013484138,-9.797640875991052,-0.048985451180199625,-0.048985451180199625,0.0,19200,1.8951830863952637,0.0001867193488850322,0.0001699021481864547,-9.745656576784151,0.0
306,2.9291017055511475,-9.789839362348928,0.014216727706066737,-9.758372419369746,-9.83250322151342,0.0,9.320653550554127,0.1,0.010725975036621094,0.24477505683898926,0.04891588,0.012720038,-9.79686072462684,-0.04895469490935405,-0.04895469490935405,0.0,19200,1.9095652103424072,0.00016619967863931945,0.00017776303929549996,-9.735638251116923,0.0
307,2.66908860206604,-9.782883261547866,0.012339122507652728,-9.754643621666494,-9.815322213865091,0.0,3.753948237826089,0.1,0.010867834091186523,0.24637651443481445,0.05002017,0.024109975,-9.795462978318943,-0.048919952512991104,-0.048919952512991104,0.0,19200,1.883711338043213,0.00017198650704428395,0.00017258006890337002,-9.735999949350788,0.0
308,2.854187250137329,-9.786388994871634,0.016035865764579688,-9.755376463857262,-9.85824110938904,0.0,7.555545014661755,0.1,0.010889768600463867,0.24692583084106445,0.052482817,0.0060081864,-9.794555579974213,-0.04893745375455653,-0.04893745375455653,0.0,19200,1.8857991695404053,0.00017171766495603581,0.00016453722700395933,-9.737581025115201,0.0
309,2.7398436069488525,-9.782363196958064,0.012820983369000038,-9.74924553389432,-9.817150475809443,0.0,4.250935950000226,0.1,0.010934591293334961,0.2484283447265625,0.04903206,0.03408389,-9.7933363416726,-0.048917308653378754,-0.048917308653378754,0.0,19200,1.9061241149902344,0.00016255251492484668,0.00018016517404064518,-9.736618804709547,0.0
310,2.7388832569122314,-9.78271433359829,0.012594498556500541,-9.750507067340909,-9.81710664260227,0.0,7.064694152395274,0.1,0.01071929931640625,0.2474067211151123,0.048556797,0.01972536,-9.79227414086517,-0.048919101278802196,-0.048919101278802196,0.0,19200,1.959643840789795,0.00017891291553473514,0.00018180392932305665,-9.730416262498228,0.0
311,2.732480525970459,-9.779319120021338,0.014328117764549196,-9.75623790253799,-9.856711059541615,0.0,4.529817972439892,0.1,0.011409521102905273,0.25050950050354004,0.049312297,0.024875496,-9.790978638780787,-0.04890210476179919,-0.04890210476179919,0.0,19200,1.9523046016693115,0.0001769477163124761,0.00017973255765634373,-9.728534620305616,0.0
312,2.9222700595855713,-9.772357316015114,0.012824874293608752,-9.751891780281055,-9.812786240943959,0.0,7.365993959087426,0.1,0.010752439498901367,0.24799442291259766,0.048452053,0.015705187,-9.789116506504222,-0.04886730295874093,-0.04886730295874093,0.0,19200,1.9335699081420898,0.0001872765729834056,0.00017923343231800103,-9.732996894322152,0.0
313,2.6512014865875244,-9.778016483991642,0.013731811259624483,-9.751366590098044,-9.813924084224602,0.0,6.810355313967695,0.1,0.01059269905090332,0.24763059616088867,0.04910842,0.025930127,-9.788006504252964,-0.048895618384463456,-0.048895618384463456,0.0,19200,1.9634346961975098,0.000171439155812846,0.00017073619544650864,-9.738104023795092,0.0
314,2.740251302719116,-9.781824493405153,0.012466276462783402,-9.75854661066782,-9.817275896911148,0.0,4.812016177943787,0.1,0.010923624038696289,0.2461254596710205,0.05213137,0.023280239,-9.787388303168184,-0.04891465434431397,-0.04891465434431397,0.0,19200,1.932880163192749,0.00017775372551099143,0.00017525634929638494,-9.744051034602423,0.0
315,2.6445152759552,-9.787837161317752,0.014439658694899715,-9.756956739804624,-9.823550399418863,0.0,9.316412648471012,0.1,0.01169896125793457,0.24682879447937012,0.04891243,0.0075522647,-9.78743318898314,-0.04894471652993665,-0.04894471652993665,0.0,19200,1.8947982788085938,0.00017244669457108192,0.00018013707963653662,-9.746190277861928,0.0
316,2.6725656986236572,-9.78787687749728,0.013198391573225027,-9.75871852986778,-9.821630573572321,0.0,9.589399412391343,0.1,0.011248588562011719,0.24851369857788086,0.048329275,0.00090991496,-9.787477557834555,-0.04894489863661685,-0.04894489863661685,0.0,19200,1.8637726306915283,0.00018018402580074875,0.0001985244881176679,-9.750092270332619,0.0
317,2.7453341484069824,-9.794192768598887,0.015549429846665627,-9.76462292675253,-9.8468057228188,0.0,5.989331714669201,0.1,0.010773420333862305,0.24625134468078613,0.04951726,0.012045344,-9.788149078910987,-0.04897652228427438,-0.04897652228427438,0.0,19200,1.8241384029388428,0.00018752776980034358,0.0001724372441319355,-9.748340489213739,0.0
318,2.7761032581329346,-9.794412633265997,0.01571856543604143,-9.75324237118052,-9.834159048757984,0.0,6.68458847952994,0.1,0.010653972625732422,0.24724674224853516,0.049863197,0.024467845,-9.788775434346487,-0.048977612949342296,-0.048977612949342296,0.0,19200,1.9062652587890625,0.0001724542769941634,0.00017378778471976568,-9.747540942254354,0.0
319,2.813462734222412,-9.792329939323265,0.01599398247931055,-9.769208800255864,-9.84501664390034,0.0,6.093114515134415,0.1,0.011425256729125977,0.25116753578186035,0.048284817,0.018331045,-9.789130884844164,-0.04896719014460874,-0.04896719014460874,0.0,19200,1.979720115661621,0.000177482232554708,0.00017314666379517253,-9.742843621209854,0.0
320,2.761892318725586,-9.788321790564536,0.01645630686593308,-9.757767412717053,-9.837356954135302,0.0,3.825673486244989,0.1,0.010785102844238281,0.24530863761901855,0.05114645,0.029543689,-9.789049975416201,-0.048947145610004204,-0.048947145610004204,0.0,19200,1.8369474411010742,0.00017803818325268358,0.00018389241992352098,-9.74002450249132,0.0
321,2.6831696033477783,-9.786529450522773,0.012095653421805073,-9.7656445962966,-9.81780511858782,0.0,4.497202118683974,0.1,0.010722637176513672,0.24559760093688965,0.051267657,0.021860467,-9.78879792292686,-0.04893817322585583,-0.04893817322585583,0.0,19200,1.8422091007232666,0.0001816129010014943,0.0002107154413754728,-9.745601598322056,0.0
322,2.666256904602051,-9.796286317505237,0.015773738243286137,-9.765418279996961,-9.842057837437823,0.0,5.878619144514505,0.1,0.010574579238891602,0.2458052635192871,0.051877227,0.020325582,-9.789546762384697,-0.04898697306415336,-0.04898697306415336,0.0,19200,1.9849121570587158,0.00022804492472263945,0.00017660069188360104,-9.750153008101588,0.0
323,2.829434394836426,-9.797117235148306,0.016703810202989732,-9.765411730092257,-9.846072371647105,0.0,5.866875646948677,0.1,0.010711193084716797,0.24636268615722656,0.04825823,0.011407657,-9.790303809661058,-0.048991070994097545,-0.048991070994097545,0.0,19200,1.9968516826629639,0.00017645681865689644,0.0002049157931633461,-9.750408268870762,0.0
324,2.6579177379608154,-9.802762826954453,0.016496487955880733,-9.755624186638723,-9.842017785372104,0.0,5.973845886999353,0.1,0.010591506958007812,0.2442929744720459,0.05597989,0.021105764,-9.791549711390399,-0.0490193186336472,-0.0490193186336472,0.0,19200,1.8850159645080566,0.00019371870458822677,0.00016096389413071375,-9.757369626791,0.0
325,2.64662766456604,-9.800700601773402,0.015326057468585468,-9.775252643982464,-9.844477693658776,0.0,8.269078847974225,0.1,0.01114654541015625,0.2599372863769531,0.047687415,0.01674141,-9.7924648004287,-0.04900902963250512,-0.04900902963250512,0.0,19200,2.015277147293091,0.00015762509788260474,0.00016222676541239478,-9.755698386951366,0.0
326,2.8014001846313477,-9.805299872349392,0.015745629224961474,-9.761583731158588,-9.851860168218268,0.0,7.447569424190829,0.1,0.011041879653930664,0.24868154525756836,0.04725204,0.020594088,-9.79374830762077,-0.04903193474381082,-0.04903193474381082,0.0,19200,1.9697625637054443,0.0001619591577214912,0.00016319834655052407,-9.74785215191464,0.0
327,2.7184696197509766,-9.798793343958545,0.01482452998790241,-9.771698895584649,-9.837617746419632,0.0,7.404197630046271,0.1,0.01154184341430664,0.2448713779449463,0.049639843,0.012161595,-9.794252811254548,-0.04899946634234933,-0.04899946634234933,0.0,19200,1.9513657093048096,0.00016737942923762293,0.0001786443292902711,-9.734551645813529,0.0
328,2.9316599369049072,-9.786849706734673,0.013614500972416732,-9.757956429197412,-9.829807603563557,0.0,7.564324043666304,0.1,0.010845184326171875,0.25014758110046387,0.045114633,0.005495564,-9.79351250080256,-0.048939752212446584,-0.048939752212446584,0.0,19200,1.931086540222168,0.0001737018422598606,0.0001679877068227486,-9.73538339844786,0.0
329,2.8935604095458984,-9.786324042270502,0.016059232765393817,-9.755523737341617,-9.837071092539198,0.0,7.189532713170525,0.1,0.010716438293457031,0.24521160125732422,0.048694175,0.019039406,-9.792793654949353,-0.04893713232260253,-0.04893713232260253,0.0,19200,1.9369285106658936,0.00017024355469234096,0.00017062311019855206,-9.744726301420762,0.0
330,2.832279682159424,-9.795218391065243,0.014948693905506662,-9.760105944415029,-9.849242788346968,0.0,6.754883841725295,0.1,0.011299848556518555,0.2571685314178467,0.05052279,0.018394258,-9.793036128560942,-0.048981601717964875,-0.048981601717964875,0.0,19200,2.0005359649658203,0.0001701785637176808,0.00018836435617430254,-9.744270661286695,0.0
331,2.72748064994812,-9.791589084199908,0.016167412822680905,-9.760722947960316,-9.842086930530447,0.0,4.641028772621684,0.1,0.011123180389404297,0.2467343807220459,0.048589546,0.030736655,-9.79289142412484,-0.04896346501509539,-0.04896346501509539,0.0,19200,1.950202465057373,0.00019598519650877104,0.00016790836091484958,-9.746638043163099,0.0
332,2.7653300762176514,-9.793763154793574,0.014496341255700665,-9.75575635153873,-9.828500570352166,0.0,7.4528264015047005,0.1,0.010518550872802734,0.24574995040893555,0.049082823,0.014921773,-9.792978597191713,-0.04897427881798607,-0.04897427881798607,0.0,19200,1.8993566036224365,0.00017011188890815994,0.00017179773248890748,-9.745302216863635,0.0
333,2.817345380783081,-9.791311033364885,0.014060575217227363,-9.763352729097148,-9.827220439088782,0.0,7.788145276951089,0.1,0.010643482208251953,0.24358892440795898,0.04730968,0.005362169,-9.79281184080903,-0.04896201912801187,-0.04896201912801187,0.0,19200,1.8925583362579346,0.00017566094219113136,0.00016452192910786692,-9.737667429018936,0.0
334,3.032651901245117,-9.7904838498292,0.015722886123099054,-9.760370439339699,-9.82802943950962,0.0,8.986221134890686,0.1,0.010742664337158203,0.2468092441558838,0.04581834,0.016155513,-9.792579041711049,-0.04895794149963001,-0.04895794149963001,0.0,19200,1.8871514797210693,0.0001688156387444308,0.00016497451353198324,-9.736056256431995,0.0
335,2.7144904136657715,-9.787851739932233,0.014378264160783999,-9.751304382107454,-9.825993095520317,0.0,6.74971646345147,0.1,0.01194906234741211,0.25530242919921875,0.051332332,0.011683413,-9.792106311533168,-0.04894472532848243,-0.04894472532848243,0.0,19200,2.0058069229125977,0.00017260622252572377,0.00017930650988498906,-9.729710785608933,0.0
336,2.727426767349243,-9.784402576297664,0.013811204091375023,-9.754476205202655,-9.818274904580589,0.0,4.071814313185713,0.1,0.01086282730102539,0.252331018447876,0.05036249,0.018468235,-9.791335938009617,-0.048927484435968054,-0.048927484435968054,0.0,19200,1.9818089008331299,0.00018444134964293345,0.0001964187027448259,-9.73104096658145,0.0
337,2.755544662475586,-9.788404740083957,0.01277694935100697,-9.762577867470679,-9.83250021386531,0.0,9.218319207649731,0.1,0.011141777038574219,0.250185489654541,0.051552024,0.01325826,-9.79104281821705,-0.04894746314466183,-0.04894746314466183,0.0,19200,2.016523599624634,0.0001853316170977227,0.00016612347816004496,-9.731879271283074,0.0
338,2.7288551330566406,-9.796726945983805,0.015292160020420425,-9.754010851405319,-9.830417170220134,0.0,4.964789787611887,0.1,0.010864734649658203,0.25269126892089844,0.04899966,0.023838876,-9.791611230993727,-0.04898910201480904,-0.04898910201480904,0.0,19200,2.020608425140381,0.00016876311248868555,0.00016773950285574777,-9.734034457409702,0.0
339,2.8266637325286865,-9.799896816918077,0.016418945129269797,-9.76237806755651,-9.83815095316797,0.0,3.9503012406666764,0.1,0.010631084442138672,0.24440646171569824,0.050488252,0.021520846,-9.792439789586162,-0.04900493034513711,-0.04900493034513711,0.0,19200,1.9828813076019287,0.0001682004406655399,0.0001779620787587351,-9.736829291160092,0.0
340,2.657679796218872,-9.797622197887392,0.014816200932629546,-9.760423137783187,-9.835422167275246,0.0,5.6534953579766665,0.1,0.010749101638793945,0.24688291549682617,0.048513714,0.018892052,-9.792958030416285,-0.048993546856837905,-0.048993546856837905,0.0,19200,1.9955544471740723,0.00017602379147252332,0.00016426553194535905,-9.741425814442216,0.0
341,2.8036603927612305,-9.802321422773518,0.015695418873263887,-9.751869869664366,-9.842706439394217,0.0,5.937544916792857,0.1,0.011220693588256836,0.2504451274871826,0.051516462,0.015982017,-9.793894369652008,-0.049017081631575775,-0.049017081631575775,0.0,19200,1.9163367748260498,0.00016708205910973594,0.00016885926096268646,-9.743155440970753,0.0
342,2.7285828590393066,-9.802647857167743,0.015634219214224598,-9.769429510790362,-9.840565887462958,0.0,6.052365844504759,0.1,0.01065969467163086,0.24407267570495605,0.04963663,0.006162895,-9.794769718403582,-0.049018686101980756,-0.049018686101980756,0.0,19200,1.8859155178070068,0.0001678827529220574,0.00017936117933901527,-9.742930443905943,0.0
