Iter | Sampling Pol | Evaluation Pol | Best (Sampled) 
   0 -538.43 -562.81 -100000000.00 
   1 -539.91 -557.36 -538.43 
   2 -538.53 -550.97 -538.43 
   3 -538.05 -563.73 -538.43 
   4 -535.71 -585.15 -538.05 
   5 -533.52 -563.00 -535.71 
   6 -534.76 -589.91 -533.52 
   7 -533.93 -605.08 -533.52 
   8 -536.70 -561.70 -533.52 
   9 -532.25 -549.76 -533.52 
  10 -533.77 -531.35 -532.25 
  11 -532.76 -545.06 -532.25 
  12 -529.91 -541.98 -532.25 
  13 -531.93 -544.62 -529.91 
  14 -531.86 -543.45 -529.91 
  15 -529.22 -549.49 -529.91 
  16 -525.21 -551.11 -529.22 
  17 -523.83 -542.23 -525.21 
  18 -523.71 -540.14 -523.83 
  19 -520.93 -533.48 -523.71 
  20 -517.74 -528.90 -520.93 
  21 -514.10 -510.65 -517.74 
  22 -511.45 -500.58 -514.10 
  23 -509.10 -494.47 -511.45 
  24 -508.92 -494.22 -509.10 
  25 -504.26 -493.79 -508.92 
  26 -508.60 -494.17 -504.26 
  27 -501.47 -487.47 -504.26 
  28 -501.52 -481.63 -501.47 
  29 -499.88 -463.10 -501.47 
  30 -500.30 -462.69 -499.88 
  31 -496.47 -469.85 -499.88 
  32 -495.82 -464.91 -496.47 
  33 -495.27 -468.35 -495.82 
  34 -492.14 -466.65 -495.27 
  35 -496.17 -465.33 -492.14 
  36 -490.77 -463.83 -492.14 
  37 -488.30 -471.74 -490.77 
  38 -487.40 -474.50 -488.30 
  39 -489.05 -468.31 -487.40 
  40 -486.94 -464.95 -487.40 
  41 -486.44 -464.87 -486.94 
  42 -485.00 -473.09 -486.44 
  43 -482.21 -466.24 -485.00 
  44 -481.27 -467.92 -482.21 
  45 -485.50 -466.32 -481.27 
  46 -482.02 -466.50 -481.27 
  47 -478.89 -462.01 -481.27 
  48 -474.13 -464.37 -478.89 
  49 -479.06 -464.67 -474.13 
  50 -475.87 -462.54 -474.13 
  51 -476.72 -462.12 -474.13 
  52 -475.35 -475.77 -474.13 
  53 -470.73 -472.10 -474.13 
  54 -474.07 -475.60 -470.73 
  55 -470.24 -480.54 -470.73 
  56 -473.72 -475.23 -470.24 
  57 -469.31 -484.73 -470.24 
  58 -467.85 -480.98 -469.31 
  59 -467.88 -479.66 -467.85 
  60 -469.29 -479.55 -467.85 
  61 -464.55 -487.74 -467.85 
  62 -465.48 -484.69 -464.55 
  63 -464.57 -491.46 -464.55 
  64 -468.66 -483.91 -464.55 
  65 -463.61 -493.62 -464.55 
  66 -466.84 -496.97 -463.61 
  67 -464.43 -493.33 -463.61 
  68 -461.30 -488.96 -463.61 
  69 -462.06 -477.95 -461.30 
  70 -461.36 -487.76 -461.30 
  71 -462.24 -484.68 -461.30 
  72 -459.77 -478.89 -461.30 
  73 -462.72 -483.46 -459.77 
  74 -464.10 -473.84 -459.77 
  75 -460.62 -473.02 -459.77 
  76 -461.85 -459.59 -459.77 
  77 -462.77 -458.48 -459.77 
  78 -459.67 -476.41 -459.77 
  79 -460.42 -480.19 -459.67 
  80 -459.09 -486.60 -459.67 
  81 -456.52 -473.26 -459.09 
  82 -457.55 -473.62 -456.52 
  83 -459.36 -487.72 -456.52 
  84 -459.34 -488.15 -456.52 
  85 -458.62 -486.77 -456.52 
  86 -458.17 -476.79 -456.52 
  87 -455.66 -475.33 -456.52 
  88 -453.40 -484.34 -455.66 
  89 -457.42 -481.49 -453.40 
  90 -456.56 -479.52 -453.40 
  91 -457.37 -483.74 -453.40 
  92 -455.93 -481.96 -453.40 
  93 -455.68 -471.36 -453.40 
  94 -455.09 -465.25 -453.40 
  95 -452.74 -474.59 -453.40 
  96 -453.89 -478.74 -452.74 
  97 -456.67 -485.32 -452.74 
  98 -452.31 -492.32 -452.74 
  99 -453.82 -486.49 -452.31 
 100 -451.24 -484.17 -452.31 
 101 -451.95 -481.25 -451.24 
 102 -450.70 -477.89 -451.24 
 103 -452.11 -488.53 -450.70 
 104 -448.20 -487.64 -450.70 
 105 -452.44 -485.50 -448.20 
 106 -449.78 -484.73 -448.20 
 107 -448.12 -483.93 -448.20 
 108 -451.00 -489.55 -448.12 
 109 -453.13 -490.54 -448.12 
 110 -450.39 -484.83 -448.12 
 111 -449.01 -489.55 -448.12 
 112 -451.11 -482.77 -448.12 
 113 -448.80 -484.10 -448.12 
 114 -450.27 -479.92 -448.12 
 115 -449.51 -477.43 -448.12 
 116 -447.71 -475.90 -448.12 
 117 -447.96 -466.04 -447.71 
 118 -446.63 -477.53 -447.71 
 119 -449.99 -480.77 -446.63 
 120 -446.46 -481.45 -446.63 
 121 -450.74 -475.25 -446.46 
 122 -446.11 -476.01 -446.46 
 123 -448.17 -484.38 -446.11 
 124 -446.84 -482.34 -446.11 
 125 -445.71 -483.68 -446.11 
 126 -444.20 -479.65 -445.71 
 127 -443.52 -482.90 -444.20 
 128 -448.49 -482.25 -443.52 
 129 -445.01 -488.54 -443.52 
 130 -444.27 -486.63 -443.52 
 131 -443.37 -484.49 -443.52 
 132 -440.67 -486.12 -443.37 
 133 -442.73 -494.43 -440.67 
 134 -444.26 -488.83 -440.67 
 135 -443.23 -489.24 -440.67 
 136 -441.07 -488.93 -440.67 
 137 -445.93 -479.59 -440.67 
 138 -441.93 -488.36 -440.67 
 139 -446.11 -485.00 -440.67 
 140 -443.06 -485.52 -440.67 
 141 -442.50 -481.39 -440.67 
 142 -444.57 -491.62 -440.67 
 143 -447.48 -493.09 -440.67 
 144 -439.98 -490.34 -440.67 
 145 -442.95 -505.50 -439.98 
 146 -441.37 -509.08 -439.98 
 147 -440.61 -503.99 -439.98 
 148 -439.13 -505.33 -439.98 
 149 -437.46 -501.60 -439.13 
 150 -439.35 -506.51 -437.46 
 151 -440.77 -496.06 -437.46 
 152 -443.77 -497.15 -437.46 
 153 -435.87 -492.35 -437.46 
 154 -437.81 -495.35 -435.87 
 155 -434.78 -494.33 -435.87 
 156 -436.93 -501.29 -434.78 
 157 -438.33 -502.72 -434.78 
 158 -437.98 -499.21 -434.78 
 159 -437.81 -504.52 -434.78 
 160 -434.89 -497.63 -434.78 
 161 -435.71 -500.57 -434.78 
 162 -432.05 -512.03 -434.78 
 163 -437.39 -500.27 -432.05 
 164 -433.84 -498.86 -432.05 
 165 -431.98 -498.09 -432.05 
 166 -434.64 -503.37 -431.98 
 167 -431.09 -506.02 -431.98 
 168 -431.09 -504.61 -431.09 
 169 -433.29 -503.49 -431.09 
 170 -435.81 -513.77 -431.09 
 171 -428.26 -514.00 -431.09 
 172 -431.32 -509.11 -428.26 
 173 -432.05 -501.00 -428.26 
 174 -430.82 -506.04 -428.26 
 175 -434.68 -504.25 -428.26 
 176 -432.39 -506.99 -428.26 
 177 -429.61 -504.59 -428.26 
 178 -432.93 -498.63 -428.26 
 179 -433.88 -498.34 -428.26 
 180 -433.66 -500.30 -428.26 
 181 -433.05 -500.53 -428.26 
 182 -431.47 -500.57 -428.26 
 183 -431.93 -500.74 -428.26 
 184 -429.10 -498.87 -428.26 
 185 -429.19 -500.00 -428.26 
 186 -430.51 -493.64 -428.26 
 187 -433.14 -496.08 -428.26 
 188 -433.88 -500.63 -428.26 
 189 -435.07 -493.41 -428.26 
 190 -430.49 -487.83 -428.26 
 191 -430.72 -487.96 -428.26 
 192 -431.85 -488.31 -428.26 
 193 -429.64 -488.81 -428.26 
 194 -432.34 -486.66 -428.26 
 195 -429.28 -491.96 -428.26 
 196 -432.99 -492.55 -428.26 
 197 -432.51 -481.66 -428.26 
 198 -427.91 -478.46 -428.26 
 199 -431.64 -482.75 -427.91 
 200 -430.92 -481.61 -427.91 
 201 -430.16 -487.51 -427.91 
 202 -433.48 -492.06 -427.91 
 203 -430.08 -491.45 -427.91 
 204 -429.50 -483.42 -427.91 
 205 -428.69 -484.04 -427.91 
 206 -426.68 -491.20 -427.91 
 207 -427.52 -495.07 -426.68 
 208 -429.11 -492.40 -426.68 
 209 -427.44 -496.31 -426.68 
 210 -428.48 -497.13 -426.68 
 211 -428.03 -497.56 -426.68 
 212 -427.17 -495.97 -426.68 
 213 -428.40 -502.32 -426.68 
 214 -429.09 -504.17 -426.68 
 215 -428.38 -499.50 -426.68 
 216 -429.55 -499.20 -426.68 
 217 -426.40 -505.45 -426.68 
 218 -432.05 -502.51 -426.40 
 219 -427.23 -486.33 -426.40 
 220 -425.40 -498.35 -426.40 
 221 -425.23 -503.87 -425.40 
 222 -426.50 -507.10 -425.23 
 223 -427.83 -504.64 -425.23 
 224 -427.16 -503.88 -425.23 
 225 -433.55 -505.71 -425.23 
 226 -429.72 -494.55 -425.23 
 227 -428.15 -492.67 -425.23 
 228 -429.00 -488.53 -425.23 
 229 -426.54 -495.50 -425.23 
 230 -426.28 -502.50 -425.23 
 231 -427.17 -493.28 -425.23 
 232 -425.60 -486.78 -425.23 
 233 -425.88 -487.51 -425.23 
 234 -426.22 -497.47 -425.23 
 235 -425.55 -493.71 -425.23 
 236 -429.23 -494.94 -425.23 
 237 -427.20 -489.15 -425.23 
 238 -428.80 -478.57 -425.23 
 239 -428.77 -479.32 -425.23 
 240 -430.09 -481.79 -425.23 
 241 -425.48 -481.84 -425.23 
 242 -426.01 -477.43 -425.23 
 243 -426.39 -479.85 -425.23 
 244 -427.84 -481.81 -425.23 
 245 -428.98 -483.58 -425.23 
 246 -424.85 -480.37 -425.23 
 247 -423.67 -484.12 -424.85 
 248 -425.25 -486.02 -423.67 
 249 -424.65 -483.46 -423.67 
 250 -426.65 -479.96 -423.67 
 251 -424.34 -481.04 -423.67 
 252 -423.97 -496.22 -423.67 
 253 -426.27 -489.18 -423.67 
 254 -428.41 -483.79 -423.67 
 255 -427.92 -489.18 -423.67 
 256 -426.68 -473.82 -423.67 
 257 -426.60 -477.67 -423.67 
 258 -426.06 -478.62 -423.67 
 259 -427.95 -479.46 -423.67 
 260 -424.24 -475.11 -423.67 
 261 -426.26 -472.58 -423.67 
 262 -428.35 -469.42 -423.67 
 263 -423.96 -469.00 -423.67 
 264 -424.99 -468.50 -423.67 
 265 -425.71 -465.72 -423.67 
 266 -422.20 -466.20 -423.67 
 267 -423.99 -472.07 -422.20 
 268 -426.32 -497.80 -422.20 
 269 -423.21 -467.41 -422.20 
 270 -426.02 -488.64 -422.20 
 271 -424.24 -492.94 -422.20 
 272 -427.08 -483.86 -422.20 
 273 -424.50 -488.52 -422.20 
 274 -423.20 -482.97 -422.20 
 275 -424.46 -492.02 -422.20 
 276 -422.91 -471.81 -422.20 
 277 -423.67 -482.34 -422.20 
 278 -422.14 -465.95 -422.20 
 279 -422.53 -461.58 -422.14 
 280 -426.44 -493.84 -422.14 
 281 -421.70 -495.32 -422.14 
 282 -424.65 -477.93 -421.70 
 283 -424.03 -456.00 -421.70 
 284 -418.29 -460.63 -421.70 
 285 -424.13 -486.13 -418.29 
 286 -419.44 -488.26 -418.29 
 287 -418.69 -481.94 -418.29 
 288 -418.60 -486.29 -418.29 
 289 -421.29 -487.58 -418.29 
 290 -420.62 -454.65 -418.29 
 291 -423.46 -464.39 -418.29 
 292 -420.77 -462.28 -418.29 
 293 -418.63 -454.17 -418.29 
 294 -416.16 -458.64 -418.29 
 295 -414.77 -457.14 -416.16 
 296 -415.51 -459.69 -414.77 
 297 -413.21 -460.22 -414.77 
 298 -413.21 -471.34 -413.21 
 299 -411.22 -480.04 -413.21 
 300 -410.42 -482.39 -411.22 
 301 -412.14 -487.53 -410.42 
 302 -415.73 -484.45 -410.42 
 303 -411.25 -480.80 -410.42 
 304 -413.07 -469.30 -410.42 
 305 -415.08 -474.92 -410.42 
 306 -412.71 -484.30 -410.42 
 307 -409.93 -473.31 -410.42 
 308 -410.81 -475.96 -409.93 
 309 -408.10 -475.58 -409.93 
 310 -410.38 -470.16 -408.10 
 311 -411.54 -481.94 -408.10 
 312 -415.08 -479.11 -408.10 
 313 -409.51 -468.70 -408.10 
 314 -413.02 -466.10 -408.10 
 315 -414.89 -462.04 -408.10 
 316 -415.22 -453.91 -408.10 
 317 -412.54 -456.25 -408.10 
 318 -411.72 -454.73 -408.10 
 319 -411.53 -457.33 -408.10 
 320 -412.56 -458.67 -408.10 
 321 -412.40 -457.03 -408.10 
 322 -414.65 -466.58 -408.10 
 323 -415.90 -480.52 -408.10 
 324 -409.83 -459.33 -408.10 
 325 -414.16 -469.39 -408.10 
 326 -412.16 -479.50 -408.10 
 327 -413.43 -455.97 -408.10 
 328 -417.71 -458.12 -408.10 
 329 -411.01 -457.82 -408.10 
 330 -414.17 -464.62 -408.10 
 331 -413.66 -463.79 -408.10 
 332 -417.78 -465.97 -408.10 
 333 -414.51 -464.97 -408.10 
 334 -415.42 -465.44 -408.10 
 335 -415.65 -460.98 -408.10 
 336 -416.64 -463.41 -408.10 
 337 -412.98 -472.72 -408.10 
 338 -414.53 -471.63 -408.10 
 339 -415.94 -477.12 -408.10 
 340 -414.47 -460.60 -408.10 
 341 -412.54 -466.97 -408.10 
 342 -417.13 -473.18 -408.10 
 343 -416.22 -482.59 -408.10 
 344 -411.98 -463.74 -408.10 
 345 -410.92 -459.51 -408.10 
 346 -416.81 -462.20 -408.10 
 347 -411.44 -477.67 -408.10 
 348 -410.89 -477.91 -408.10 
 349 -410.43 -480.85 -408.10 
 350 -412.54 -481.84 -408.10 
 351 -409.30 -497.03 -408.10 
 352 -406.39 -493.97 -408.10 
 353 -409.98 -486.22 -406.39 
 354 -412.40 -475.58 -406.39 
 355 -409.90 -460.03 -406.39 
 356 -409.05 -475.75 -406.39 
 357 -411.10 -478.59 -406.39 
 358 -408.24 -490.91 -406.39 
 359 -411.53 -486.62 -406.39 
 360 -409.05 -467.86 -406.39 
 361 -411.62 -468.74 -406.39 
 362 -411.05 -479.45 -406.39 
 363 -417.12 -474.75 -406.39 
 364 -410.91 -469.83 -406.39 
 365 -409.69 -482.42 -406.39 
 366 -407.88 -482.01 -406.39 
 367 -411.27 -483.83 -406.39 
 368 -407.10 -485.28 -406.39 
 369 -409.08 -492.74 -406.39 
 370 -412.78 -494.33 -406.39 
 371 -413.30 -481.74 -406.39 
 372 -411.95 -485.36 -406.39 
 373 -410.51 -484.71 -406.39 
 374 -410.15 -491.68 -406.39 
 375 -410.70 -497.57 -406.39 
 376 -410.28 -500.82 -406.39 
 377 -412.99 -490.22 -406.39 
 378 -406.62 -491.78 -406.39 
 379 -413.28 -494.32 -406.39 
 380 -416.60 -496.24 -406.39 
 381 -412.73 -502.33 -406.39 
 382 -413.89 -503.89 -406.39 
 383 -414.45 -508.58 -406.39 
 384 -413.19 -506.21 -406.39 
 385 -414.69 -505.23 -406.39 
 386 -414.54 -515.72 -406.39 
 387 -413.54 -508.55 -406.39 
 388 -418.78 -506.62 -406.39 
 389 -415.40 -509.12 -406.39 
 390 -420.59 -506.42 -406.39 
 391 -419.16 -505.37 -406.39 
 392 -415.39 -511.66 -406.39 
 393 -417.46 -499.54 -406.39 
 394 -415.88 -489.83 -406.39 
 395 -412.46 -488.67 -406.39 
 396 -419.33 -496.81 -406.39 
 397 -418.38 -485.24 -406.39 
 398 -418.63 -484.86 -406.39 
 399 -420.24 -489.64 -406.39 
 400 -418.59 -493.99 -406.39 
 401 -418.99 -484.49 -406.39 
 402 -421.29 -498.46 -406.39 
 403 -423.74 -490.58 -406.39 
 404 -428.58 -494.55 -406.39 
 405 -427.46 -491.51 -406.39 
 406 -416.67 -497.45 -406.39 
 407 -419.95 -497.51 -406.39 
 408 -426.29 -497.95 -406.39 
 409 -429.32 -498.51 -406.39 
 410 -439.49 -493.22 -406.39 
 411 -427.89 -495.40 -406.39 
 412 -446.32 -494.09 -406.39 
 413 -438.85 -494.29 -406.39 
 414 -432.67 -500.02 -406.39 
 415 -444.84 -498.42 -406.39 
 416 -452.16 -503.43 -406.39 
 417 -403.14 -500.04 -406.39 
 418 -412.17 -502.09 -403.14 
 419 -433.64 -501.14 -403.14 
 420 -368.17 -498.99 -403.14 
 421 -409.82 -506.18 -368.17 
 422 -392.58 -507.47 -368.17 
 423 -329.15 -506.74 -368.17 
 424 -352.76 -508.18 -329.15 
 425 -374.77 -508.92 -329.15 
 426 -356.95 -516.34 -329.15 
 427 -317.18 -522.51 -329.15 
 428 -338.99 -511.89 -317.18 
 429 -348.07 -581.91 -317.18 
 430 -251.75 -675.91 -317.18 
 431 -272.40 -539.29 -251.75 
 432 -264.38 -205.33 -251.75 
 433 -246.69 -715.12 -251.75 
 434 -196.23 -612.07 -246.69 
 435 -222.03 -616.32 -196.23 
 436 -201.70 -619.70 -196.23 
 437 -160.43 -616.41 -196.23 
 438 -161.23 -566.59 -160.43 
 439 -136.84 -574.74 -160.43 
 440 -156.11 -607.96 -136.84 
 441 -194.38 -603.08 -136.84 
 442 -205.18 -614.27 -136.84 
 443 -163.24 -629.16 -136.84 
 444 -168.97 -615.20 -136.84 
 445 -142.61 -596.03 -136.84 
 446 -104.06 -618.04 -136.84 
 447 -132.39 -636.58 -104.06 
 448 -70.94 -518.22 -104.06 
 449 -77.37 -630.09 -70.94 
 450 -105.32 -595.80 -70.94 
 451 -46.41 -611.69 -70.94 
 452 -56.12 -522.49 -46.41 
 453 -67.50 -613.26 -46.41 
 454 -90.46 -622.99 -46.41 
 455 -59.70 -612.55 -46.41 
 456 -84.14 -612.50 -46.41 
 457 -71.57 -607.24 -46.41 
 458 -77.84 -592.15 -46.41 
 459 -37.34 -597.61 -46.41 
 460 -78.36 -589.42 -37.34 
 461 -63.30 -77.70 -37.34 
 462 -60.32 -584.06 -37.34 
 463 -41.64 -581.17 -37.34 
 464 -25.41 -573.90 -37.34 
 465 -48.88 -570.71 -25.41 
 466 -46.10 -613.47 -25.41 
 467 -27.63 -629.67 -25.41 
 468 -60.08 -604.98 -25.41 
 469 -36.87 -609.59 -25.41 
 470 -39.15 -625.41 -25.41 
 471 -42.60 -588.12 -25.41 
 472 -42.78 -572.29 -25.41 
 473 -11.06 -583.02 -25.41 
 474 -47.57 -602.69 -11.06 
 475 -48.26 -609.12 -11.06 
 476 -32.93 -653.63 -11.06 
 477 -33.28 -620.36 -11.06 
 478 -25.96 -632.77 -11.06 
 479 -42.34 -630.09 -11.06 
 480 -22.52 -628.41 -11.06 
 481 -10.63 -654.35 -11.06 
 482 -33.80 -642.27 -10.63 
 483 -23.50 -664.90 -10.63 
 484 -10.40 -612.55 -10.63 
 485 -21.81 -595.79 -10.40 
 486 -8.38 -597.42 -10.40 
 487 -13.61 -598.09 -8.38 
 488  2.41 -574.47 -8.38 
 489 -29.81 -496.93  2.41 
 490 -31.69 -596.91  2.41 
 491 -37.12 -580.89  2.41 
 492 -7.87 -566.54  2.41 
 493 -21.96 -555.12  2.41 
 494 -3.49 -556.25  2.41 
 495 -11.68 -555.35  2.41 
 496 -1.12 -553.45  2.41 
 497  3.17 -532.58  2.41 
 498  8.45 -536.23  3.17 
 499  3.61 -536.42  8.45 
 500 -19.98 -502.69  8.45 
 501 -23.89 -532.58  8.45 
 502 -11.09 -530.35  8.45 
 503 -5.69 -540.89  8.45 
 504 -8.59 -540.95  8.45 
 505 -5.77 -539.67  8.45 
 506 -15.02 -527.32  8.45 
 507  0.55 -517.63  8.45 
 508 -2.84 -521.25  8.45 
 509 -3.92 -517.42  8.45 
 510  0.01 -525.02  8.45 
 511 -2.93 -519.61  8.45 
 512 -1.64 -532.90  8.45 
 513  0.75 -520.40  8.45 
 514 -11.10 -519.29  8.45 
 515  8.88 -513.64  8.45 
 516 -14.37 -519.75  8.88 
 517  6.66 -528.58  8.88 
 518 -8.58 -514.55  8.88 
 519 -5.83 -509.39  8.88 
 520 -0.31 -515.50  8.88 
 521 13.37 -449.40  8.88 
 522 -15.95 -503.11 13.37 
 523 15.01 -507.68 13.37 
 524 11.82 -519.40 15.01 
 525  5.74 -524.69 15.01 
 526  7.90 -524.86 15.01 
 527 -1.38 -541.50 15.01 
 528 10.06 -526.01 15.01 
 529 13.67 -527.59 15.01 
 530  5.84 -523.44 15.01 
 531 12.40 -528.20 15.01 
 532  9.69 -514.51 15.01 
 533  3.99 -529.38 15.01 
 534 18.78 -518.61 15.01 
 535 -1.13 -514.99 18.78 
 536 -1.61 -531.33 18.78 
 537 -3.90 -525.21 18.78 
 538 -8.58 -550.72 18.78 
 539 -10.22 -539.76 18.78 
 540  3.76 -532.42 18.78 
 541  7.55 -538.38 18.78 
 542 -6.35 -515.55 18.78 
 543 -0.20 -520.30 18.78 
 544  2.95 -512.09 18.78 
 545  6.14 -531.74 18.78 
 546 -5.09 -530.77 18.78 
 547  7.61 -501.69 18.78 
 548  2.65 -510.03 18.78 
 549 15.02 -479.46 18.78 
 550  9.40 -476.43 18.78 
 551 16.88 -480.62 18.78 
 552 -3.30 -477.58 18.78 
 553 15.20 -496.72 18.78 
 554 13.81 -508.91 18.78 
 555 -8.14 -520.82 18.78 
 556 10.47 -564.37 18.78 
 557 -1.53 -555.93 18.78 
 558 -13.51 -538.15 18.78 
 559  2.96 -516.80 18.78 
 560 -8.05 -503.67 18.78 
 561  9.74 -512.79 18.78 
 562 16.59 -489.16 18.78 
 563  9.27 -469.47 18.78 
 564 -18.15 -485.89 18.78 
 565 19.20 -494.14 18.78 
 566 14.06 -468.13 19.20 
 567  6.45 -448.74 19.20 
 568 20.83 -420.24 19.20 
 569 12.08 -418.86 20.83 
 570 13.68 -433.10 20.83 
 571  9.93 -424.66 20.83 
 572  1.24 -445.66 20.83 
 573 13.37 -429.19 20.83 
 574 10.04 -418.67 20.83 
 575 10.59 -415.00 20.83 
 576  6.76 -424.21 20.83 
 577 17.17 -423.49 20.83 
 578 -16.48 -423.47 20.83 
 579  0.96 -424.26 20.83 
 580 11.31 -415.17 20.83 
 581 -7.79 -414.86 20.83 
 582 10.66 -416.61 20.83 
 583 -0.56 -421.83 20.83 
 584  4.34 -426.28 20.83 
 585 16.78 -419.78 20.83 
 586  2.38 -419.38 20.83 
 587 11.44 -420.90 20.83 
 588 16.59 -406.49 20.83 
 589 23.28 -414.07 20.83 
 590 -3.76 -413.48 23.28 
 591  0.45 -423.05 23.28 
 592 -2.72 -421.31 23.28 
 593 13.32 -478.46 23.28 
 594  6.83 -488.87 23.28 
 595 13.07 -489.36 23.28 
 596  0.52 -482.20 23.28 
 597  6.25 -484.64 23.28 
 598  9.37 -477.05 23.28 
 599 -2.19 -482.41 23.28 
 600 18.36 -491.09 23.28 
 601 19.27 -443.98 23.28 
 602 18.91 -459.48 23.28 
 603  4.35 -444.78 23.28 
 604 21.23 -441.59 23.28 
 605  3.44 -445.19 23.28 
 606 12.47 -445.13 23.28 
 607  4.28 -443.89 23.28 
 608  5.82 -456.11 23.28 
 609  2.62 -458.97 23.28 
 610 14.87 -459.48 23.28 
 611 17.66 -460.19 23.28 
 612 -6.86 -465.44 23.28 
 613  8.25 -457.83 23.28 
 614  2.39 -455.65 23.28 
 615 24.09 -453.74 23.28 
 616 -8.22 -452.98 24.09 
 617  6.51 -454.62 24.09 
 618 11.80 -445.13 24.09 
 619 18.07 -442.42 24.09 
 620 -12.18 -475.23 24.09 
 621  0.76 -457.47 24.09 
 622 14.48 -461.25 24.09 
 623  0.95 -452.63 24.09 
 624  8.43 -475.68 24.09 
 625 -13.94 -465.65 24.09 
 626 -14.53 -437.19 24.09 
 627  5.77 -430.03 24.09 
 628 14.78 -423.61 24.09 
 629  9.89 -432.90 24.09 
 630 -1.09 -436.99 24.09 
 631  4.31 -451.18 24.09 
 632 14.53 -458.60 24.09 
 633  7.73 -450.16 24.09 
 634 14.01 -451.10 24.09 
 635  0.15 -445.39 24.09 
 636 19.19 -440.96 24.09 
 637 -0.87 -434.97 24.09 
 638  3.07 -442.27 24.09 
 639 10.47 -441.05 24.09 
 640  7.71 -448.31 24.09 
 641 -0.52 -455.49 24.09 
 642 10.92 -449.06 24.09 
 643 12.81 -441.62 24.09 
 644 19.29 -453.87 24.09 
 645 13.18 -439.43 24.09 
 646 11.76 -440.79 24.09 
 647 21.34 -451.77 24.09 
 648 13.22 -448.45 24.09 
 649 14.63 -450.17 24.09 
 650  4.65 -452.36 24.09 
 651 10.81 -451.85 24.09 
 652  4.01 -443.04 24.09 
 653 -2.96 -439.37 24.09 
 654  8.20 -439.50 24.09 
 655  5.72 -437.59 24.09 
 656 18.34 -434.73 24.09 
 657 16.74 -434.85 24.09 
 658 16.29 -436.56 24.09 
 659 17.17 -436.89 24.09 
 660 15.02 -434.14 24.09 
 661  6.50 -441.89 24.09 
 662  9.13 -444.59 24.09 
 663 20.30 -436.95 24.09 
 664 24.71 -445.11 24.09 
 665  2.86 -443.31 24.71 
 666 15.44 -438.95 24.71 
 667  9.95 -435.26 24.71 
 668 24.12 -432.08 24.71 
 669 20.69 -441.33 24.71 
 670 11.00 -440.61 24.71 
 671 15.41 -453.98 24.71 
 672 24.45 -458.04 24.71 
 673 -5.65 -453.80 24.71 
 674 19.00 -464.17 24.71 
 675 12.69 -460.73 24.71 
 676 17.82 -451.48 24.71 
 677  9.09 -451.55 24.71 
 678 22.22 -449.29 24.71 
 679 19.84 -456.39 24.71 
 680 20.69 -457.92 24.71 
 681 25.13 -466.49 24.71 
 682 13.11 -466.30 25.13 
 683 13.10 -471.77 25.13 
 684 17.60 -482.55 25.13 
 685 11.80 -500.95 25.13 
 686 17.60 -527.41 25.13 
 687 12.63 -466.39 25.13 
 688 15.65 -481.96 25.13 
 689 10.41 -485.96 25.13 
 690  9.24 -480.44 25.13 
 691 23.39 -482.74 25.13 
 692 16.45 -481.23 25.13 
 693 -1.89 -507.40 25.13 
 694 10.84 -512.54 25.13 
 695 17.58 -519.66 25.13 
 696 12.49 -466.93 25.13 
 697 21.39 -453.51 25.13 
 698 14.38 -442.51 25.13 
 699 21.88 -468.34 25.13 
 700  6.61 -460.98 25.13 
 701 14.51 -451.95 25.13 
 702 16.19 -433.67 25.13 
 703 11.27 -449.01 25.13 
 704 21.67 -445.02 25.13 
 705 17.27 -453.90 25.13 
 706 14.71 -445.65 25.13 
 707  6.98 -74.00 25.13 
 708  3.45 -99.47 25.13 
 709 13.49 -108.28 25.13 
 710 23.11 -120.34 25.13 
 711 -0.33 -106.60 25.13 
 712 22.97 -124.77 25.13 
 713  8.29 -122.25 25.13 
 714 25.32 -140.76 25.13 
 715  4.32 -119.98 25.32 
 716 25.84 -96.26 25.32 
 717 20.41 -94.65 25.84 
 718 16.16 -103.86 25.84 
 719  6.15 -128.64 25.84 
 720  5.16 -189.64 25.84 
 721 21.68 -183.26 25.84 
 722 -2.22 -176.37 25.84 
 723 19.74 -166.32 25.84 
 724 17.90 -180.06 25.84 
 725 20.41 -165.13 25.84 
 726 12.82 -162.51 25.84 
 727 18.25 -199.07 25.84 
 728  8.89 -219.29 25.84 
 729 18.14 -238.33 25.84 
 730 16.05 -202.22 25.84 
 731 20.11 -215.82 25.84 
 732  6.79 -170.54 25.84 
 733 14.81 -667.47 25.84 
 734 20.23 -107.36 25.84 
 735 30.43 -93.97 25.84 
 736 21.44 -464.31 30.43 
 737  8.73 -112.02 30.43 
 738 14.59 -115.09 30.43 
 739 16.70 -607.59 30.43 
 740 20.83 -614.52 30.43 
 741 29.10 -602.23 30.43 
 742  5.50 -627.96 30.43 
 743 12.35 -639.05 30.43 
 744 22.12 -676.37 30.43 
 745  1.20 -671.25 30.43 
 746 23.92 -620.45 30.43 
 747  7.01 -627.47 30.43 
 748  9.03 -652.83 30.43 
 749  5.86 -681.52 30.43 
 750 10.55 -657.60 30.43 
 751 20.21 -652.22 30.43 
 752 26.94 -563.89 30.43 
 753 16.01 -645.43 30.43 
 754 25.92 -643.84 30.43 
 755 19.84 -635.24 30.43 
 756 23.81 -553.33 30.43 
 757 15.82 -555.86 30.43 
 758 25.27 -621.92 30.43 
 759 22.02 -595.69 30.43 
 760 24.03 -523.21 30.43 
 761 13.18 -553.58 30.43 
 762 17.16 -528.53 30.43 
 763 24.80 -499.12 30.43 
 764 13.82 -520.13 30.43 
 765 22.25 -503.51 30.43 
 766 20.29 -110.36 30.43 
 767 21.17 -597.32 30.43 
 768 11.94 -526.69 30.43 
 769 20.62 -526.82 30.43 
 770 25.52 -496.63 30.43 
 771 27.50 -417.06 30.43 
 772 18.18 -449.94 30.43 
 773  7.62 -438.30 30.43 
 774 15.22 -486.06 30.43 
 775 25.81 -500.37 30.43 
 776 19.34 -496.50 30.43 
 777 18.27 -480.89 30.43 
 778  1.64 -490.21 30.43 
 779 25.52 -426.82 30.43 
 780 12.54 -429.00 30.43 
 781 21.43 -498.87 30.43 
 782 17.91 -509.55 30.43 
 783 22.03 -501.80 30.43 
 784 20.68 -606.92 30.43 
 785 21.81 -496.17 30.43 
 786 13.85 -173.16 30.43 
 787  9.45 -639.66 30.43 
 788 23.26 -655.57 30.43 
 789 15.39 -589.59 30.43 
 790  5.35 -638.31 30.43 
 791 13.80 -627.09 30.43 
 792 22.02 -130.73 30.43 
 793 18.10 -112.08 30.43 
 794  2.18 -133.77 30.43 
 795  6.34 -161.64 30.43 
 796 23.20 -158.49 30.43 
 797 11.35 -144.97 30.43 
 798 27.06 -180.98 30.43 
 799 17.65 -443.13 30.43 
 800 28.69 -483.38 30.43 
 801 15.35 -82.00 30.43 
 802 19.36 -436.82 30.43 
 803  8.59 -497.09 30.43 
 804 27.80 -515.60 30.43 
 805 25.68 -450.17 30.43 
 806  8.86 -450.61 30.43 
 807 15.58 -458.22 30.43 
 808 16.44 -445.99 30.43 
 809 15.18 -443.21 30.43 
 810 14.83 -439.38 30.43 
 811 -1.53 -447.87 30.43 
 812 12.74 -449.35 30.43 
 813 24.26 -442.11 30.43 
 814 28.15 -447.38 30.43 
 815 20.57 -450.82 30.43 
 816 11.33 -450.48 30.43 
 817 18.43 -460.84 30.43 
 818 18.06 -459.82 30.43 
 819 -2.42 -459.43 30.43 
 820 19.68 -456.39 30.43 
 821 24.72 -452.28 30.43 
 822 27.47 -441.77 30.43 
 823 19.64 -447.96 30.43 
 824 12.31 -451.41 30.43 
 825  2.46 -456.35 30.43 
 826 20.98 -448.88 30.43 
 827 23.65 -451.05 30.43 
 828  6.91 -448.45 30.43 
 829 27.62 -447.34 30.43 
 830 27.16 -443.95 30.43 
 831 13.33 -444.90 30.43 
 832 32.05 -442.00 30.43 
 833 27.69 -441.84 32.05 
 834 20.60 -443.09 32.05 
 835 32.17 -442.84 32.05 
 836  2.46 -435.06 32.17 
 837 30.57 -444.39 32.17 
 838 25.24 -442.32 32.17 
 839 16.29 -442.37 32.17 
 840 23.42 -514.77 32.17 
 841 23.18 -433.38 32.17 
 842 24.65 -608.14 32.17 
 843 32.93 -94.20 32.17 
 844 18.77 -74.51 32.93 
 845 30.28 -576.23 32.93 
 846 14.91 -447.76 32.93 
 847 19.98 -412.41 32.93 
 848 18.93 -432.61 32.93 
 849 31.21 -414.92 32.93 
 850 28.21 -425.89 32.93 
 851 19.98 -423.67 32.93 
 852 25.79 -438.00 32.93 
 853 12.04 -429.18 32.93 
 854 29.36 -445.33 32.93 
 855 35.64 -439.54 32.93 
 856 28.64 -438.34 35.64 
 857 36.34 -437.86 35.64 
 858 35.62 -433.55 36.34 
 859 35.73 -433.29 36.34 
 860 12.04 -428.20 36.34 
 861 25.44 -419.85 36.34 
 862 24.93 -424.20 36.34 
 863 22.29 -423.55 36.34 
 864 25.87 -427.75 36.34 
 865 26.49 -436.12 36.34 
 866 27.34 -423.19 36.34 
 867 20.34 -445.25 36.34 
 868 25.18 -438.74 36.34 
 869 23.09 -443.64 36.34 
 870 33.61 -438.15 36.34 
 871 21.82 -440.44 36.34 
 872 27.42 -446.24 36.34 
 873 31.97 -442.99 36.34 
 874 37.23 -444.36 36.34 
 875 18.48 -446.32 37.23 
 876 33.50 -446.86 37.23 
 877 -6.99 -441.91 37.23 
 878 28.37 -448.11 37.23 
 879 28.48 -442.20 37.23 
 880 28.43 -439.70 37.23 
 881 19.02 -443.18 37.23 
 882 29.95 -444.58 37.23 
 883 26.92 -446.47 37.23 
 884 33.28 -432.71 37.23 
 885  0.78 -444.92 37.23 
 886 38.08 -445.07 37.23 
 887 27.36 -442.91 38.08 
 888 24.23 -447.83 38.08 
 889 24.91 -453.14 38.08 
 890 29.98 -446.57 38.08 
 891 34.93 -412.82 38.08 
 892 39.54 -418.94 38.08 
 893 13.75 -417.28 39.54 
 894 22.09 -413.62 39.54 
 895 30.83 -427.27 39.54 
 896 25.95 -6.30 39.54 
 897 23.42 -440.34 39.54 
 898 25.20 -430.60 39.54 
 899 24.44 -417.78 39.54 
 900 27.46 -425.57 39.54 
 901 31.19 -1.89 39.54 
 902 25.34 -416.54 39.54 
 903 22.04 -421.34 39.54 
 904 39.22 -433.57 39.54 
 905 21.86 -432.62 39.54 
 906 24.50 -434.13 39.54 
 907 28.71 -431.51 39.54 
 908 33.40 -434.02 39.54 
 909 15.14 -426.25 39.54 
 910 33.37 -419.15 39.54 
 911 26.03 -427.15 39.54 
 912 28.49 -430.02 39.54 
 913 32.49 -429.92 39.54 
 914 34.23 -429.86 39.54 
 915 25.73 -425.96 39.54 
 916 35.18 -430.27 39.54 
 917 18.36 -431.14 39.54 
 918 23.86 -431.23 39.54 
 919 26.05 -426.23 39.54 
 920 30.03 -430.79 39.54 
 921 36.03 -437.21 39.54 
 922 -10.19 -439.27 39.54 
 923 12.09 -440.63 39.54 
 924 33.62 -432.35 39.54 
 925 -1.55 -435.55 39.54 
 926 11.19 -440.03 39.54 
 927 11.68 -440.99 39.54 
 928 25.76 -432.41 39.54 
 929 29.61 -436.52 39.54 
 930 33.05 -442.79 39.54 
 931 27.29 -444.73 39.54 
 932 25.75 -439.24 39.54 
 933 26.25 -436.01 39.54 
 934 10.25 -435.01 39.54 
 935 29.37 -423.56 39.54 
 936 26.93 -433.17 39.54 
 937 35.01 -429.76 39.54 
 938 22.60 -429.12 39.54 
 939 34.48 -430.93 39.54 
 940 24.59 -430.38 39.54 
 941 23.34 -432.10 39.54 
 942 16.91 -428.16 39.54 
 943 28.58 -426.56 39.54 
 944 31.18 -421.25 39.54 
 945 30.99 -428.02 39.54 
 946 28.22 -428.54 39.54 
 947 38.01 -433.50 39.54 
 948 18.33 -430.62 39.54 
 949 29.05 -428.48 39.54 
 950 29.02 -430.88 39.54 
 951 12.82 -433.18 39.54 
 952 34.92 -433.07 39.54 
 953 24.36 -433.04 39.54 
 954 17.66 -427.03 39.54 
 955 22.47 -433.95 39.54 
 956 37.54 -441.46 39.54 
 957 24.18 -439.48 39.54 
 958  4.49 -435.77 39.54 
 959 34.53 -435.09 39.54 
 960 21.09 -435.61 39.54 
 961 29.01 -432.57 39.54 
 962 38.70 -437.21 39.54 
 963 16.67 -434.56 39.54 
 964 39.44 -432.15 39.54 
 965 37.87 -429.32 39.54 
 966 16.91 -427.97 39.54 
 967 19.49 -418.05 39.54 
 968 11.45 -417.40 39.54 
 969 35.09 -414.68 39.54 
 970 20.06 -413.24 39.54 
 971 22.54 -484.69 39.54 
 972 20.10 -413.81 39.54 
 973 34.02 -426.00 39.54 
 974 35.43 -424.30 39.54 
 975 29.46 -417.86 39.54 
 976 28.11 -413.91 39.54 
 977 28.40 -412.40 39.54 
 978 39.26 -413.34 39.54 
 979 28.56 -415.32 39.54 
 980 35.88 -412.07 39.54 
 981 31.06 -412.59 39.54 
 982 34.73 -411.80 39.54 
 983 34.82 -413.63 39.54 
 984 20.24 -434.72 39.54 
 985 23.90 -412.30 39.54 
 986 26.53 -413.14 39.54 
 987 37.65 -411.06 39.54 
 988 31.80 -410.47 39.54 
 989 38.59 -423.74 39.54 
 990 36.37 -421.66 39.54 
 991 36.99 -421.33 39.54 
 992 36.26 -418.58 39.54 
 993 18.75 -416.19 39.54 
 994 21.59 -422.29 39.54 
 995 20.21 -423.66 39.54 
 996 31.34 -419.97 39.54 
 997 36.55 -421.12 39.54 
 998 36.44 -425.31 39.54 
 999 35.86 -422.63 39.54 
1000 27.77 -426.26 39.54 
1001 37.89 -423.87 39.54 
1002 36.30 -424.83 39.54 
1003 22.94 -425.80 39.54 
1004 37.13 -428.81 39.54 
1005 40.77 -426.39 39.54 
1006 26.83 -428.03 40.77 
1007 27.80 -425.78 40.77 
1008 24.98 -428.92 40.77 
1009 34.91 -431.46 40.77 
1010 33.64 -430.26 40.77 
1011 35.28 -432.27 40.77 
1012 40.62 -436.80 40.77 
1013 33.33 -438.02 40.77 
1014 27.15 -436.00 40.77 
1015 26.92 -434.63 40.77 
1016 29.45 -433.02 40.77 
1017 38.91 -441.70 40.77 
1018 33.61 -435.38 40.77 
1019 38.18 -427.66 40.77 
1020 36.89 -431.33 40.77 
1021 38.53 -432.18 40.77 
1022 32.65 -426.18 40.77 
1023 37.23 -424.91 40.77 
1024 31.97 -427.32 40.77 
1025 32.33 -430.68 40.77 
1026 38.87 -428.86 40.77 
1027 33.72 -424.53 40.77 
1028 40.48 -427.42 40.77 
1029 40.97 -432.80 40.77 
1030 16.40 -427.08 40.97 
1031 32.95 -419.68 40.97 
1032 32.98 -446.46 40.97 
1033 40.69 -431.07 40.97 
1034 38.38 -464.28 40.97 
1035 42.85 -469.14 40.97 
1036 43.68 -449.37 42.85 
1037 30.57 -444.25 43.68 
1038 39.58 -457.18 43.68 
1039 39.31 -452.97 43.68 
1040 39.85 -441.08 43.68 
1041 25.39 -438.92 43.68 
1042 39.03 -441.48 43.68 
1043 44.37 -431.61 43.68 
1044 24.64 -440.75 44.37 
1045 38.38 -17.41 44.37 
1046 42.03 -512.43 44.37 
1047 44.45 -492.68 44.37 
1048 45.48 -26.86 44.45 
1049 41.61 -17.34 45.48 
1050 39.91 -17.26 45.48 
1051 34.70 -20.74 45.48 
1052 38.66 -20.43 45.48 
1053 44.26 -494.24 45.48 
1054 41.76 -6.89 45.48 
1055 35.71 -29.08 45.48 
1056 45.21 -481.76 45.48 
1057 46.25 -460.11 45.48 
1058 41.32 -435.00 46.25 
1059 37.60 -451.46 46.25 
1060 42.49 -429.13 46.25 
1061 34.76 -13.96 46.25 
1062 46.19 -18.59 46.25 
1063 41.88 -10.65 46.25 
1064 46.21 -17.12 46.25 
1065 41.81 -16.89 46.25 
1066 46.91 -420.42 46.25 
1067 26.88 -418.15 46.91 
1068 36.12 -455.25 46.91 
1069 40.35 -424.47 46.91 
1070 39.94 -423.31 46.91 
1071 10.59 -443.96 46.91 
1072 46.79 -464.62 46.91 
1073 45.00 -272.71 46.91 
1074 32.03 13.82 46.91 
1075 35.40  9.52 46.91 
1076 35.21 16.37 46.91 
1077 39.62 16.85 46.91 
1078 34.23 14.92 46.91 
1079 29.77 13.05 46.91 
1080 39.13 11.04 46.91 
1081 39.31 18.08 46.91 
1082 29.83 18.14 46.91 
1083 39.96 22.31 46.91 
1084 40.45 16.54 46.91 
1085 45.74 17.48 46.91 
1086 41.77 14.24 46.91 
1087 27.42 19.34 46.91 
1088 36.50 22.08 46.91 
1089 41.81 25.70 46.91 
1090 12.13 27.33 46.91 
1091 45.12 29.65 46.91 
1092 46.42 16.81 46.91 
1093 37.09 -428.88 46.91 
1094  9.68 19.97 46.91 
1095  5.14 13.18 46.91 
1096 41.53 16.80 46.91 
1097 35.60 16.74 46.91 
1098 42.43 19.39 46.91 
1099 27.86 22.35 46.91 
1100 15.69 16.48 46.91 
1101 34.77 16.91 46.91 
1102 37.81  9.41 46.91 
1103 39.22 12.16 46.91 
1104 38.90 15.57 46.91 
1105 40.23 10.03 46.91 
1106 38.57  7.48 46.91 
1107 39.18  9.67 46.91 
1108 43.74 12.17 46.91 
1109 34.13  0.97 46.91 
1110 38.11 -0.18 46.91 
1111 45.11  1.61 46.91 
1112 30.77  0.28 46.91 
1113 39.47  9.60 46.91 
1114 41.18 12.94 46.91 
1115 38.72 12.41 46.91 
1116 34.93  4.69 46.91 
1117 39.58  4.19 46.91 
1118 29.20  7.13 46.91 
1119 45.82 -0.84 46.91 
1120 15.75  2.54 46.91 
1121 16.71  4.35 46.91 
1122 45.93 12.85 46.91 
1123 30.93 12.69 46.91 
1124 36.05 -16.29 46.91 
1125 41.37 -13.46 46.91 
1126 42.00 -428.47 46.91 
1127 41.72 -429.54 46.91 
1128 37.43 -16.44 46.91 
1129 26.78 -463.39 46.91 
1130 43.05 -444.34 46.91 
1131 40.97 -440.20 46.91 
1132 22.22 -471.63 46.91 
1133 26.93 -17.90 46.91 
1134 37.24 -16.86 46.91 
1135 46.78 -2.16 46.91 
1136 48.39 -14.43 46.91 
1137 35.74 22.62 48.39 
1138 33.66 -7.64 48.39 
1139 48.38 -8.96 48.39 
1140 44.27 25.65 48.39 
1141 30.30 22.33 48.39 
1142 40.49 28.64 48.39 
1143 41.09 28.14 48.39 
1144 38.72 26.20 48.39 
1145 35.77 26.91 48.39 
1146 36.24 22.67 48.39 
1147 46.10 -8.93 48.39 
1148 46.61 -13.21 48.39 
1149 28.52 -9.27 48.39 
1150 47.61 -8.29 48.39 
1151 32.83 -11.27 48.39 
1152 43.68 -8.91 48.39 
1153 37.55 -473.11 48.39 
1154 23.07 -18.10 48.39 
1155 21.84 -13.05 48.39 
1156 39.59 -6.03 48.39 
1157 12.43 -5.60 48.39 
1158 23.21 -3.13 48.39 
1159 33.84 -6.10 48.39 
1160 34.13 -1.86 48.39 
1161 19.62 -3.18 48.39 
1162 47.78 -1.90 48.39 
1163 49.39 -437.89 48.39 
1164 35.85 -428.99 49.39 
1165 18.49 -439.36 49.39 
1166 40.60  4.52 49.39 
1167 42.72  2.60 49.39 
1168 43.57  3.69 49.39 
1169 44.01  6.12 49.39 
1170 32.84 -0.27 49.39 
1171 43.57 -2.54 49.39 
1172 38.62 -1.16 49.39 
1173 43.03  0.98 49.39 
1174 35.43 -0.73 49.39 
1175 41.52 -5.55 49.39 
1176 41.88 -6.92 49.39 
1177 43.42 -13.01 49.39 
1178 38.10 -10.57 49.39 
1179 39.29 -11.56 49.39 
1180 48.87 -438.91 49.39 
1181 44.55 -435.20 49.39 
1182 45.09 -436.96 49.39 
1183 43.97 -423.81 49.39 
1184 35.43 -428.39 49.39 
1185 29.74 -1.52 49.39 
1186 43.91 -7.10 49.39 
1187 43.12 -457.46 49.39 
1188 38.35 -446.75 49.39 
1189 47.92 -480.74 49.39 
1190 41.43 -466.97 49.39 
1191 32.66 -32.18 49.39 
1192 45.89 -26.77 49.39 
1193 42.93 -10.76 49.39 
1194 47.22 -10.12 49.39 
1195 48.03 -6.44 49.39 
1196 48.97 -428.87 49.39 
1197 39.84 -9.28 49.39 
1198 30.53 -7.68 49.39 
1199 49.14 -4.45 49.39 
1200 42.64 -1.69 49.39 
1201 48.10  4.05 49.39 
1202 47.83 -4.89 49.39 
1203 49.80 -11.37 49.39 
1204 48.80 -440.56 49.80 
1205 34.33 -451.95 49.80 
1206 48.07 -13.70 49.80 
1207 33.09 -6.89 49.80 
1208 41.55 -6.49 49.80 
1209 29.14 -9.01 49.80 
1210 14.89 -6.27 49.80 
1211 36.92 -5.23 49.80 
1212 46.59 -9.00 49.80 
1213 36.87 -3.68 49.80 
1214 41.80 -1.32 49.80 
1215 38.72  1.71 49.80 
1216 47.12 -4.71 49.80 
1217 40.19 -6.91 49.80 
1218 35.31 -8.46 49.80 
1219 41.47 -6.11 49.80 
1220 42.82 -5.56 49.80 
1221 36.04 -9.80 49.80 
1222 23.50 -3.97 49.80 
1223 35.48  0.20 49.80 
1224 37.88 -7.24 49.80 
1225 44.42 -8.45 49.80 
1226 46.36 -14.66 49.80 
1227 31.19 -13.45 49.80 
1228 29.47 -11.27 49.80 
1229 33.33 -15.42 49.80 
1230 38.65 -15.64 49.80 
1231 26.34 -8.78 49.80 
1232 35.30 -6.28 49.80 
1233 35.79 -10.39 49.80 
1234 36.73 -15.33 49.80 
1235 32.27 -8.84 49.80 
1236 43.98 -9.49 49.80 
1237 42.27 -20.31 49.80 
1238 40.69 -23.94 49.80 
1239 36.15 -23.76 49.80 
1240 39.91 -21.93 49.80 
1241 37.00 -13.81 49.80 
1242 45.57 18.91 49.80 
1243 41.69 19.56 49.80 
1244 44.98 20.01 49.80 
1245 36.42 -6.84 49.80 
1246 40.65 -11.23 49.80 
1247 44.98 -7.16 49.80 
1248 45.73 -17.51 49.80 
1249 37.29 -17.38 49.80 
1250 46.57 -16.63 49.80 
1251 44.17 -23.03 49.80 
1252 42.63 -20.04 49.80 
1253 38.13 -6.47 49.80 
1254 46.97 -0.96 49.80 
1255 45.75 -5.71 49.80 
1256 42.54 -2.19 49.80 
1257 42.59 31.07 49.80 
1258 31.40 28.61 49.80 
1259 45.46 26.22 49.80 
1260 45.61 -15.46 49.80 
1261 41.96 -15.77 49.80 
1262 37.28 -12.26 49.80 
1263 46.99 -10.70 49.80 
1264 32.27 -8.28 49.80 
1265 44.03 -0.16 49.80 
1266 47.96 16.18 49.80 
1267 47.95 11.35 49.80 
1268 20.64 19.62 49.80 
1269 48.35 18.83 49.80 
1270 35.65 21.80 49.80 
1271 44.18 25.51 49.80 
1272 45.42 23.37 49.80 
1273 40.38 22.82 49.80 
1274 23.83 24.80 49.80 
1275 46.81 22.66 49.80 
1276 48.12 13.96 49.80 
1277 33.60 14.21 49.80 
1278 47.58 12.75 49.80 
1279 48.63 12.43 49.80 
1280 38.85  6.99 49.80 
1281 43.23 -9.13 49.80 
1282 38.34 -8.38 49.80 
1283 43.71 -4.46 49.80 
1284 45.24 -4.33 49.80 
1285 39.17 -5.08 49.80 
1286 39.03  1.61 49.80 
1287 50.93 -1.96 49.80 
1288 44.85 -3.29 50.93 
1289 45.25 22.63 50.93 
1290 43.65 27.01 50.93 
1291 42.11 21.48 50.93 
1292 37.97 -0.60 50.93 
1293 44.34 22.17 50.93 
1294 47.90 23.49 50.93 
1295 47.31 -10.42 50.93 
1296 47.79 -7.18 50.93 
1297 43.61 -8.94 50.93 
1298 43.92 -5.83 50.93 
1299 44.60 -7.88 50.93 
1300 48.09 23.45 50.93 
1301 49.51 27.65 50.93 
1302 40.97 24.53 50.93 
1303 32.01 26.23 50.93 
1304 30.79 29.24 50.93 
1305 36.75 31.51 50.93 
1306 37.74 36.38 50.93 
1307 39.00 36.30 50.93 
1308 52.55 36.59 50.93 
1309 41.17 36.42 52.55 
1310 50.33 34.58 52.55 
1311 52.07 28.05 52.55 
1312 42.70 26.84 52.55 
1313 38.32 29.02 52.55 
1314 52.28 32.82 52.55 
1315 32.95 10.91 52.55 
1316 42.06  6.51 52.55 
1317 46.89 30.51 52.55 
1318 47.86  0.77 52.55 
1319 45.51 31.78 52.55 
1320 51.50 27.21 52.55 
1321 50.57 30.17 52.55 
1322 42.18 30.13 52.55 
1323 50.62 27.27 52.55 
1324 50.86 30.00 52.55 
1325 36.43 28.61 52.55 
1326 51.51 29.57 52.55 
1327 46.64 29.00 52.55 
1328 41.51 28.39 52.55 
1329 52.40 30.80 52.55 
1330 43.24 33.50 52.55 
1331 43.86 31.22 52.55 
1332 54.10 33.57 52.55 
1333 43.18 33.05 54.10 
1334 48.11 29.17 54.10 
1335 38.08 30.25 54.10 
1336 43.77 34.02 54.10 
1337 48.70 32.13 54.10 
1338 47.26 30.00 54.10 
1339 41.88 28.06 54.10 
1340 45.63 31.90 54.10 
1341 39.43 11.07 54.10 
1342 49.62 36.44 54.10 
1343 54.37 38.30 54.10 
1344 49.77 37.33 54.37 
1345 45.12 38.91 54.37 
1346 44.51 34.93 54.37 
1347 37.92 33.81 54.37 
1348 49.22 32.39 54.37 
1349 48.18 34.97 54.37 
1350 53.39 31.59 54.37 
1351 48.94 34.50 54.37 
1352 38.07 35.44 54.37 
1353 53.82 35.40 54.37 
1354 51.84 34.51 54.37 
1355 39.32 34.24 54.37 
1356 48.53 33.29 54.37 
1357 52.61 28.03 54.37 
1358 46.25 30.66 54.37 
1359 41.44 32.24 54.37 
1360 42.36 34.06 54.37 
1361 43.41 30.89 54.37 
1362 47.50 30.54 54.37 
1363 47.73 30.35 54.37 
1364 52.04 -6.31 54.37 
1365 29.38 35.67 54.37 
1366 48.20 34.77 54.37 
1367 48.00 33.96 54.37 
1368 53.34 34.04 54.37 
1369 52.48 26.87 54.37 
1370 53.03 23.60 54.37 
1371 41.22 22.98 54.37 
1372 41.42 29.77 54.37 
1373 52.27  6.71 54.37 
1374 43.71  5.90 54.37 
1375 54.24  9.33 54.37 
1376 54.69  5.90 54.37 
1377 49.39  9.47 54.69 
1378 49.60 10.69 54.69 
1379 54.85 39.69 54.69 
1380 50.01 39.90 54.85 
1381 45.24 42.52 54.85 
1382 53.99 39.08 54.85 
1383 45.21 37.57 54.85 
1384 49.42 36.67 54.85 
1385 55.16  7.42 54.85 
1386 54.60 10.53 55.16 
1387 55.08  7.05 55.16 
1388 45.17  8.78 55.16 
1389 50.46 35.11 55.16 
1390 54.73 13.17 55.16 
1391 50.63 16.09 55.16 
1392 51.21 41.29 55.16 
1393 50.72 41.51 55.16 
1394 48.63 42.84 55.16 
1395 50.62 42.65 55.16 
1396 45.41 44.41 55.16 
1397 45.88 43.67 55.16 
1398 54.67 38.80 55.16 
1399 44.71 40.10 55.16 
1400 54.66 37.86 55.16 
1401 50.12 37.47 55.16 
1402 46.03  6.24 55.16 
1403 54.74  8.01 55.16 
1404 45.21  8.20 55.16 
1405 44.76 10.55 55.16 
1406 51.00  3.31 55.16 
1407 50.37 11.50 55.16 
1408 51.07 38.99 55.16 
1409 41.51 42.27 55.16 
1410 45.15 13.81 55.16 
1411 50.76 36.28 55.16 
1412 49.80 40.16 55.16 
1413 49.69 38.20 55.16 
1414 49.86 38.97 55.16 
1415 55.73 45.92 55.16 
1416 54.69 41.58 55.73 
1417 44.65 42.04 55.73 
1418 50.78 11.34 55.73 
1419 54.81 -418.50 55.73 
1420 40.82 -412.14 55.73 
1421 44.54 -418.56 55.73 
1422 50.47 -421.56 55.73 
1423 44.10 -419.69 55.73 
1424 39.79 14.36 55.73 
1425 44.36 38.80 55.73 
1426 53.23 37.22 55.73 
1427 49.81 38.44 55.73 
1428 49.15 40.39 55.73 
1429 53.83 37.81 55.73 
1430 53.41 38.09 55.73 
1431 54.39 39.39 55.73 
1432 50.41 41.10 55.73 
1433 55.20 41.37 55.73 
1434 55.53 34.85 55.73 
1435 49.96 37.80 55.73 
1436 41.00 39.51 55.73 
1437 46.07 35.07 55.73 
1438 53.85 38.20 55.73 
1439 54.20 40.28 55.73 
1440 55.14  1.61 55.73 
1441 45.56 39.01 55.73 
1442 55.54 14.59 55.73 
1443 55.57 43.68 55.73 
1444 55.80 44.28 55.73 
1445 51.45 45.24 55.80 
1446 55.99 44.42 55.80 
1447 56.50 41.23 55.99 
1448 50.56 16.93 56.50 
1449 56.49 43.80 56.50 
1450 56.36  6.74 56.50 
1451 51.28 17.93 56.50 
1452 55.91 43.62 56.50 
1453 55.95 46.12 56.50 
1454 51.71 47.75 56.50 
1455 55.69 47.97 56.50 
1456 47.20 45.07 56.50 
1457 56.16 44.77 56.50 
1458 56.05 14.88 56.50 
1459 50.99 15.80 56.50 
1460 50.96 10.61 56.50 
1461 56.05 42.30 56.50 
1462 35.25 43.53 56.50 
1463 39.20 39.08 56.50 
1464 55.05  2.16 56.50 
1465 52.80  3.24 56.50 
1466 48.90  5.82 56.50 
1467 47.42  9.28 56.50 
1468 50.42 10.39 56.50 
1469 55.09 10.60 56.50 
1470 49.12 16.65 56.50 
1471 53.64  7.88 56.50 
1472 57.06 -455.13 56.50 
1473 53.24 -463.75 57.06 
1474 56.57 -422.92 57.06 
1475 56.65 -439.47 57.06 
1476 47.10 -445.55 57.06 
1477 52.86 -441.36 57.06 
1478 42.18 -468.05 57.06 
1479 51.98 -483.70 57.06 
1480 56.51 -477.71 57.06 
1481 51.96 -487.39 57.06 
1482 56.58 -475.01 57.06 
1483 52.00 -476.06 57.06 
1484 49.89 -481.42 57.06 
1485 51.58 -479.89 57.06 
1486 51.26 12.29 57.06 
1487 46.91 17.39 57.06 
1488 51.71 18.62 57.06 
1489 57.67 13.45 57.06 
1490 52.07 -478.33 57.67 
1491 57.03 13.88 57.67 
1492 48.01 13.94 57.67 
1493 46.61 11.09 57.67 
1494 51.98 13.21 57.67 
1495 51.04  5.23 57.67 
1496 42.21 -490.35 57.67 
1497 57.73 13.56 57.67 
1498 37.94 17.17 57.73 
1499 57.83 41.34 57.73 
1500 52.26 26.86 57.83 
1501 48.23 19.92 57.83 
1502 38.80 23.71 57.83 
1503 47.73 22.66 57.83 
1504 42.84 20.93 57.83 
1505 52.98 32.03 57.83 
1506 57.37 53.93 57.83 
1507 57.68 20.45 57.83 
1508 44.82 14.38 57.83 
1509 54.41 18.92 57.83 
1510 48.90 20.44 57.83 
1511 52.89 14.23 57.83 
1512 58.65 17.98 57.83 
1513 58.20 13.26 58.65 
1514 52.82 15.21 58.65 
1515 54.05 20.24 58.65 
1516 58.79 17.78 58.65 
1517 58.04 -481.33 58.79 
1518 59.47 -479.30 58.79 
1519 58.47 -468.44 59.47 
1520 52.88 -479.79 59.47 
1521 52.64 -479.38 59.47 
1522 57.09 -472.72 59.47 
1523 53.49 -489.03 59.47 
1524 46.57 -474.16 59.47 
1525 52.24 -468.46 59.47 
1526 58.02 -431.08 59.47 
1527 48.35 -429.28 59.47 
1528 53.01 -481.46 59.47 
1529 52.22 -481.58 59.47 
1530 52.50 10.70 59.47 
1531 51.56 -499.56 59.47 
1532 51.98  5.84 59.47 
1533 47.46  7.11 59.47 
1534 56.95  7.34 59.47 
1535 57.54 -460.64 59.47 
1536 47.53 -454.13 59.47 
1537 52.25 -478.71 59.47 
1538 57.15 -481.60 59.47 
1539 56.55 -488.65 59.47 
1540 52.92 -486.48 59.47 
1541 51.89 -436.61 59.47 
1542 42.02 -488.96 59.47 
1543 46.65 -2.05 59.47 
1544 41.76 -4.53 59.47 
1545 55.15  2.48 59.47 
1546 55.29  8.20 59.47 
1547 55.22  9.66 59.47 
1548 51.62  9.22 59.47 
1549 55.86  7.40 59.47 
1550 56.64  3.97 59.47 
1551 52.82  4.41 59.47 
1552 49.83  1.88 59.47 
1553 49.46 -0.60 59.47 
1554 55.38  3.83 59.47 
1555 48.67 23.45 59.47 
1556 39.15 19.90 59.47 
1557 51.69 11.83 59.47 
1558 49.09  5.44 59.47 
1559 38.22  5.85 59.47 
1560 55.41  8.02 59.47 
1561 55.48 -499.08 59.47 
1562 46.72 -494.98 59.47 
1563 56.19 -496.73 59.47 
1564 45.08 -0.14 59.47 
1565 50.26 -1.07 59.47 
1566 35.91 -497.43 59.47 
1567 51.62  7.65 59.47 
1568 42.02 14.37 59.47 
1569 50.47 14.26 59.47 
1570 50.18 13.20 59.47 
1571 50.61 14.51 59.47 
1572 50.62 12.71 59.47 
1573 56.33 11.91 59.47 
1574 54.99 10.40 59.47 
1575 57.76  6.50 59.47 
1576 42.87  6.23 59.47 
1577 42.76  7.62 59.47 
1578 51.77 13.36 59.47 
1579 58.03 -240.29 59.47 
1580 57.98 -482.26 59.47 
1581 52.12 -488.49 59.47 
1582 51.92 -485.96 59.47 
1583 52.03 14.23 59.47 
1584 57.27 -487.02 59.47 
1585 48.46 -484.44 59.47 
1586 58.45 -484.79 59.47 
1587 58.99 21.74 59.47 
1588 58.44 23.19 59.47 
1589 49.71 17.80 59.47 
1590 59.78 18.98 59.47 
1591 54.14 16.67 59.78 
1592 59.39 21.23 59.78 
1593 53.81 17.52 59.78 
1594 52.11 22.47 59.78 
1595 59.10 24.67 59.78 
1596 54.08 20.82 59.78 
1597 53.84 19.79 59.78 
1598 53.06 19.41 59.78 
1599 57.18 13.88 59.78 
1600 53.61 28.84 59.78 
1601 48.99 13.76 59.78 
1602 48.74 21.42 59.78 
1603 59.12 20.62 59.78 
1604 57.89 18.30 59.78 
1605 53.43 19.11 59.78 
1606 41.91 49.40 59.78 
1607 43.67 48.58 59.78 
1608 57.17 48.94 59.78 
1609 47.57 52.20 59.78 
1610 53.01 50.75 59.78 
1611 58.67 50.59 59.78 
1612 58.48 52.04 59.78 
1613 55.94 50.91 59.78 
1614 53.75 53.85 59.78 
1615 46.67 53.67 59.78 
1616 56.57 54.34 59.78 
1617 56.91 52.34 59.78 
1618 58.82 48.70 59.78 
1619 48.34 49.59 59.78 
1620 49.60 51.34 59.78 
1621 57.83 51.71 59.78 
1622 52.56 48.30 59.78 
1623 56.54 49.29 59.78 
1624 52.84 53.33 59.78 
1625 43.25 53.41 59.78 
1626 58.36 51.69 59.78 
1627 55.95 53.21 59.78 
1628 56.37 48.74 59.78 
1629 59.00 47.53 59.78 
1630 57.81 28.74 59.78 
1631 53.93 21.13 59.78 
1632 58.34 19.62 59.78 
1633 52.72 17.83 59.78 
1634 58.36 20.33 59.78 
1635 52.95 20.05 59.78 
1636 49.03 18.93 59.78 
1637 53.04 18.39 59.78 
1638 59.08 15.35 59.78 
1639 59.11 17.83 59.78 
1640 54.58 16.34 59.78 
1641 57.85 16.75 59.78 
1642 42.94 18.46 59.78 
1643 48.75 26.30 59.78 
1644 59.39 22.84 59.78 
1645 49.49 22.59 59.78 
1646 60.27 22.04 59.78 
1647 54.91 27.73 60.27 
1648 57.80 25.26 60.27 
1649 59.09 17.24 60.27 
1650 58.58 25.32 60.27 
1651 40.32 27.70 60.27 
1652 55.87 27.05 60.27 
1653 54.52 29.18 60.27 
1654 49.57 28.12 60.27 
1655 56.01 31.99 60.27 
1656 54.43 26.08 60.27 
1657 49.87 27.90 60.27 
1658 60.18 23.22 60.27 
1659 55.70 25.98 60.27 
1660 51.18 -422.09 60.27 
1661 60.81 -417.07 60.27 
1662 55.57 -419.30 60.81 
1663 55.42 -419.88 60.81 
1664 54.90 -408.08 60.81 
1665 59.41 -410.82 60.81 
1666 55.92 -419.20 60.81 
1667 49.57 -405.37 60.81 
1668 54.42 -416.14 60.81 
1669 59.53 -421.10 60.81 
1670 54.56 -421.95 60.81 
1671 58.96 -405.96 60.81 
1672 55.35 -406.11 60.81 
1673 53.79 -425.42 60.81 
1674 58.75 46.10 60.81 
1675 59.74 -411.87 60.81 
1676 36.17 -407.65 60.81 
1677 54.44 -421.93 60.81 
1678 55.04 48.83 60.81 
1679 58.61 52.24 60.81 
1680 44.99 53.77 60.81 
1681 44.98 54.25 60.81 
1682 53.88 52.87 60.81 
1683 54.42 51.91 60.81 
1684 44.54 53.41 60.81 
1685 48.34 56.33 60.81 
1686 58.81 53.76 60.81 
1687 52.32 26.89 60.81 
1688 57.55 -483.41 60.81 
1689 45.21 25.40 60.81 
1690 59.44 28.20 60.81 
1691 54.07 54.33 60.81 
1692 51.67 41.59 60.81 
1693 46.79 52.30 60.81 
1694 57.52 24.63 60.81 
1695 46.31 23.64 60.81 
1696 57.90 22.35 60.81 
1697 58.37 24.25 60.81 
1698 49.30 32.18 60.81 
1699 43.52 50.51 60.81 
1700 58.33 49.74 60.81 
1701 59.34 50.74 60.81 
1702 44.91 27.57 60.81 
1703 48.78 48.77 60.81 
1704 57.27 50.48 60.81 
1705 58.37 13.92 60.81 
1706 57.74 -475.98 60.81 
1707 43.67 -472.97 60.81 
1708 48.77 -490.21 60.81 
1709 49.00  6.29 60.81 
1710 57.91  9.66 60.81 
1711 51.96 11.21 60.81 
1712 53.32 42.16 60.81 
1713 50.78 26.26 60.81 
1714 51.56  9.14 60.81 
1715 44.45 11.26 60.81 
1716 53.11 11.21 60.81 
1717 46.64 11.86 60.81 
1718 51.43 14.04 60.81 
1719 48.76 11.26 60.81 
1720 58.34 -432.70 60.81 
1721 43.32 -423.61 60.81 
1722 58.23 -421.32 60.81 
1723 53.87 -427.15 60.81 
1724 39.27 -434.65 60.81 
1725 52.10 -452.86 60.81 
1726 47.65 -496.51 60.81 
1727 42.27 14.93 60.81 
1728 52.80 12.13 60.81 
1729 57.69 17.90 60.81 
1730 51.80 19.17 60.81 
1731 51.97 15.67 60.81 
1732 56.97 17.56 60.81 
1733 52.68 10.59 60.81 
1734 47.69 13.94 60.81 
1735 57.72 16.71 60.81 
1736 52.13 17.88 60.81 
1737 47.94 42.38 60.81 
1738 56.62 15.91 60.81 
1739 57.42 15.97 60.81 
1740 56.26 44.43 60.81 
1741 58.41 47.74 60.81 
1742 50.35 47.61 60.81 
1743 55.01 47.27 60.81 
1744 54.66 45.84 60.81 
1745 58.72 43.60 60.81 
1746 58.05 47.59 60.81 
1747 54.55 48.08 60.81 
1748 58.88 49.66 60.81 
1749 57.87 51.77 60.81 
1750 55.36 52.62 60.81 
1751 60.30 49.90 60.81 
1752 54.95 51.96 60.81 
1753 59.14 49.68 60.81 
1754 58.37 51.07 60.81 
1755 54.32 49.77 60.81 
1756 59.68 47.90 60.81 
1757 54.38 47.73 60.81 
1758 59.83 45.26 60.81 
1759 49.54 44.29 60.81 
1760 58.79 47.10 60.81 
1761 58.51 47.58 60.81 
1762 59.39 50.10 60.81 
1763 54.46 51.31 60.81 
1764 59.67 53.13 60.81 
1765 49.56 55.88 60.81 
1766 45.60 56.80 60.81 
1767 60.40 55.84 60.81 
1768 54.62 56.41 60.81 
1769 44.11 56.12 60.81 
1770 58.95 57.24 60.81 
1771 59.17 57.65 60.81 
1772 47.94 56.32 60.81 
1773 54.15 56.72 60.81 
1774 54.62 57.20 60.81 
1775 58.67 57.45 60.81 
1776 54.19 58.16 60.81 
1777 54.20 56.70 60.81 
1778 44.16 58.51 60.81 
1779 59.72 57.19 60.81 
1780 45.86 54.98 60.81 
1781 58.99 55.93 60.81 
1782 49.57 57.40 60.81 
1783 44.95 57.38 60.81 
1784 49.42 57.70 60.81 
1785 53.86 57.87 60.81 
1786 53.46 57.24 60.81 
1787 53.47 60.03 60.81 
1788 49.56 60.31 60.81 
1789 48.50 58.29 60.81 
1790 51.39 57.11 60.81 
1791 51.98 55.16 60.81 
1792 57.96 53.53 60.81 
1793 56.32 52.91 60.81 
1794 53.58 54.85 60.81 
1795 58.04 55.12 60.81 
1796 58.33 59.61 60.81 
1797 58.64 57.85 60.81 
1798 53.85 56.80 60.81 
1799 59.50 53.50 60.81 
1800 54.14 52.81 60.81 
1801 54.02 51.03 60.81 
1802 58.68 50.76 60.81 
1803 54.20 53.86 60.81 
1804 59.44 50.60 60.81 
1805 58.86 53.22 60.81 
1806 54.40 53.68 60.81 
1807 49.08 53.59 60.81 
1808 54.86 53.61 60.81 
1809 44.70 56.58 60.81 
1810 53.34 53.35 60.81 
1811 58.86 49.30 60.81 
1812 53.48 50.32 60.81 
1813 58.92 50.22 60.81 
1814 44.77 49.57 60.81 
1815 54.55 47.37 60.81 
1816 58.90 45.55 60.81 
1817 53.44 45.58 60.81 
1818 52.81 44.62 60.81 
1819 58.71 42.67 60.81 
1820 59.02 44.71 60.81 
1821 48.76 45.42 60.81 
1822 52.03 48.81 60.81 
1823 48.85 49.81 60.81 
1824 53.77 49.17 60.81 
1825 56.39 46.42 60.81 
1826 55.88 38.00 60.81 
1827 56.77 35.37 60.81 
1828 55.91 32.18 60.81 
1829 47.94 41.03 60.81 
1830 53.59 37.27 60.81 
1831 52.50 44.62 60.81 
1832 52.02 48.41 60.81 
1833 45.44 48.57 60.81 
1834 49.08 50.20 60.81 
1835 54.34 46.68 60.81 
1836 57.12 46.31 60.81 
1837 56.59 41.04 60.81 
1838 57.10 36.78 60.81 
1839 58.09 40.88 60.81 
1840 54.46 44.54 60.81 
1841 48.59 45.70 60.81 
1842 53.97 46.26 60.81 
1843 48.19 45.83 60.81 
1844 52.56 46.71 60.81 
1845 57.85 45.60 60.81 
1846 57.83 39.83 60.81 
1847 56.94 40.91 60.81 
1848 52.01 41.69 60.81 
1849 51.71 38.14 60.81 
1850 56.54 37.56 60.81 
1851 52.10 47.13 60.81 
1852 57.53 43.54 60.81 
1853 44.48 46.10 60.81 
1854 58.04 42.82 60.81 
1855 58.50 37.46 60.81 
1856 58.76 29.65 60.81 
1857 51.61 30.39 60.81 
1858 52.08 31.77 60.81 
1859 52.52 32.43 60.81 
1860 57.36 31.72 60.81 
1861 52.46 40.58 60.81 
1862 53.40 41.54 60.81 
1863 56.68 38.56 60.81 
1864 52.62 34.88 60.81 
1865 52.93 31.83 60.81 
1866 57.70 34.33 60.81 
1867 47.89 36.31 60.81 
1868 43.02 35.05 60.81 
1869 44.69 35.66 60.81 
1870 55.51 34.23 60.81 
1871 49.31 33.11 60.81 
1872 54.30 34.20 60.81 
1873 55.15 27.59 60.81 
1874 56.30 21.52 60.81 
1875 56.47 27.06 60.81 
1876 47.03 33.55 60.81 
1877 52.92 32.10 60.81 
1878 56.89 33.52 60.81 
1879 47.50 32.19 60.81 
1880 51.85 28.81 60.81 
1881 57.66 30.57 60.81 
1882 51.67 30.84 60.81 
1883 42.63 35.73 60.81 
1884 49.00 32.97 60.81 
1885 51.31 33.76 60.81 
1886 58.05 36.16 60.81 
1887 47.63 36.25 60.81 
1888 56.52 32.39 60.81 
1889 57.94 36.57 60.81 
1890 57.68 38.09 60.81 
1891 57.48 30.57 60.81 
1892 57.03 34.29 60.81 
1893 58.59 36.77 60.81 
1894 53.48 36.43 60.81 
1895 49.27 37.63 60.81 
1896 39.21 34.11 60.81 
1897 52.72 35.36 60.81 
1898 51.72 33.28 60.81 
1899 53.84 32.56 60.81 
1900 57.02 37.80 60.81 
1901 52.16 35.82 60.81 
1902 52.44 36.00 60.81 
1903 53.12 33.39 60.81 
1904 58.20 30.78 60.81 
1905 57.42 32.40 60.81 
1906 57.49 33.58 60.81 
1907 52.37 33.63 60.81 
1908 57.31 44.31 60.81 
1909 58.13 41.39 60.81 
1910 49.13 42.04 60.81 
1911 57.76 43.35 60.81 
1912 58.58 41.98 60.81 
1913 57.87 41.35 60.81 
1914 58.46 35.49 60.81 
1915 57.43 34.91 60.81 
1916 57.55 36.05 60.81 
1917 48.76 37.43 60.81 
1918 58.71 42.16 60.81 
1919 49.85 44.95 60.81 
1920 59.78 42.42 60.81 
1921 58.73 43.58 60.81 
1922 54.67 46.52 60.81 
1923 53.41 48.71 60.81 
1924 52.36 46.84 60.81 
1925 53.30 47.73 60.81 
1926 58.83 49.01 60.81 
1927 58.49 48.38 60.81 
1928 59.49 48.40 60.81 
1929 55.36 49.33 60.81 
1930 59.99 49.81 60.81 
1931 60.74 52.69 60.81 
1932 61.35 52.44 60.81 
1933 56.16 51.50 61.35 
1934 55.74 49.16 61.35 
1935 50.50 44.60 61.35 
1936 45.78 47.51 61.35 
1937 59.82 44.35 61.35 
1938 58.93 47.01 61.35 
1939 54.88 45.07 61.35 
1940 53.91 45.23 61.35 
1941 45.88 42.13 61.35 
1942 44.53 42.43 61.35 
1943 48.67 42.87 61.35 
1944 59.03 43.38 61.35 
1945 59.42 44.47 61.35 
1946 53.70 41.86 61.35 
1947 53.51 44.33 61.35 
1948 54.14 48.77 61.35 
1949 59.27 47.87 61.35 
1950 58.84 55.28 61.35 
1951 59.09 53.91 61.35 
1952 60.29 49.23 61.35 
1953 60.55 45.19 61.35 
1954 55.97 22.93 61.35 
1955 56.26 46.09 61.35 
1956 51.13 49.48 61.35 
1957 61.79 51.83 61.35 
1958 51.48 48.51 61.79 
1959 47.33 52.14 61.79 
1960 56.07 50.75 61.79 
1961 56.21 49.49 61.79 
1962 56.27 46.14 61.79 
1963 60.13 48.59 61.79 
1964 56.82 23.47 61.79 
1965 60.79 18.04 61.79 
1966 60.01 17.46 61.79 
1967 61.20 -489.57 61.79 
1968 60.85 -430.06 61.79 
1969 52.11 -438.03 61.79 
1970 50.42 17.21 61.79 
1971 45.65 17.05 61.79 
1972 45.74  7.43 61.79 
1973 51.14 17.77 61.79 
1974 51.57 42.84 61.79 
1975 60.68 41.28 61.79 
1976 60.56 44.78 61.79 
1977 60.35 12.07 61.79 
1978 56.46 18.60 61.79 
1979 57.10 19.23 61.79 
1980 47.59 50.99 61.79 
1981 50.19 49.85 61.79 
1982 60.52 50.31 61.79 
1983 56.26 51.66 61.79 
1984 57.01 48.25 61.79 
1985 56.66 47.86 61.79 
1986 56.33 46.17 61.79 
1987 61.80 46.60 61.79 
1988 61.54 41.97 61.80 
1989 56.63 40.73 61.80 
1990 51.04 42.01 61.80 
1991 50.94 40.84 61.80 
1992 59.80 -430.17 61.80 
1993 55.09 22.66 61.80 
1994 58.06 15.24 61.80 
1995 35.40 45.81 61.80 
1996 55.64 49.52 61.80 
1997 61.14 48.45 61.80 
1998 49.95 45.23 61.80 
1999 59.25 46.12 61.80 
2000 60.72 44.48 61.80 
2001 50.62 46.59 61.80 
2002 52.37 19.42 61.80 
2003 46.53 12.62 61.80 
2004 56.00 14.89 61.80 
2005 60.38 41.51 61.80 
2006 59.48 40.63 61.80 
2007 58.36 13.78 61.80 
2008 59.64 13.52 61.80 
2009 59.44 11.83 61.80 
2010 54.31  9.21 61.80 
2011 59.16  8.35 61.80 
2012 59.23 -440.27 61.80 
2013 59.15 -431.70 61.80 
2014 55.08 -441.07 61.80 
2015 59.11 -426.80 61.80 
2016 60.19 -418.32 61.80 
2017 38.03 -420.22 61.80 
2018 56.50 14.91 61.80 
2019 56.56 45.26 61.80 
2020 56.38 46.17 61.80 
2021 59.62 43.79 61.80 
2022 59.71 46.28 61.80 
2023 61.64 44.82 61.80 
2024 57.00 16.18 61.80 
2025 60.81 -433.97 61.80 
2026 60.87  7.56 61.80 
2027 59.32 -246.70 61.80 
2028 59.10 37.58 61.80 
2029 60.70 43.76 61.80 
2030 57.25 42.01 61.80 
2031 52.81 48.08 61.80 
2032 61.49 48.69 61.80 
2033 61.36 47.27 61.80 
2034 62.37 48.30 61.80 
2035 47.23 45.47 62.37 
2036 56.30 46.39 62.37 
2037 61.25 46.14 62.37 
2038 60.96 49.44 62.37 
2039 52.44 50.02 62.37 
2040 51.83 51.75 62.37 
2041 61.30 52.54 62.37 
2042 60.35 53.20 62.37 
2043 62.01 52.75 62.37 
2044 61.73 54.66 62.37 
2045 62.21 56.38 62.37 
2046 52.88 57.48 62.37 
2047 53.49 57.79 62.37 
2048 62.11 56.71 62.37 
2049 58.52 59.06 62.37 
2050 63.63 56.63 62.37 
2051 63.01 56.90 63.63 
2052 63.70 57.70 63.63 
2053 53.98 56.87 63.70 
2054 63.80 56.78 63.70 
2055 63.41 56.43 63.80 
2056 53.91 60.15 63.80 
2057 49.53 60.38 63.80 
2058 57.17 59.83 63.80 
2059 57.79 59.73 63.80 
2060 62.62 58.70 63.80 
2061 59.91 57.99 63.80 
2062 64.83 58.25 63.80 
2063 63.00 57.72 64.83 
2064 63.86 57.60 64.83 
2065 63.10 55.47 64.83 
2066 63.17 56.04 64.83 
2067 54.47 55.86 64.83 
2068 59.25 52.55 64.83 
2069 58.68 53.75 64.83 
2070 58.81 49.18 64.83 
2071 59.06 49.81 64.83 
2072 58.70 50.46 64.83 
2073 57.16 51.40 64.83 
2074 57.39 51.71 64.83 
2075 62.86 50.25 64.83 
2076 58.26 49.60 64.83 
2077 47.56 50.86 64.83 
2078 62.68 50.30 64.83 
2079 62.86 47.63 64.83 
2080 62.90 19.59 64.83 
2081 58.87 18.25 64.83 
2082 58.64 20.83 64.83 
2083 63.83 20.07 64.83 
2084 63.63 -425.56 64.83 
2085 59.61 -416.11 64.83 
2086 54.41 -419.62 64.83 
2087 55.31 50.40 64.83 
2088 58.55 21.33 64.83 
2089 64.01 49.29 64.83 
2090 59.01 49.71 64.83 
2091 63.24 48.52 64.83 
2092 63.75 13.16 64.83 
2093 59.11 -423.02 64.83 
2094 64.07 -414.76 64.83 
2095 54.79 18.07 64.83 
2096 59.80 26.40 64.83 
2097 59.12 41.79 64.83 
2098 63.33 18.61 64.83 
2099 64.23 -476.64 64.83 
2100 54.65 18.63 64.83 
2101 63.88 16.90 64.83 
2102 62.54 15.36 64.83 
2103 63.87 18.09 64.83 
2104 63.90 45.70 64.83 
2105 58.97 47.49 64.83 
2106 64.42 49.44 64.83 
2107 64.71 53.58 64.83 
2108 64.45 52.39 64.83 
2109 60.67 52.43 64.83 
2110 60.38 53.09 64.83 
2111 64.30 52.81 64.83 
2112 60.15 55.41 64.83 
2113 64.13 55.48 64.83 
2114 59.48 55.32 64.83 
2115 63.82 55.32 64.83 
2116 63.46 56.16 64.83 
2117 62.16 -188.57 64.83 
2118 64.01 52.80 64.83 
2119 64.51 52.00 64.83 
2120 63.91 54.70 64.83 
2121 63.59 54.58 64.83 
2122 64.02 54.14 64.83 
2123 64.25 52.41 64.83 
2124 57.94 52.39 64.83 
2125 59.54 53.69 64.83 
2126 62.30 51.63 64.83 
2127 63.26 50.70 64.83 
2128 59.62 48.97 64.83 
2129 63.18 48.71 64.83 
2130 58.56 49.60 64.83 
2131 62.98 51.42 64.83 
2132 63.31 53.41 64.83 
2133 58.64 53.80 64.83 
2134 62.55 58.57 64.83 
2135 63.97 60.48 64.83 
2136 58.77 63.55 64.83 
2137 59.37 63.65 64.83 
2138 62.97 65.63 64.83 
2139 63.81 63.27 64.83 
2140 59.08 65.47 64.83 
2141 64.27 63.22 64.83 
2142 63.63 61.23 64.83 
2143 63.61 63.20 64.83 
2144 59.82 64.54 64.83 
2145 64.49 65.44 64.83 
2146 64.03 64.74 64.83 
2147 63.99 64.39 64.83 
2148 63.58 66.25 64.83 
2149 55.41 63.43 64.83 
2150 59.75 62.70 64.83 
2151 59.78 65.02 64.83 
2152 54.50 65.33 64.83 
2153 55.28 65.05 64.83 
2154 64.36 65.14 64.83 
2155 54.84 65.80 64.83 
2156 60.15 67.07 64.83 
2157 54.08 67.16 64.83 
2158 60.09 66.14 64.83 
2159 64.86 64.96 64.83 
2160 59.99 64.89 64.86 
2161 64.95 63.77 64.86 
2162 54.18 62.91 64.95 
2163 50.02 64.71 64.95 
2164 59.42 64.40 64.95 
2165 64.21 64.47 64.95 
2166 63.99 64.54 64.95 
2167 55.24 64.93 64.95 
2168 59.01 63.49 64.95 
2169 64.05 62.64 64.95 
2170 64.63 60.61 64.95 
2171 54.13 61.77 64.95 
2172 64.74 60.94 64.95 
2173 64.26 60.60 64.95 
2174 64.01 59.40 64.95 
2175 64.14 62.07 64.95 
2176 55.19 61.93 64.95 
2177 65.21 60.99 64.95 
2178 59.98 -411.83 65.21 
2179 59.97 -402.92 65.21 
2180 51.50 62.25 65.21 
2181 61.11 60.78 65.21 
2182 64.99 61.20 65.21 
2183 64.63 63.39 65.21 
2184 64.43 69.24 65.21 
2185 59.86 68.73 65.21 
2186 50.21 62.80 65.21 
2187 56.31 63.59 65.21 
2188 56.03 63.00 65.21 
2189 65.00 62.11 65.21 
2190 65.41 62.44 65.21 
2191 64.78 60.57 65.41 
2192 63.95 61.18 65.41 
2193 63.86 60.70 65.41 
2194 65.40 60.07 65.41 
2195 65.29 59.32 65.41 
2196 64.52 59.56 65.41 
2197 65.48 59.84 65.41 
2198 50.62 59.71 65.48 
2199 65.39 57.95 65.48 
2200 60.54 58.88 65.48 
2201 50.81 58.45 65.48 
2202 64.28 59.79 65.48 
2203 60.01 59.88 65.48 
2204 55.48 58.97 65.48 
2205 64.61 59.45 65.48 
2206 64.78 60.51 65.48 
2207 55.76 59.21 65.48 
2208 60.03 58.70 65.48 
2209 64.57 59.13 65.48 
2210 63.88 60.73 65.48 
2211 37.09 60.56 65.48 
2212 65.66 59.85 65.48 
2213 64.53 61.07 65.66 
2214 65.20 60.86 65.66 
2215 55.31 61.98 65.66 
2216 50.43 62.02 65.66 
2217 64.49 61.84 65.66 
2218 59.24 63.47 65.66 
2219 64.13 63.12 65.66 
2220 65.17 60.97 65.66 
2221 59.54 61.23 65.66 
2222 64.74 60.24 65.66 
2223 64.88 62.64 65.66 
2224 60.06 62.19 65.66 
2225 58.84 62.65 65.66 
2226 59.63 64.26 65.66 
2227 59.63 63.01 65.66 
2228 57.97 61.00 65.66 
2229 54.43 61.03 65.66 
2230 62.73 61.54 65.66 
2231 58.39 62.34 65.66 
2232 64.03 63.68 65.66 
2233 58.58 63.43 65.66 
2234 63.56 63.22 65.66 
2235 63.82 64.29 65.66 
2236 54.98 63.15 65.66 
2237 59.83 63.55 65.66 
2238 64.38 62.85 65.66 
2239 60.02 63.33 65.66 
2240 64.75 62.98 65.66 
2241 60.14 61.26 65.66 
2242 64.77 61.04 65.66 
2243 64.27 62.01 65.66 
2244 63.59 64.50 65.66 
2245 65.32 63.39 65.66 
2246 65.30 63.76 65.66 
2247 55.99 63.10 65.66 
2248 65.05 64.18 65.66 
2249 59.83 65.57 65.66 
2250 44.48 65.37 65.66 
2251 55.81 65.16 65.66 
2252 54.68 66.15 65.66 
2253 60.65 66.27 65.66 
2254 65.94 66.67 65.66 
2255 60.43 67.25 65.94 
2256 58.18 67.14 65.94 
2257 59.70 67.04 65.94 
2258 64.06 66.46 65.94 
2259 62.32 66.45 65.94 
2260 59.09 65.72 65.94 
2261 64.58 64.65 65.94 
2262 60.14 64.05 65.94 
2263 48.36 63.63 65.94 
2264 65.00 64.38 65.94 
2265 54.51 62.16 65.94 
2266 63.91 63.39 65.94 
2267 63.55 62.89 65.94 
2268 52.85 62.92 65.94 
2269 54.35 62.70 65.94 
2270 59.99 64.29 65.94 
2271 59.91 64.41 65.94 
2272 55.12 64.89 65.94 
2273 59.67 64.73 65.94 
2274 54.37 64.33 65.94 
2275 54.37 64.01 65.94 
2276 64.08 64.71 65.94 
2277 63.76 66.02 65.94 
2278 65.36 65.88 65.94 
2279 54.97 64.41 65.94 
2280 60.39 65.74 65.94 
2281 64.87 65.89 65.94 
2282 59.93 66.24 65.94 
2283 65.65 66.21 65.94 
2284 64.39 66.23 65.94 
2285 65.99 66.21 65.94 
2286 65.30 66.79 65.99 
2287 56.74 65.26 65.99 
2288 65.80 64.87 65.99 
2289 59.34 65.84 65.99 
2290 64.63 65.12 65.99 
2291 60.96 64.15 65.99 
2292 63.94 65.08 65.99 
2293 66.56 64.07 65.99 
2294 58.23 63.89 66.56 
2295 52.12 65.16 66.56 
2296 56.34 66.16 66.56 
2297 50.74 65.70 66.56 
2298 56.97 66.29 66.56 
2299 46.03 66.70 66.56 
2300 56.18 66.74 66.56 
2301 39.97 66.45 66.56 
2302 54.62 63.88 66.56 
2303 63.98 62.90 66.56 
2304 47.48 64.54 66.56 
2305 65.09 64.47 66.56 
2306 53.10 63.12 66.56 
2307 59.54 62.87 66.56 
2308 54.77 63.68 66.56 
2309 60.75 62.91 66.56 
2310 63.75 60.98 66.56 
2311 53.99 61.20 66.56 
2312 50.40 62.96 66.56 
2313 65.47 63.70 66.56 
2314 58.58 63.89 66.56 
2315 64.33 64.02 66.56 
2316 54.54 63.64 66.56 
2317 65.43 63.36 66.56 
2318 54.56 63.16 66.56 
2319 63.51 63.99 66.56 
2320 59.00 62.32 66.56 
2321 65.08 62.68 66.56 
2322 65.06 64.03 66.56 
2323 66.23 64.07 66.56 
2324 59.10 64.30 66.56 
2325 60.85 64.71 66.56 
2326 63.77 63.98 66.56 
2327 55.02 63.76 66.56 
2328 59.48 63.57 66.56 
2329 65.13 62.96 66.56 
2330 59.49 62.86 66.56 
2331 65.00 61.92 66.56 
2332 59.54 37.18 66.56 
2333 63.49 36.62 66.56 
2334 53.93 61.37 66.56 
2335 60.21 64.17 66.56 
2336 57.01 63.94 66.56 
2337 58.39 64.08 66.56 
2338 64.07 63.97 66.56 
2339 59.25 63.76 66.56 
2340 63.53 63.13 66.56 
2341 57.50 63.40 66.56 
2342 63.97 64.07 66.56 
2343 63.33 63.62 66.56 
2344 64.66 63.66 66.56 
2345 65.78 62.66 66.56 
2346 65.29 62.79 66.56 
2347 55.77 63.12 66.56 
2348 61.12 61.30 66.56 
2349 64.83 60.40 66.56 
2350 60.25 59.16 66.56 
2351 65.50 59.29 66.56 
2352 56.56 60.38 66.56 
2353 55.97 61.72 66.56 
2354 59.91 60.49 66.56 
2355 65.63 60.66 66.56 
2356 60.78 62.23 66.56 
2357 55.78 61.22 66.56 
2358 65.20 60.30 66.56 
2359 59.77 61.07 66.56 
2360 65.05 61.25 66.56 
2361 65.20 59.05 66.56 
2362 61.00 59.24 66.56 
2363 46.60 56.74 66.56 
2364 45.71 57.69 66.56 
2365 65.29 58.01 66.56 
2366 64.08 59.15 66.56 
2367 64.62 60.60 66.56 
2368 64.93 60.19 66.56 
2369 64.77 61.26 66.56 
2370 59.56 60.24 66.56 
2371 60.46 62.35 66.56 
2372 59.90 62.37 66.56 
2373 54.86 61.37 66.56 
2374 64.48 61.57 66.56 
2375 59.85 59.94 66.56 
2376 59.57 60.34 66.56 
2377 65.31 60.46 66.56 
2378 55.22 60.83 66.56 
2379 58.97 60.61 66.56 
2380 59.55 61.50 66.56 
2381 53.71 59.59 66.56 
2382 59.33 59.32 66.56 
2383 60.30 59.75 66.56 
2384 60.45 62.21 66.56 
2385 60.32 59.08 66.56 
2386 60.46 61.62 66.56 
2387 65.49 60.59 66.56 
2388 54.43 61.58 66.56 
2389 64.37 62.47 66.56 
2390 57.85 62.57 66.56 
2391 59.69 62.05 66.56 
2392 50.48 62.95 66.56 
2393 59.91 63.30 66.56 
2394 65.21 62.54 66.56 
2395 66.13 62.65 66.56 
2396 60.36 61.50 66.56 
2397 63.80 60.46 66.56 
2398 65.52 60.49 66.56 
2399 60.36 62.83 66.56 
2400 54.47 62.51 66.56 
2401 64.14 61.86 66.56 
2402 64.98 62.66 66.56 
2403 54.81 60.59 66.56 
2404 64.75 60.94 66.56 
2405 64.79 60.18 66.56 
2406 58.22 60.08 66.56 
2407 50.29 58.52 66.56 
2408 49.32 59.85 66.56 
2409 64.28 60.67 66.56 
2410 55.47 57.69 66.56 
2411 59.73 58.16 66.56 
2412 58.84 59.67 66.56 
2413 54.55 60.85 66.56 
2414 64.58 60.74 66.56 
2415 58.85 60.20 66.56 
2416 55.73 56.62 66.56 
2417 60.70 30.44 66.56 
2418 57.33 57.57 66.56 
2419 64.48 59.91 66.56 
2420 54.05 60.57 66.56 
2421 64.83 60.55 66.56 
2422 64.37 60.87 66.56 
2423 60.71 60.34 66.56 
2424 60.41 59.38 66.56 
2425 60.49 59.47 66.56 
2426 64.67 58.53 66.56 
2427 59.97 58.50 66.56 
2428 66.32 59.73 66.56 
2429 61.34 60.34 66.56 
2430 57.51 58.11 66.56 
2431 56.15 60.33 66.56 
2432 65.63 60.08 66.56 
2433 65.61 59.75 66.56 
2434 61.00 59.14 66.56 
2435 65.41 58.69 66.56 
2436 65.74 60.09 66.56 
2437 50.80 61.39 66.56 
2438 53.04 62.33 66.56 
2439 55.89 61.23 66.56 
2440 62.49 63.06 66.56 
2441 54.33 62.10 66.56 
2442 55.90 62.67 66.56 
2443 65.75 64.27 66.56 
2444 50.75 63.44 66.56 
2445 62.57 65.62 66.56 
2446 64.23 65.44 66.56 
2447 51.06 65.64 66.56 
2448 61.52 66.96 66.56 
2449 61.84 67.90 66.56 
2450 65.94 67.81 66.56 
2451 61.67 68.91 66.56 
2452 56.81 69.37 66.56 
2453 65.63 68.07 66.56 
2454 59.54 68.35 66.56 
2455 65.08 68.49 66.56 
2456 65.49 68.85 66.56 
2457 54.33 68.44 66.56 
2458 65.17 67.22 66.56 
2459 65.92 66.92 66.56 
2460 61.20 67.13 66.56 
2461 65.18 67.28 66.56 
2462 66.54 66.04 66.56 
2463 61.97 65.89 66.56 
2464 58.39 67.19 66.56 
2465 61.84 67.87 66.56 
2466 66.36 69.25 66.56 
2467 61.68 68.66 66.56 
2468 68.17 67.57 66.56 
2469 67.38 65.90 68.17 
2470 62.75 67.48 68.17 
2471 65.46 69.29 68.17 
2472 57.34 68.07 68.17 
2473 66.80 66.76 68.17 
2474 61.70 68.22 68.17 
2475 66.25 68.58 68.17 
2476 62.95 67.68 68.17 
2477 67.03 66.64 68.17 
2478 62.85 66.38 68.17 
2479 53.17 67.32 68.17 
2480 62.43 68.89 68.17 
2481 57.08 70.18 68.17 
2482 65.57 70.86 68.17 
2483 52.20 71.49 68.17 
2484 61.25 70.72 68.17 
2485 61.58 69.05 68.17 
2486 66.49 70.79 68.17 
2487 60.35 68.89 68.17 
2488 65.70 69.11 68.17 
2489 60.58 68.94 68.17 
2490 60.87 68.82 68.17 
2491 51.19 69.47 68.17 
2492 65.06 69.29 68.17 
2493 49.84 69.77 68.17 
2494 63.89 69.15 68.17 
2495 61.05 69.98 68.17 
2496 59.77 69.68 68.17 
2497 60.86 68.95 68.17 
2498 54.46 69.01 68.17 
2499 60.45 68.26 68.17 
2500 65.31 67.92 68.17 
2501 63.84 65.32 68.17 
2502 62.17 65.61 68.17 
2503 60.84 66.93 68.17 
2504 44.84 67.15 68.17 
2505 58.71 66.93 68.17 
2506 58.74 67.01 68.17 
2507 53.58 68.49 68.17 
2508 50.28 66.67 68.17 
2509 58.96 65.06 68.17 
2510 64.18 64.76 68.17 
2511 49.01 66.23 68.17 
2512 53.50 66.49 68.17 
2513 49.61 66.68 68.17 
2514 58.54 66.65 68.17 
2515 63.06 67.81 68.17 
2516 64.25 66.03 68.17 
2517 54.37 63.92 68.17 
2518 65.28 65.05 68.17 
2519 60.56 66.15 68.17 
2520 65.83 64.38 68.17 
2521 65.54 63.70 68.17 
2522 66.32 62.02 68.17 
2523 61.42 64.14 68.17 
2524 60.63 63.39 68.17 
2525 60.76 63.22 68.17 
2526 60.10 66.21 68.17 
2527 59.64 64.12 68.17 
2528 59.97 62.39 68.17 
2529 64.74 64.25 68.17 
2530 54.68 63.77 68.17 
2531 63.14 63.22 68.17 
2532 55.24 64.83 68.17 
2533 58.69 65.24 68.17 
2534 58.98 66.14 68.17 
2535 60.04 63.82 68.17 
2536 61.05 63.64 68.17 
2537 63.93 64.22 68.17 
2538 63.85 62.87 68.17 
2539 65.81 63.16 68.17 
2540 66.41 63.33 68.17 
2541 61.48 62.44 68.17 
2542 52.56 61.90 68.17 
2543 62.28 62.37 68.17 
2544 51.12 63.06 68.17 
2545 56.60 64.24 68.17 
2546 60.46 64.58 68.17 
2547 60.50 63.12 68.17 
2548 66.30 61.26 68.17 
2549 66.86 -159.80 68.17 
2550 48.65 63.18 68.17 
2551 57.16 59.07 68.17 
2552 66.07 60.58 68.17 
2553 61.85 59.75 68.17 
2554 65.47 58.39 68.17 
2555 61.70 58.87 68.17 
2556 51.45 59.40 68.17 
2557 50.74 58.79 68.17 
2558 62.19 59.36 68.17 
2559 65.38 56.59 68.17 
2560 60.32 57.22 68.17 
2561 64.90 58.21 68.17 
2562 64.88 59.10 68.17 
2563 61.29 59.05 68.17 
2564 61.13 59.61 68.17 
2565 66.26 60.88 68.17 
2566 66.39 59.18 68.17 
2567 61.89 59.74 68.17 
2568 65.59 58.45 68.17 
2569 60.85 59.46 68.17 
2570 65.05 58.33 68.17 
2571 55.86 60.41 68.17 
2572 60.23 60.18 68.17 
2573 64.96 59.49 68.17 
2574 65.18 58.64 68.17 
2575 65.56 59.38 68.17 
2576 52.11 58.42 68.17 
2577 61.33 61.10 68.17 
2578 61.98 61.53 68.17 
2579 61.00 62.27 68.17 
2580 61.89 60.69 68.17 
2581 56.18 60.84 68.17 
2582 64.75 63.39 68.17 
2583 65.46 62.88 68.17 
2584 66.21 62.97 68.17 
2585 66.45 62.58 68.17 
2586 62.55 62.11 68.17 
2587 66.52 60.83 68.17 
2588 67.11 62.98 68.17 
2589 66.15 61.09 68.17 
2590 62.77 60.01 68.17 
2591 66.49 62.70 68.17 
2592 67.68 65.04 68.17 
2593 69.07 64.45 68.17 
2594 59.64 65.02 69.07 
2595 68.46 66.48 69.07 
2596 69.26 64.98 69.07 
2597 69.69 65.32 69.26 
2598 69.80 63.53 69.69 
2599 65.95 63.05 69.80 
2600 65.37 63.42 69.80 
2601 71.32 60.75 69.80 
2602 62.15 60.12 71.32 
2603 72.27 59.25 71.32 
2604 66.80 -415.86 72.27 
2605 67.00 56.34 72.27 
2606 65.62 57.90 72.27 
2607 61.54 61.10 72.27 
2608 65.85 59.71 72.27 
2609 66.63 60.41 72.27 
2610 70.65 58.56 72.27 
2611 51.69 58.86 72.27 
2612 67.05 60.55 72.27 
2613 67.54 58.26 72.27 
2614 72.66 60.17 72.27 
2615 73.56 60.70 72.66 
2616 73.78 60.44 73.56 
2617 58.43 60.63 73.78 
2618 48.41 59.99 73.78 
2619 67.94 60.00 73.78 
2620 62.49 60.42 73.78 
2621 64.63 63.46 73.78 
2622 69.28 63.42 73.78 
2623 75.79 62.52 73.78 
2624 74.24 62.54 75.79 
2625 72.88 60.32 75.79 
2626 59.05 58.50 75.79 
2627 68.25 57.93 75.79 
2628 49.40 55.61 75.79 
2629 50.27 57.96 75.79 
2630 69.28 53.25 75.79 
2631 63.81 53.55 75.79 
2632 69.86 53.02 75.79 
2633 63.34 53.59 75.79 
2634 62.64 52.82 75.79 
2635 72.97 51.10 75.79 
2636 67.00 51.95 75.79 
2637 66.71 52.73 75.79 
2638 67.16 53.91 75.79 
2639 72.47 52.65 75.79 
2640 66.59 53.73 75.79 
2641 66.74 53.90 75.79 
2642 61.59 54.51 75.79 
2643 66.53 54.90 75.79 
2644 72.26 56.50 75.79 
2645 72.53 55.39 75.79 
2646 67.09 55.73 75.79 
2647 72.33 57.24 75.79 
2648 71.79 56.49 75.79 
2649 62.71 56.21 75.79 
2650 67.19 59.35 75.79 
2651 66.97 58.94 75.79 
2652 65.40 56.32 75.79 
2653 66.30 57.26 75.79 
2654 65.48 55.25 75.79 
2655 66.67 52.97 75.79 
2656 64.45 51.03 75.79 
2657 68.47 49.21 75.79 
2658 64.38 50.62 75.79 
2659 69.66 52.83 75.79 
2660 70.72 53.32 75.79 
2661 70.58 54.83 75.79 
2662 71.42 57.08 75.79 
2663 67.24 54.70 75.79 
2664 68.39 57.01 75.79 
2665 57.06 57.03 75.79 
2666 62.27 55.84 75.79 
2667 65.93 56.05 75.79 
2668 60.89 56.93 75.79 
2669 67.28 57.70 75.79 
2670 71.50 61.57 75.79 
2671 66.52 63.29 75.79 
2672 65.61 64.47 75.79 
2673 65.32 62.91 75.79 
2674 66.18 61.30 75.79 
2675 71.27 61.19 75.79 
2676 66.65 59.45 75.79 
2677 71.99 59.18 75.79 
2678 72.86 59.75 75.79 
2679 67.96 61.81 75.79 
2680 68.53 63.24 75.79 
2681 72.95 64.46 75.79 
2682 52.94 64.51 75.79 
2683 63.01 64.56 75.79 
2684 63.60 62.30 75.79 
2685 72.81 64.14 75.79 
2686 73.48 61.81 75.79 
2687 62.76 58.80 75.79 
2688 67.26 60.65 75.79 
2689 66.50 62.46 75.79 
2690 70.52 62.51 75.79 
2691 70.86 63.85 75.79 
2692 66.65 63.37 75.79 
2693 68.00 62.91 75.79 
2694 60.74 64.58 75.79 
2695 65.74 63.68 75.79 
2696 66.91 62.88 75.79 
2697 72.51 62.44 75.79 
2698 63.75 63.80 75.79 
2699 67.87 63.11 75.79 
2700 71.43 62.91 75.79 
2701 67.26 63.86 75.79 
2702 65.65 61.09 75.79 
2703 70.96 59.64 75.79 
2704 66.92 60.64 75.79 
2705 71.88 60.38 75.79 
2706 73.19 60.83 75.79 
2707 72.53 59.40 75.79 
2708 72.70 60.48 75.79 
2709 61.82 61.55 75.79 
2710 72.87 62.80 75.79 
2711 68.41 62.79 75.79 
2712 62.52 59.05 75.79 
2713 72.02 56.98 75.79 
2714 60.97 58.31 75.79 
2715 67.52 61.15 75.79 
2716 62.91 60.21 75.79 
2717 62.29 62.04 75.79 
2718 61.57 60.90 75.79 
2719 63.40 60.29 75.79 
2720 67.88 59.03 75.79 
2721 72.51 61.50 75.79 
2722 72.55 61.04 75.79 
2723 72.61 60.57 75.79 
2724 73.21 59.39 75.79 
2725 62.89 58.62 75.79 
2726 71.92 58.64 75.79 
2727 61.81 59.84 75.79 
2728 66.76 60.13 75.79 
2729 72.63 61.43 75.79 
2730 71.90 60.10 75.79 
2731 72.44 61.30 75.79 
2732 72.51 59.89 75.79 
2733 62.17 61.91 75.79 
2734 62.70 61.28 75.79 
2735 63.13 60.89 75.79 
2736 61.70 61.05 75.79 
2737 67.07 59.27 75.79 
2738 66.43 60.34 75.79 
2739 65.90 61.78 75.79 
2740 71.34 61.40 75.79 
2741 66.25 61.97 75.79 
2742 70.96 60.61 75.79 
2743 71.00 57.89 75.79 
2744 72.01 58.54 75.79 
2745 66.88 58.68 75.79 
2746 67.85 58.57 75.79 
2747 62.62 58.54 75.79 
2748 67.67 59.00 75.79 
2749 71.95 58.10 75.79 
2750 66.95 60.36 75.79 
2751 71.09 62.77 75.79 
2752 71.43 63.64 75.79 
2753 72.02 64.20 75.79 
2754 72.56 61.71 75.79 
2755 72.70 58.51 75.79 
2756 72.51 55.68 75.79 
2757 61.89 58.47 75.79 
2758 61.53 58.65 75.79 
2759 70.14 58.45 75.79 
2760 66.35 59.24 75.79 
2761 69.73 58.14 75.79 
2762 69.17 58.97 75.79 
2763 66.16 60.40 75.79 
2764 70.21 58.93 75.79 
2765 64.62 58.86 75.79 
2766 70.05 61.47 75.79 
2767 67.21 60.30 75.79 
2768 66.83 60.96 75.79 
2769 71.23 58.59 75.79 
2770 66.56 58.47 75.79 
2771 71.36 54.60 75.79 
2772 71.09 61.29 75.79 
2773 67.22 61.48 75.79 
2774 66.89 63.49 75.79 
2775 67.16 66.06 75.79 
2776 65.62 65.05 75.79 
2777 70.66 62.00 75.79 
2778 71.89 58.82 75.79 
2779 57.05 57.87 75.79 
2780 61.33 54.70 75.79 
2781 65.88 55.69 75.79 
2782 55.34 56.06 75.79 
2783 66.29 57.43 75.79 
2784 71.02 56.97 75.79 
2785 71.58 56.80 75.79 
2786 68.26 58.08 75.79 
2787 72.35 61.35 75.79 
2788 67.38 59.08 75.79 
2789 72.76 61.05 75.79 
2790 73.09 63.48 75.79 
2791 61.96 61.23 75.79 
2792 62.69 60.50 75.79 
2793 73.00 -425.56 75.79 
2794 71.81 -428.79 75.79 
2795 72.39 57.55 75.79 
2796 61.63 60.03 75.79 
2797 62.61 58.13 75.79 
2798 67.19 57.76 75.79 
2799 55.86 55.29 75.79 
2800 65.92 53.51 75.79 
2801 46.13 57.76 75.79 
2802 66.18 60.12 75.79 
2803 71.35 59.17 75.79 
2804 72.16 59.69 75.79 
2805 62.93 63.78 75.79 
2806 68.31 62.66 75.79 
2807 73.17 65.01 75.79 
2808 62.67 65.60 75.79 
2809 72.34 66.53 75.79 
2810 71.65 63.48 75.79 
2811 72.38 -426.34 75.79 
2812 72.16 64.18 75.79 
2813 71.97 65.62 75.79 
2814 72.11 64.20 75.79 
2815 72.01 66.30 75.79 
2816 67.59 67.31 75.79 
2817 68.03 68.04 75.79 
2818 72.79 68.12 75.79 
2819 71.87 67.86 75.79 
2820 72.48 65.37 75.79 
2821 68.62 65.45 75.79 
2822 71.79 65.22 75.79 
2823 67.38 64.98 75.79 
2824 71.64 65.39 75.79 
2825 72.18 64.61 75.79 
2826 72.56 65.29 75.79 
2827 73.00 66.06 75.79 
2828 63.42 65.68 75.79 
2829 72.68 64.85 75.79 
2830 67.36 65.48 75.79 
2831 68.38 65.02 75.79 
2832 68.08 -458.37 75.79 
2833 73.58 -447.92 75.79 
2834 68.28 -448.44 75.79 
2835 58.25 -455.14 75.79 
2836 58.10 -451.71 75.79 
2837 73.05 -454.79 75.79 
2838 62.41 -456.31 75.79 
2839 67.16 66.29 75.79 
2840 62.33 53.00 75.79 
2841 73.19 65.27 75.79 
2842 67.75 63.92 75.79 
2843 68.11 64.72 75.79 
2844 57.74 63.65 75.79 
2845 73.32 58.53 75.79 
2846 73.15 63.91 75.79 
2847 68.05 62.94 75.79 
2848 73.20 60.04 75.79 
2849 68.38 65.09 75.79 
2850 63.90 65.25 75.79 
2851 72.46 64.73 75.79 
2852 72.76 64.29 75.79 
2853 63.27 -455.27 75.79 
2854 72.57 -455.53 75.79 
2855 71.13 -453.00 75.79 
2856 66.84 63.87 75.79 
2857 56.93 62.75 75.79 
2858 72.13 62.23 75.79 
2859 67.45 55.75 75.79 
2860 72.13 -461.06 75.79 
2861 72.15 62.87 75.79 
2862 67.96 -456.64 75.79 
2863 71.62 58.60 75.79 
2864 73.45 64.41 75.79 
2865 72.27 65.25 75.79 
2866 73.11 65.12 75.79 
2867 73.24 66.03 75.79 
2868 68.57 63.37 75.79 
2869 68.49 63.90 75.79 
2870 68.50 63.53 75.79 
2871 72.98 63.33 75.79 
2872 67.67 63.87 75.79 
2873 73.12 64.44 75.79 
2874 72.19 67.86 75.79 
2875 73.05 66.48 75.79 
2876 72.85 64.12 75.79 
2877 73.40 66.72 75.79 
2878 74.88 66.40 75.79 
2879 64.22 65.80 75.79 
2880 65.01 62.97 75.79 
2881 68.52 61.82 75.79 
2882 72.90 59.94 75.79 
2883 68.97 59.20 75.79 
2884 69.27 59.08 75.79 
2885 67.03 59.09 75.79 
2886 72.30 57.89 75.79 
2887 67.96 59.77 75.79 
2888 63.80 60.44 75.79 
2889 72.99 58.04 75.79 
2890 72.70 63.16 75.79 
2891 68.91 63.67 75.79 
2892 74.52 62.73 75.79 
2893 54.09 62.92 75.79 
2894 64.74 62.47 75.79 
2895 69.29 63.48 75.79 
2896 68.20 64.38 75.79 
2897 72.52 66.07 75.79 
2898 73.26 65.15 75.79 
2899 73.91 66.11 75.79 
2900 69.56 65.85 75.79 
2901 75.01 66.92 75.79 
2902 59.08 67.20 75.79 
2903 69.31 66.69 75.79 
2904 73.84 68.53 75.79 
2905 68.72 67.38 75.79 
2906 68.21 69.81 75.79 
2907 64.45 71.12 75.79 
2908 68.82 70.43 75.79 
2909 64.14 70.45 75.79 
2910 68.29 67.88 75.79 
2911 68.44 65.75 75.79 
2912 73.11 65.13 75.79 
2913 73.64 67.41 75.79 
2914 72.19 66.44 75.79 
2915 73.94 67.97 75.79 
2916 74.22 68.25 75.79 
2917 73.19 67.98 75.79 
2918 73.06 68.49 75.79 
2919 63.61 70.60 75.79 
2920 64.59 71.14 75.79 
2921 69.76 70.65 75.79 
2922 74.55 70.67 75.79 
2923 73.84 71.75 75.79 
2924 64.23 71.59 75.79 
2925 73.93 71.40 75.79 
2926 74.33 72.44 75.79 
2927 63.67 72.00 75.79 
2928 74.59 73.00 75.79 
2929 74.87 71.80 75.79 
2930 70.03 73.00 75.79 
2931 60.47 74.21 75.79 
2932 74.01 76.18 75.79 
2933 74.90 76.09 75.79 
2934 75.81 76.01 75.79 
2935 76.16 75.46 75.81 
2936 70.10 76.09 76.16 
2937 70.24 76.26 76.16 
2938 75.31 76.23 76.16 
2939 59.30 76.53 76.16 
2940 64.62 77.98 76.16 
2941 72.06 76.72 76.16 
2942 68.52 76.48 76.16 
2943 73.68 75.03 76.16 
2944 69.84 74.63 76.16 
2945 75.23 73.68 76.16 
2946 43.32 73.84 76.16 
2947 54.49 73.86 76.16 
2948 74.41 74.52 76.16 
2949 65.69 74.53 76.16 
2950 59.35 73.58 76.16 
2951 63.99 73.11 76.16 
2952 74.02 72.99 76.16 
2953 69.64 72.15 76.16 
2954 58.89 72.87 76.16 
2955 73.64 73.79 76.16 
2956 74.02 72.58 76.16 
2957 74.59 71.44 76.16 
2958 69.06 70.65 76.16 
2959 75.10 70.40 76.16 
2960 74.67 71.88 76.16 
2961 75.10 71.46 76.16 
2962 75.41 70.97 76.16 
2963 75.16 71.53 76.16 
2964 65.00 71.51 76.16 
2965 65.00 70.23 76.16 
2966 73.67 69.99 76.16 
2967 69.04 69.32 76.16 
2968 69.20 70.25 76.16 
2969 74.57 70.76 76.16 
2970 74.25 70.56 76.16 
2971 74.67 70.38 76.16 
2972 70.19 69.93 76.16 
2973 69.79 68.95 76.16 
2974 74.59 68.98 76.16 
2975 74.76 69.57 76.16 
2976 75.52 69.35 76.16 
2977 75.61 68.86 76.16 
2978 70.76 68.42 76.16 
2979 70.59 68.10 76.16 
2980 70.78 68.54 76.16 
2981 65.68 70.40 76.16 
2982 75.97 70.42 76.16 
2983 70.13 70.55 76.16 
2984 75.73 70.62 76.16 
2985 65.91 70.42 76.16 
2986 70.24 70.70 76.16 
2987 75.32 71.56 76.16 
2988 75.89 71.60 76.16 
2989 75.81 72.24 76.16 
2990 75.28 72.89 76.16 
2991 71.45 73.05 76.16 
2992 70.34 72.93 76.16 
2993 76.24 71.24 76.16 
2994 70.14 70.19 76.24 
2995 75.78 70.62 76.24 
2996 75.76 70.25 76.24 
2997 75.89 68.57 76.24 
2998 75.58 69.20 76.24 
2999 71.05 71.36 76.24 
3000 76.31 69.84 76.24 
3001 75.89 68.96 76.31 
3002 70.72 70.19 76.31 
3003 70.53 72.71 76.31 
3004 76.00 74.20 76.31 
3005 76.57 74.99 76.31 
3006 75.82 73.91 76.57 
3007 71.49 73.17 76.57 
3008 70.54 73.78 76.57 
3009 76.33 73.99 76.57 
3010 76.03 73.16 76.57 
3011 71.68 72.96 76.57 
3012 76.09 73.69 76.57 
3013 70.50 73.14 76.57 
3014 76.26 73.53 76.57 
3015 75.77 72.51 76.57 
3016 76.10 -416.94 76.57 
3017 75.85 -401.74 76.57 
3018 71.09 -393.52 76.57 
3019 76.00 -397.05 76.57 
3020 70.99 -397.13 76.57 
3021 61.75 -398.69 76.57 
3022 69.79 -397.07 76.57 
3023 61.00 -403.84 76.57 
3024 74.36 75.38 76.57 
3025 74.87 -410.53 76.57 
3026 70.17 -414.76 76.57 
3027 59.90 73.20 76.57 
3028 69.36 73.25 76.57 
3029 75.31 72.70 76.57 
3030 74.67 -416.98 76.57 
3031 70.80 70.08 76.57 
3032 75.11 71.22 76.57 
3033 74.45 68.85 76.57 
3034 69.89 68.50 76.57 
3035 74.24 69.07 76.57 
3036 74.47 67.81 76.57 
3037 75.02 70.63 76.57 
3038 70.46 72.42 76.57 
3039 70.66 72.56 76.57 
3040 74.05 70.08 76.57 
3041 60.52 71.44 76.57 
3042 74.60 70.91 76.57 
3043 70.09 70.63 76.57 
3044 74.79 71.48 76.57 
3045 75.44 71.32 76.57 
3046 75.80 71.20 76.57 
3047 75.84 70.01 76.57 
3048 75.74 69.45 76.57 
3049 65.60 69.93 76.57 
3050 70.75 71.70 76.57 
3051 76.65 74.76 76.57 
3052 76.52 73.15 76.65 
3053 60.58 71.46 76.65 
3054 67.16 73.16 76.65 
3055 75.61 73.05 76.65 
3056 76.07 74.64 76.65 
3057 71.35 74.09 76.65 
3058 76.28 74.79 76.65 
3059 75.51 73.50 76.65 
3060 72.14 73.81 76.65 
3061 75.37 73.23 76.65 
3062 71.14 72.97 76.65 
3063 75.94 72.68 76.65 
3064 76.85 72.29 76.65 
3065 72.11 72.07 76.85 
3066 75.97 71.27 76.85 
3067 70.97 70.64 76.85 
3068 69.74 68.60 76.85 
3069 71.43 69.28 76.85 
3070 74.82 69.56 76.85 
3071 76.33 70.37 76.85 
3072 75.96 71.66 76.85 
3073 70.48 72.00 76.85 
3074 76.58 72.56 76.85 
3075 75.31 72.64 76.85 
3076 70.77 71.65 76.85 
3077 65.90 73.66 76.85 
3078 76.05 73.60 76.85 
3079 75.15 71.81 76.85 
3080 70.94 72.36 76.85 
3081 76.69 78.57 76.85 
3082 66.47 77.82 76.85 
3083 75.54 71.86 76.85 
3084 66.38 71.45 76.85 
3085 75.62 70.93 76.85 
3086 70.84 70.64 76.85 
3087 75.29 71.73 76.85 
3088 75.07 84.70 76.85 
3089 75.19 71.68 76.85 
3090 76.43 72.60 76.85 
3091 75.96 75.33 76.85 
3092 71.90 73.64 76.85 
3093 77.64 73.07 76.85 
3094 76.49 -408.39 77.64 
3095 72.90 -390.88 77.64 
3096 71.27 72.70 77.64 
3097 77.27 71.60 77.64 
3098 56.58 71.99 77.64 
3099 71.06 -411.02 77.64 
3100 76.62 72.51 77.64 
3101 76.75 72.23 77.64 
3102 71.22 71.86 77.64 
3103 66.30 72.52 77.64 
3104 67.12 71.89 77.64 
3105 75.72 74.48 77.64 
3106 71.67 72.92 77.64 
3107 71.89 73.11 77.64 
3108 76.26 73.00 77.64 
3109 66.99 -408.48 77.64 
3110 71.51 -407.47 77.64 
3111 71.76 -402.22 77.64 
3112 75.69 -384.29 77.64 
3113 66.02 -383.64 77.64 
3114 72.62 72.93 77.64 
3115 67.13 -387.02 77.64 
3116 76.87 -383.67 77.64 
3117 76.02 72.55 77.64 
3118 77.93 -389.54 77.64 
3119 71.65 -388.57 77.93 
3120 76.18 -385.58 77.93 
3121 55.93 -406.19 77.93 
3122 66.06 72.37 77.93 
3123 70.85 71.45 77.93 
3124 71.24 73.37 77.93 
3125 70.45 71.99 77.93 
3126 74.72 -385.13 77.93 
3127 71.00 -386.52 77.93 
3128 71.67 -387.85 77.93 
3129 67.29 -386.04 77.93 
3130 65.60 -386.06 77.93 
3131 75.85 71.61 77.93 
3132 55.60 70.98 77.93 
3133 65.33 70.96 77.93 
3134 59.66 71.90 77.93 
3135 74.29 71.83 77.93 
3136 74.65 -387.51 77.93 
3137 71.23 70.68 77.93 
3138 65.43 70.96 77.93 
3139 64.57 70.90 77.93 
3140 69.39 -390.31 77.93 
3141 73.88 71.54 77.93 
3142 74.48 72.01 77.93 
3143 75.76 72.57 77.93 
3144 75.46 72.68 77.93 
3145 71.42 72.88 77.93 
3146 70.24 72.43 77.93 
3147 75.66 71.98 77.93 
3148 71.20 72.05 77.93 
3149 75.73 71.55 77.93 
3150 70.70 72.04 77.93 
3151 75.88 70.71 77.93 
3152 66.46 72.08 77.93 
3153 71.87 74.11 77.93 
3154 55.58 76.44 77.93 
3155 76.17 75.80 77.93 
3156 75.33 79.25 77.93 
3157 67.16 72.07 77.93 
3158 70.57 70.54 77.93 
3159 71.26 72.72 77.93 
3160 65.53 71.96 77.93 
3161 65.93 69.20 77.93 
3162 75.61 68.28 77.93 
3163 76.68 72.53 77.93 
3164 71.01 69.75 77.93 
3165 76.13 70.35 77.93 
3166 66.73 69.93 77.93 
3167 69.58 69.60 77.93 
3168 75.49 68.53 77.93 
3169 76.17 67.99 77.93 
3170 76.34 67.73 77.93 
3171 66.39 67.06 77.93 
3172 76.84 67.13 77.93 
3173 75.55 67.00 77.93 
3174 76.13 65.25 77.93 
3175 77.48 70.59 77.93 
3176 66.32 71.45 77.93 
3177 76.63 66.55 77.93 
3178 75.86 65.98 77.93 
3179 76.38 67.84 77.93 
3180 76.99 67.54 77.93 
3181 72.18 69.65 77.93 
3182 72.22 69.66 77.93 
3183 72.19 71.43 77.93 
3184 76.73 70.48 77.93 
3185 71.81 71.37 77.93 
3186 76.79 71.61 77.93 
3187 76.61 72.39 77.93 
3188 76.70 72.25 77.93 
3189 67.15 72.24 77.93 
3190 77.23 72.53 77.93 
3191 76.97 72.58 77.93 
3192 77.12 -427.07 77.93 
3193 72.18 71.62 77.93 
3194 76.95 71.74 77.93 
3195 76.88 71.66 77.93 
3196 72.12 71.63 77.93 
3197 76.98 72.43 77.93 
3198 71.87 72.24 77.93 
3199 77.23 72.62 77.93 
3200 73.09 72.65 77.93 
3201 77.09 73.09 77.93 
3202 77.41 73.82 77.93 
3203 62.91 72.74 77.93 
3204 71.88 71.59 77.93 
3205 77.60 72.20 77.93 
3206 77.30 72.72 77.93 
3207 72.43 71.42 77.93 
3208 77.31 72.02 77.93 
3209 73.01 69.98 77.93 
3210 77.44 69.99 77.93 
3211 72.45 70.54 77.93 
3212 76.88 70.13 77.93 
3213 66.98 71.45 77.93 
3214 77.72 71.21 77.93 
3215 72.37 72.19 77.93 
3216 71.82 72.27 77.93 
3217 77.48 73.92 77.93 
3218 71.90 75.04 77.93 
3219 77.89 75.60 77.93 
3220 61.57 75.75 77.93 
3221 71.32 75.29 77.93 
3222 76.81 73.02 77.93 
3223 76.92 72.06 77.93 
3224 71.40 73.28 77.93 
3225 76.51 72.29 77.93 
3226 76.78 71.65 77.93 
3227 70.99 71.44 77.93 
3228 72.02 72.73 77.93 
3229 72.42 72.42 77.93 
3230 66.25 74.17 77.93 
3231 71.30 73.01 77.93 
3232 76.27 70.96 77.93 
3233 75.84 69.96 77.93 
3234 71.33 72.15 77.93 
3235 71.23 70.58 77.93 
3236 76.26 70.92 77.93 
3237 72.78 69.75 77.93 
3238 76.43 70.58 77.93 
3239 71.64 74.16 77.93 
3240 76.06 68.38 77.93 
3241 71.05 68.90 77.93 
3242 72.32 68.98 77.93 
3243 77.92 68.40 77.93 
3244 66.80 67.51 77.93 
3245 72.47 67.14 77.93 
3246 76.26 66.02 77.93 
3247 76.34 -423.00 77.93 
3248 71.74 67.41 77.93 
3249 77.13 66.12 77.93 
3250 71.62 68.16 77.93 
3251 77.37 69.13 77.93 
3252 72.52 68.54 77.93 
3253 77.25 68.57 77.93 
3254 77.54 69.26 77.93 
3255 77.72 69.67 77.93 
3256 76.77 72.69 77.93 
3257 77.77 72.14 77.93 
3258 69.07 72.34 77.93 
3259 78.10 71.26 77.93 
3260 77.95 71.13 78.10 
3261 72.70 71.92 78.10 
3262 77.41 72.08 78.10 
3263 77.67 72.61 78.10 
3264 77.09 70.97 78.10 
3265 71.72 71.40 78.10 
3266 71.79 70.06 78.10 
3267 66.96 70.15 78.10 
3268 66.14 70.31 78.10 
3269 71.65 69.94 78.10 
3270 76.22 70.72 78.10 
3271 76.31 72.54 78.10 
3272 76.60 72.24 78.10 
3273 77.40 73.10 78.10 
3274 77.71 70.35 78.10 
3275 77.51 69.35 78.10 
3276 77.45 70.97 78.10 
3277 77.87 72.84 78.10 
3278 79.29 72.91 78.10 
3279 73.22 74.26 79.29 
3280 52.58 73.76 79.29 
3281 77.35 72.55 79.29 
3282 69.23 72.33 79.29 
3283 77.98 72.85 79.29 
3284 77.19 71.24 79.29 
3285 78.38 70.70 79.29 
3286 73.47 73.06 79.29 
3287 67.95 71.36 79.29 
3288 68.10 73.52 79.29 
3289 77.99 72.61 79.29 
3290 77.48 71.30 79.29 
3291 77.25 70.93 79.29 
3292 67.58 68.99 79.29 
3293 71.86 69.31 79.29 
3294 72.41 69.16 79.29 
3295 72.41 69.78 79.29 
3296 76.68 -393.09 79.29 
3297 71.10 71.71 79.29 
3298 77.53 -415.69 79.29 
3299 77.08 -403.27 79.29 
3300 67.10 -404.06 79.29 
3301 72.28 73.73 79.29 
3302 72.27 73.11 79.29 
3303 76.95 73.82 79.29 
3304 71.71 73.28 79.29 
3305 71.89 71.94 79.29 
3306 76.88 73.00 79.29 
3307 76.91 74.65 79.29 
3308 71.93 -404.60 79.29 
3309 76.86 -393.87 79.29 
3310 61.58 -387.83 79.29 
3311 76.74 -407.23 79.29 
3312 63.04 72.65 79.29 
3313 77.08 73.12 79.29 
3314 77.68 -407.64 79.29 
3315 77.33 77.20 79.29 
3316 67.24 83.01 79.29 
3317 72.56 79.98 79.29 
3318 72.56 -400.83 79.29 
3319 67.80 75.52 79.29 
3320 77.27 80.92 79.29 
3321 77.00 82.56 79.29 
3322 76.95 74.81 79.29 
3323 71.41 85.10 79.29 
3324 66.24 81.64 79.29 
3325 66.68 76.23 79.29 
3326 67.27 76.79 79.29 
3327 71.22 77.68 79.29 
3328 77.00 77.58 79.29 
3329 72.54 77.45 79.29 
3330 77.20 76.96 79.29 
3331 77.39 76.33 79.29 
3332 67.20 76.74 79.29 
3333 77.58 76.95 79.29 
3334 68.35 77.00 79.29 
3335 56.74 76.36 79.29 
3336 71.87 77.82 79.29 
3337 77.08 75.87 79.29 
3338 78.02 76.45 79.29 
3339 72.60 77.15 79.29 
3340 72.25 77.24 79.29 
3341 77.14 77.18 79.29 
3342 72.00 76.98 79.29 
3343 76.96 78.71 79.29 
3344 71.68 79.63 79.29 
3345 72.76 79.75 79.29 
3346 77.24 79.14 79.29 
3347 77.10 79.59 79.29 
3348 66.90 79.31 79.29 
3349 77.22 80.25 79.29 
3350 77.07 80.34 79.29 
3351 76.90 78.80 79.29 
3352 76.94 78.74 79.29 
3353 71.96 78.71 79.29 
3354 71.12 78.94 79.29 
3355 72.10 78.45 79.29 
3356 75.90 78.71 79.29 
3357 71.52 79.09 79.29 
3358 72.38 79.73 79.29 
3359 77.59 79.80 79.29 
3360 71.61 79.70 79.29 
3361 66.81 79.31 79.29 
3362 76.41 79.15 79.29 
3363 72.98 79.08 79.29 
3364 77.52 150.33 79.29 
3365 72.39 132.49 79.29 
3366 77.86 165.24 79.29 
3367 68.01 122.47 79.29 
3368 76.44 114.50 79.29 
3369 72.91 79.48 79.29 
3370 77.97 79.90 79.29 
3371 72.55 100.52 79.29 
3372 73.50 80.26 79.29 
3373 78.39 79.78 79.29 
3374 71.90 80.41 79.29 
3375 67.27 199.81 79.29 
3376 67.13 189.61 79.29 
3377 77.74 -343.92 79.29 
3378 73.04 -391.40 79.29 
3379 63.41 168.21 79.29 
3380 72.53 78.36 79.29 
3381 77.96 78.03 79.29 
3382 77.22 77.99 79.29 
3383 77.36 -436.52 79.29 
3384 77.62 172.17 79.29 
3385 71.86 127.12 79.29 
3386 77.51 77.28 79.29 
3387 77.15 77.44 79.29 
3388 73.19 77.75 79.29 
3389 77.81 77.65 79.29 
3390 77.83 77.20 79.29 
3391 77.88 77.80 79.29 
3392 74.04 77.93 79.29 
3393 77.84 77.90 79.29 
3394 73.23 77.91 79.29 
3395 72.73 78.00 79.29 
3396 77.55 77.38 79.29 
3397 72.96 77.16 79.29 
3398 62.44 78.60 79.29 
3399 72.98 78.48 79.29 
3400 77.72 77.94 79.29 
3401 77.40 76.66 79.29 
3402 67.37 76.26 79.29 
3403 77.61 77.98 79.29 
3404 78.78 77.66 79.29 
3405 73.15 78.26 79.29 
3406 77.87 76.93 79.29 
3407 67.85 76.26 79.29 
3408 78.60 76.61 79.29 
3409 67.36 76.54 79.29 
3410 72.44 77.79 79.29 
3411 76.62 76.04 79.29 
3412 72.43 76.18 79.29 
3413 77.20 75.98 79.29 
3414 76.73 76.97 79.29 
3415 72.08 77.14 79.29 
3416 77.05 75.87 79.29 
3417 57.80 76.00 79.29 
3418 72.15 77.02 79.29 
3419 73.11 75.89 79.29 
3420 76.90 77.35 79.29 
3421 72.36 77.79 79.29 
3422 76.95 77.25 79.29 
3423 72.03 76.38 79.29 
3424 77.31 75.13 79.29 
3425 76.90 74.79 79.29 
3426 76.96 75.42 79.29 
3427 77.54 73.47 79.29 
3428 67.43 74.53 79.29 
3429 72.56 75.16 79.29 
3430 71.74 76.35 79.29 
3431 77.38 76.68 79.29 
3432 62.03 77.92 79.29 
3433 78.16 78.04 79.29 
3434 76.92 78.37 79.29 
3435 67.54 77.99 79.29 
3436 61.87 77.57 79.29 
3437 57.36 76.67 79.29 
3438 67.07 76.88 79.29 
3439 66.77 75.29 79.29 
3440 76.18 76.75 79.29 
3441 76.63 75.23 79.29 
3442 77.31 74.76 79.29 
3443 77.02 75.10 79.29 
3444 77.18 76.02 79.29 
3445 72.44 75.36 79.29 
3446 77.62 75.96 79.29 
3447 71.56 75.70 79.29 
3448 71.92 73.98 79.29 
3449 66.61 72.39 79.29 
3450 60.96 74.43 79.29 
3451 65.99 74.82 79.29 
3452 71.38 75.33 79.29 
3453 75.69 76.32 79.29 
3454 71.63 76.21 79.29 
3455 76.61 76.80 79.29 
3456 77.39 76.61 79.29 
3457 77.55 76.45 79.29 
3458 77.39 76.10 79.29 
3459 77.31 76.52 79.29 
3460 77.67 76.46 79.29 
3461 77.35 76.87 79.29 
3462 77.84 77.29 79.29 
3463 77.73 76.57 79.29 
3464 78.68 76.53 79.29 
3465 77.48 77.67 79.29 
3466 73.23 77.66 79.29 
3467 73.40 77.86 79.29 
3468 73.60 78.87 79.29 
3469 78.16 77.78 79.29 
3470 63.70 77.94 79.29 
3471 79.44 78.38 79.29 
3472 74.28 78.62 79.44 
3473 79.12 79.64 79.44 
3474 78.62 78.17 79.44 
3475 78.84 79.97 79.44 
3476 78.75 78.61 79.44 
3477 79.78 77.76 79.44 
3478 68.70 78.06 79.78 
3479 78.28 78.66 79.78 
3480 79.58 77.42 79.78 
3481 73.27 77.37 79.78 
3482 72.99 78.80 79.78 
3483 78.48 80.19 79.78 
3484 68.56 77.86 79.78 
3485 67.65 79.26 79.78 
3486 78.13 79.14 79.78 
3487 73.61 78.87 79.78 
3488 73.48 78.63 79.78 
3489 78.19 80.10 79.78 
3490 69.16 78.32 79.78 
3491 78.66 79.16 79.78 
3492 74.10 80.42 79.78 
3493 78.29 80.82 79.78 
3494 78.15 80.55 79.78 
3495 73.88 80.06 79.78 
3496 78.56 79.60 79.78 
3497 78.46 79.81 79.78 
3498 78.44 78.45 79.78 
3499 78.86 78.25 79.78 
3500 64.06 80.18 79.78 
3501 78.06 79.61 79.78 
3502 78.18 76.45 79.78 
3503 73.86 76.98 79.78 
3504 77.65 77.22 79.78 
3505 72.29 76.41 79.78 
3506 78.47 76.62 79.78 
3507 68.01 76.72 79.78 
3508 73.27 77.05 79.78 
3509 79.39 75.68 79.78 
3510 78.17 75.58 79.78 
3511 78.28 76.55 79.78 
3512 78.27 76.60 79.78 
3513 72.74 77.04 79.78 
3514 77.47 78.53 79.78 
3515 73.12 78.91 79.78 
3516 78.61 79.79 79.78 
3517 79.08 80.53 79.78 
3518 63.76 80.34 79.78 
3519 78.38 77.84 79.78 
3520 77.88 75.16 79.78 
3521 77.24 78.34 79.78 
3522 73.42 78.65 79.78 
3523 73.41 80.06 79.78 
3524 78.03 81.53 79.78 
3525 78.58 80.32 79.78 
3526 79.53 80.25 79.78 
3527 73.91 80.71 79.78 
3528 78.90 81.10 79.78 
3529 74.82 80.71 79.78 
3530 79.50 80.40 79.78 
3531 73.11 80.56 79.78 
3532 78.77 78.90 79.78 
3533 74.36 78.06 79.78 
3534 78.46 77.22 79.78 
3535 78.10 75.33 79.78 
3536 78.26 76.84 79.78 
3537 78.21 76.83 79.78 
3538 78.33 77.99 79.78 
3539 78.28 75.81 79.78 
3540 78.69 75.67 79.78 
3541 78.69 -407.72 79.78 
3542 74.10 75.37 79.78 
3543 78.54 75.63 79.78 
3544 78.71 77.59 79.78 
3545 78.60 77.97 79.78 
3546 79.07 77.57 79.78 
3547 69.32 77.32 79.78 
3548 74.55 75.94 79.78 
3549 74.19 77.55 79.78 
3550 74.35 77.38 79.78 
3551 74.12 77.31 79.78 
3552 78.95 76.17 79.78 
3553 79.62 77.58 79.78 
3554 74.38 78.98 79.78 
3555 78.79 79.27 79.78 
3556 78.60 76.66 79.78 
3557 80.18 76.09 79.78 
3558 80.47 77.09 80.18 
3559 70.83 78.00 80.47 
3560 80.96 78.16 80.47 
3561 81.22 77.51 80.96 
3562 81.23 76.15 81.22 
3563 76.83 77.06 81.23 
3564 69.73 76.31 81.23 
3565 65.58 76.83 81.23 
3566 70.58 77.00 81.23 
3567 80.93 76.70 81.23 
3568 60.80 78.16 81.23 
3569 80.79 78.65 81.23 
3570 81.06 77.77 81.23 
3571 70.23 76.63 81.23 
3572 81.06 77.90 81.23 
3573 80.44 79.63 81.23 
3574 70.57 79.27 81.23 
3575 81.43 78.97 81.23 
3576 71.03 78.72 81.43 
3577 55.88 79.17 81.43 
3578 65.78 78.73 81.43 
3579 76.07 79.16 81.43 
3580 75.76 78.38 81.43 
3581 69.26 78.55 81.43 
3582 75.25 78.14 81.43 
3583 70.35 77.23 81.43 
3584 54.26 77.14 81.43 
3585 64.98 77.27 81.43 
3586 64.38 76.42 81.43 
3587 63.96 75.85 81.43 
3588 49.56 76.39 81.43 
3589 80.84 76.31 81.43 
3590 69.88 76.32 81.43 
3591 75.75 74.64 81.43 
3592 63.76 74.47 81.43 
3593 76.14 74.72 81.43 
3594 66.05 76.22 81.43 
3595 76.30 76.59 81.43 
3596 52.47 76.42 81.43 
3597 67.56 76.01 81.43 
3598 74.85 75.90 81.43 
3599 67.87 76.14 81.43 
3600 73.79 74.79 81.43 
3601 71.40 74.56 81.43 
3602 74.55 74.34 81.43 
3603 72.56 74.45 81.43 
3604 80.88 75.82 81.43 
3605 80.18 76.33 81.43 
3606 84.54 76.15 81.43 
3607 68.06 76.69 84.54 
3608 72.41 77.32 84.54 
3609 64.49 78.28 84.54 
3610 83.69 78.39 84.54 
3611 71.49 78.07 84.54 
3612 69.95 77.20 84.54 
3613 83.79 76.67 84.54 
3614 84.30 77.54 84.54 
3615 56.76 77.25 84.54 
3616 77.74 75.54 84.54 
3617 78.58 75.06 84.54 
3618 74.98 74.80 84.54 
3619 78.62 74.23 84.54 
3620 83.71 73.78 84.54 
3621 71.09 73.75 84.54 
3622 75.05 73.13 84.54 
3623 82.51 73.67 84.54 
3624 64.24 73.37 84.54 
3625 71.09 73.76 84.54 
3626 78.06 73.45 84.54 
3627 76.82 74.60 84.54 
3628 73.73 73.89 84.54 
3629 77.11 74.20 84.54 
3630 75.31 75.02 84.54 
3631 86.73 75.26 84.54 
3632 73.56 74.93 86.73 
3633 73.51 72.73 86.73 
3634 80.56 72.24 86.73 
3635 86.39 73.62 86.73 
3636 90.01 72.49 86.73 
3637 71.48 71.67 90.01 
3638 80.98 71.64 90.01 
3639 81.92 72.06 90.01 
3640 94.85 71.93 90.01 
3641 98.25 73.54 94.85 
3642 69.63 71.25 98.25 
3643 90.51 73.06 98.25 
3644 104.49 161.48 98.25 
3645 73.51 125.24 104.49 
3646 81.06 154.91 104.49 
3647 101.57 134.99 104.49 
3648 83.54 176.38 104.49 
3649 107.43 197.08 104.49 
3650 105.85 193.34 107.43 
3651 120.12 182.70 107.43 
3652 106.35 135.34 120.12 
3653 125.45 134.70 120.12 
3654 106.61 -380.28 125.45 
3655 124.99 -380.52 125.45 
3656 128.18 -446.87 125.45 
3657 134.15 -449.06 128.18 
3658 137.31 -439.92 134.15 
3659 92.57 -424.22 137.31 
3660 126.49 -436.98 137.31 
3661 132.17 -447.37 137.31 
3662 127.79 -436.71 137.31 
3663 138.30 -423.84 137.31 
3664 128.81 -424.56 138.30 
3665 150.52 -451.14 138.30 
3666 128.72 -451.31 150.52 
3667 140.64 -447.49 150.52 
3668 140.65 -447.82 150.52 
3669 129.65 -445.04 150.52 
3670 141.64 -446.78 150.52 
3671 117.69 -439.34 150.52 
3672 125.00 131.60 150.52 
3673 142.41 156.19 150.52 
3674 130.34 65.11 150.52 
3675 140.87 122.44 150.52 
3676 108.33 -442.62 150.52 
3677 122.70 -450.09 150.52 
3678 132.54 -445.73 150.52 
3679 144.94 -451.99 150.52 
3680 135.76 -441.11 150.52 
3681 150.96 -446.01 150.52 
3682 159.55 131.91 150.96 
3683 145.69 -450.67 159.55 
3684 134.39 -449.68 159.55 
3685 145.67 132.12 159.55 
3686 143.88 -454.58 159.55 
3687 141.59 -453.22 159.55 
3688 138.79 -449.52 159.55 
3689 139.84 -444.87 159.55 
3690 129.99 -447.74 159.55 
3691 150.60 -441.10 159.55 
3692 141.31 -435.58 159.55 
3693 163.67 -433.61 159.55 
3694 161.44 -452.45 163.67 
3695 153.10 -445.57 163.67 
3696 131.50 -452.56 163.67 
3697 139.95 -441.79 163.67 
3698 174.31 -446.98 163.67 
3699 169.29 -437.89 174.31 
3700 140.22 -429.67 174.31 
3701 137.30 -431.92 174.31 
3702 131.50 -442.84 174.31 
3703 138.67 -432.62 174.31 
3704 152.06 -442.77 174.31 
3705 174.09 -445.55 174.31 
3706 166.51 -445.06 174.31 
3707 162.46 -447.04 174.31 
3708 172.40 -449.77 174.31 
3709 141.54 -448.04 174.31 
3710 173.76 -453.76 174.31 
3711 170.34 -452.23 174.31 
3712 170.25 -443.39 174.31 
3713 152.96 -446.30 174.31 
3714 168.96 -450.75 174.31 
3715 176.38 -453.44 174.31 
3716 123.14 -450.42 176.38 
3717 156.48 -455.22 176.38 
3718 167.71 -448.91 176.38 
3719 146.62 -449.87 176.38 
3720 159.07 -453.87 176.38 
3721 168.73 -457.05 176.38 
3722 151.67 -456.13 176.38 
3723 161.14 -452.76 176.38 
3724 168.88 -453.99 176.38 
3725 173.24 -453.62 176.38 
3726 169.74 -458.84 176.38 
3727 173.43 -452.18 176.38 
3728 168.14 -458.97 176.38 
3729 158.86 -454.00 176.38 
3730 171.36 -426.80 176.38 
3731 143.90 143.07 176.38 
3732 178.45 -417.98 176.38 
3733 172.79 -448.01 178.45 
3734 161.50 -415.94 178.45 
3735 180.52 192.56 178.45 
3736 179.16 173.70 180.52 
3737 158.54 188.90 180.52 
3738 164.41 157.69 180.52 
3739 145.48 194.86 180.52 
3740 160.29 154.36 180.52 
3741 166.18 194.32 180.52 
3742 170.77 194.95 180.52 
3743 169.79 195.25 180.52 
3744 169.33 195.51 180.52 
3745 151.76 194.77 180.52 
3746 157.51 195.08 180.52 
3747 171.21 195.93 180.52 
3748 164.62 196.17 180.52 
3749 158.61 196.68 180.52 
3750 153.18 195.03 180.52 
3751 170.69 193.91 180.52 
3752 180.91 193.90 180.52 
3753 143.97 193.93 180.91 
3754 166.02 194.49 180.91 
3755 161.57 193.51 180.91 
3756 159.91 194.43 180.91 
3757 185.13 194.92 180.91 
3758 166.23 197.24 185.13 
3759 132.86 198.73 185.13 
3760 152.49 198.60 185.13 
3761 163.43 196.42 185.13 
3762 159.59 180.47 185.13 
3763 176.67 188.35 185.13 
3764 184.30 -429.05 185.13 
3765 178.97 173.24 185.13 
3766 179.71 -450.63 185.13 
3767 160.45 -455.99 185.13 
3768 155.15 -451.42 185.13 
3769 166.92 -451.19 185.13 
3770 159.12 -449.13 185.13 
3771 165.60 -417.81 185.13 
3772 182.52 -402.33 185.13 
3773 174.08 -424.31 185.13 
3774 172.65 136.18 185.13 
3775 177.95 195.97 185.13 
3776 170.67 187.87 185.13 
3777 161.44 -439.54 185.13 
3778 176.53 -440.05 185.13 
3779 175.40 -440.55 185.13 
3780 179.21 -413.67 185.13 
3781 168.96 -438.68 185.13 
3782 162.53 -441.29 185.13 
3783 178.91 -437.85 185.13 
3784 187.17 -441.38 185.13 
3785 187.20 -436.91 187.17 
3786 174.90 -429.29 187.20 
3787 156.56 -414.69 187.20 
3788 157.26 -413.51 187.20 
3789 160.78 -409.16 187.20 
3790 173.37 -438.63 187.20 
3791 182.79 -441.37 187.20 
3792 144.29 -443.83 187.20 
3793 164.86 -434.28 187.20 
3794 171.42 -420.21 187.20 
3795 168.24 -438.27 187.20 
3796 172.46 77.43 187.20 
3797 178.82 76.93 187.20 
3798 179.63 75.82 187.20 
3799 187.82 74.97 187.20 
3800 180.05 -442.20 187.82 
3801 177.04 76.27 187.82 
3802 178.39 77.18 187.82 
3803 182.91 -434.85 187.82 
3804 165.80 -428.48 187.82 
3805 180.47 -430.40 187.82 
3806 189.42 -444.07 187.82 
3807 189.32 75.94 189.42 
3808 177.96 72.49 189.42 
3809 157.59 75.58 189.42 
3810 177.31 -436.86 189.42 
3811 171.50 -445.12 189.42 
3812 165.75 -438.27 189.42 
3813 172.60 -422.57 189.42 
3814 190.43 -423.14 189.42 
3815 186.46 -435.18 190.43 
3816 190.87 -441.95 190.43 
3817 178.89 -442.80 190.87 
3818 184.30 -429.87 190.87 
3819 162.97 78.18 190.87 
3820 152.98 79.47 190.87 
3821 173.72 -438.59 190.87 
3822 190.81 -441.98 190.87 
3823 180.81 -443.58 190.87 
3824 161.08 -442.91 190.87 
3825 159.14 -432.00 190.87 
3826 175.99 -441.80 190.87 
3827 176.55 131.69 190.87 
3828 188.87 -431.63 190.87 
3829 158.90 -441.31 190.87 
3830 169.40 -440.20 190.87 
3831 179.46 -450.54 190.87 
3832 165.89 -444.95 190.87 
3833 167.82 -444.81 190.87 
3834 178.09 -450.55 190.87 
3835 171.48 -448.87 190.87 
3836 184.84 -447.55 190.87 
3837 186.49 75.11 190.87 
3838 177.38 203.76 190.87 
3839 191.20 74.38 190.87 
3840 182.92 -447.92 191.20 
3841 189.58 -441.10 191.20 
3842 186.19 -446.84 191.20 
3843 176.70 75.49 191.20 
3844 184.85 -434.53 191.20 
3845 186.33 74.79 191.20 
3846 171.10 -443.89 191.20 
3847 190.34 -436.02 191.20 
3848 181.06 -433.99 191.20 
3849 182.44 -441.54 191.20 
3850 187.71 -436.22 191.20 
3851 181.21 75.85 191.20 
3852 170.99 76.89 191.20 
3853 163.16 -432.13 191.20 
3854 184.22 78.07 191.20 
3855 185.64 76.93 191.20 
3856 180.28 77.29 191.20 
3857 179.49 -440.49 191.20 
3858 192.44 -441.85 191.20 
3859 179.04 -440.30 192.44 
3860 180.52 78.05 192.44 
3861 173.24 76.88 192.44 
3862 186.10 78.99 192.44 
3863 187.14 79.20 192.44 
3864 174.28 79.82 192.44 
3865 176.84 79.71 192.44 
3866 177.11 79.21 192.44 
3867 179.35 78.57 192.44 
3868 184.50 78.56 192.44 
3869 192.79 77.73 192.44 
3870 185.01 77.82 192.79 
3871 172.28 77.94 192.79 
3872 171.63 77.82 192.79 
3873 185.11 78.56 192.79 
3874 166.75 78.55 192.79 
3875 178.13 77.66 192.79 
3876 190.29 76.73 192.79 
3877 183.22 75.90 192.79 
3878 171.36 74.11 192.79 
3879 179.79 74.12 192.79 
3880 186.54 74.20 192.79 
3881 179.01 74.07 192.79 
3882 185.69 73.21 192.79 
3883 184.08 73.85 192.79 
3884 183.75 74.23 192.79 
3885 189.80 74.27 192.79 
3886 185.94 75.44 192.79 
3887 192.14 75.26 192.79 
3888 179.79 76.14 192.79 
3889 181.23 76.52 192.79 
3890 183.78 76.80 192.79 
3891 183.84 77.34 192.79 
3892 160.11 78.00 192.79 
3893 191.70 78.95 192.79 
3894 191.97 78.80 192.79 
3895 191.24 78.50 192.79 
3896 176.54 77.37 192.79 
3897 178.03 78.53 192.79 
3898 176.52 78.56 192.79 
3899 186.87 78.00 192.79 
3900 182.11 78.06 192.79 
3901 187.42 78.26 192.79 
3902 187.05 78.19 192.79 
3903 176.24 78.42 192.79 
3904 175.08 78.05 192.79 
3905 187.23 78.39 192.79 
3906 192.75 78.69 192.79 
3907 186.43 79.05 192.79 
3908 195.14 78.90 192.79 
3909 180.72 79.04 195.14 
3910 176.75 79.48 195.14 
3911 175.73 80.44 195.14 
3912 175.70 79.46 195.14 
3913 185.90 77.65 195.14 
3914 171.68 79.27 195.14 
3915 188.24 80.59 195.14 
3916 182.91 78.76 195.14 
3917 186.24 76.15 195.14 
3918 190.70 75.41 195.14 
3919 185.11 75.05 195.14 
3920 189.27 73.64 195.14 
3921 181.63 75.44 195.14 
3922 188.62 74.98 195.14 
3923 190.34 73.67 195.14 
3924 185.76 73.29 195.14 
3925 178.33 73.00 195.14 
3926 182.96 71.92 195.14 
3927 191.26 71.72 195.14 
3928 191.08 73.54 195.14 
3929 191.91 75.35 195.14 
3930 188.54 76.01 195.14 
3931 182.08 75.73 195.14 
3932 187.84 73.23 195.14 
3933 181.82 72.87 195.14 
3934 179.61 74.35 195.14 
3935 187.19 75.26 195.14 
3936 181.89 73.12 195.14 
3937 179.86 75.21 195.14 
3938 187.09 73.93 195.14 
3939 193.37 75.69 195.14 
3940 186.47 76.87 195.14 
3941 181.91 77.52 195.14 
3942 189.69 77.83 195.14 
3943 188.74 78.39 195.14 
3944 196.60 76.96 195.14 
3945 183.68 74.15 196.60 
3946 170.18 74.49 196.60 
3947 182.41 73.51 196.60 
3948 167.31 74.96 196.60 
3949 181.72 76.32 196.60 
3950 193.78 76.95 196.60 
3951 194.43 76.52 196.60 
3952 188.89 76.79 196.60 
3953 196.24 76.87 196.60 
3954 183.69 76.40 196.60 
3955 191.40 74.83 196.60 
3956 190.67 76.51 196.60 
3957 190.08 76.47 196.60 
3958 196.92 76.74 196.60 
3959 183.77 76.02 196.92 
3960 195.54 75.38 196.92 
3961 180.95 74.07 196.92 
3962 196.78 73.91 196.92 
3963 195.80 74.82 196.92 
3964 191.77 76.15 196.92 
3965 183.42 76.51 196.92 
3966 193.18 77.19 196.92 
3967 198.14 76.89 196.92 
3968 189.84 77.13 198.14 
3969 196.10 151.47 198.14 
3970 164.08 201.60 198.14 
3971 188.89 201.37 198.14 
3972 189.76 201.63 198.14 
3973 174.62 200.94 198.14 
3974 189.30 171.33 198.14 
3975 199.34 75.35 198.14 
3976 192.08 74.64 199.34 
3977 195.75 75.33 199.34 
3978 195.67 72.94 199.34 
3979 179.69 74.68 199.34 
3980 198.60 74.12 199.34 
3981 192.54 72.35 199.34 
3982 193.21 71.22 199.34 
3983 199.53 171.85 199.34 
3984 174.46 187.25 199.53 
3985 182.05 152.35 199.53 
3986 194.79 142.99 199.53 
3987 193.74 171.80 199.53 
3988 168.32 172.91 199.53 
3989 180.94 198.04 199.53 
3990 181.47 198.22 199.53 
3991 194.54 197.33 199.53 
3992 172.63 186.55 199.53 
3993 174.52 192.64 199.53 
3994 193.21 198.36 199.53 
3995 166.43 184.55 199.53 
3996 178.78 199.07 199.53 
3997 181.20 200.21 199.53 
3998 186.18 195.37 199.53 
3999 185.90 179.47 199.53 
4000 200.16 179.03 199.53 
4001 181.36 200.17 200.16 
4002 184.93 195.11 200.16 
4003 179.72 179.76 200.16 
4004 188.40 201.71 200.16 
4005 190.89 202.52 200.16 
4006 183.93 202.39 200.16 
4007 188.55 202.12 200.16 
4008 194.94 202.17 200.16 
4009 185.52 202.87 200.16 
4010 195.57 203.24 200.16 
4011 171.92 203.56 200.16 
4012 186.40 203.38 200.16 
4013 187.72 203.79 200.16 
4014 180.70 187.34 200.16 
4015 193.18 167.66 200.16 
4016 191.72 203.88 200.16 
4017 189.70 203.80 200.16 
4018 185.77 201.95 200.16 
4019 198.48 76.36 200.16 
4020 198.68 101.05 200.16 
4021 199.85 75.55 200.16 
4022 162.15 125.03 200.16 
4023 174.99 175.51 200.16 
4024 201.89 201.32 200.16 
4025 201.90 166.33 201.89 
4026 189.73 150.90 201.90 
4027 201.86 177.26 201.90 
4028 195.67 201.95 201.90 
4029 183.65 180.35 201.90 
4030 186.03 76.90 201.90 
4031 189.22 162.08 201.90 
4032 189.10 178.15 201.90 
4033 198.50 153.02 201.90 
4034 201.30 178.08 201.90 
4035 201.44 78.80 201.90 
4036 194.70 78.83 201.90 
4037 174.54 179.22 201.90 
4038 183.10 168.29 201.90 
4039 190.72 159.52 201.90 
4040 175.91 119.48 201.90 
4041 201.07 79.32 201.90 
4042 200.60 204.48 201.90 
4043 176.23 189.51 201.90 
4044 180.63 204.65 201.90 
4045 187.89 204.39 201.90 
4046 196.48 178.96 201.90 
4047 187.73 80.05 201.90 
4048 194.54 80.16 201.90 
4049 181.99 80.04 201.90 
4050 193.41 79.90 201.90 
4051 201.05 79.59 201.90 
4052 187.91 79.88 201.90 
4053 181.23 80.06 201.90 
4054 194.49 80.13 201.90 
4055 200.71 80.13 201.90 
4056 200.28 79.55 201.90 
4057 195.43 79.06 201.90 
4058 201.29 78.33 201.90 
4059 182.03 77.64 201.90 
4060 171.35 78.23 201.90 
4061 189.13 77.90 201.90 
4062 182.07 79.03 201.90 
4063 167.40 78.12 201.90 
4064 188.34 76.73 201.90 
4065 199.39 108.14 201.90 
4066 195.76 162.51 201.90 
4067 193.43 79.56 201.90 
4068 187.14 154.69 201.90 
4069 186.80 168.74 201.90 
4070 200.18 203.40 201.90 
4071 194.06 203.50 201.90 
4072 187.67 202.98 201.90 
4073 194.89 177.62 201.90 
4074 192.64 75.86 201.90 
4075 200.02 73.59 201.90 
4076 188.77 188.67 201.90 
4077 194.49 168.70 201.90 
4078 194.47 200.11 201.90 
4079 188.84 199.43 201.90 
4080 187.53 201.44 201.90 
4081 179.27 200.21 201.90 
4082 198.67 192.07 201.90 
4083 193.17 161.10 201.90 
4084 196.62 137.72 201.90 
4085 193.23 133.14 201.90 
4086 186.28 162.67 201.90 
4087 200.01 133.06 201.90 
4088 184.15 181.05 201.90 
4089 189.72 71.61 201.90 
4090 199.08 198.27 201.90 
4091 197.35 195.66 201.90 
4092 190.64 195.56 201.90 
4093 191.57 196.13 201.90 
4094 192.63 195.78 201.90 
4095 191.52 195.43 201.90 
4096 191.49 196.13 201.90 
4097 191.67 195.05 201.90 
4098 171.83 194.30 201.90 
4099 191.83 195.62 201.90 
4100 166.34 195.95 201.90 
4101 192.97 196.86 201.90 
4102 185.39 198.39 201.90 
4103 185.77 70.51 201.90 
4104 177.02 70.59 201.90 
4105 196.47 145.78 201.90 
4106 195.77 70.72 201.90 
4107 185.72 69.09 201.90 
4108 197.62 196.77 201.90 
4109 195.90 197.57 201.90 
4110 197.63 197.12 201.90 
4111 198.57 197.31 201.90 
4112 180.46 196.54 201.90 
4113 191.89 194.73 201.90 
4114 200.80 197.50 201.90 
4115 173.20 196.87 201.90 
4116 186.42 198.97 201.90 
4117 194.27 194.78 201.90 
4118 185.28 196.13 201.90 
4119 172.17 196.73 201.90 
4120 186.10 199.50 201.90 
4121 190.62 199.54 201.90 
4122 190.97 199.91 201.90 
4123 192.35 200.32 201.90 
4124 192.77 200.26 201.90 
4125 198.49 198.33 201.90 
4126 198.22 198.60 201.90 
4127 192.82 198.61 201.90 
4128 200.93 201.05 201.90 
4129 194.30 198.99 201.90 
4130 193.51 198.90 201.90 
4131 200.85 194.43 201.90 
4132 187.04 194.68 201.90 
4133 194.59 193.01 201.90 
4134 200.28 192.71 201.90 
4135 201.33 192.24 201.90 
4136 193.39 190.86 201.90 
4137 193.05 192.17 201.90 
4138 202.03 191.61 201.90 
4139 192.24 192.86 202.03 
4140 198.81 195.86 202.03 
4141 199.61 193.36 202.03 
4142 201.58 197.69 202.03 
4143 180.75 196.42 202.03 
4144 193.64 198.69 202.03 
4145 181.30 200.16 202.03 
4146 194.96 198.96 202.03 
4147 199.64 198.83 202.03 
4148 192.17 198.51 202.03 
4149 198.74 201.67 202.03 
4150 201.38 199.75 202.03 
4151 201.63 198.36 202.03 
4152 194.95 198.98 202.03 
4153 196.73 199.92 202.03 
4154 196.88 197.81 202.03 
4155 194.70 195.41 202.03 
4156 190.15 197.16 202.03 
4157 189.21 197.91 202.03 
4158 202.00 194.39 202.03 
4159 194.33 192.62 202.03 
4160 188.21 192.06 202.03 
4161 189.49 190.06 202.03 
4162 195.03 192.15 202.03 
4163 181.56 189.66 202.03 
4164 188.04 191.57 202.03 
4165 189.84 192.02 202.03 
4166 189.20 194.00 202.03 
4167 202.41 194.20 202.03 
4168 202.79 193.98 202.41 
4169 202.25 192.58 202.79 
4170 183.31 191.98 202.79 
4171 189.89 194.97 202.79 
4172 196.74 197.84 202.79 
4173 190.09 199.62 202.79 
4174 194.40 200.02 202.79 
4175 200.88 199.27 202.79 
4176 186.25 203.36 202.79 
4177 193.86 199.49 202.79 
4178 194.40 199.69 202.79 
4179 188.48 199.60 202.79 
4180 201.20 199.71 202.79 
4181 202.46 198.25 202.79 
4182 156.82 198.66 202.79 
4183 187.71 200.56 202.79 
4184 194.92 200.01 202.79 
4185 201.65 200.62 202.79 
4186 202.90 202.41 202.79 
4187 196.51 -408.02 202.90 
4188 194.63 -414.08 202.90 
4189 189.00 -412.78 202.90 
4190 196.29 143.21 202.90 
4191 195.78 196.02 202.90 
4192 201.56 -412.13 202.90 
4193 194.39 193.18 202.90 
4194 200.81 175.25 202.90 
4195 202.08 -365.95 202.90 
4196 189.80 -355.11 202.90 
4197 183.92 195.53 202.90 
4198 189.80 203.61 202.90 
4199 188.74 203.99 202.90 
4200 195.53 195.09 202.90 
4201 195.56 -414.37 202.90 
4202 187.06 -418.76 202.90 
4203 196.22 -419.94 202.90 
4204 200.55 -408.82 202.90 
4205 193.58 -383.00 202.90 
4206 174.49 -440.82 202.90 
4207 188.77 -421.51 202.90 
4208 195.19 -439.40 202.90 
4209 195.19 -411.62 202.90 
4210 194.33 -415.10 202.90 
4211 188.66 -436.31 202.90 
4212 191.49 -438.96 202.90 
4213 188.34 -439.52 202.90 
4214 192.48 -441.84 202.90 
4215 188.04 -441.10 202.90 
4216 193.38 -439.40 202.90 
4217 179.14 -440.38 202.90 
4218 199.91 -438.18 202.90 
4219 191.33 -439.52 202.90 
4220 187.29 -438.07 202.90 
4221 182.02 -440.54 202.90 
4222 192.61 -436.43 202.90 
4223 191.59 -440.32 202.90 
4224 199.09 -440.71 202.90 
4225 188.58 -419.38 202.90 
4226 194.42 197.72 202.90 
4227 188.61 196.55 202.90 
4228 195.41 -351.12 202.90 
4229 194.16 -439.82 202.90 
4230 200.65 -442.84 202.90 
4231 189.03 -385.32 202.90 
4232 194.75 195.99 202.90 
4233 194.45 196.07 202.90 
4234 186.94 198.15 202.90 
4235 194.76 189.92 202.90 
4236 199.36 172.94 202.90 
4237 194.20 -365.66 202.90 
4238 187.88 200.66 202.90 
4239 192.97 186.07 202.90 
4240 187.75 -441.56 202.90 
4241 192.58 -442.29 202.90 
4242 187.32 -439.23 202.90 
4243 186.41 -440.28 202.90 
4244 179.06 -442.06 202.90 
4245 192.23 -441.74 202.90 
4246 198.17 -442.63 202.90 
4247 186.11 -443.66 202.90 
4248 199.27 -376.50 202.90 
4249 194.21 201.31 202.90 
4250 201.18 201.66 202.90 
4251 201.26 201.31 202.90 
4252 169.21 201.63 202.90 
4253 188.07 202.16 202.90 
4254 200.23 201.74 202.90 
4255 187.72 201.63 202.90 
4256 194.52 200.93 202.90 
4257 180.92 201.12 202.90 
4258 193.75 200.56 202.90 
4259 193.46 200.12 202.90 
4260 193.45 200.47 202.90 
4261 198.62 201.24 202.90 
4262 191.96 201.85 202.90 
4263 185.76 201.05 202.90 
4264 196.71 200.55 202.90 
4265 198.82 167.45 202.90 
4266 194.47 193.26 202.90 
4267 191.12 -385.79 202.90 
4268 199.42 -386.98 202.90 
4269 199.02 -441.37 202.90 
4270 193.08 -414.75 202.90 
4271 199.60 -427.51 202.90 
4272 200.79 -440.20 202.90 
4273 200.80 -440.86 202.90 
4274 189.23 -440.62 202.90 
4275 195.59 -440.81 202.90 
4276 193.12 -439.35 202.90 
4277 194.38 -439.66 202.90 
4278 187.97 -439.87 202.90 
4279 194.39 -440.08 202.90 
4280 182.19 -382.00 202.90 
4281 194.43 -381.20 202.90 
4282 182.52 -391.58 202.90 
4283 194.10 -379.81 202.90 
4284 181.48 -416.18 202.90 
4285 199.91 -440.52 202.90 
4286 199.03 -441.13 202.90 
4287 200.74 -439.57 202.90 
4288 194.56 -439.03 202.90 
4289 194.72 -426.56 202.90 
4290 202.25 -386.41 202.90 
4291 194.04 -435.21 202.90 
4292 193.89 -369.01 202.90 
4293 194.91 179.65 202.90 
4294 161.58 196.69 202.90 
4295 167.40 197.32 202.90 
4296 187.39 197.96 202.90 
4297 181.12 196.59 202.90 
4298 193.84 170.82 202.90 
4299 185.81 186.62 202.90 
4300 200.15 196.27 202.90 
4301 186.61 196.43 202.90 
4302 200.36 196.39 202.90 
4303 199.42 193.20 202.90 
4304 193.31 194.66 202.90 
4305 175.64 194.20 202.90 
4306 193.15 194.26 202.90 
4307 193.28 192.77 202.90 
4308 181.00 192.43 202.90 
4309 180.03 191.51 202.90 
4310 199.92 191.90 202.90 
4311 186.73 193.30 202.90 
4312 197.99 193.61 202.90 
4313 199.74 192.24 202.90 
4314 200.32 190.61 202.90 
4315 192.65 190.49 202.90 
4316 194.84 190.75 202.90 
4317 199.89 192.12 202.90 
4318 193.37 193.12 202.90 
4319 192.59 191.37 202.90 
4320 194.40 191.24 202.90 
4321 193.80 190.07 202.90 
4322 192.93 192.70 202.90 
4323 181.51 192.87 202.90 
4324 192.22 171.87 202.90 
4325 199.62 -390.46 202.90 
4326 198.13 177.61 202.90 
4327 200.26 191.43 202.90 
4328 182.56 -373.88 202.90 
4329 201.25 -439.63 202.90 
4330 200.91 -440.64 202.90 
4331 194.44 -445.29 202.90 
4332 200.91 -441.98 202.90 
4333 187.73 -438.90 202.90 
4334 194.60 -440.35 202.90 
4335 201.57 -441.34 202.90 
4336 201.25 -443.45 202.90 
4337 175.79 -441.79 202.90 
4338 188.42 -445.75 202.90 
4339 187.98 -443.18 202.90 
4340 194.16 -444.93 202.90 
4341 200.64 -444.71 202.90 
4342 199.84 -415.07 202.90 
4343 187.60 -446.21 202.90 
4344 200.65 -442.97 202.90 
4345 201.82 -366.80 202.90 
4346 195.53 -411.67 202.90 
4347 194.42 -376.75 202.90 
4348 188.20 181.61 202.90 
4349 195.55 164.67 202.90 
4350 200.57 184.56 202.90 
4351 181.58 -386.58 202.90 
4352 200.93 170.01 202.90 
4353 186.37 -364.16 202.90 
4354 200.15 -364.21 202.90 
4355 187.28 185.67 202.90 
4356 199.51 155.12 202.90 
4357 188.09 -439.45 202.90 
4358 187.38 -442.65 202.90 
4359 181.13 -435.68 202.90 
4360 193.84 -364.04 202.90 
4361 193.89 187.62 202.90 
4362 191.96 -415.41 202.90 
4363 198.42 -397.29 202.90 
4364 200.14 -432.02 202.90 
4365 201.94 188.03 202.90 
4366 189.67 188.01 202.90 
4367 201.54 188.26 202.90 
4368 201.12 188.77 202.90 
4369 201.48 188.53 202.90 
4370 187.97 188.68 202.90 
4371 201.21 189.33 202.90 
4372 200.95 157.75 202.90 
4373 181.97 158.81 202.90 
4374 200.88 -359.77 202.90 
4375 201.49 -351.06 202.90 
4376 201.40 159.68 202.90 
4377 195.25 -390.90 202.90 
4378 194.62 -414.21 202.90 
4379 195.03 -418.54 202.90 
4380 200.28 -432.69 202.90 
4381 200.03 -415.58 202.90 
4382 195.40 -367.74 202.90 
4383 195.06 -400.94 202.90 
4384 194.54 -395.56 202.90 
4385 194.70 -381.06 202.90 
4386 201.23 -395.82 202.90 
4387 193.78 -366.24 202.90 
4388 175.71 -357.60 202.90 
4389 188.84 187.70 202.90 
4390 200.99 166.01 202.90 
4391 200.37 174.05 202.90 
4392 180.73 189.46 202.90 
4393 194.61 188.87 202.90 
4394 200.99 186.39 202.90 
4395 188.01 189.28 202.90 
4396 187.34 188.19 202.90 
4397 194.72 -348.12 202.90 
4398 193.02 188.79 202.90 
4399 192.12 183.18 202.90 
4400 193.52 184.62 202.90 
4401 193.60 -342.45 202.90 
4402 198.62 159.63 202.90 
4403 193.31 -352.09 202.90 
4404 194.13 160.59 202.90 
4405 201.46 191.70 202.90 
4406 182.49 190.33 202.90 
4407 201.01 193.01 202.90 
4408 194.95 192.41 202.90 
4409 194.52 195.82 202.90 
4410 195.36 196.49 202.90 
4411 194.94 195.52 202.90 
4412 189.83 195.64 202.90 
4413 187.33 193.26 202.90 
4414 200.75 193.47 202.90 
4415 200.43 194.05 202.90 
4416 200.26 193.33 202.90 
4417 195.26 193.62 202.90 
4418 196.06 195.19 202.90 
4419 201.71 193.57 202.90 
4420 195.21 193.36 202.90 
4421 196.01 193.22 202.90 
4422 195.26 195.21 202.90 
4423 187.94 195.87 202.90 
4424 194.85 195.39 202.90 
4425 188.10 194.93 202.90 
4426 195.06 197.12 202.90 
4427 194.57 195.40 202.90 
4428 194.03 194.53 202.90 
4429 188.39 193.75 202.90 
4430 194.56 192.96 202.90 
4431 194.60 193.24 202.90 
4432 187.39 193.83 202.90 
4433 193.80 192.22 202.90 
4434 200.89 192.14 202.90 
4435 200.84 192.21 202.90 
4436 201.34 190.92 202.90 
4437 201.32 189.32 202.90 
4438 188.73 189.36 202.90 
4439 195.62 188.25 202.90 
4440 195.46 189.22 202.90 
4441 188.90 186.34 202.90 
4442 200.36 188.91 202.90 
4443 188.42 188.65 202.90 
4444 199.68 187.08 202.90 
4445 194.69 186.92 202.90 
4446 194.10 187.06 202.90 
4447 186.96 186.53 202.90 
4448 199.58 188.05 202.90 
4449 193.74 187.74 202.90 
4450 188.18 190.74 202.90 
4451 200.67 190.69 202.90 
4452 181.58 190.39 202.90 
4453 187.58 188.57 202.90 
4454 186.10 188.26 202.90 
4455 199.61 187.34 202.90 
4456 192.98 188.65 202.90 
4457 198.81 189.26 202.90 
4458 200.96 189.24 202.90 
4459 200.24 190.37 202.90 
4460 201.11 189.19 202.90 
4461 188.89 187.94 202.90 
4462 201.19 187.53 202.90 
4463 200.55 188.57 202.90 
4464 201.69 188.62 202.90 
4465 188.95 187.24 202.90 
4466 194.34 188.02 202.90 
4467 201.45 186.83 202.90 
4468 194.48 187.29 202.90 
4469 189.36 185.47 202.90 
4470 202.02 186.20 202.90 
4471 202.16 187.60 202.90 
4472 202.51 188.33 202.90 
4473 203.02 189.88 202.90 
4474 190.27 189.82 203.02 
4475 202.54 187.50 203.02 
4476 203.49 183.83 203.02 
4477 203.23 -434.20 203.49 
4478 196.72 -417.77 203.49 
4479 190.66 -432.01 203.49 
4480 196.85 -412.40 203.49 
4481 201.28 -428.96 203.49 
4482 189.65 -417.20 203.49 
4483 202.71 -417.84 203.49 
4484 202.03 -416.36 203.49 
4485 197.75 -424.80 203.49 
4486 196.58 -416.65 203.49 
4487 197.39 -426.92 203.49 
4488 190.22 -421.62 203.49 
4489 185.61 185.16 203.49 
4490 196.62 186.31 203.49 
4491 202.19 186.37 203.49 
4492 197.78 187.15 203.49 
4493 203.72 185.35 203.49 
4494 190.13 183.62 203.72 
4495 196.55 185.84 203.72 
4496 196.89 189.44 203.72 
4497 190.96 189.11 203.72 
4498 196.29 190.13 203.72 
4499 203.34 189.33 203.72 
4500 195.55 189.26 203.72 
4501 203.22 189.92 203.72 
4502 196.63 189.26 203.72 
4503 177.39 190.61 203.72 
4504 203.61 190.65 203.72 
4505 203.34 190.52 203.72 
4506 203.49 191.03 203.72 
4507 196.72 191.41 203.72 
4508 203.09 191.19 203.72 
4509 202.57 190.54 203.72 
4510 197.25 189.68 203.72 
4511 195.77 190.78 203.72 
4512 194.13 191.04 203.72 
4513 202.90 191.34 203.72 
4514 182.00 190.79 203.72 
4515 196.45 192.06 203.72 
4516 194.89 193.06 203.72 
4517 200.30 192.81 203.72 
4518 186.30 192.93 203.72 
4519 192.77 195.40 203.72 
4520 187.98 194.01 203.72 
4521 200.19 193.72 203.72 
4522 193.91 194.46 203.72 
4523 201.42 193.99 203.72 
4524 195.03 194.16 203.72 
4525 194.96 194.70 203.72 
4526 182.52 195.44 203.72 
4527 202.24 193.61 203.72 
4528 195.74 193.46 203.72 
4529 194.30 193.54 203.72 
4530 201.51 193.45 203.72 
4531 201.15 192.59 203.72 
4532 183.32 192.32 203.72 
4533 195.64 190.88 203.72 
4534 195.27 191.43 203.72 
4535 201.71 191.94 203.72 
4536 196.68 190.90 203.72 
4537 181.80 191.35 203.72 
4538 203.06 190.26 203.72 
4539 202.57 191.57 203.72 
4540 203.05 192.84 203.72 
4541 202.25 192.52 203.72 
4542 202.47 191.89 203.72 
4543 197.27 192.65 203.72 
4544 196.50 190.06 203.72 
4545 203.27 190.23 203.72 
4546 189.86 190.29 203.72 
4547 201.38 190.68 203.72 
4548 202.08 189.59 203.72 
4549 203.03 190.31 203.72 
4550 197.04 190.45 203.72 
4551 201.72 191.21 203.72 
4552 203.32 190.26 203.72 
4553 197.06 191.07 203.72 
4554 203.38 191.08 203.72 
4555 202.49 190.05 203.72 
4556 202.64 191.79 203.72 
4557 196.29 191.40 203.72 
4558 195.11 191.68 203.72 
4559 195.66 191.69 203.72 
4560 196.02 191.28 203.72 
4561 196.40 193.76 203.72 
4562 177.77 192.38 203.72 
4563 183.15 192.55 203.72 
4564 202.46 67.43 203.72 
4565 194.36 189.86 203.72 
4566 201.60 67.10 203.72 
4567 200.70 66.35 203.72 
4568 194.96 190.53 203.72 
4569 202.47 66.96 203.72 
4570 201.07 191.78 203.72 
4571 196.00 190.38 203.72 
4572 195.31 191.81 203.72 
4573 202.69 190.97 203.72 
4574 196.37 190.00 203.72 
4575 202.86 189.20 203.72 
4576 195.99 64.60 203.72 
4577 196.20 66.76 203.72 
4578 201.18 92.23 203.72 
4579 195.89 87.45 203.72 
4580 194.50 67.02 203.72 
4581 201.25 68.06 203.72 
4582 202.70 88.02 203.72 
4583 188.40 167.88 203.72 
4584 202.24 147.68 203.72 
4585 197.30 141.85 203.72 
4586 197.09 182.31 203.72 
4587 203.53 193.08 203.72 
4588 203.19 68.78 203.72 
4589 197.72 193.60 203.72 
4590 204.05 193.95 203.72 
4591 203.03 192.14 204.05 
4592 197.75 193.28 204.05 
4593 203.58 192.45 204.05 
4594 198.08 192.80 204.05 
4595 198.14 192.56 204.05 
4596 202.58 193.66 204.05 
4597 203.99 194.03 204.05 
4598 196.18 194.86 204.05 
4599 197.39 195.06 204.05 
4600 202.68 193.94 204.05 
4601 203.66 193.64 204.05 
4602 197.25 195.00 204.05 
4603 195.83 194.21 204.05 
4604 196.78 195.15 204.05 
4605 204.02 196.01 204.05 
4606 201.43 196.92 204.05 
4607 197.47 197.51 204.05 
4608 202.09 180.42 204.05 
4609 196.35 196.15 204.05 
4610 203.72 196.36 204.05 
4611 204.14 197.85 204.05 
4612 197.73 196.39 204.14 
4613 198.31 196.85 204.14 
4614 197.54 195.79 204.14 
4615 203.49 195.79 204.14 
4616 190.41 197.67 204.14 
4617 203.58 198.75 204.14 
4618 190.65 198.73 204.14 
4619 195.94 197.92 204.14 
4620 203.60 198.54 204.14 
4621 204.29 200.59 204.14 
4622 197.27 200.89 204.29 
4623 204.17 199.67 204.29 
4624 203.64 201.25 204.29 
4625 195.55 201.62 204.29 
4626 203.29 201.70 204.29 
4627 201.89 200.29 204.29 
4628 203.01 201.07 204.29 
4629 197.96 200.74 204.29 
4630 191.47 200.69 204.29 
4631 203.25 199.38 204.29 
4632 202.33 199.20 204.29 
4633 197.18 200.28 204.29 
4634 203.76 202.01 204.29 
4635 191.15 202.27 204.29 
4636 191.98 200.83 204.29 
4637 190.50 200.45 204.29 
4638 197.97 200.37 204.29 
4639 197.08 202.21 204.29 
4640 203.57 201.05 204.29 
4641 198.01 201.10 204.29 
4642 197.46 200.50 204.29 
4643 184.96 198.75 204.29 
4644 204.16 198.54 204.29 
4645 198.22 198.48 204.29 
4646 185.28 198.51 204.29 
4647 190.24 199.26 204.29 
4648 185.61 199.87 204.29 
4649 203.50 199.07 204.29 
4650 184.60 199.09 204.29 
4651 183.03 199.59 204.29 
4652 197.78 200.91 204.29 
4653 195.87 200.32 204.29 
4654 190.54 200.93 204.29 
4655 182.27 201.05 204.29 
4656 202.04 200.23 204.29 
4657 202.85 201.74 204.29 
4658 189.57 202.31 204.29 
4659 196.77 201.85 204.29 
4660 189.96 202.91 204.29 
4661 202.96 201.59 204.29 
4662 199.68 201.41 204.29 
4663 204.27 201.41 204.29 
4664 196.66 200.73 204.29 
4665 193.25 201.04 204.29 
4666 204.83 201.89 204.29 
4667 198.14 201.64 204.83 
4668 198.93 200.04 204.83 
4669 197.16 199.54 204.83 
4670 199.22 200.37 204.83 
4671 204.73 201.42 204.83 
4672 184.89 199.64 204.83 
4673 203.39 200.04 204.83 
4674 203.09 201.40 204.83 
4675 191.16 201.35 204.83 
4676 201.73 200.73 204.83 
4677 202.40 201.62 204.83 
4678 190.99 201.56 204.83 
