iteration,time_sampling,stoc_pol_mean,stoc_pol_std,stoc_pol_max,stoc_pol_min,rollout_success,alpha,delta,time_vpg,time_npg,kl_dist,surr_improvement,running_score,rwd_sparse,rwd_dense,success_percentage,num_samples,time_VF,VF_error_before,VF_error_after,eval_score,eval_success
0,2.7159576416015625,-192.64399686057791,112.10809360901678,-104.83629741150244,-764.9609069085116,0.0,0.4461503857573306,0.1,0.06881427764892578,0.5291743278503418,0.059864648,0.21920629,-192.64399686057791,-2.8859543123903566,-3.7846642323573683,0.0,1808,0.17747235298156738,0.9991944646658348,0.9413444705128973,-204.8370411464166,0.0
1,2.0139126777648926,-195.05784251804843,117.02318374605603,-102.4846183762325,-804.4178113552576,0.0,0.605395947895005,0.1,0.007211208343505859,0.14121723175048828,0.051387507,0.15010919,-192.88538142632495,-2.8872314810658537,-3.832049277276012,0.0,1819,0.1732480525970459,0.9429645088881445,0.5285904677677682,-236.97584578636537,0.0
2,2.150210380554199,-214.2398846432308,148.02106383881517,-125.35111287836517,-862.7441668703647,0.0,0.6197454027532207,0.1,0.00788736343383789,0.16326260566711426,0.05493648,0.15110554,-195.02083174801555,-2.9212554272600375,-4.218831880026926,0.0,1911,0.19054269790649414,0.5909573031683993,0.3926995133912418,-230.8402637872585,0.0
3,2.258190870285034,-176.71293049142346,65.06057696850024,-112.74328492293333,-761.4462926640077,0.0,0.5957882783343724,0.1,0.00740814208984375,0.13675618171691895,0.051144626,0.16913001,-193.19004162235635,-2.8154901757542725,-3.4651919660289274,0.0,1730,0.16770172119140625,0.3368415806689931,0.2455670406634556,-255.16293311772125,0.0
4,1.9110426902770996,-180.15402527007163,76.20277948019897,-105.02249161684026,-756.4318059218023,0.0,0.5515844775540011,0.1,0.006527900695800781,0.20121264457702637,0.046551056,0.17096242,-191.88643998712786,-2.788501437873721,-3.5342302921319333,0.0,1751,0.17212700843811035,0.2824915568408056,0.2698927971357055,-270.79188270167157,0.0
5,1.9498217105865479,-205.10724872959352,146.99876709101196,-99.88064828926403,-829.3008127343443,0.0,0.6396978703277248,0.1,0.0063707828521728516,0.13907408714294434,0.052128136,0.14996384,-193.2085208613744,-2.899254544880274,-4.033106264158989,0.0,1867,0.18056535720825195,0.3997915618419552,0.3685136093917987,-261.84019993025163,0.0
6,1.9078502655029297,-165.15438174465984,52.34844510478556,-102.25677885322266,-618.8497020704211,0.0,0.528722332439352,0.1,0.006106376647949219,0.13624072074890137,0.053255398,0.18033879,-190.40310694970293,-2.7550160923024074,-3.2351407707831563,0.0,1691,0.1645948886871338,0.24402919804011025,0.17085325370256232,-255.7089558668043,0.0
7,1.8834028244018555,-170.18206561639752,50.73678270654429,-107.2358817416211,-594.3729452425804,0.0,0.559111570144449,0.1,0.006161212921142578,0.13801908493041992,0.051548313,0.16596536,-188.3810028163724,-2.775185273199225,-3.335064370115422,0.0,1707,0.15815472602844238,0.16495359416526856,0.15070319518821398,-245.17993472152017,0.0
8,1.9064607620239258,-180.32679565759722,88.05739213769614,-117.337805015874,-770.590315476404,0.0,0.6539360742651701,0.1,0.006055355072021484,0.13587474822998047,0.050601702,0.14430782,-187.5755821004949,-2.844174633186905,-3.5381137489072074,0.0,1735,0.16955351829528809,0.26631153184250667,0.25017304149329717,-216.65602152899166,0.0
9,2.6877529621124268,-172.6801614973341,86.28228108817277,-106.40705913402098,-759.9090693670107,0.0,0.5684481943667904,0.1,0.04817986488342285,1.261603832244873,0.051012017,0.14228515,-186.0860400401788,-2.759483573934947,-3.3847357849125785,0.0,1746,0.17304706573486328,0.2508614584927643,0.23952982095635914,-212.36911563362932,0.0
10,2.014744520187378,-174.89525404210187,89.30629463054505,-112.48983888993888,-796.7140450409875,0.0,0.5398389417244038,0.1,0.04430723190307617,0.5620214939117432,0.05023378,0.13567966,-184.9669614403711,-2.7657703783939027,-3.4280135492957466,0.0,1759,0.17821621894836426,0.238310424236055,0.22769684223551315,-199.57301782116878,0.0
11,1.9217982292175293,-163.61197346268693,49.293334827731165,-115.64174441232785,-511.5240083771922,0.0,0.5836757439979106,0.1,0.006276845932006836,0.13837242126464844,0.047471482,0.16610488,-182.83146264260267,-2.745774479842181,-3.2030872137343978,0.0,1719,0.15881729125976562,0.12509262802581417,0.11597305702121993,-175.76246323996753,0.0
12,2.0941221714019775,-167.0427854307479,90.71791627811902,-95.98863414753654,-802.7808187390907,0.0,0.581719303480069,0.1,0.004559516906738281,0.10314011573791504,0.0508727,0.14061935,-181.2525949214172,-2.7320385697289034,-3.271640479749299,0.0,1769,0.09623908996582031,0.26043224228572875,0.25300215771796675,-159.8500952329234,0.0
13,2.1248667240142822,-163.57548058951207,58.24081336844856,-92.39617634326007,-688.3630165119962,0.0,0.5426333727157429,0.1,0.012774467468261719,0.35091638565063477,0.054288756,0.16690151,-179.4848834882267,-2.751450559573918,-3.203644483292672,0.0,1730,0.17152047157287598,0.14879875218427516,0.14598424197110044,-166.9913678576134,0.0
14,1.9248149394989014,-157.19776742634437,42.37118270204738,-101.06046914580976,-494.6196234764343,0.0,0.6202066002155258,0.1,0.026576519012451172,0.15485715866088867,0.050783478,0.21652178,-177.25617188203847,-2.7105869687270157,-3.0735977202837255,0.0,1710,0.1663682460784912,0.10648267279634255,0.10045922241859091,-188.22694758726846,0.0
15,2.0008482933044434,-170.51103581121444,64.8645133522616,-110.01359881967592,-692.2025872476097,0.0,0.5769257861116281,0.1,0.006598472595214844,0.2050936222076416,0.05011574,0.21665601,-176.58165827495608,-2.7644567143619754,-3.339931061858057,0.0,1804,0.17516756057739258,0.16352031944451123,0.15572706397331745,-166.15979201072534,0.0
16,2.0066025257110596,-160.9253610966504,61.652629639305296,-93.3692196764439,-674.4109237366657,0.0,0.5320679355407614,0.1,0.020746707916259766,0.4449179172515869,0.049772,0.16416527,-175.01602855712554,-2.77917007150373,-3.1483980826543614,0.0,1790,0.17603778839111328,0.17426860996913254,0.1692433630524746,-265.7198866978336,0.0
17,1.938553810119629,-152.9670513255447,65.26348802686535,-58.760517133218045,-675.2890791213389,0.0,0.5829285438206914,0.1,0.006442546844482422,0.1934967041015625,0.050501976,0.15022504,-172.81113083396747,-2.7121757538912523,-2.9908641435211867,0.0,1790,0.167158842086792,0.1801385537656253,0.17686783142019877,-260.9981044699647,0.0
18,1.991180181503296,-151.71913047917607,73.73423960860924,-61.90498751717549,-820.360299443295,0.0,0.5877561751925524,0.1,0.00628209114074707,0.14104056358337402,0.051977135,0.16762382,-170.70193079848832,-2.6986413289265982,-2.9648956000647337,0.0,1771,0.17068958282470703,0.21410920707423858,0.21115039538886393,-297.5662286765267,0.0
19,1.965754747390747,-146.2430559379799,29.613757236213967,-77.05210506533246,-242.77605041121416,0.0,0.5645000402499311,0.1,0.00842428207397461,0.14899492263793945,0.049789935,0.25352338,-168.2560433124375,-2.705313294774944,-2.8556371430489658,0.0,1751,0.17328381538391113,0.08078467569016769,0.06937429483541839,-308.7676792644629,0.0
20,2.0219922065734863,-147.0958417179427,29.03207316612126,-87.6651753604776,-257.4601033276266,0.0,0.6381519999220201,0.1,0.0065500736236572266,0.1885383129119873,0.05058431,0.17472482,-166.14002315298802,-2.737632445521187,-2.8723932409636515,0.0,1763,0.17506647109985352,0.06815049360615881,0.059945873386419435,-262.85825613482587,0.0
21,2.0018324851989746,-148.34853954332166,54.82944552739074,-85.58148076291437,-595.6861764493233,0.0,0.6044287393863292,0.1,0.006509542465209961,0.14319372177124023,0.050827637,0.14366344,-164.3608747920214,-2.7238483912652494,-2.8974167493447567,0.0,1801,0.17809534072875977,0.1282376460366832,0.12515600610730085,-62.072343711723775,0.0
22,1.9766359329223633,-136.48933870919402,24.76955169983739,-83.3176733868688,-204.65577518257692,0.0,0.5949360328984858,0.1,0.0061833858489990234,0.14339733123779297,0.05115773,0.1980018,-161.57372118373866,-2.6918671097992415,-2.660533739514157,0.0,1774,0.1640467643737793,0.060447019317726614,0.052045340665476385,-151.8444865244387,0.0
23,1.994877576828003,-130.80041859110148,28.829932384490853,-87.41786273661198,-231.68629649557934,0.0,0.6085789615902241,0.1,0.021896839141845703,1.367295265197754,0.049994115,0.17223112,-158.49639092447492,-2.64814922691561,-2.5457342290546117,0.0,1793,0.17812252044677734,0.06057434194895621,0.05643761087110258,-94.87794333259882,0.0
24,2.077500581741333,-131.46165488452746,58.73864077589465,-70.93395057592866,-632.0064580482276,0.0,0.5087704555460817,0.1,0.04983162879943848,0.4500298500061035,0.049162198,0.11902367,-155.79291732048017,-2.641274674891352,-2.5593982998072184,0.0,1844,0.18381929397583008,0.1894729748256819,0.18198104618431732,-115.70069508637457,0.0
25,2.069627046585083,-124.07138198513941,29.431084978046947,-63.10737118461613,-213.74831721093543,0.0,0.6516931814047118,0.1,0.03281545639038086,0.43799805641174316,0.050369788,0.17173935,-152.6207637869461,-2.6268520295483277,-2.411822762984834,0.0,1818,0.19177508354187012,0.06336135620136295,0.056908114550613245,-130.61365712164445,0.0
26,2.0522525310516357,-114.6664102102559,31.74224271955761,-62.65084773327409,-273.13022284602874,0.0,0.6545676045013802,0.1,0.006217002868652344,0.2653777599334717,0.052067973,0.15803887,-148.82532842927708,-2.5744778699805173,-2.2228669278632034,0.0,1824,0.20659613609313965,0.0749308991519326,0.07102822859138518,-140.0185218789328,0.0
27,1.9769139289855957,-117.12662132801843,33.93093331815907,-62.56906076764295,-327.4918388351231,0.0,0.5863033307050262,0.1,0.006244659423828125,0.13567614555358887,0.049344983,0.15070117,-145.65545771915123,-2.606034005191041,-2.271696518519509,0.0,1840,0.22167634963989258,0.08043326044875564,0.0780061378359437,-189.82503524848877,0.0
28,2.2007861137390137,-111.13843230932412,36.27601788384729,-54.22044613506051,-353.0908447197056,0.0,0.6479463843268465,0.1,0.010072469711303711,0.15449261665344238,0.05048742,0.13858229,-142.20375517816854,-2.604210541190612,-2.153591682597492,0.0,1881,0.24527764320373535,0.1020323045571524,0.09869657809389043,-313.6975032644592,0.0
29,2.245720386505127,-111.57310298223665,31.689307537214816,-53.03440095046311,-310.15008602666455,0.0,0.6381577894028373,0.1,0.033783912658691406,0.1480236053466797,0.0510376,0.15008396,-139.14068995857536,-2.610563582297988,-2.160836259600476,0.0,1890,0.2570517063140869,0.07794521095393259,0.07556598193335488,-256.8189914393754,0.0
30,2.326348304748535,-99.60712903105893,25.957324026149955,-49.545687182191074,-180.13969793033982,0.0,0.685339851004417,0.1,0.006473064422607422,0.21413683891296387,0.04986015,0.15299225,-135.18733386582372,-2.6000264909829167,-1.921538741133034,0.0,1909,0.27855610847473145,0.07109878177214812,0.061042187980765085,-279.43892404218604,0.0
31,2.0778164863586426,-100.67521369757849,24.24616048395799,-53.10644029667255,-165.15458954700935,0.0,0.6464070325928718,0.1,0.006731271743774414,0.3140392303466797,0.04972735,0.17823584,-131.7361218489992,-2.6214095528118135,-1.943753940622564,0.0,1916,0.30353260040283203,0.05895461935515517,0.056047522555338784,-288.35750947830223,0.0
32,2.0839123725891113,-104.52396900155809,48.881811326283625,-45.934834493253106,-505.72704240486775,0.0,0.5850295634075509,0.1,0.006329059600830078,0.2016303539276123,0.051350795,0.11063527,-129.01490656425509,-2.6067761817278607,-2.019760385229318,0.0,1947,0.32659077644348145,0.1576954779641211,0.15000999216561095,-268.7484272901735,0.0
33,2.144929885864258,-96.09609181540533,24.032352788894162,-45.488809634403836,-164.10549845824494,0.0,0.6736437791539671,0.1,0.006300687789916992,0.14452099800109863,0.050329946,0.17468056,-125.72302508937011,-2.5206260622451953,-1.8525589571227699,0.0,1884,0.3115062713623047,0.06072970688634283,0.0534656244578393,-277.6763737273361,0.0
34,2.2340312004089355,-95.90781988080813,30.09731701392409,-51.124947157983435,-241.7788833512921,0.0,0.642853601324604,0.1,0.006918430328369141,0.15236997604370117,0.051402006,0.14634892,-122.7415045685139,-2.5866748270385287,-1.848748364765236,0.0,2011,0.3409087657928467,0.08221502624834959,0.07546059424306165,-263.81014069957916,0.0
35,2.2006053924560547,-96.11797497489992,28.33734761434465,-36.84232790694414,-235.1736464520285,0.0,0.6397459326197287,0.1,0.006636142730712891,0.14362645149230957,0.04864649,0.14936097,-120.0791516091525,-2.5678289762476956,-1.8524605955262539,0.0,1997,0.33355212211608887,0.07261569496621692,0.07042706680380673,-288.20930905176084,0.0
36,2.159823417663574,-93.12644939352707,27.48270611537934,-47.42331459121465,-213.16938392480154,0.0,0.7064392995490673,0.1,0.0063571929931640625,0.14687299728393555,0.04725212,0.13399285,-117.38388138758997,-2.523796980310546,-1.7928110097386263,0.0,1956,0.33104395866394043,0.06528127455659298,0.06360769706070551,-250.96998406404668,0.0
37,2.1610701084136963,-92.78707218412455,31.778152219012362,-39.76535582564183,-310.5110032029349,0.0,0.6623150719767641,0.1,0.006406307220458984,0.2618980407714844,0.050842755,0.14344902,-114.92420046724342,-2.551779414761373,-1.786170954399779,0.0,1986,0.33891963958740234,0.08833114565039826,0.08488979617564718,-255.2313221035381,0.0
38,2.2079153060913086,-93.58155627527884,22.13545651475583,-43.973271497254274,-150.62799965960204,0.0,0.692021930714904,0.1,0.006371498107910156,0.20596098899841309,0.049831524,0.15167432,-112.78993604804697,-2.5236392262684846,-1.8012809268468726,0.0,1984,0.3389914035797119,0.044769301095265446,0.04279255847181291,-254.086703982075,0.0
39,2.2407732009887695,-87.67438108989246,25.35927063275603,-41.00410169987057,-177.36394859492174,0.0,0.7079246297733348,0.1,0.006218910217285156,0.14552545547485352,0.046760175,0.14702624,-110.27838055223151,-2.4830253479977014,-1.6817564531488738,0.0,2004,0.3366246223449707,0.05194597637766359,0.04795254965923685,-246.60292749228603,0.0
40,2.2292652130126953,-86.06075845835676,24.15304818452405,-46.63735836436839,-159.9046814419989,0.0,0.7046769742127614,0.1,0.006720542907714844,0.14853453636169434,0.0493496,0.1559416,-107.85661834284404,-2.5405742492568497,-1.6516167534634143,0.0,2023,0.312058687210083,0.04604953432675492,0.04405628606004513,-260.89846023468726,0.0
41,2.2359116077423096,-86.86170197917829,21.121480983694475,-42.51077900376202,-146.1685966836415,0.0,0.6890749783750643,0.1,0.006772756576538086,0.14686107635498047,0.049267985,0.16373071,-105.75712670647748,-2.519069693776811,-1.6673262262190807,0.0,2016,0.3401832580566406,0.03878364180204709,0.03691398747430983,-254.65291968693745,0.0
42,2.28464937210083,-87.52283474435717,28.88107665480159,-44.24636353252427,-226.52822150695727,0.0,0.6764508783173514,0.1,0.03091716766357422,0.17610812187194824,0.049772434,0.14317279,-103.93369751026545,-2.45785501503009,-1.6792566723354947,0.0,2026,0.3326864242553711,0.054446401622949434,0.05292156500114877,-261.88181403265304,0.0
43,2.365112781524658,-86.48701622457013,24.537737559752607,-39.19283745699029,-187.9858637580612,0.0,0.7222234959887064,0.1,0.020301342010498047,0.7052476406097412,0.048464164,0.1336859,-102.18902938169592,-2.492910433606521,-1.6588616738549014,0.0,2023,0.3411438465118408,0.04945898196693638,0.04804242480437596,-270.9166393233598,0.0
44,2.488016128540039,-90.19994215722848,29.24901181829692,-33.24285080841925,-196.1013217222775,0.0,0.7441275385172945,0.1,0.006453514099121094,0.27805399894714355,0.049420234,0.1365268,-100.99012065924917,-2.527148428028918,-1.7330644673019144,0.0,2065,0.34203672409057617,0.05393891909592652,0.05175209289112078,-284.5294902129796,0.0
45,2.215270519256592,-89.50343550275527,26.60855925600669,-46.7488141094535,-202.5338918795922,0.0,0.665057411867645,0.1,0.07074904441833496,0.21748089790344238,0.050338138,0.14238118,-99.84145214359978,-2.5488364207246748,-1.7197432138233502,0.0,2025,0.3424034118652344,0.0601011446125888,0.05733944125171737,-243.42717554652688,0.0
46,2.2376863956451416,-89.51393555689835,58.78282638716569,-39.84896992074096,-586.4845648421007,0.0,0.511348007511101,0.1,0.00621485710144043,0.14227676391601562,0.052243605,0.1110564,-98.80870048492964,-2.452439876106521,-1.7199900753351838,0.0,2055,0.29554224014282227,0.21684221589280292,0.19120038834032607,-229.09089778871632,0.0
47,2.266657829284668,-86.16330214875346,24.545019948536822,-45.963070998674596,-192.52749753500046,0.0,0.637535673980897,0.1,0.006410360336303711,0.14776182174682617,0.04918649,0.1447752,-97.54416065131203,-2.5014775489391776,-1.6540132129974818,0.0,2059,0.3474421501159668,0.05154678176160034,0.046140215252615836,-228.36986996386483,0.0
48,2.341792345046997,-88.97322015604482,39.42913920758883,-34.422091337878825,-379.63597475996426,0.0,0.6105357655670933,0.1,0.0070688724517822266,0.21796441078186035,0.050924018,0.11483956,-96.68706660178532,-2.5145504781855252,-1.708204213719671,0.0,2092,0.3384408950805664,0.09511592780374013,0.09307213327723073,-244.26413491496595,0.0
49,2.241769790649414,-91.34366833330704,25.40945338114013,-50.54759886390006,-183.60825598287545,0.0,0.6785892383880296,0.1,0.04534029960632324,0.16481256484985352,0.050602973,0.16026953,-96.15272677493749,-2.5471195534932884,-1.7552214945504516,0.0,2039,0.32601499557495117,0.046323503814101184,0.042611146226856265,-233.00154717065726,0.0
50,2.2996582984924316,-81.45489255777096,21.787206756195687,-35.653959911748686,-133.3619154898684,0.0,0.6408096196408565,0.1,0.04624223709106445,1.2004694938659668,0.04931625,0.16676915,-94.68294335322084,-2.440079382338159,-1.5600371746655608,0.0,2025,0.33057475090026855,0.04284890387614047,0.03614472540131276,-242.24385796260378,0.0
51,2.2484569549560547,-84.74790438473444,22.764875481614325,-42.03956808433183,-149.02165848779694,0.0,0.675625109086255,0.1,0.034569740295410156,0.15059375762939453,0.04875387,0.15586215,-93.6894394563722,-2.5118571383532675,-1.6247282900405968,0.0,2040,0.32774925231933594,0.035380427954524216,0.033598144551194135,-243.84500264346676,0.0
52,2.1890482902526855,-82.19003447556457,24.17400160125082,-38.62912019115642,-169.23022820170786,0.0,0.6815455234951918,0.1,0.04656410217285156,0.2145545482635498,0.047507804,0.14173138,-92.53949895829145,-2.483889869574675,-1.5729432018108807,0.0,2018,0.3376305103302002,0.04371527159662585,0.04345042459260222,-229.6388380933148,0.0
53,2.227818489074707,-79.02526076532675,20.797036409151602,-47.472666896289866,-136.38545250587723,0.0,0.7338773448667605,0.1,0.06684470176696777,0.21543216705322266,0.047952432,0.13162178,-91.18807513899499,-2.509006770863311,-1.509219627524816,0.0,2062,0.3424389362335205,0.03559568763815955,0.03473363944945371,-239.01766140572332,0.0
54,2.313492774963379,-84.24792084602225,23.554097098195914,-42.14797854488228,-165.7422571395673,0.0,0.7002953407388729,0.1,0.0064051151275634766,0.21274089813232422,0.050466385,0.14420927,-90.49405970969772,-2.5533719519580362,-1.6145678596363975,0.0,2095,0.3540024757385254,0.03943261224792793,0.036802934081807494,-223.9244070287627,0.0
55,2.4035024642944336,-81.55692690954498,28.845661166778836,-35.41254847810866,-257.2570440656516,0.0,0.753625658732536,0.1,0.007362842559814453,0.2146930694580078,0.0484799,0.11445376,-89.60034642968245,-2.5147243001650152,-1.5609416674706296,0.0,2038,0.35341930389404297,0.059851124007426613,0.05803848292712606,-237.0949538882462,0.0
56,2.5604491233825684,-78.86316851809879,22.69574596490503,-38.26969359723764,-163.69482308535785,0.0,0.682131971075777,0.1,0.04919266700744629,1.386864423751831,0.049031917,0.15235478,-88.52662863852409,-2.516326618306724,-1.5062700481151605,0.0,2092,0.353503942489624,0.039318093941424846,0.03596384105789553,-229.44509222623608,0.0
57,2.325233221054077,-77.99572414611036,25.37593349432218,-28.83379382140943,-155.0087422290756,0.0,0.70576024696245,0.1,0.05884242057800293,0.829587459564209,0.050232563,0.13453498,-87.47353818928272,-2.5250147208451263,-1.487437615237609,0.0,2113,0.3707559108734131,0.04779850865150183,0.04604898720959899,-214.857500924695,0.0
58,3.107855796813965,-76.52324380554535,21.915181742295474,-37.694673063463824,-139.79867925859588,0.0,0.6855305974638827,0.1,0.04592728614807129,0.20216035842895508,0.04892746,0.13390636,-86.37850875090898,-2.5040411260998727,-1.4600049572017515,0.0,2064,0.3732140064239502,0.03704360117479172,0.03591487912269979,-217.49218027393061,0.0
59,2.3110575675964355,-74.32858561815677,20.357331296202943,-35.93897567035932,-132.46125328408363,0.0,0.6605118566784182,0.1,0.0067789554595947266,0.1516573429107666,0.04693342,0.14237417,-85.17351643763377,-2.4400014712796625,-1.4163929013728211,0.0,2124,0.3819108009338379,0.03533971856108162,0.033846925593578506,-224.5634114680462,0.0
60,2.2867331504821777,-79.94559130848765,22.96478849342415,-31.583545610189127,-144.49788143141916,0.0,0.7032667540672254,0.1,0.02907252311706543,0.20137381553649902,0.04957566,0.15436113,-84.65072392471916,-2.5301954053542164,-1.5288001586595448,0.0,2089,0.37206315994262695,0.03848110632024928,0.035814280715822426,-249.7975386491694,0.0
61,2.293910503387451,-77.5787683583731,23.736722490496113,-43.411005643007485,-191.1398147884401,0.0,0.6997765611483961,0.1,0.012393474578857422,0.2167971134185791,0.049265653,0.14752598,-83.94352836808456,-2.4907794813238606,-1.4815460002964445,0.0,2134,0.38526320457458496,0.03628447017951917,0.03494975307289227,-226.99118214002527,0.0
62,2.724254846572876,-76.99681057202851,23.040195856149502,-41.8022405685901,-189.49396347977094,0.0,0.7244440167214868,0.1,0.05991482734680176,0.30385661125183105,0.048227746,0.1322894,-83.24885658847896,-2.531210647497422,-1.4685854673051388,0.0,2109,0.314190149307251,0.03203345651098146,0.0312935701360773,-214.96863278067212,0.0
63,2.3050248622894287,-77.24440937213377,23.12674720281228,-29.690309869269342,-155.46552684349416,0.0,0.7578406374918857,0.1,0.004896402359008789,0.17067742347717285,0.04846275,0.13370737,-82.64841186684444,-2.5168122854074455,-1.4761787403342386,0.0,2087,0.24636316299438477,0.035568977966950216,0.03458430303784255,-247.17817163903823,0.0
64,2.378239393234253,-78.61351699810253,26.077758563299117,-28.826910641918644,-173.8909062282619,0.0,0.7216839126581058,0.1,0.007007598876953125,0.24849820137023926,0.04814709,0.11638924,-82.24492237997026,-2.5060909971857535,-1.5030172028112017,0.0,2120,0.38045763969421387,0.04964891654343941,0.04683239069275966,-262.4588706624842,0.0
65,2.3480818271636963,-72.49764325179966,17.10340529361332,-37.68658070885525,-118.91018314230271,0.0,0.7228180270117411,0.1,0.006600618362426758,0.15264511108398438,0.048954125,0.13316478,-81.2701944671532,-2.503147416350862,-1.3795524830434722,0.0,2127,0.3769867420196533,0.027728999903523604,0.026236512698764362,-238.72893809331924,0.0
66,2.292937755584717,-75.98395446872259,22.609371283665507,-36.65434734079591,-167.42808246855583,0.0,0.7137752657548349,0.1,0.04601597785949707,0.28911638259887695,0.051203,0.1407805,-80.74157046731014,-2.512910675597681,-1.44760832604772,0.0,2116,0.3637087345123291,0.03710240134646876,0.03301632517661615,-213.08084527049738,0.0
67,2.5903656482696533,-73.95845000247932,29.079847193012448,-40.66785120015376,-240.63226888275517,0.0,0.6858064175403781,0.1,0.02685832977294922,0.1505122184753418,0.04997346,0.12204849,-80.06325842082705,-2.473853145600438,-1.4088729871319823,0.0,2152,0.37271809577941895,0.05233674948727952,0.05060961466936333,-218.69829523487203,0.0
68,2.5217642784118652,-75.22466830243896,19.292920998081037,-36.21799969659336,-119.58093223066005,0.0,0.760551262646963,0.1,0.006727933883666992,0.22016453742980957,0.049101602,0.1398861,-79.57939940898825,-2.501249185383395,-1.4326632873282206,0.0,2153,0.37007594108581543,0.027581692829478092,0.025709256439491655,-234.10937346262625,0.0
69,2.470501184463501,-70.10788398420262,21.29138267735715,-34.144164510096076,-172.7854608861804,0.0,0.7035736323358533,0.1,0.00662541389465332,0.20763754844665527,0.049654335,0.13897592,-78.63224786650969,-2.5538190885953034,-1.3316269234798852,0.0,2141,0.3599734306335449,0.03205063385551418,0.030560902217027026,-220.37053772200042,0.0
70,2.3909335136413574,-70.6821417736989,20.371087357664585,-28.774305077932244,-130.89975226966567,0.0,0.7305008060979047,0.1,0.026311397552490234,0.1519002914428711,0.051052738,0.12710613,-77.83723725722862,-2.5140373073719657,-1.3432128767378526,0.0,2144,0.3692197799682617,0.029510463208805075,0.027710363764581563,-215.01111796404822,0.0
71,2.3809337615966797,-68.31542582098939,21.44719454870892,-21.637501883360986,-146.80932126391286,0.0,0.7588328773252205,0.1,0.006235837936401367,0.14779400825500488,0.048889257,0.13200568,-76.88505611360469,-2.4989803378846127,-1.2953737569626014,0.0,2167,0.31861090660095215,0.03230672924998183,0.030931326085645108,-220.8191496827858,0.0
72,2.363847017288208,-73.71195915694474,20.769675316194085,-28.185759949923998,-131.61296669526487,0.0,0.7313373348580287,0.1,0.006417751312255859,0.14829802513122559,0.047211044,0.14404668,-76.5677464179387,-2.5231713494830132,-1.4021252973733889,0.0,2168,0.3300197124481201,0.02783287054316854,0.026127691912788725,-212.86529828430912,0.0
73,2.397221326828003,-69.68564706409093,24.147186034732258,-28.040855174347968,-147.11737172421954,0.0,0.7179073084104978,0.1,0.006475925445556641,0.1461343765258789,0.050800562,0.13628699,-75.87953648255392,-2.562410526662995,-1.3225391540505067,0.0,2204,0.33776068687438965,0.03272803065361319,0.03141895403345759,-212.10146368552407,0.0
74,2.371588706970215,-68.48161697904638,23.01402871909562,-34.11994774791488,-136.64209865754788,0.0,0.6826879061763674,0.1,0.006819963455200195,0.1641073226928711,0.048808686,0.12998627,-75.13974453220317,-2.5191497449294986,-1.298907320954329,0.0,2230,0.39693522453308105,0.03751921453750139,0.035715274676081675,-237.65530221980208,0.0
75,2.3981895446777344,-65.64131242758502,18.431635730714,-26.35965426081936,-119.37585769626327,0.0,0.7997647369981932,0.1,0.0050203800201416016,0.2180037498474121,0.049338695,0.12285259,-74.18990132174136,-2.5559423551221396,-1.2414666389416424,0.0,2266,0.2712388038635254,0.026894437387906193,0.02655995155893123,-216.28845811956074,0.0
76,2.334827184677124,-65.1736581765211,22.882526848097985,-29.554164423675036,-151.82788313748915,0.0,0.7395013894904714,0.1,0.02555394172668457,0.155045747756958,0.046049953,0.12334794,-73.28827700721934,-2.517365859724337,-1.2334971939020398,0.0,2233,0.3838036060333252,0.034214548585065355,0.034011186882084155,-203.51616605575873,0.0
77,2.443467617034912,-66.57919119786412,23.476662465301946,-32.24287424347408,-154.77989445319685,0.0,0.7473886069167978,0.1,0.006768226623535156,0.15835142135620117,0.04957925,0.11852332,-72.61736842628382,-2.5398567530688614,-1.2612090272069338,0.0,2252,0.3970649242401123,0.036872324850289136,0.03466598136629476,-213.9712439999615,0.0
78,2.4556171894073486,-59.20912639883437,16.587460813652473,-24.40769515994137,-127.75993445941695,0.0,0.744269165342413,0.1,0.0068247318267822266,0.2682311534881592,0.04882828,0.119521484,-71.27654422353888,-2.5050429486174983,-1.1127081447042677,0.0,2265,0.4083702564239502,0.026315073707521255,0.02436921293030899,-212.36043942453074,0.0
79,2.3591127395629883,-65.59145511559133,23.131533315826516,-28.91532451996442,-147.4669898775088,0.0,0.764660502451092,0.1,0.009230375289916992,0.21252703666687012,0.0488386,0.12392918,-70.70803531274413,-2.530926216066859,-1.2405837375924946,0.0,2268,0.4107952117919922,0.03902358993916454,0.035995372286036886,-210.6260622575798,0.0
80,2.489389181137085,-60.504148295545484,20.127679112794034,-21.572985827149807,-134.2845069567188,0.0,0.7497304171724171,0.1,0.0073909759521484375,0.20552682876586914,0.049234096,0.13224718,-69.68764661102426,-2.500517754853945,-1.1390388264456917,0.0,2277,0.4103269577026367,0.03291921935030336,0.026706461013061046,-223.93817299535337,0.0
81,2.7581019401550293,-64.43604480928666,24.39751995033483,-28.534772950846033,-148.2935306169348,0.0,0.7718336169750065,0.1,0.006341457366943359,0.21637415885925293,0.04914697,0.12351299,-69.1624864308505,-2.540654646664478,-1.2190808000742457,0.0,2295,0.4005148410797119,0.03407596477046637,0.033127325784691575,-187.83790748842767,0.0
82,2.43670654296875,-58.85942045671075,16.38341125996506,-27.77290804186735,-118.03948357922694,0.0,0.7660598591900298,0.1,0.006601810455322266,0.15335845947265625,0.048560403,0.12304543,-68.13217983343654,-2.4955495478750316,-1.106149839041951,0.0,2299,0.40604233741760254,0.023464264902777095,0.020938123005404555,-186.8197925210263,0.0
83,2.511869430541992,-59.58524072562849,20.58970443272821,-13.675023452913347,-134.8605423878789,0.0,0.8262163601843121,0.1,0.006870746612548828,0.2150425910949707,0.04712996,0.11440926,-67.27748592265573,-2.513684024105013,-1.1211136850577208,0.0,2332,0.41135144233703613,0.030345533806183198,0.029216391977241497,-209.71166101557907,0.0
84,2.482365846633911,-55.860278478315685,17.861940847955037,-24.645138853235206,-104.58071185242326,0.0,0.7416568557425273,0.1,0.011016845703125,0.1518847942352295,0.04818736,0.124640375,-66.13576517822173,-2.5175573426360973,-1.045819874094297,0.0,2326,0.4104318618774414,0.02454485618749089,0.022542311076528494,-202.0719285120195,0.0
85,2.607177734375,-55.52128790483874,23.563603962979965,-6.48521010620383,-159.55055952423754,0.0,0.8306463438457596,0.1,0.01003885269165039,0.1532611846923828,0.050598893,0.1172429,-65.07431745088343,-2.499392394118695,-1.0393442478979844,0.0,2389,0.44333791732788086,0.037293520112613165,0.036464863198948226,-191.15390974360594,0.0
86,2.5001089572906494,-56.666494700513105,17.916337257535286,-23.696719478097435,-113.02774467068467,0.0,0.7240807946407841,0.1,0.007838010787963867,0.2530488967895508,0.048198022,0.12466844,-64.2335351758464,-2.4880638295012996,-1.0621480246294601,0.0,2347,0.4113767147064209,0.024276020108434097,0.02266502119029839,-197.40978750474045,0.0
87,2.5282044410705566,-52.93146190448888,21.36772985654758,-11.889194085049692,-127.02395647183242,0.0,0.7790842904891074,0.1,0.006772756576538086,0.21880531311035156,0.047015123,0.13304001,-63.10332784871065,-2.4852849508019923,-0.9871800240599772,0.0,2419,0.41724157333374023,0.030891350244284483,0.0295661148433351,-196.5795846292607,0.0
88,2.5624001026153564,-48.59337303677301,16.94125689080375,0.8182365044140738,-114.48495304667182,0.0,0.7577575375051236,0.1,0.006968021392822266,0.30878663063049316,0.048964277,0.1112167,-61.652332367516884,-2.4650757503605947,-0.9006715037036068,0.0,2434,0.4447624683380127,0.025125092269731125,0.023601739557582414,-199.60595385345567,0.0
89,2.5854716300964355,-53.78251692797118,20.31636734416184,-17.23081663445556,-123.38647481208253,0.0,0.7758314656018499,0.1,0.006935596466064453,0.1929476261138916,0.046909124,0.120065086,-60.86535082356231,-2.478027809597409,-1.005713608831894,0.0,2418,0.42348408699035645,0.03306470851256821,0.029936154401880324,-195.74876461880285,0.0
90,3.3066301345825195,-51.62138410494089,19.555875083633005,-19.41958732709148,-134.2259400668293,0.0,0.8066453863365636,0.1,0.0076236724853515625,0.18773341178894043,0.047753643,0.119021125,-59.94095415170017,-2.473260102301247,-0.9616834081052607,0.0,2437,0.501885175704956,0.026756655717199773,0.026041515022082348,-189.0428480394932,0.0
91,2.6615495681762695,-47.26590232343009,19.11217089423961,-7.472152700343354,-97.4165746910756,0.0,0.7944488064530576,0.1,0.007949352264404297,0.6591579914093018,0.0481795,0.11710018,-58.67344896887316,-2.429728900110615,-0.8738697658568046,0.0,2488,0.44515109062194824,0.028653783023775248,0.027781425085299006,-181.98168763555196,0.0
92,2.912160873413086,-48.699707162949245,20.75117771408288,-7.725400122926107,-125.9523888328806,0.0,0.7906679559124773,0.1,0.043426513671875,0.2819209098815918,0.047904544,0.11716375,-57.676074788280765,-2.4484493800269123,-0.902092082250026,0.0,2482,0.4660615921020508,0.029917430881771703,0.029033249789070407,-194.59367990005597,0.0
93,2.739609956741333,-47.3494252796767,21.373822924932476,-3.928937368969862,-125.72488789655743,0.0,0.8364543436394756,0.1,0.0069980621337890625,0.2214221954345703,0.046625253,0.11429842,-56.64340983742036,-2.4965019979450354,-0.8768549370688264,0.0,2517,0.45798802375793457,0.031188476492879022,0.03034749507518156,-187.2222608228323,0.0
94,2.688260078430176,-43.65531494840809,16.347142656121264,-6.483037075111575,-104.18336783679713,0.0,0.790497241984114,0.1,0.0064394474029541016,0.2039012908935547,0.0475748,0.11964303,-55.34460034851913,-2.4813742579733153,-0.8035088848160484,0.0,2556,0.44625425338745117,0.02298846333740738,0.021915304896981624,-178.1791572777072,0.0
95,2.6743109226226807,-39.79914601609594,17.937738167748527,2.245829307987634,-109.56916587791063,0.0,0.8260283361806111,0.1,0.006502628326416016,0.1539936065673828,0.048515774,0.117623754,-53.79005491527681,-2.460196406800866,-0.7250489193835268,0.0,2554,0.4347717761993408,0.026024907786180794,0.02517903426312068,-175.88224081396473,0.0
96,3.3026461601257324,-37.80644539747998,16.792157559585004,-1.3555550965770777,-93.14471024033105,0.0,0.8412491240340768,0.1,0.03342890739440918,1.3368992805480957,0.048157606,0.109210685,-52.19169396349713,-2.430999173403629,-0.6849650957331469,0.0,2599,0.4641094207763672,0.023297585263849445,0.022638478416047644,-193.14852339867952,0.0
97,2.7898504734039307,-39.86199014412811,18.623963176380556,-6.534075281337351,-106.56676375542074,0.0,0.8408243267336942,0.1,0.007074117660522461,0.16719841957092285,0.049086776,0.1138687,-50.95872358156023,-2.482829987268243,-0.7274018075634062,0.0,2676,0.4056868553161621,0.030007270435040787,0.02908682856978658,-190.39825116275944,0.0
98,3.478423833847046,-39.414427222772794,19.292456069655458,0.27828691129797534,-103.24152798667023,0.0,0.8185224211093571,0.1,0.0066950321197509766,0.15691161155700684,0.046647325,0.12180416,-49.804293945681486,-2.458229523773352,-0.7172417490130737,0.0,2665,0.4511575698852539,0.029314354596853165,0.027925785391050666,-169.4483758443908,0.0
99,2.8663222789764404,-37.79215452073747,25.213000944877294,10.112496377005925,-148.38087689233112,0.0,0.77634789186634,0.1,0.006687164306640625,0.15088438987731934,0.049259465,0.11687333,-48.60308000318709,-2.4334593878654935,-0.6844639882288862,0.0,2732,0.41109466552734375,0.046267405406243696,0.04392529879178269,-197.56987208678066,0.0
100,3.304980516433716,-31.777268062361443,18.811298104450586,14.365465843314752,-73.34451330284058,0.0,0.8029522822994484,0.1,0.007169485092163086,0.21728086471557617,0.047947086,0.112087585,-46.92049880910452,-2.469614040349326,-0.5648510355189348,0.0,2710,0.4851839542388916,0.03384313023588807,0.031074304929237687,-194.92183670261568,0.0
101,3.2912650108337402,-35.470246921736894,36.20887221882828,9.865174998961436,-304.4592438953603,0.0,0.6223365002696571,0.1,0.00677037239074707,0.2014622688293457,0.048269622,0.10020253,-45.77547362036776,-2.443963296732758,-0.6387169393278097,0.0,2840,0.4677145481109619,0.11251653770011988,0.08996327521667843,-192.6089003921854,0.0
102,3.0814361572265625,-32.23031232871958,21.869850267441336,3.8830260684037654,-96.28539211890906,0.0,0.8442773832594144,0.1,0.07797861099243164,1.8231301307678223,0.04842758,0.1304927,-44.42095749120295,-2.453969475212082,-0.5737142862279327,0.0,2857,0.5055296421051025,0.04021153848317011,0.03698360854276263,-183.20466961925888,0.0
103,2.995293140411377,-29.47842632072074,26.83072907037723,8.96454380694793,-155.89386210209136,0.0,0.8171721294209462,0.1,0.051618337631225586,0.25244688987731934,0.04702164,0.1045175,-42.92670437415473,-2.4505865686584545,-0.5198647495294987,0.0,2890,0.5070202350616455,0.056174247682895154,0.05481207005600413,-183.86880752850988,0.0
104,3.3999035358428955,-24.585654749991807,21.72567535035921,14.60647227512122,-105.04703960182688,0.0,0.9279901650074242,0.1,0.06116056442260742,0.45578956604003906,0.042837948,0.09676388,-41.09259941173844,-2.4862056249036106,-0.4209059973483597,0.0,2967,0.5245819091796875,0.044622048050871464,0.0426271942857264,-182.46416985878778,0.0
105,3.0961549282073975,-28.158955082292966,24.586977203864535,17.06238870519571,-121.30555960511212,0.0,0.9269222873804347,0.1,0.03792881965637207,0.1593639850616455,0.047583375,0.10462252,-39.79923497879389,-2.4715475972557583,-0.492486723262384,0.0,2985,0.5119273662567139,0.04370680472381135,0.042429317502033055,-197.53524793432746,0.0
106,3.0872561931610107,-19.552455954994013,19.131365393328334,25.684365706311304,-73.37738276758049,0.0,0.8846517117109979,0.1,0.02680826187133789,0.19942092895507812,0.04671454,0.10849723,-37.7745570764139,-2.4421854328772437,-0.31949920205465315,0.0,2974,0.433319091796875,0.04267573346201589,0.03622450045409701,-185.60304570107343,0.0
107,3.0956382751464844,-22.202791762581494,18.432758510841968,15.474118637689415,-92.84725901270717,0.0,0.8543742162014812,0.1,0.0068607330322265625,0.1627368927001953,0.046898074,0.1235591,-36.217380545030665,-2.4280735303028216,-0.3729205145907435,0.0,3028,0.4530339241027832,0.041618149623769175,0.0394193808536224,-174.29470981421258,0.0
108,3.1480934619903564,-26.097298910747952,30.465404083838504,59.315468061864905,-154.83229025601975,0.0,0.84912285056009,0.1,0.031210660934448242,0.7885332107543945,0.0461463,0.11971736,-35.205372381602395,-2.4718540506442266,-0.45136566889086516,0.0,3150,0.5190463066101074,0.08457347283855005,0.08090834217798194,-187.90002384482185,0.0
109,3.132524013519287,-21.459655223480876,28.45951951604309,41.86185582288903,-118.17837249532923,0.0,0.8899249881504063,0.1,0.07012057304382324,0.7835984230041504,0.04819898,0.10189449,-33.83080066579024,-2.4400177990476526,-0.3589339062092429,0.0,3115,0.5138704776763916,0.06586362295541495,0.06219908376265055,-184.55259692091292,0.0
110,3.3957297801971436,-19.12260202957738,22.373936090475244,37.53326152718424,-82.17244728199661,0.0,0.8877785151092801,0.1,0.007360696792602539,0.18059563636779785,0.04313963,0.09515311,-32.359980802168955,-2.3971232722451696,-0.3122574491084443,0.0,3140,0.4473602771759033,0.04840701632341513,0.04567829198250028,-177.32458716139232,0.0
111,3.1797971725463867,-15.85686968090605,24.944869962483487,44.69707316463566,-100.89838863604294,0.0,0.9104556547604341,0.1,0.007046937942504883,0.15764093399047852,0.04507948,0.09846222,-30.709669690042666,-2.4392030935855167,-0.24629187711804482,0.0,3171,0.48673009872436523,0.05063385895679847,0.04814805549751844,-180.20898776322514,0.0
112,3.4679341316223145,-10.09432356983797,27.17801441612505,52.05022328736803,-145.0777624253385,0.0,0.9225393988826885,0.1,0.02445220947265625,0.18595194816589355,0.047718003,0.09599504,-28.648135078022197,-2.3877342354514286,-0.13089763441727,0.0,3307,0.47127580642700195,0.0690466212460635,0.06542128911318118,-202.05264361347383,0.0
113,3.1963789463043213,-5.380774477251568,20.85359833061414,66.75781940886371,-61.59800340611969,0.0,0.8839578083687484,0.1,0.00701451301574707,0.15752840042114258,0.04174958,0.10317081,-26.321399017945136,-2.3644872706379183,-0.036252612960275134,0.0,3280,0.47088146209716797,0.049769197945423095,0.046345588875743055,-177.75431718783102,0.0
114,3.288081169128418,-8.040856014436587,23.793248541415256,62.41167048370837,-71.89343153107885,0.0,0.9523114666727766,0.1,0.007638692855834961,0.23572564125061035,0.04240758,0.09439934,-24.493344717594283,-2.388285293407768,-0.09025229973584104,0.0,3267,0.5248761177062988,0.05423321078576238,0.05234553243176147,-193.9926606306251,0.0
115,3.465906858444214,-11.726319075390016,28.94654858863694,36.443796964169394,-123.05194184233181,0.0,0.9602922672038395,0.1,0.06459593772888184,0.2929654121398926,0.050042305,0.100039154,-23.216642153373858,-2.3839637117337946,-0.16325186172900455,0.0,3472,0.5432734489440918,0.07219731945600401,0.06858227263417968,-186.4788129390686,0.0
116,3.391752243041992,-8.652867203870882,36.46255935839292,61.1096332137255,-224.28970497875193,0.0,0.9370338639760122,0.1,0.042654991149902344,0.1630420684814453,0.04779653,0.09169206,-21.760264658423562,-2.349932910683242,-0.10198472800858589,0.0,3367,0.5247743129730225,0.12046363333301462,0.11690949087780074,-195.88477959892367,0.0
117,3.683582067489624,-4.952028956562251,27.04656800833643,51.88695634436519,-134.19656477027127,0.0,0.9033378921753297,0.1,0.04906797409057617,0.1651151180267334,0.048143372,0.096346974,-20.07944108823743,-2.284745447652854,-0.02668076182308286,0.0,3465,0.5425643920898438,0.081652077220756,0.06869877368781237,-186.1997187265253,0.0
118,3.473938465118408,-0.09153646275993621,31.43491666900483,126.8328483157779,-123.9054224516712,0.0,0.8834854594161818,0.1,0.0075266361236572266,0.22106552124023438,0.045180023,0.12565038,-18.08065062568968,-2.322591094553529,0.06788478550260489,0.0,3477,0.5510818958282471,0.11521095833587285,0.10266706323399716,-171.24751376920057,0.0
119,3.757384777069092,0.8644485702464624,24.71177344602387,62.62551988222379,-57.37389002469848,0.0,0.9105000514317534,0.1,0.01110696792602539,0.20341253280639648,0.045889534,0.10039229,-16.18614070609607,-2.3095550986308457,0.08658538433787898,0.0,3486,0.5192527770996094,0.0715284596922005,0.06645067806478518,-161.32111160865622,0.0
120,3.672043561935425,5.0089053101428975,28.412678291533656,70.88741626390126,-54.10392953804481,0.0,0.9884529205451694,0.1,0.007084369659423828,0.28261256217956543,0.045761738,0.095611334,-14.066636104472172,-2.3248689130659526,0.17010764814251755,0.0,3534,0.5421361923217773,0.07923008199293112,0.0769066150045599,-178.22249527972252,0.0
121,3.9729132652282715,11.186451413743475,32.763885425634754,145.59409692716,-78.20322863370744,0.0,0.9885831119901087,0.1,0.007169246673583984,0.16524243354797363,0.04526468,0.10413302,-11.541327352650608,-2.322330356235445,0.29489450798322364,0.0,3820,0.5569145679473877,0.14512198003460672,0.13229011117249276,-171.31205653144605,0.0
122,3.906902551651001,15.388583507288942,40.02513389487724,189.2981357045092,-109.96338412176843,0.0,0.9558065980532722,0.1,0.007352590560913086,0.2834923267364502,0.046209913,0.10124512,-8.848336266656654,-2.3140603320616657,0.37719621127749514,0.0,3880,0.6264731884002686,0.18721367167642997,0.17785657104407948,-169.4491885384712,0.0
123,3.673814535140991,19.19181522867328,38.637397730078995,186.69526909539053,-62.078772070691485,0.0,0.9508389657398981,0.1,0.030638694763183594,0.2086505889892578,0.045842353,0.10268689,-6.04432111712366,-2.3063114304336785,0.4553598538861065,0.0,3813,0.5941736698150635,0.2035465957555222,0.18546442788650522,-210.59970553767195,0.0
124,3.919936418533325,42.137648079185205,59.635938874580866,217.21110587009892,-92.51460524754052,0.0,1.014170097100463,0.1,0.010583877563476562,0.3461177349090576,0.044400256,0.09089465,-1.2261241974927737,-2.2816070736001506,0.896725575223705,0.0,4043,0.6544904708862305,0.43692955531435435,0.3213588358576887,-197.3189954919733,0.0
125,4.43164849281311,50.777200618229614,72.19129563836958,234.36550557744278,-125.96640783360996,0.0,0.9351492762405269,0.1,0.007658243179321289,0.22028183937072754,0.047108434,0.09942041,3.9742082840794657,-2.291066243427284,1.0552938248608077,0.0,4165,0.688683271408081,0.5480321108020347,0.5066144398602505,-192.4090687781785,0.0
126,5.189508438110352,69.97278982088307,76.43680757708894,219.34251772910537,-135.4364171836021,0.0,0.9963126692081303,0.1,0.006575107574462891,0.3061096668243408,0.044976562,0.089505866,10.574066437759827,-2.2905467175044283,1.446054889152921,0.0,4364,0.49172019958496094,0.5348476494859368,0.4855894326484666,-201.9190174304261,0.0
127,5.836898565292358,93.63726969655265,77.96836043501524,253.5782087323932,-51.3397097065534,0.0,1.0309929868580192,0.1,0.007626056671142578,0.17210721969604492,0.045706615,0.09111914,18.88038676363911,-2.2456231078754314,1.9109249830557975,0.0,4481,0.7223231792449951,0.5408091440713723,0.4794885927858242,-196.32014806613853,0.0
128,4.627810001373291,74.14126247998483,83.78139109041109,232.76649914962226,-113.2313741765007,0.0,0.974350281946882,0.1,0.007326841354370117,0.1658940315246582,0.048625115,0.09474298,24.406474335273685,-2.245437538704953,1.52467160558348,0.0,4467,0.6995306015014648,0.7033984914141279,0.6038020920461622,-205.08809695138666,0.0
129,4.434478759765625,90.55584890896982,83.07509267298444,233.7130112016526,-170.0684946336802,0.0,0.9820684763075035,0.1,0.007050275802612305,0.1719362735748291,0.04660899,0.095642515,31.0214117926433,-2.234817915903164,1.8634768890527311,0.0,4529,0.6421263217926025,0.6345779006739316,0.5795351547571842,-205.04129559671836,0.0
130,4.406136989593506,110.66516053612254,88.09591197107022,233.57580241147218,-76.22879126041957,0.0,1.013652812460392,0.1,0.007330417633056641,0.17231965065002441,0.047565058,0.090588495,38.985786666991224,-2.1731837044605107,2.2474615368672652,0.0,4537,0.6519839763641357,0.5489496419524488,0.5014518862369284,-210.33175296671757,0.0
131,4.761091709136963,115.6165534688162,99.39316806610702,239.43831212862395,-142.2818243074119,0.0,1.1168070362064169,0.1,0.009937286376953125,0.29863762855529785,0.04860362,0.08371638,46.64886334717372,-2.1495609087367993,2.344994712654174,0.0,4632,0.7825620174407959,0.6513420514894043,0.586096775331544,-215.6922090082889,0.0
132,4.7587807178497314,121.3696344549024,90.13374057207547,237.9669166126252,-132.35951012326024,0.0,1.0194250826461724,0.1,0.0075855255126953125,0.17230701446533203,0.043746114,0.09135452,54.12094045794659,-2.1654975976005733,2.466018874691455,0.0,4603,0.7497494220733643,0.5180678625156857,0.4964646437557236,-201.2187393680491,0.0
133,4.5029296875,141.7932075139987,90.1784595781226,245.01371598740062,-80.84481487083832,0.0,1.0293729541206806,0.1,0.0696115493774414,1.756739854812622,0.046683267,0.086928025,62.8881671635518,-2.1677735803836327,2.8716538622396386,0.0,4646,0.7837834358215332,0.4579399452405901,0.42392176641585916,-200.48725296096734,0.0
134,4.541504383087158,137.1288583203792,82.57350839381981,251.5103639642047,-49.33731911979284,0.0,1.072904178536967,0.1,0.06949925422668457,0.17813348770141602,0.04656336,0.103015535,70.31223627923454,-2.14163680557621,2.7724414351446742,0.0,4645,0.7649955749511719,0.39462257388768884,0.3746490374109084,-203.55838700794874,0.0
135,4.684985160827637,152.5352234264302,91.75268345193071,251.94510822353695,-94.29191535332359,0.0,1.0033614313654031,0.1,0.08257007598876953,0.43262267112731934,0.047246393,0.08865085,78.53453499395411,-2.0729452643701145,3.074540855891857,0.0,4730,0.7956159114837646,0.4149537828371338,0.3963268786752737,-67.35623142917387,0.0
136,4.699739694595337,147.1791958702926,87.96480679524169,255.22625959749402,-106.78770343399044,0.0,1.0667317767944042,0.1,0.00805974006652832,0.18201279640197754,0.046066813,0.08430633,85.39900108158795,-2.0928244778133416,2.977343315076242,0.0,4750,0.7650377750396729,0.4367992177584915,0.41194675316897406,-60.804157276960176,0.0
137,4.834233045578003,140.88591686997893,92.11366289953047,251.04233978024902,-112.93934241608449,0.0,1.0200990449537208,0.1,0.007530927658081055,0.23182964324951172,0.04606225,0.08406055,90.94769266042707,-2.0951325103030594,2.8404470407583466,0.0,4729,0.7868494987487793,0.4923351995882043,0.46625441023084596,-64.70153033000062,0.0
138,5.059979200363159,170.98058384023466,69.48095949127658,247.7753411334458,-44.16980401297907,0.0,1.1682407582027736,0.1,0.009319305419921875,0.18854308128356934,0.04599261,0.077326305,98.95098177840782,-2.0377768893095336,3.441949819751836,0.0,4751,0.7867965698242188,0.26082697177501335,0.2455794321203463,-26.473304533795627,0.0
139,6.024466514587402,162.8929675196282,80.72112199932475,261.18160275904944,-98.037408081101,0.0,1.0879871086177946,0.1,0.05246782302856445,1.127800464630127,0.04662226,0.08641563,105.34518035252987,-2.0432130480399393,3.2795044166019403,0.0,4738,1.1022207736968994,0.3300053870635676,0.3128393052111462,-14.397304643895215,0.0
140,5.273758411407471,163.5942508898162,82.0631547615064,256.9156601514751,-103.002561319348,0.0,1.0429280067617979,0.1,0.008297443389892578,0.3106727600097656,0.04619997,0.09504587,111.1700874062585,-2.0061566137239466,3.2826019580363783,0.0,4678,0.7638447284698486,0.3082023083186242,0.2962827761367426,-85.05576832221388,0.0
141,4.752650499343872,177.32006883440695,72.49733117236848,247.56856298540194,-90.42090261125146,0.0,1.0385556945815326,0.1,0.007649660110473633,0.599656343460083,0.047130957,0.08314532,117.78508554907336,-1.9959903941270227,3.5547628293581552,0.0,4763,0.7388036251068115,0.23530246626071755,0.22944423324520685,-46.539857186243566,0.0
142,4.646413564682007,197.97105221828716,56.112130839458274,252.97083424707398,-87.19844006144109,0.0,1.1372962181082902,0.1,0.01442575454711914,0.3242475986480713,0.042522382,0.09416856,125.80368221599474,-1.9884458971833292,3.968376732553267,0.0,4791,0.7539150714874268,0.1256837167635776,0.11726093774617026,-20.04403498832999,0.0
143,4.727339029312134,179.6797925474813,77.36757389802679,251.2324982785378,-57.84482452093565,0.0,1.1687211522071272,0.1,0.00790858268737793,0.24466609954833984,0.04789123,0.077915296,131.1912932491434,-2.0189549490156637,3.6016326594975836,0.0,4769,0.7530803680419922,0.2776567980371002,0.24592575249055829,-10.342102473214318,0.0
144,5.790733098983765,199.23687651305372,61.49621134466801,260.39462304021663,-50.25131372531705,0.0,1.0401593754454959,0.1,0.00797128677368164,0.3814570903778076,0.048615016,0.099519044,137.99585157553443,-2.024396961718923,4.007817662224615,0.0,4783,0.7644455432891846,0.16747054040851958,0.15133943624346097,-8.419188517044416,0.0
145,4.9829535484313965,192.3616596513873,69.07925146428131,262.8511880914559,-37.23215522904597,0.0,1.0123489483044956,0.1,0.008297920227050781,0.18364191055297852,0.04746361,0.105063714,143.43243238311973,-2.0270967037969077,3.853737283752516,0.0,4748,0.7847921848297119,0.20711663697039645,0.1842572459739892,18.14237989946444,0.0
146,6.804035425186157,186.61197121520914,74.89061280575595,261.13764537948225,-92.41110474780194,0.0,1.0969079235139074,0.1,0.06647443771362305,1.3498692512512207,0.047520865,0.08700241,147.7503862663287,-2.0188578074708823,3.7583597180785637,0.0,4748,0.812814474105835,0.2172615783136111,0.20654187939510313,13.210107598873272,0.0
147,4.812124252319336,201.9537353191475,57.5769019532551,251.65705408410528,-39.046496302561536,0.0,1.1034489365408882,0.1,0.06451177597045898,1.0956475734710693,0.049349524,0.08429907,153.17072117161058,-2.020264919148087,4.04980866161637,0.0,4777,0.8045179843902588,0.126649736179737,0.11651712591706417,25.074975141585107,0.0
148,4.898863792419434,204.9094921512702,56.81023757786413,257.0005138874299,-71.54342604741657,0.0,0.924818230159489,0.1,0.029087305068969727,1.3182401657104492,0.048639692,0.08805777,158.34459826957655,-1.9969865629490402,4.111340109438313,0.0,4768,0.8181850910186768,0.1372686002174412,0.12569618002527078,-43.797337721841615,0.0
149,5.789245843887329,211.11650874684042,56.218603941111596,262.1409188347915,-17.976385345687138,0.0,1.0285712689213804,0.1,0.0618593692779541,1.4467236995697021,0.04797566,0.08893159,163.62178931730296,-1.966554526941418,4.239693032911145,0.0,4785,0.8259928226470947,0.11115334296302813,0.10643557864820756,20.101109367629697,0.0
150,4.999860048294067,208.8839958658863,54.21696096325611,256.8205857175648,-62.886565498921826,0.0,1.131203001188107,0.1,0.0482025146484375,0.18419718742370605,0.04920264,0.08209047,168.1480099721613,-1.97253087589953,4.185956331483752,0.0,4775,0.7606241703033447,0.09706653708394626,0.09437368668426917,41.35936488903819,0.0
151,5.313650846481323,209.29584434618587,61.58039005859674,258.65878373675304,-29.577593589317924,0.0,0.9936680831885806,0.1,0.006630659103393555,0.27346038818359375,0.04837083,0.10047004,172.26279340956376,-1.9851391086861991,4.2049826943388835,0.0,4749,0.7915027141571045,0.1392180796328702,0.1313807014259557,35.489800587873,0.0
152,6.480417013168335,210.05306033565327,51.628157729358655,263.65916907450196,-32.1363950469505,0.0,1.0292609067346457,0.1,0.007517099380493164,0.17098522186279297,0.04494441,0.08343035,176.0418201021727,-1.997906162541738,4.206688873664352,0.0,4767,0.812873125076294,0.10338922050450514,0.09647864849664707,61.52129746122213,0.0
153,4.946145057678223,215.78746881487328,47.661050823384954,258.7234533445313,-42.241662065432166,0.0,1.0635837926441436,0.1,0.06749939918518066,0.27185630798339844,0.049039938,0.08043691,180.01638497344274,-1.9723649293421477,4.320796531645196,0.0,4776,0.5378010272979736,0.09661784266467652,0.09079317287144806,47.11674454671556,0.0
154,4.729172945022583,224.06425472134114,39.86125993266716,273.80466826737813,-27.826417251607015,0.0,1.1132414023325554,0.1,0.07193613052368164,1.3989133834838867,0.046927646,0.07909422,184.4211719482326,-1.9686028161315123,4.4861159191278785,0.0,4784,0.6946241855621338,0.06344610769261297,0.05854081091466021,44.97740870748229,0.0
155,4.94275426864624,224.88149412472384,37.72380561729126,263.8732333090096,-34.75753641674733,0.0,0.9198885132293678,0.1,0.007889270782470703,0.17944788932800293,0.049498893,0.07878032,188.46720416588172,-1.953301459452911,4.504044748307825,0.0,4800,0.738893985748291,0.05769500550738533,0.05376813152452108,58.295733827694,0.0
156,5.071039438247681,220.33995572975755,51.9407550009764,266.4298569462507,-4.458155103726128,0.0,1.089069976505588,0.1,0.07313799858093262,0.604912281036377,0.047490142,0.08234946,191.6544793222693,-1.974005703177026,4.411948746457238,0.0,4769,0.7507362365722656,0.09068259542677432,0.08554563853053893,76.85489629632853,0.0
157,4.956335783004761,225.33847929178964,35.714258676864326,264.467186343842,54.84152562177431,0.0,0.9863571297997479,0.1,0.008100748062133789,0.18425559997558594,0.04736426,0.080453776,195.02287931922135,-1.9635175191466339,4.514289936055891,0.0,4799,0.7365648746490479,0.05590759553908884,0.04699528996064822,67.5895210887654,0.0
158,4.827580451965332,225.5625311474265,41.94016208792467,273.7162723374488,17.229222795276762,0.0,1.0456185570451655,0.1,0.005868673324584961,0.14529681205749512,0.0492591,0.09580421,198.07684450204187,-1.946313043618311,4.518074055513419,0.0,4793,0.4870340824127197,0.07603090917173294,0.07233660725907791,83.06450469034763,0.0
159,4.992581605911255,221.15359615146087,67.07090863592757,268.9810637660441,-163.75279395539653,0.0,0.9413009508454796,0.1,0.008615493774414062,0.17958664894104004,0.048549954,0.10064711,200.38451966698375,-1.9413229148494695,4.440212184629652,0.0,4747,0.7276270389556885,0.12326969880915388,0.11545769075416434,116.96177513269978,0.0
160,4.938312292098999,224.22624099233545,43.816939251554075,264.6708548685207,-39.808030494867864,0.0,0.9770905905312535,0.1,0.007950544357299805,0.2473447322845459,0.04663362,0.07582556,202.76869179951893,-1.952442060222057,4.491651348361688,0.0,4787,0.7337501049041748,0.0675151023373157,0.06297706443164905,106.14473255041038,0.0
161,6.018417835235596,224.47917318839453,48.90759185200301,262.2271707404661,-112.9714800585828,0.0,0.9231100838202103,0.1,0.008401870727539062,0.19552397727966309,0.047751114,0.20327304,204.9397399384065,-1.9870521740918339,4.495161552337714,0.0,4795,0.7288691997528076,0.07856433310574992,0.07084547784550646,101.33052635214285,0.0
162,5.015613317489624,225.36149883125745,42.88798337304899,271.1098941584917,-54.07458608767152,0.0,1.0881820908003155,0.1,0.00784611701965332,0.23678994178771973,0.048485722,0.11663532,206.98191582769158,-1.963815315672072,4.516192999956961,0.0,4800,0.7135918140411377,0.0699953414003528,0.06221051588371907,122.81570457747189,0.0
163,4.819326877593994,227.11877514654475,40.89757178544275,263.266493084523,6.369761849428386,0.0,0.8522185771009158,0.1,0.0077610015869140625,0.17618250846862793,0.04895698,0.08819343,208.9956017595769,-1.9664733835105472,4.547173978827928,0.0,4796,0.693718433380127,0.06423840060767552,0.055600812895309076,115.29141061875909,0.0
164,4.897497892379761,229.27527976082,29.997728405975735,264.9307419542978,64.05558572728248,0.0,0.9796822930825532,0.1,0.007831335067749023,0.23947882652282715,0.048688687,0.1346413,211.02356955970123,-1.964635009839628,4.590450567161514,0.0,4798,0.6994311809539795,0.042173702182686054,0.03646664042171625,123.52165891194902,0.0
165,4.8771703243255615,219.93340553225167,49.00935442126642,280.14436450132945,20.16783588385556,0.0,0.9879419362734264,0.1,0.007882118225097656,0.2857067584991455,0.04940547,0.08996314,211.9145531569563,-1.9684802153122611,4.408299944423415,0.0,4780,0.722435712814331,0.0822616802875072,0.07488363124511806,127.84594317997683,0.0
166,5.022616386413574,223.70803006840632,40.13377693345587,266.34413269453603,42.257829749092416,0.0,0.8656957716070417,0.1,0.007577419281005859,0.19826483726501465,0.049593776,0.24863164,213.09390084810127,-1.9782939544681188,4.482863936577667,0.0,4795,0.6501882076263428,0.06587958014808687,0.05830556900662082,147.3727524008102,0.0
167,6.045924663543701,229.3139730563815,25.87207026391699,273.76242900022555,127.78936215008532,0.0,1.1931241035473201,0.1,0.007128000259399414,0.16677188873291016,0.049236342,0.084423,214.71590806892928,-1.9455477194256616,4.593684628171125,0.0,4800,0.5856623649597168,0.02671649764937278,0.02509489543045299,120.79031544884731,0.0
168,6.603335380554199,226.37595570392037,42.75270722193891,269.4532929790354,37.644078774985914,0.0,0.9209113467301688,0.1,0.05079317092895508,0.5845272541046143,0.04974664,0.08287581,215.88191283242838,-1.9480222162925187,4.534131208282546,0.0,4784,0.7812032699584961,0.06409344990958374,0.054986414331300734,128.2295424569096,0.0
169,5.301503419876099,221.7996298149748,49.02041339752316,269.04364225210264,-35.96195726085257,0.0,0.7960495810866521,0.1,0.008150577545166016,0.3778398036956787,0.04800975,0.109600976,216.47368453068304,-2.003822953756961,4.444340688414612,0.0,4775,0.788799524307251,0.09499094102892418,0.08725968903048995,127.55397256019339,0.0
170,5.005132675170898,233.19195995359033,31.90323984506742,282.8950203347546,46.99376913846379,0.0,1.1119330152420708,0.1,0.011375188827514648,0.44383716583251953,0.048587203,0.11464967,218.14551207297376,-1.9474966146998822,4.668889880818887,0.0,4800,0.7632794380187988,0.03800213896992818,0.03346205256956911,114.27486273624557,0.0
171,4.943967580795288,228.77169451197088,55.22911691238728,270.91375045522716,-63.02410666808858,0.0,0.9520233879907067,0.1,0.008595705032348633,0.19329285621643066,0.048748486,0.07885432,219.20813031687348,-1.960194888190781,4.582450237392895,0.0,4760,0.7874515056610107,0.09844504470114407,0.09017897746132907,114.04504330811557,0.0
172,5.02391505241394,227.56711695946242,41.6861883019609,275.0693069199183,37.44072822853508,0.0,0.968028903081736,0.1,0.027010202407836914,0.5525815486907959,0.049048375,0.14487962,220.04402898113239,-1.9918911797708905,4.561810833018148,0.0,4800,0.8058485984802246,0.05611522973038019,0.05158823506270022,109.58614901171016,0.0
173,5.013294219970703,234.5204812529904,34.76812841357203,266.0722643520651,-1.49988909129533,0.0,0.9376047759085928,0.1,0.0699758529663086,0.25009751319885254,0.04849518,0.18103495,221.49167420831822,-1.9413614059087827,4.7033845536292445,0.0,4793,0.7649507522583008,0.044890353069995906,0.04077516112691872,113.50696844831518,0.0
174,4.925136089324951,237.103116906041,38.34144432607488,274.44405911786856,-27.344214826395902,0.0,1.0426712913314,0.1,0.008302927017211914,0.18854475021362305,0.04992503,0.075165495,223.0528184780905,-1.9383248908320556,4.746798726327316,0.0,4769,0.7772927284240723,0.045043799878355516,0.043374894749270435,105.84935113823092,0.0
175,4.85911750793457,238.1108646260217,26.890663862545633,273.4765630399952,53.24973418404569,0.0,1.1371116964769927,0.1,0.00808572769165039,0.3034214973449707,0.04882983,0.10898295,224.5586230928836,-1.9283532957892309,4.767216272471619,0.0,4800,0.7745401859283447,0.029828910776933164,0.024408224468960907,63.75001907481398,0.0
176,4.992016077041626,234.25672605878347,44.431378447368,278.59613395853694,-71.81136274299651,0.0,1.0304990317624116,0.1,0.006680488586425781,0.16911959648132324,0.046134535,0.0689118,225.5284333894736,-1.9465733438206234,4.705945540116102,0.0,4776,0.6805486679077148,0.05103334895382489,0.04725870273680125,89.48657107840037,0.0
177,4.876698732376099,241.9851509888937,22.382944295476804,286.478842203715,100.15475975685581,0.0,1.0555836862551073,0.1,0.0073833465576171875,0.17201876640319824,0.045982007,0.08842357,227.17410514941562,-1.9271690747055927,4.852200506092509,0.0,4796,0.6814150810241699,0.01917902815515065,0.016707935781086352,121.1937919650606,0.0
178,4.933825254440308,237.01213142805818,38.175987845680616,276.7799213739825,-56.640679278683855,0.0,1.1379350669035804,0.1,0.007375955581665039,0.16622328758239746,0.047207877,0.07041266,228.1579077772799,-1.9503679865358077,4.745085712226552,0.0,4778,0.6734988689422607,0.039778365763845865,0.03708630262890457,161.6582469798346,0.0
179,4.85500693321228,238.05871966218203,33.218625428131475,272.14376351332135,11.372620862236744,0.0,0.9125633024238808,0.1,0.06561708450317383,1.7093071937561035,0.048554324,0.07382813,229.1479889657701,-1.9323982795864314,4.767186142573742,0.0,4793,0.756122350692749,0.04146163611906242,0.038355229982037074,138.9745824120156,0.0
180,5.01794695854187,229.19058137236098,55.2710887806194,269.83964951904375,-69.8450802233667,0.0,1.0565181743120655,0.1,0.007287740707397461,0.17054271697998047,0.047968905,0.063994944,229.15224820642922,-1.9610151926211186,4.59039469716187,0.0,4764,0.6769459247589111,0.09230652151197002,0.0846090007644545,145.8310499029977,0.0
181,4.907538652420044,239.99402433596302,25.386505932196638,270.39987442376776,37.88170786046095,0.0,1.0356878228323694,0.1,0.05324149131774902,0.17398715019226074,0.04668547,0.072803035,230.2364258193826,-1.9132368892435938,4.806052825683554,0.0,4798,0.7536232471466064,0.030733389705442198,0.02471575940374768,178.5920829627571,0.0
182,4.884295701980591,238.82685974076594,39.38711065787517,279.2003731183102,8.335934455370705,0.0,0.9533517588080347,0.1,0.008260488510131836,0.21178722381591797,0.04899738,0.08789656,231.09546921152094,-1.8898806069054617,4.78180844654356,0.0,4773,0.6775622367858887,0.044921245941676326,0.04159294518496765,180.43582576299158,0.0
183,4.849794626235962,237.09211079876363,58.111074561773734,272.7661840618159,-290.1888720093422,0.0,0.7007289710892348,0.1,0.007344245910644531,0.16747045516967773,0.04836863,0.105882846,231.6951333702452,-1.9171459846337733,4.750515677662225,0.0,4800,0.7080121040344238,0.07595555744124817,0.06745763943193901,179.30930197346837,0.0
184,4.8740808963775635,225.43183869418613,62.729607747659685,277.2674063338913,-60.49184242072466,0.0,0.8936415552356032,0.1,0.007254600524902344,0.1726381778717041,0.04836634,0.21761635,231.0688039026393,-1.948503847232713,4.5137870176385135,0.0,4762,0.7081446647644043,0.1270365497692253,0.10283145651565512,164.48676637841683,0.0
185,4.969470977783203,236.2017113623979,47.57624407641672,275.3809325774396,-42.31478571470542,0.0,0.8565895622738497,0.1,0.05828380584716797,0.6055049896240234,0.04608177,0.17034349,231.58209464861517,-1.927698166277458,4.7415444253086845,0.0,4764,0.818068265914917,0.06929967343299366,0.05501648846065144,176.33823096967777,0.0
186,5.019575834274292,232.80145943170544,72.92844077990028,278.3998075142665,-346.7976413796014,0.0,0.6874682617859703,0.1,0.011514425277709961,0.18502449989318848,0.049693163,0.08248583,231.7040311269242,-1.9304801736090447,4.660937066765702,0.0,4771,0.7858805656433105,0.12282379011837453,0.10285151919452776,189.20986821730878,0.0
187,5.354079723358154,234.3674759997175,47.82761933588669,281.0955964418451,-46.202169087861435,0.0,0.6237513989349913,0.1,0.007943868637084961,0.17874455451965332,0.048795994,0.24123521,231.97037561420353,-1.917510466036905,4.708917087695319,0.0,4748,0.8052768707275391,0.07084098623087326,0.05486250929083303,177.83639649604544,0.0
188,4.918342113494873,241.0220781587242,40.924335556623475,271.8828457538183,-92.4228351545622,0.0,0.8557612486615304,0.1,0.06171298027038574,0.27976179122924805,0.04811451,0.1248718,232.8755458686556,-1.91224996235076,4.825427925961788,0.0,4799,0.9341421127319336,0.05150235093826738,0.04593056567810072,205.6772037157305,0.0
189,5.8559956550598145,235.78220197060023,57.62469107085558,281.03954825069303,-230.27255279240927,0.0,0.9022603177804265,0.1,0.00793600082397461,0.18809795379638672,0.048983146,0.06779654,233.16621147885007,-1.9514780322746137,4.720581923457072,0.0,4787,0.769416332244873,0.08637370090906711,0.07693959124520319,220.64064469644578,0.0
190,5.748436212539673,236.75693227194066,49.39865736558732,276.27955408283196,-46.69724194509597,0.0,0.9543070038230298,0.1,0.0067594051361083984,0.3479883670806885,0.048262134,0.2589884,233.52528355815915,-1.9412823053427115,4.743634774777701,0.0,4759,0.5158329010009766,0.07495735386482952,0.06752318243071256,211.3853424907042,0.0
191,4.963264465332031,234.18737132188315,55.48871750422329,276.3712978183385,-49.16515451521859,0.0,0.8937568536952679,0.1,0.008204460144042969,0.23799896240234375,0.048822783,0.103004314,233.59149233453155,-1.9229883830036973,4.688877784817773,0.0,4751,0.7966952323913574,0.0764143864780456,0.0706933739259673,200.889644055887,0.0
192,5.106221437454224,237.5556104339345,44.714997127509115,275.2149702352455,-121.54628878179743,0.0,0.7500959087631117,0.1,0.006461143493652344,0.1613779067993164,0.048346512,0.11064751,233.98790414447186,-1.9155999850806673,4.760191941673632,0.0,4800,0.5557820796966553,0.056313487799595385,0.05316690807274412,216.0784135932616,0.0
193,4.744379758834839,227.87199098273155,68.98918571033363,276.7250734413976,-62.577421648162826,0.0,0.9160091829310533,0.1,0.006205081939697266,0.3656468391418457,0.044309296,0.12848769,233.37631282829784,-1.9292047933409562,4.562412754452358,0.0,4695,0.5532107353210449,0.10220099475735984,0.09047871353676568,123.25183007433333,0.0
194,5.100529670715332,233.52454689242632,53.6102009799717,277.08233874262515,-57.21062021829434,0.0,0.878643645881345,0.1,0.005916595458984375,0.1444101333618164,0.048773248,0.07569955,233.3911362347107,-1.93176297454614,4.683850153759901,0.0,4745,0.5257537364959717,0.07118034792871403,0.06287818915713655,228.23462377948064,0.0
195,5.219639301300049,239.38529756357704,39.41497238301951,273.6175022616164,-38.142954340645915,0.0,0.9369081030013197,0.1,0.008153915405273438,0.25917696952819824,0.050494887,0.16168834,233.99055236759733,-1.9115619133245343,4.792799412415309,0.0,4776,0.7858748435974121,0.0466396938660248,0.04587432499923268,176.65747075330395,0.0
196,6.676686525344849,235.9753392650015,48.879862948894456,278.5494633708662,-63.69034386850737,0.0,0.9798445132130653,0.1,0.07257628440856934,0.3582420349121094,0.047908247,0.08088016,234.18903105733776,-1.9208476737940468,4.733953542155956,0.0,4774,0.8700814247131348,0.07226402793548485,0.06295134238420196,163.32373779388558,0.0
197,4.8489484786987305,235.1804121364781,53.63227624345531,279.0586296052167,-30.683103418441934,0.0,0.9563517615709354,0.1,0.013886690139770508,0.296616792678833,0.04752083,0.11207311,234.28816916525182,-1.9132424306627638,4.707922129275146,0.0,4766,0.7149224281311035,0.07485774240357021,0.06770546772881214,122.46052170503165,0.0
198,6.311164855957031,238.55191583453856,38.81438863335747,267.1981097655145,-62.243880952456735,0.0,0.9134098902728963,0.1,0.0073659420013427734,0.1661086082458496,0.049660493,0.33630282,234.7145438321805,-1.888496384627424,4.7794916883321505,0.0,4778,0.7210819721221924,0.032789298795014445,0.028228600924081092,127.22615220813941,0.0
199,5.004138708114624,229.37998817801454,57.778446029442456,270.69874046825913,-43.22120727430429,0.0,0.9196390592906014,0.1,0.06636404991149902,0.25327086448669434,0.050011422,0.16278985,234.1810882667639,-1.9164477528810628,4.6021867880183995,0.0,4732,0.6922135353088379,0.09129778360499845,0.0802826578095037,148.88310759468627,0.0
200,5.0997936725616455,236.1571720156222,38.55289506872833,273.2537048210269,-57.30211465998221,0.0,1.0529058532221094,0.1,0.007413148880004883,0.17703771591186523,0.048901215,0.08249848,234.37869664164975,-1.8918266368168208,4.734498711341826,0.0,4784,0.7531752586364746,0.043781018774967186,0.03701893184959914,138.91476523510872,0.0
201,6.92564582824707,232.4733191351494,41.45484149744658,267.9318974625176,-18.519650836824425,0.0,0.9245863567235715,0.1,0.008223295211791992,0.23996424674987793,0.047681104,0.08521069,234.18815889099972,-1.9045627832642025,4.663948418647876,0.0,4800,0.7809784412384033,0.06124045247793128,0.05645977482945663,201.6829129715472,0.0
202,6.760730981826782,240.40269384384763,24.925427502205626,272.2258282457599,100.25902769478496,0.0,0.9684715890403256,0.1,0.008799076080322266,0.19136667251586914,0.04741224,0.12908384,234.80961238628453,-1.9062864924453538,4.817085656095993,0.0,4800,0.8001649379730225,0.02431591039628587,0.02012966453431822,163.43832491914725,0.0
203,5.0206193923950195,239.4503435738308,28.248416977432505,276.43451711131723,92.96949855956817,0.0,1.066091502867415,0.1,0.008596420288085938,0.19276165962219238,0.046887163,0.08039582,235.27368550503917,-1.9062959996520679,4.795287127668105,0.0,4797,0.8391425609588623,0.025241178499927585,0.02326134976851822,166.28124433225875,0.0
204,4.95990252494812,229.48497116896908,53.550208189014704,281.51009428749177,-74.52497802020162,0.0,1.0250423092617567,0.1,0.008287906646728516,0.18935728073120117,0.04878462,0.09707736,234.69481407143215,-1.925633353347265,4.5975802382012185,0.0,4766,0.7915406227111816,0.08240556560542472,0.06957337671082615,238.15936936711094,0.0
205,4.764657974243164,241.97247248568192,32.28888240283736,278.53410056934825,15.099091489263905,0.0,1.0930893681240075,0.1,0.007715463638305664,0.299180269241333,0.049270473,0.33476904,235.42257991285715,-1.8937615904038274,4.843938788800738,0.0,4788,0.748812198638916,0.033120791770782525,0.02610244621959506,196.63295266092885,0.0
206,5.190512657165527,245.82981750978297,34.08989481814825,273.1633346333069,-59.774649814042476,0.0,1.0836881890213208,0.1,0.007122993469238281,0.16877341270446777,0.047184013,0.109468766,236.46330367254973,-1.8827809970654272,4.923572884142611,0.0,4779,0.791313886642456,0.025695890457382645,0.02410458233754796,216.55491969413148,0.0
207,5.799070358276367,244.6424025013505,44.26264273692815,276.6267427773079,-42.91718130060991,0.0,1.0314841369497143,0.1,0.0072934627532958984,0.1710948944091797,0.048467264,0.07903098,237.28121355542982,-1.8788929591271701,4.90050240887704,0.0,4766,0.707101583480835,0.04326014120826669,0.03768987490856795,238.94521209958583,0.0
208,6.7863242626190186,241.0944520998048,34.33516065117295,276.3435100131436,56.24538528513841,0.0,1.0127498334296747,0.1,0.006998777389526367,0.16409993171691895,0.049764432,0.10343923,237.66253740986733,-1.9054208410293085,4.826201543485496,0.0,4795,0.6687607765197754,0.046470054397668645,0.042301415543187365,234.57672017331447,0.0
209,5.797459125518799,230.74603204664263,80.30126225609624,279.08716616615095,-378.6405005005145,0.0,0.7807867220874545,0.1,0.06828594207763672,1.2606995105743408,0.049638078,0.07873735,236.97088687354486,-1.9232378917957529,4.619682397475497,0.0,4775,0.8484327793121338,0.15490365030221984,0.12425449963111353,247.99716530739275,0.0
210,6.6182780265808105,243.31130231160583,30.332532152174124,275.45014230116453,60.712490270777124,0.0,0.7671091611387254,0.1,0.007836580276489258,0.19357752799987793,0.049834304,0.44285363,237.60492841735095,-1.8798122423864339,4.872245853365792,0.0,4799,0.7866129875183105,0.039264117412523954,0.02618635760452126,246.76895788553617,0.0
211,4.816825866699219,242.85019896512236,33.27362703014479,274.2861114471868,-39.06698014415252,0.0,0.8688621641497439,0.1,0.05766701698303223,0.26953697204589844,0.050019473,0.41732895,238.1294554721281,-1.886429750609553,4.8623676067656865,0.0,4779,0.8880808353424072,0.026856657104747224,0.02392962262924609,244.37501472486412,0.0
212,6.289157152175903,238.2445959284422,47.773357018757,271.50027474534,-57.39487049993475,0.0,1.0629917175442631,0.1,0.008494853973388672,0.19444036483764648,0.0477078,0.0706355,238.14096951775952,-1.894946021634117,4.769149695850721,0.0,4756,0.8437449932098389,0.05017713885369751,0.04821925606137018,245.38648397465303,0.0
213,6.547510862350464,243.9532851478559,28.037491790621736,276.1403464314991,40.92334218034095,0.0,1.0776123110680993,0.1,0.008587837219238281,0.19556593894958496,0.04817383,0.071369484,238.72220108076914,-1.8875374578586248,4.884109881175629,0.0,4799,0.8538768291473389,0.026886359694436198,0.019652775264330492,243.82983563483805,0.0
214,4.930726766586304,228.4130129307426,71.47068982343302,274.1642687522396,-130.58780362291657,0.0,1.0812675390961275,0.1,0.008128881454467773,0.16126513481140137,0.050206754,0.07679749,237.6912822657665,-1.9222448418014828,4.574170764779812,0.0,4770,0.6304686069488525,0.1333391317886276,0.11499789940782708,241.99538850657837,0.0
215,5.624221324920654,234.53048739029904,56.70186211675953,275.0147078203807,-45.15427036698947,0.0,0.9351468390401488,0.1,0.008294105529785156,0.1898801326751709,0.048305277,0.07651253,237.37520277821974,-1.921514737538461,4.694999252437788,0.0,4751,0.688579797744751,0.07650221798324665,0.0669980424176953,243.15714703710728,0.0
216,4.865248918533325,249.54957019765547,25.259795171184738,279.59077881531454,50.52447423086862,0.0,1.0481485364768603,0.1,0.009299755096435547,0.25946998596191406,0.047876935,0.07730637,238.59263952016332,-1.8681800492649983,4.997328813843052,0.0,4798,0.7937443256378174,0.022546748808528173,0.01594284427650692,240.89368807320588,0.0
217,6.02960729598999,245.81879748486725,35.1108358182918,285.67289037015263,-10.767584546183567,0.0,0.8241287710873525,0.1,0.00781869888305664,0.19193315505981445,0.04852021,0.12212178,239.3152553166337,-1.8804562023104925,4.925908065107449,0.0,4796,0.6858468055725098,0.03812271813362823,0.03339071603533294,242.9647446647577,0.0
218,6.194951772689819,240.24629782726424,47.850908848325766,280.977762369287,-19.565835507046295,0.0,0.9359220975698342,0.1,0.007128477096557617,0.16288447380065918,0.045545656,0.11152548,239.40835956769678,-1.8898488279472208,4.809432426090308,0.0,4770,0.6532790660858154,0.06330154906857563,0.05834270922762212,251.21391673457302,0.0
219,6.36592698097229,241.95386624730585,43.33757586203526,276.9929294294301,-37.52773257940488,0.0,0.9073889268237645,0.1,0.05432748794555664,0.32109856605529785,0.048570227,0.09783185,239.6629102356577,-1.86941843019589,4.843753376446815,0.0,4777,0.6940627098083496,0.048785438702834666,0.04602663512078608,247.75841452442603,0.0
220,6.145871639251709,251.80367540458045,14.301639641418449,277.5274255831422,182.8742066668484,0.0,1.0854687966819219,0.1,0.008507966995239258,0.20166993141174316,0.04902183,0.093288235,240.87698675254998,-1.8413033854457455,5.040486988253601,0.0,4800,0.8339860439300537,0.010119295260025973,0.00705298346543739,249.99526966176325,0.0
221,5.373151063919067,244.8186447142177,33.35318712235804,274.2395499232758,-9.805998494700919,0.0,0.7748062717472634,0.1,0.008487939834594727,0.19561243057250977,0.04779826,0.065466814,241.27115254871677,-1.8501181425120727,4.907029411242291,0.0,4788,0.8158576488494873,0.03448499202528875,0.029074451308257313,259.1772501159752,0.0
222,6.912989616394043,242.793382332644,48.15760215951973,270.99457631025166,-55.54695751199853,0.0,0.8028829794364984,0.1,0.007355213165283203,0.19880127906799316,0.049761247,0.13011265,241.4233755271095,-1.8582394071206434,4.860199735739129,0.0,4786,0.6442596912384033,0.060125511879872535,0.052989901280099,250.4663084235856,0.0
223,6.5270771980285645,252.04671955516577,32.61423949393893,276.6124992279755,-45.45523603292452,0.0,1.080555626181158,0.1,0.00839543342590332,0.20343756675720215,0.049595054,0.096218824,242.48570992991512,-1.83680933784395,5.04857304844353,0.0,4786,0.7978692054748535,0.02424295558503373,0.020950334381747888,262.38935224479036,0.0
224,6.52607274055481,246.47922589733824,37.2577897156564,274.05816960160416,21.413384048079436,0.0,0.9557810963683657,0.1,0.008562564849853516,0.22156500816345215,0.047516298,0.08614548,242.8850615266574,-1.8542425785493875,4.934980421710901,0.0,4794,0.7741971015930176,0.04236103140343251,0.03739533450064548,257.5827616659585,0.0
225,4.850997447967529,249.14869163729398,37.68635190065541,281.76187812797235,-60.62651547280585,0.0,0.9350225670829843,0.1,0.007971048355102539,0.1892986297607422,0.04690957,0.1715021,243.51142453772107,-1.8545659631354645,4.995950895357446,0.0,4787,0.8718459606170654,0.04029808706480053,0.03141379904152685,260.96850108810645,0.0
226,6.058923721313477,248.41155396945908,34.935084274150604,279.2884390315508,28.312101815970166,0.0,0.8843152726979017,0.1,0.006909370422363281,0.163773775100708,0.050235607,0.24985349,244.00143748089488,-1.8557859168411455,4.972635442365793,0.0,4800,0.6617658138275146,0.04068631735934615,0.03606889148894117,257.4949330322435,0.0
227,5.660946846008301,253.24869319739295,22.379568939585507,276.5165533312094,54.78081538856213,0.0,0.8650575503264233,0.1,0.007773399353027344,0.1670818328857422,0.049761392,0.14447486,244.9261630525447,-1.8368334160813469,5.069295293754003,0.0,4792,0.621375560760498,0.014955295118651898,0.011554713147556635,256.25232830878724,0.0
228,6.734796047210693,250.786623383795,28.55391576325392,277.3026322687637,94.2252641554426,0.0,0.9697570236650851,0.1,0.008737802505493164,0.1831824779510498,0.04791431,0.098639324,245.51220908566972,-1.8528658272588838,5.024570940999986,0.0,4800,0.7034482955932617,0.02618089876678151,0.023754773423482305,256.5048233407691,0.0
229,6.954779386520386,251.26250468678836,28.15072899340473,274.19879071427636,8.156614632362704,0.0,0.8757584347307845,0.1,0.012152671813964844,0.19391679763793945,0.049086373,0.54388505,246.0872386457816,-1.853093440989909,5.029775236562155,0.0,4797,0.6054801940917969,0.024960705452145893,0.02356148903810223,262.43439582098796,0.0
230,6.595193147659302,254.04984045466912,25.635361008387644,274.70913970436334,24.534624605490393,0.0,1.022661867524648,0.1,0.007140636444091797,0.1658494472503662,0.048885576,0.4991178,246.88349882667035,-1.8258390434804124,5.085635087871378,0.0,4792,0.6102194786071777,0.019934610177110252,0.01718411974933811,267.89904927120074,0.0
231,6.704076051712036,243.66618614505717,67.1575873167366,275.5248277070483,-247.26416346144802,0.0,0.7664105230988754,0.1,0.006975650787353516,0.15790414810180664,0.04886977,0.07310265,246.56176755850902,-1.873502285701625,4.878915116938572,0.0,4787,0.5895376205444336,0.09663200140716853,0.08147646272269005,262.4644678159492,0.0
232,6.73833155632019,253.4710728797542,29.74872458174339,282.3043271416215,-14.29141775194503,0.0,0.6726810022550441,0.1,0.05872178077697754,0.1781764030456543,0.048520155,5.4251842,247.25269809063354,-1.8229323079852986,5.074182357793048,0.0,4779,0.5765876770019531,0.0242139579753351,0.01865260229641297,259.8912873541611,0.0
233,6.925980806350708,252.88332003294192,24.93703419028707,276.4794541761265,31.051394869434418,0.0,0.7997990412002943,0.1,0.007111072540283203,0.17323088645935059,0.047659077,0.65184575,247.81576028486438,-1.8286316001062852,5.06481231976345,0.0,4798,0.6005456447601318,0.019720951924377547,0.019120152169838978,264.1182111492807,0.0
234,6.5849244594573975,251.70534235190485,36.84281133930823,275.2704157581451,-36.20662423872753,0.0,1.0175920941369967,0.1,0.008397817611694336,0.19037222862243652,0.048915952,0.086226486,248.20471849156843,-1.8377831024491222,5.047374653182909,0.0,4783,0.7460324764251709,0.037499479037788865,0.03451700542137105,252.49267772093233,0.0
235,6.827746868133545,247.82629000765982,54.061178793267054,273.2796695853072,-85.65778486602217,0.0,0.8766120631579396,0.1,0.006958484649658203,0.1618053913116455,0.04919136,0.09920742,248.16687564317758,-1.8568264993997674,4.964229071162376,0.0,4787,0.637653112411499,0.0672810686590907,0.0566804818170765,248.93606578589822,0.0
236,5.6774561405181885,250.80904262248905,42.181134633626264,276.44147125740227,-94.05007473873576,0.0,0.9985819652589167,0.1,0.008372783660888672,0.20172476768493652,0.047744807,0.073825546,248.43109234110872,-1.8342212889027596,5.020847261166989,0.0,4782,0.7538015842437744,0.03651357418555588,0.03458858059979193,252.99696903250987,0.0
237,6.38609766960144,247.6301670586561,41.2694181182951,282.5085768936918,8.157653516775149,0.0,0.9424718729169683,0.1,0.0069921016693115234,0.1531996726989746,0.048084363,0.084866025,248.35099981286345,-1.8424481388460199,4.958155894444126,0.0,4795,0.5533442497253418,0.04300599619912745,0.038936170100378906,261.9382476329989,0.0
238,6.582051753997803,253.5916181134834,26.488798686271366,276.5902030519066,8.239419194623167,0.0,1.0361814890557524,0.1,0.006798982620239258,0.1599750518798828,0.046477385,0.123586185,248.87506164292546,-1.8239207862869478,5.076052824639613,0.0,4794,0.6020786762237549,0.024814386585451396,0.017872246194848534,260.166215693953,0.0
239,6.28797173500061,254.85483209117774,19.36056135317721,284.2851192394876,111.32387749170866,0.0,0.896014051189897,0.1,0.006860494613647461,0.1649470329284668,0.048757713,0.41282073,249.4730386877507,-1.8059714532171212,5.101459645397813,0.0,4800,0.6103072166442871,0.01100681147962413,0.011654273083843345,265.6908761328964,0.0
240,6.227684497833252,251.9926157885703,18.75804777060029,289.7978290101789,142.79460863971374,0.0,0.9829490932079668,0.1,0.00730586051940918,0.16301679611206055,0.047817077,0.080265366,249.72499639783265,-1.8144774257593,5.0446627286971655,0.0,4800,0.6203138828277588,0.011880742487830139,0.010313904511461641,264.88237670660897,0.0
241,6.577523708343506,257.3938392610991,10.750772177382823,284.40728545561376,219.38099201916484,0.0,1.0142472023093985,0.1,0.008600950241088867,0.1911933422088623,0.04927831,0.13088274,250.49188068415933,-1.7995783668146252,5.152741746984333,0.0,4800,0.8125271797180176,0.0070458227290095725,0.004391910817498804,267.2137983702614,0.0
242,6.775002717971802,259.4431263522841,15.709161531018308,285.07651634952236,136.33938471605845,0.0,1.035832370763109,0.1,0.0070607662200927734,0.1579434871673584,0.04944715,0.081381574,251.3870052509718,-1.7947632288715034,5.193145555401356,0.0,4800,0.6228487491607666,0.007501461249046884,0.006828476358719913,277.56858856645346,0.0
243,6.742825508117676,257.60492274307876,34.10708148527353,278.8347090275684,-64.68485275387746,0.0,0.8281568784095552,0.1,0.008615732192993164,0.19699525833129883,0.048926596,0.35899195,252.00879700018254,-1.7992165644114368,5.156803762035961,0.0,4781,0.7657194137573242,0.020900395754179346,0.019257053645752916,267.1428837589755,0.0
244,6.708804607391357,261.5928283549847,14.48248764514818,281.02350107086875,151.89670939610906,0.0,0.7419642164632981,0.1,0.07571887969970703,1.9114325046539307,0.049304027,0.07312817,252.96720013566278,-1.79822278465658,5.236127196874323,0.0,4800,0.7165963649749756,0.00813686612591362,0.0070962434873496445,267.2413161319204,0.0
245,5.423713684082031,252.0836150878779,62.46171496973112,285.1382837375154,-244.37177137437197,0.0,0.814756216728217,0.1,0.07565927505493164,2.2422194480895996,0.0501694,0.08773906,252.8788416308843,-1.8262294909625794,5.0460064011531545,0.0,4794,0.6319265365600586,0.07172245257436197,0.059627540822232886,274.80008592488093,0.0
246,6.294813632965088,253.06312216606906,60.47932490972506,283.0054825011529,-121.64012867024995,0.0,0.9619049679399225,0.1,0.07235479354858398,1.980137586593628,0.04762979,0.15609857,252.89726968440277,-1.828941328599689,5.066840025371234,0.0,4763,1.3631415367126465,0.06772646924949952,0.05900424899133408,269.4275561319979,0.0
247,5.972549915313721,262.36996004447184,9.353101816255,277.77993047331705,219.39272459307278,0.0,1.0190751182062485,0.1,0.08314204216003418,2.1489830017089844,0.050169494,0.232851,253.84453872040967,-1.7827402775346226,5.251108449933603,0.0,4800,1.3164002895355225,0.008010355712337358,0.003629835425633498,275.0902250284518,0.0
248,6.597219467163086,257.84545452156743,42.67863933497446,280.6229437523104,-78.54949226468135,0.0,0.9856653305940777,0.1,0.13085365295410156,2.626816749572754,0.050363418,0.080285706,254.24463030052547,-1.800966955417346,5.1605962895014,0.0,4780,1.034285068511963,0.03673778217732263,0.033571857767649066,282.3434761694045,0.0
249,6.820123910903931,258.17869460509513,44.199738464450526,280.6438212945816,-46.00608976109406,0.0,1.0336307009079302,0.1,0.1171109676361084,0.8858962059020996,0.049287017,0.20604616,254.63803673098244,-1.7976180338841854,5.167662749887214,0.0,4773,0.7772102355957031,0.035408998563229516,0.03384443247918461,276.56045292248336,0.0
250,5.82380223274231,263.58921986954874,28.405845489885195,285.68362294432177,-4.293719750558147,0.0,0.8252156324714586,0.1,0.07477426528930664,1.3704068660736084,0.049167246,0.15452279,255.53315504483908,-1.7718150537569664,5.276141746628549,0.0,4788,0.6640431880950928,0.02480491117674569,0.020292052393740122,284.10862131887666,0.0
251,5.756163597106934,258.3428510244923,30.12312259899069,284.4204890935499,46.0833579453068,0.0,0.8567030029629366,0.1,0.14008831977844238,3.182889938354492,0.049122605,0.2424393,255.81412464280442,-1.8066681008387369,5.170740531461443,0.0,4800,0.7308940887451172,0.02215843276990837,0.017886246860698212,279.2368331824718,0.0
252,6.695881605148315,257.36814461201106,47.81262402654081,285.34579395134085,-139.11806606238943,0.0,0.9338857719753385,0.1,0.07003211975097656,2.994575023651123,0.049268182,0.10469551,255.96952663972507,-1.8196786009278607,5.152839071992589,0.0,4800,1.0279004573822021,0.03882581706463296,0.03764415012138268,283.6492480804004,0.0
253,6.629821300506592,263.0650122550157,22.79023955288284,281.8938032519849,68.83583758796516,0.0,0.9900824659382108,0.1,0.09731388092041016,1.4515607357025146,0.04920028,1.5344707,256.67907520125414,-1.7920857848392957,5.265077944065124,0.0,4796,0.7942502498626709,0.01647302348806393,0.012184223734650541,283.1583906065405,0.0
254,6.490100622177124,259.6689302962426,35.8888564416259,283.88099861913736,-6.813956265242538,0.0,1.0982338408773626,0.1,0.04268288612365723,1.5210318565368652,0.050148305,0.09783815,256.97806071075297,-1.8128528844746394,5.197421025525254,0.0,4800,1.4035863876342773,0.02586224501665502,0.023929218414617866,283.4042777609653,0.0
255,6.892866849899292,263.96030547012043,21.59240994155102,285.5970138558492,75.36747956526071,0.0,0.7860138643114751,0.1,0.1133871078491211,2.8374838829040527,0.051310524,0.56341743,257.6762851866897,-1.7925307477138672,5.2831329591042335,0.0,4800,1.9800074100494385,0.015419988821090573,0.01293864425781631,279.89396583817603,0.0
256,5.973334074020386,252.19240082957376,66.13258348642434,285.87762352103516,-103.86346088538559,0.0,1.1128092093488828,0.1,0.09409642219543457,1.8720142841339111,0.047850985,0.06594864,257.1278967509781,-1.8408842459370394,5.04774250014374,0.0,4796,0.6370987892150879,0.07419793403258651,0.06408259601666082,284.4634893434077,0.0
257,6.439002513885498,257.25710451644784,48.475988582205275,288.1607587081341,-37.33982890413907,0.0,0.8670733420333764,0.1,0.07771539688110352,2.4125964641571045,0.049698453,0.88874364,257.1408175275251,-1.8165139140574789,5.157497283846047,0.0,4764,0.8183984756469727,0.05041338581986692,0.04401802820091593,277.6080317413101,0.0
258,6.556652545928955,257.09173759753793,44.61734994359815,287.6037828993574,-35.62885500168066,0.0,1.0238165293206059,0.1,0.09641504287719727,2.432474374771118,0.050522577,0.4725798,257.1359095345264,-1.820366505055926,5.147718637571049,0.0,4778,0.729163646697998,0.03644259452690873,0.03248280021180737,271.6084976967619,0.0
259,6.6752355098724365,259.96292163221466,34.68554912942496,282.48474491413185,-65.82879143548783,0.0,0.9147723623474542,0.1,0.07886075973510742,2.655755043029785,0.048198145,0.06610886,257.4186107442952,-1.7960540641420009,5.206595293752829,0.0,4782,0.923778772354126,0.02559768097525866,0.021712765271183643,274.8432008570403,0.0
260,6.388552188873291,265.5232596892085,8.097180275035711,283.0549690149028,247.88272898553055,0.0,1.1340772269749764,0.1,0.08893847465515137,1.8762381076812744,0.04901647,0.08542679,258.2290756387865,-1.7782693752349477,5.315735450540893,0.0,4800,1.3472249507904053,0.003653651383173252,0.002292962472721554,280.2923602864876,0.0
261,6.588008403778076,266.3338329432757,11.734001303308919,284.8244315862481,203.18819938291352,0.0,0.9743672707876033,0.1,0.11208891868591309,2.243178129196167,0.05047651,0.07500505,259.0395513692354,-1.7742858763170029,5.333453727878148,0.0,4800,1.0753858089447021,0.004760439824866393,0.004175869353608881,279.2156777523087,0.0
262,6.034122943878174,266.2948992378031,15.27204228673685,283.82159788749607,133.79527540885562,0.0,1.1765254196064516,0.1,0.07428312301635742,1.851388931274414,0.04795933,0.07260754,259.7650861560922,-1.7620433805765015,5.3295817183413865,0.0,4800,0.821812629699707,0.006705230374001342,0.006477528539487996,280.1642779982483,0.0
263,6.7692649364471436,263.90346480634736,33.66812513808593,283.98400151268424,-26.596991310714,0.0,1.0011126912348154,0.1,0.10326838493347168,2.255063533782959,0.04887531,0.06471911,260.1789240211177,-1.779427353339418,5.283016819132711,0.0,4781,1.31984543800354,0.023670059878101463,0.021344524856884754,276.4566269743764,0.0
264,6.379252672195435,265.7737047699548,33.16617490523746,292.7114524169338,-47.21427492909514,0.0,0.8409333899905209,0.1,0.09431815147399902,1.3050262928009033,0.04922548,0.074426815,260.73840209600144,-1.7968626992188002,5.3214348084025715,0.0,4800,0.9808108806610107,0.02814122940033113,0.02332273684583847,278.3450896588014,0.0
265,6.610042572021484,262.0482566075361,35.71218899820156,286.4884561556766,-25.71233416770027,0.0,0.9165520796905025,0.1,0.03775334358215332,1.713561773300171,0.04911789,0.14717244,260.8693875471549,-1.8175209699357016,5.253835899579503,0.0,4795,1.7493252754211426,0.027228091278877372,0.022113488204532385,277.32686494844893,0.0
266,5.658107042312622,267.8853731657154,9.889510387897499,285.36740818455195,209.5572033463001,0.0,1.182874392513695,0.1,0.11596989631652832,1.8024446964263916,0.048549015,0.08569257,261.57098610901096,-1.784502838596789,5.361507515463711,0.0,4800,0.6836283206939697,0.0056901259384792265,0.0028232324672551237,280.00623488410804,0.0
267,5.963883399963379,259.36162276565364,43.90961006653646,287.5272112696312,-17.72493253500217,0.0,1.1118891779136628,0.1,0.008190631866455078,0.21458768844604492,0.049879167,0.089747414,261.3500497746752,-1.821654067107649,5.194883315451405,0.0,4765,0.7288661003112793,0.035109831821636676,0.029426429045428488,272.86985817931725,0.0
268,6.564335584640503,260.24030583195776,46.01617675722757,282.5219413959947,-50.42711770186436,0.0,1.081821028136488,0.1,0.10867047309875488,2.192075490951538,0.050836142,0.11206774,261.23907538040345,-1.8217860647879298,5.212817742876828,0.0,4773,0.8144452571868896,0.042288735266090324,0.03846394967505987,274.098046903352,0.0
269,6.857822895050049,268.9610806902085,6.562829438261404,286.33816659681816,252.5929441023133,0.0,1.032052068262345,0.1,0.10037088394165039,2.020805835723877,0.049843606,0.11135783,262.01127591138396,-1.7881489826487185,5.384776637394913,0.0,4800,0.6712534427642822,0.007544944172183341,0.0022369951443159015,272.4428434236565,0.0
270,6.5415520668029785,267.9607436906215,16.274052751842685,284.4094791996267,123.08181359770981,0.0,0.9736996205321028,0.1,0.05183672904968262,0.6218836307525635,0.047393385,0.06523532,262.6062226893077,-1.7693813167077146,5.363182932501892,0.0,4800,0.653212308883667,0.00909765032025879,0.008822768950260762,278.31427046416593,0.0
271,6.585779905319214,259.9461300434345,37.04630264659627,287.42637963200616,14.206306483344889,0.0,0.8261041016356687,0.1,0.07991409301757812,2.2849912643432617,0.050214257,0.13546778,262.34021342472033,-1.8094080218234208,5.20324973961291,0.0,4796,0.9118010997772217,0.03384352108806477,0.026278695872590314,276.1033624502821,0.0
272,6.648733615875244,267.06289150846845,7.144928189200134,288.90379891322704,248.23002155800427,0.0,0.9391050281803693,0.1,0.07995915412902832,1.8711249828338623,0.04862663,0.4659883,262.8124812330951,-1.7685127095024467,5.345100496856278,0.0,4800,0.8303835391998291,0.004255853562648199,0.0018184925376684372,283.0710134855926,0.0
273,6.614995956420898,258.5841079028774,50.55173263634476,282.15303099167653,-34.41445367400222,0.0,0.9614781751359313,0.1,0.09352660179138184,2.0486700534820557,0.048508663,0.07195677,262.3896439000734,-1.7843100814807002,5.175351535026799,0.0,4771,0.8495724201202393,0.0516707684277664,0.03802863406620444,282.6448737100413,0.0
274,6.53931188583374,265.3599668361241,17.551284184156394,280.4336911408926,143.05124162451227,0.0,1.0611268990796339,0.1,0.06957554817199707,1.8139562606811523,0.049854156,0.118965365,262.68667619367847,-1.7662884923825422,5.3109960921395265,0.0,4800,0.691617488861084,0.009987377991998048,0.007323787109419372,276.52567086878764,0.0
275,6.04451584815979,260.5105928426689,33.98412310440712,279.8583451496459,55.172235754515214,0.0,0.7964838885816071,0.1,0.006846904754638672,0.1622023582458496,0.048862968,0.07766457,262.4690678585775,-1.7725077720155635,5.214030884586008,0.0,4793,0.5774688720703125,0.027248551579100704,0.02184407473919798,273.9345330807137,0.0
276,7.155229806900024,266.42687864535657,8.874627410713329,285.84297108388677,211.43144039648678,0.0,0.9428335314162091,0.1,0.08241128921508789,2.110598564147949,0.047721542,0.4915259,262.86484893725543,-1.7696660703744163,5.335592870831294,0.0,4800,0.8664331436157227,0.008316309249111193,0.0024328663481811225,273.3726448798186,0.0
277,5.906462907791138,267.97508447262385,6.3218407434930874,281.0037296897989,252.49896226927996,0.0,1.0138811091059206,0.1,0.07280349731445312,1.5408306121826172,0.049396645,0.11135844,263.3758724907923,-1.7660425643828723,5.363516720321974,0.0,4800,0.7887084484100342,0.0022205917986245632,0.0018331445653706547,277.2545073668117,0.0
278,6.057748556137085,266.08002246047346,14.627474149313615,286.22184311475087,172.8761032751632,0.0,0.9483682115295153,0.1,0.07818055152893066,1.7839770317077637,0.04778668,0.23061857,263.6462874877604,-1.7827253324139534,5.327939148140463,0.0,4800,0.7250778675079346,0.0058308267105519835,0.005041026184328859,280.9987137082584,0.0
279,5.88041090965271,266.111996958662,27.668037044661844,288.64444082409733,54.641772823532335,0.0,0.9352736596877874,0.1,0.07074713706970215,0.7290723323822021,0.048109833,0.07103326,263.89285843485055,-1.77504018467521,5.32646282024005,0.0,4791,0.6677794456481934,0.015922880363438564,0.01528317635220419,288.7501050834663,0.0
280,6.69888162612915,265.4324923696664,32.54322781133272,286.36237248008297,-25.75311573819159,0.0,1.2107505033812538,0.1,0.08889245986938477,2.495798349380493,0.049224246,0.0590176,264.04682182833216,-1.773874079575594,5.3126312167975565,0.0,4781,1.6852288246154785,0.01993445605202911,0.01751088569114547,283.27387238419675,0.0
281,6.826022624969482,268.89464833391276,7.172198575380651,284.11284836237644,253.27277712188786,0.0,0.5512769276143007,0.1,0.1092071533203125,2.0375020503997803,0.05059835,4.588597,264.53160447889024,-1.7765116063647282,5.381370616970848,0.0,4800,1.2866640090942383,0.003384186810986579,0.0017288469323156663,287.60637269464877,0.0
282,6.798541069030762,268.97133846563764,31.39214840503981,285.0122693781684,-29.477424005043257,0.0,0.6578825155800267,0.1,0.1015162467956543,2.095712184906006,0.049496207,0.23607473,264.975577877565,-1.7806620876987438,5.383243341967719,0.0,4800,2.2788705825805664,0.017149042694441813,0.01453194474562845,284.33989956173093,0.0
283,5.951387405395508,267.25917231262775,28.370461928417065,288.6056332189811,3.9580036414181876,0.0,1.0418276261053858,0.1,0.10697078704833984,2.4654464721679688,0.047665816,0.06369999,265.2039373210713,-1.7751620596821205,5.348955850087492,0.0,4783,1.1174910068511963,0.01493654256388092,0.01377505445753244,285.95828217202353,0.0
284,6.593173027038574,265.09258149201906,33.34591535658655,286.25195889873885,44.10874493498453,0.0,0.7595227630875185,0.1,0.12250351905822754,2.8270418643951416,0.047870297,0.14616758,265.19280173816605,-1.7910039242439044,5.305633684251981,0.0,4796,1.0837974548339844,0.019973078416243552,0.017940971296065793,290.6877580141647,0.0
285,5.672332048416138,267.93064193552897,14.832618529501937,284.8338157810038,193.502564469471,0.0,0.9517739183105647,0.1,0.07082772254943848,2.408827781677246,0.04896674,0.23665316,265.46658575790235,-1.7776720350357973,5.364782935736737,0.0,4800,0.8857889175415039,0.006713628126907468,0.004792825413784011,288.3884353429817,0.0
286,4.873836517333984,262.4204052511836,46.88502156506942,283.884274105555,-76.38063751524363,0.0,0.9943620115505306,0.1,0.06837248802185059,1.896033525466919,0.049736112,0.07278588,265.1619677072305,-1.791136994710409,5.252297426252872,0.0,4798,0.7931408882141113,0.03835868155061738,0.0336951419418426,285.53229893451174,0.0
287,6.5961620807647705,267.6678030862856,24.451861096077685,287.0830305097584,58.83727815829368,0.0,1.063610999641139,0.1,0.10170245170593262,2.8900668621063232,0.048818015,0.08739994,265.412551245136,-1.7760423800115184,5.3572420282138475,0.0,4795,1.6033077239990234,0.01488155696391239,0.01375100288724864,280.56392495945295,0.0
288,6.692213296890259,266.4015004543197,25.161055513355574,291.20528710929716,109.95580805170376,0.0,1.1041463135665237,0.1,0.13569092750549316,2.8705854415893555,0.04854757,0.086934485,265.5114461660544,-1.7908169505134062,5.331795349101462,0.0,4800,0.9451479911804199,0.015441982860697827,0.01240878990061869,277.53748919584706,0.0
289,5.960678339004517,267.4789696350143,21.384038772716693,284.3370104017077,108.82828593461839,0.0,1.0862316251040842,0.1,0.11604070663452148,2.2556939125061035,0.04852131,0.09851716,265.7081985129504,-1.7869379420703944,5.356458324878112,0.0,4800,1.8756041526794434,0.009997971660559043,0.008944262634891979,274.0403370909985,0.0
290,6.882201671600342,268.3207245718332,23.946202434777806,288.4687601103957,56.199792172760446,0.0,0.9014596636788664,0.1,0.09045839309692383,1.8541066646575928,0.047740318,0.069259755,265.96945111883866,-1.7796589511313998,5.370316832930766,0.0,4791,0.7848155498504639,0.01208562627778907,0.010883656220405288,270.5848559452781,0.0
291,6.229661464691162,270.27370064136517,9.409271445557655,285.98812341517413,217.53662801978228,0.0,0.7845218214488675,0.1,0.009135007858276367,0.6410098075866699,0.04847196,0.7093302,266.39987607109134,-1.7781648880802923,5.411117673181799,0.0,4800,0.9363882541656494,0.003937747972983494,0.002545326974481679,278.90192628719257,0.0
292,6.278047561645508,270.37193265982734,11.21216575509749,291.7844320131867,190.61252552082968,0.0,1.0900679159502482,0.1,0.12241268157958984,1.3058974742889404,0.049946874,0.090891436,266.79708172996493,-1.7696627632091524,5.410981137445066,0.0,4800,1.3014190196990967,0.0033908786382015827,0.0030644609220631313,274.72053922441347,0.0
293,6.636234760284424,268.7964635458494,34.322005272096376,288.45694718920294,-37.11927898268102,0.0,0.9118450054526795,0.1,0.09238505363464355,2.050309658050537,0.048789594,0.094296694,266.99701991155337,-1.8036563812464408,5.380119856852228,0.0,4800,1.1651215553283691,0.02012813290404134,0.016521905810209472,277.70288738748405,0.0
294,5.973474025726318,271.885953507476,16.693032466774337,289.0503266151778,143.64727072300153,0.0,0.9300590470162422,0.1,0.09588098526000977,1.8582127094268799,0.04838227,0.37049204,267.48591327114565,-1.7768352156375677,5.4436363352218144,0.0,4800,0.7490839958190918,0.007281194642485807,0.005756526072953935,276.05513725295066,0.0
295,6.594610214233398,267.87743029003985,39.19222194069796,285.6962674728653,-21.084935016013553,0.0,1.0108428741424296,0.1,0.07035160064697266,2.2182235717773438,0.049675107,0.06990473,267.52506497303506,-1.7940954038371402,5.361712365133864,0.0,4797,1.3492324352264404,0.040082827594648436,0.03141918759877487,279.534458434994,0.0
296,6.820030927658081,271.97754553654494,10.215231278258504,290.14398944997345,213.42177174955873,0.0,1.0951385270023581,0.1,0.07020330429077148,1.9022033214569092,0.04936011,0.097186625,267.97031302938603,-1.7750176234361987,5.443675330830868,0.0,4800,0.7373497486114502,0.00808945154843982,0.0031145467308691,282.0206892348242,0.0
297,7.027761220932007,274.1686360715906,6.391828341893248,287.1445716605836,252.06149097418674,0.0,1.087061427345539,0.1,0.07047057151794434,0.535179853439331,0.044608776,0.079690866,268.59014533360653,-1.7717843242147209,5.487335825577283,0.0,4800,0.6831011772155762,0.0021512208807425567,0.0013404908333880265,288.17625180733774,0.0
298,5.8280510902404785,273.0318625106624,25.77528423417548,291.03248191107656,29.14778733887826,0.0,1.1118751469670125,0.1,0.08770322799682617,3.678105354309082,0.049165837,0.05731311,269.03431705131214,-1.7706401715422289,5.464271143053309,0.0,4798,1.358755111694336,0.015862318380627034,0.013637108706534517,289.23566595850957,0.0
299,6.5809104442596436,263.1849476246329,46.38752262657535,289.7681740558829,7.099644205735956,0.0,1.047507469256127,0.1,0.10607576370239258,2.516951560974121,0.0478287,0.13163544,268.4493801086442,-1.7953204230319235,5.267905808227394,0.0,4775,1.0914552211761475,0.04649802023280755,0.039686599263401325,287.9296572298026,0.0
300,4.941986799240112,268.945862636803,34.10659456518431,284.6779229436318,-45.70538030020751,0.0,1.0180526569940342,0.1,0.05598759651184082,1.0355169773101807,0.049525265,0.21415573,268.4990283614601,-1.77443059612051,5.390567509687873,0.0,4779,0.8355276584625244,0.021393274654586715,0.020671792040011218,284.533002047362,0.0
301,7.017390489578247,272.47040564617936,14.240050076870668,293.87237864785214,176.30286494033336,0.0,0.8983062596173339,0.1,0.16551947593688965,3.082371234893799,0.04974787,0.07514727,268.896166089932,-1.7608686031986949,5.453416316805831,0.0,4800,0.7487893104553223,0.0089269518621602,0.004553996176792431,283.83293104946625,0.0
302,6.719728708267212,273.16778403682525,24.536021740453837,291.2463290335625,61.67853722337919,0.0,1.0491927964392374,0.1,0.10589718818664551,2.772197961807251,0.049564805,0.06863639,269.32332788462134,-1.7666646135517414,5.467168168853809,0.0,4800,1.1661725044250488,0.013567519025274324,0.01146394138557245,285.754217477292,0.0
303,7.043703556060791,274.407596916362,9.233576630161936,289.9235770431058,238.04149762448878,0.0,0.9449311575334941,0.1,0.10838794708251953,1.9374232292175293,0.048233766,0.14580794,269.8317547877954,-1.7673595485857543,5.49342989026276,0.0,4800,1.109189510345459,0.0037364047128921885,0.0021654833978123,291.69917738320805,0.0
304,6.578929901123047,267.9532045897221,41.78859570921883,288.6942309847173,-2.116548556422046,0.0,0.8027561827645107,0.1,0.0782172679901123,1.3646137714385986,0.047869366,0.07006883,269.64389976798805,-1.7742361235811093,5.3662475848909,0.0,4783,0.8569908142089844,0.03927206587868244,0.03381806793967589,288.4628904330633,0.0
305,5.907896280288696,267.32147750488326,54.86520317672674,293.4993702482698,-163.37396868520102,0.0,0.831287601460411,0.1,0.11615562438964844,2.024446725845337,0.049330335,0.10317562,269.4116575416776,-1.7926869134267058,5.350096597954039,0.0,4800,1.0296645164489746,0.06440689486523452,0.047450520108884384,287.0317089634314,0.0
306,6.6728737354278564,268.2432003410317,36.118569846379806,285.35851481032796,34.32802462438373,0.0,0.9328672581434508,0.1,0.09189987182617188,1.1162097454071045,0.04918944,0.09984516,269.294811821613,-1.7816527062620935,5.368657868323222,0.0,4796,0.6251037120819092,0.029654240778074402,0.023592785993224445,285.2875432747445,0.0
307,6.633572340011597,274.5184598313286,11.940006172013256,293.3482199368161,206.29755797176972,0.0,0.9151233481409111,0.1,0.11485171318054199,2.3110499382019043,0.050242875,1.1539086,269.81717662258455,-1.7578658640002562,5.4939725280086735,0.0,4800,1.0654098987579346,0.00829600545079284,0.0036591163579529884,291.2147849326296,0.0
308,6.073270559310913,270.7269983167452,37.499707405223276,291.436495262704,-19.9918331659826,0.0,1.2454503181066492,0.1,0.10023951530456543,1.5035970211029053,0.049839728,0.0582482,269.9081587920006,-1.7523334472384597,5.417785462931935,0.0,4773,1.1091318130493164,0.02318568632239616,0.019389691808502474,290.77166129797246,0.0
309,6.0702314376831055,276.8762636185492,7.161878815178813,289.6310968070434,244.2082158170786,0.0,1.1073524455665824,0.1,0.008607864379882812,0.5196425914764404,0.049820703,0.12795135,270.6049692746555,-1.7539685727546137,5.541064367926541,0.0,4800,0.6422395706176758,0.0026297900649629733,0.0012301160815483966,295.3643787021456,0.0
310,6.8530871868133545,274.1992597902732,22.12761340950081,288.95398437380544,88.8247497524942,0.0,0.7806280337402838,0.1,0.08997774124145508,2.4413838386535645,0.049555723,0.06944576,270.9643983262173,-1.762167115856731,5.489692099237544,0.0,4800,1.371006727218628,0.014827157968405242,0.010819644965408189,296.6631741868696,0.0
311,6.988324165344238,274.2563033576714,26.24921818252036,294.3770072344809,31.141394133065113,0.0,0.7459384022918808,0.1,0.09832501411437988,1.789456844329834,0.04890896,11.302336,271.2935888293627,-1.76971418730093,5.488788703013765,0.0,4789,0.8357436656951904,0.013232377757265091,0.010516772926143189,296.4666338036912,0.0
312,6.613380193710327,277.37350297309905,6.591532972545358,294.5657746826357,264.5106392871764,0.0,1.1541339252294283,0.1,0.12953805923461914,2.728070020675659,0.049756106,0.08943633,271.90158024373636,-1.765220919890152,5.550873311282168,0.0,4800,0.7982640266418457,0.002279094341210937,0.0011420548060486996,303.0305328307271,0.0
313,6.6495654582977295,275.9126280759219,19.4724947583842,290.2904657243398,95.76165211423879,0.0,0.8202770747104072,0.1,0.0796501636505127,1.9116060733795166,0.049614348,0.068782285,272.3026850269549,-1.7599817946002565,5.521508717240067,0.0,4800,0.9891965389251709,0.009280943369833143,0.00703202077633079,304.91202642650785,0.0
314,6.732286214828491,270.3469192610324,44.75608174465154,289.9980042727691,-51.27888626135167,0.0,0.9531035336888289,0.1,0.10846328735351562,2.458510160446167,0.049494002,0.1672668,272.10710845036266,-1.7938791574269473,5.410461678188125,0.0,4776,1.1208019256591797,0.030704938131411206,0.026176828807160532,306.0012613851778,0.0
315,4.768491983413696,276.2631584518565,24.14092124190157,293.20764423277313,50.182937120151976,0.0,0.9942166001997037,0.1,0.10776805877685547,2.8375844955444336,0.049210295,0.31055477,272.5227134505121,-1.7717166598941922,5.5293626560133395,0.0,4800,0.7377157211303711,0.01418432679177715,0.012844666970449956,305.22332888559765,0.0
316,6.6667585372924805,274.6115989430088,39.19825599212449,294.79339022372653,-93.20641912366528,0.0,0.9710895483303721,0.1,0.09125900268554688,2.705230712890625,0.04962084,0.052990995,272.7316019997617,-1.7684018668892307,5.496056131709054,0.0,4772,1.088515043258667,0.01505179537246226,0.012889085967684913,303.76960634273263,0.0
317,6.64287805557251,277.5696079182995,7.0358307363233,291.1916879799661,251.89753344481335,0.0,0.7056169702796887,0.1,0.0971071720123291,3.1103930473327637,0.049811635,3.435301,273.2154025916155,-1.7603227627585956,5.557094706689273,0.0,4800,1.2016618251800537,0.002555685192616139,0.0014418258785346548,304.9233818361282,0.0
318,6.9276463985443115,278.1359850612407,6.020424007559425,292.239340415752,257.3235933974872,0.0,1.1264494310936712,0.1,0.10348892211914062,2.1383862495422363,0.048454426,0.08439945,273.707460838578,-1.752452560189548,5.566638455795608,0.0,4800,0.9827182292938232,0.001053380534307071,0.0008866994536206212,300.44708203957606,0.0
319,6.446209192276001,276.73339805873314,25.014334332468323,290.9052204629391,49.99131941593078,0.0,1.0954877542316124,0.1,0.09753561019897461,2.7267870903015137,0.04884648,0.063071236,274.0100545605935,-1.7561299823177745,5.538493280782924,0.0,4787,0.9149956703186035,0.011498707255219358,0.010334107431309632,302.3889558054809,0.0
320,6.67079496383667,279.2790773868105,10.628944918633126,291.28681305558956,188.43323724386443,0.0,1.2252683830709932,0.1,0.09598588943481445,3.1646852493286133,0.046746477,0.08064607,274.5369568432152,-1.7567484052708384,5.589530054627141,0.0,4800,0.9375638961791992,0.00320613075570027,0.0029335223621527046,302.1860704339483,0.0
321,6.7612690925598145,280.2296804946139,6.928449472189896,293.8434846869605,255.8087624140122,0.0,1.1747397085832487,0.1,0.14999866485595703,3.5928895473480225,0.048310336,0.0806402,275.1062292083551,-1.7562679103458947,5.608718669224395,0.0,4800,1.2514915466308594,0.0016961541049248924,0.001250012336334795,295.29977069157843,0.0
322,6.717265844345093,277.68272510254724,18.4991949856572,292.8889169104565,134.56110597047427,0.0,0.8258749371882336,0.1,0.13103246688842773,2.633070230484009,0.0498972,0.6984807,275.3638787977743,-1.7595579029420927,5.562418788885405,0.0,4800,2.146498441696167,0.009095131603776976,0.00781723199964006,294.4843384370714,0.0
323,6.037635326385498,277.6199686176928,34.14096372259036,293.5077866268709,-39.48475980503752,0.0,1.045158066984728,0.1,0.10750842094421387,2.6647980213165283,0.049744148,0.10015156,275.58948777976616,-1.7667706940527614,5.555851418237121,0.0,4781,1.5532877445220947,0.020389815847509922,0.018620235255437174,292.9654874510774,0.0
324,6.168032884597778,276.8593837758702,34.29164023663908,292.3835042499744,-24.930654180277834,0.0,0.9131162577115499,0.1,0.09978127479553223,2.965226650238037,0.049474522,0.14494799,275.71647737937656,-1.7682773941804015,5.540785587690152,0.0,4790,1.211266279220581,0.018094328497509027,0.015441872830613526,288.65450064293395,0.0
325,6.614426374435425,279.1994326164959,22.16635290327216,292.5370612871886,73.39092169065327,0.0,1.0006396047126984,0.1,0.10997915267944336,2.3435511589050293,0.04964413,0.12026245,276.0647729030885,-1.7494955769413643,5.587461139212844,0.0,4800,1.8503296375274658,0.007956353650389445,0.007350323657777963,290.6734492790019,0.0
326,6.67515230178833,280.3854283702422,6.864744000748246,296.0331670675358,251.53082021920306,0.0,1.1290370728970374,0.1,0.12683606147766113,2.9670004844665527,0.049138896,0.10051791,276.4968384498039,-1.7540678601855844,5.61162950941749,0.0,4800,1.0557525157928467,0.002006472422160081,0.0013932271034419075,286.0146117998482,0.0
327,6.621013641357422,273.13888212635544,44.682314360833864,293.8661329836915,-18.87605996677386,0.0,0.8772351261858043,0.1,0.15209507942199707,2.438284158706665,0.049865592,0.07428616,276.161042817459,-1.768110049350969,5.466355853853653,0.0,4770,1.038454532623291,0.03711631038899219,0.029610842048655137,282.32045664047797,0.0
328,6.618234157562256,275.49326097635713,39.926212357031005,292.2198641496533,-45.00270165905826,0.0,0.95676761732853,0.1,0.12764668464660645,2.9717342853546143,0.050480407,0.065217614,276.09426463334887,-1.762946521566527,5.522048817981404,0.0,4778,1.456850290298462,0.03246697420891016,0.028196450230870654,273.8520873038477,0.0
329,6.115830659866333,274.37353370633326,46.86560722812849,292.96015615314803,-54.261039363067255,0.0,1.0412205772785983,0.1,0.15649986267089844,2.8745532035827637,0.049643636,0.07503144,275.9221915406473,-1.7711523027978195,5.490912864661908,0.0,4791,2.141587257385254,0.035022289435089796,0.031437793456794136,274.2071534247187,0.0
330,6.489514350891113,276.9843978167052,25.812246544863388,294.1956034115665,77.6905647638802,0.0,1.0454480792516379,0.1,0.11393952369689941,2.2524218559265137,0.048715223,0.0785619,276.0284121682531,-1.7423704272285736,5.543075778609825,0.0,4797,0.8729026317596436,0.01720133633875382,0.015119495171400639,272.4196232988762,0.0
331,6.960402727127075,281.54963462791306,6.048177312894839,296.434342098737,265.55424548275846,0.0,1.1695158772557148,0.1,0.103240966796875,2.3146605491638184,0.049064245,0.08146808,276.58053441421913,-1.7304117347780121,5.634711442692944,0.0,4800,1.7314643859863281,0.002325943281416561,0.0011313165057531814,276.0839629420755,0.0
332,5.713069915771484,276.99861154901413,25.11208562641319,293.1933831297127,98.90179786099273,0.0,0.6363453144251664,0.1,0.10946965217590332,2.478536367416382,0.050385855,0.12155314,276.62234212769863,-1.7392472636014256,5.543474530779828,0.0,4789,1.0743868350982666,0.017634123823198993,0.011996307390794549,277.44913394580414,0.0
333,6.670362949371338,281.2029355322693,8.923618851382493,293.8172640268718,218.34881836739044,0.0,1.1204616469633366,0.1,0.028812885284423828,2.0759124755859375,0.04955471,0.098604485,277.08040146815574,-1.7326346531627215,5.6278328278673895,0.0,4800,1.6622188091278076,0.0062613095543703375,0.0018960357876208979,280.1451019497256,0.0
334,5.877762317657471,281.86787845793924,5.9135378287396865,293.0625002726262,258.5130041245426,0.0,0.970804409207035,0.1,0.11019468307495117,2.5272326469421387,0.049986083,0.10493777,277.5591491671341,-1.726881268365073,5.642679036297456,0.0,4800,1.901435375213623,0.0012611250646087668,0.001111148609543402,287.19064358645016,0.0
335,6.540430068969727,276.54383231058017,37.771300020004155,293.40611275684427,-17.58739110375992,0.0,1.0083753487281188,0.1,0.12004709243774414,2.0159084796905518,0.049160264,0.1383295,277.4576174814787,-1.7387221317188344,5.543356555373151,0.0,4781,1.803401231765747,0.02846101152682286,0.02413993338125037,285.23896097010584,0.0
336,6.517264366149902,281.30747230928205,7.727622595634918,293.4854313936471,244.7774264291092,0.0,1.0788684178876635,0.1,0.14423203468322754,3.128767728805542,0.049331814,0.094073184,277.842602964259,-1.7265594143936678,5.629651048209799,0.0,4800,1.2796931266784668,0.0038865589882299033,0.0014570081250578194,283.87003772040964,0.0
337,6.6873180866241455,277.7750857712745,29.50183460459527,295.73137546241605,86.74165594129556,0.0,1.0338368701955636,0.1,0.17462825775146484,3.230191707611084,0.04952449,0.3023492,277.83585124496057,-1.7457992244189926,5.558721892098039,0.0,4800,0.9995689392089844,0.01756296209219785,0.013832694497191407,282.99296311854255,0.0
338,6.82845664024353,272.3590993569539,49.74444462217835,295.7801784737162,-68.28592118457972,0.0,1.1191012993719358,0.1,0.09281754493713379,2.6428356170654297,0.049709104,0.106251426,277.2881760561599,-1.74157780013624,5.463697920812268,0.0,4773,1.0094151496887207,0.04016154674105154,0.036250668342658464,281.853129526969,0.0
339,6.7015626430511475,282.11328168410813,9.449025533806868,292.56637020845506,203.0122304758928,0.0,1.1170042753833755,0.1,0.09819793701171875,2.7481484413146973,0.049583267,0.101770274,277.77068661895476,-1.7190265945373795,5.646251706235669,0.0,4800,1.0074043273925781,0.006990171122727122,0.0021544215047189287,280.2414756391284,0.0
340,6.736738920211792,283.1946133042298,5.09709587316811,291.4887248831839,266.78817607040054,0.0,1.0897021523458288,0.1,0.1258831024169922,2.5600528717041016,0.04932327,0.09036383,278.31307928748225,-1.7224433861003987,5.667108167356392,0.0,4800,0.8636565208435059,0.0009218589197725707,0.0009549754728625787,286.0796753517043,0.0
341,6.001422166824341,270.7995891357094,50.329701362227254,294.3650848360349,-44.95578463836274,0.0,0.9337887540066465,0.1,0.10968732833862305,2.5585787296295166,0.04981583,0.21156181,277.56173027230494,-1.764104233364231,5.421874224001299,0.0,4776,1.3748011589050293,0.04651502789967587,0.038780149539609496,283.29130877459244,0.0
342,6.611307382583618,276.1856055411965,33.95515988915859,294.0062018411466,19.535583072424483,0.0,0.9211616630051987,0.1,0.12323355674743652,1.892134428024292,0.04974312,0.069995694,277.4241177991941,-1.7586480511289073,5.526806951258927,0.0,4800,0.6403403282165527,0.024717262818889824,0.01905866795079002,279.8888258910856,0.0
343,6.715643405914307,276.7133432507173,33.25653068383719,295.85961404698634,32.15270623939627,0.0,0.9996373094335799,0.1,0.11396551132202148,3.2156145572662354,0.0489188,0.1574238,277.3530403443464,-1.7535457370959822,5.541110804172486,0.0,4798,1.2610485553741455,0.01994352212151892,0.016715119354118124,285.8262173516669,0.0
344,6.548843622207642,274.2392787962385,43.16668568180466,292.60413887395373,17.373296714233916,0.0,1.215778168734374,0.1,0.11252665519714355,2.1822564601898193,0.049678043,0.063292615,277.04166418953565,-1.745174886501605,5.4882543223913345,0.0,4782,0.9144878387451172,0.029254942673795876,0.02756081285453456,282.00885227390336,0.0
345,6.61836314201355,271.9950732779751,45.469984658389514,291.1709259517315,15.873071138042945,0.0,0.7721976250799854,0.1,0.12823867797851562,2.706834077835083,0.049520664,0.06632212,276.5370050983796,-1.7883687652951064,5.451438262572509,0.0,4789,1.847820520401001,0.03612556852480273,0.03240194082965066,284.260156596719,0.0
346,6.662801027297974,280.527983701051,6.820892569848187,292.93404053770394,249.81130914973625,0.0,1.1695974654610481,0.1,0.14215922355651855,2.349931001663208,0.049446158,0.08773932,276.93610295864676,-1.7440497702147937,5.614336884360635,0.0,4800,0.8949508666992188,0.007886904226703772,0.0014370306665322454,284.4843546701931,0.0
347,5.822997808456421,281.7272328975922,6.70245108843041,295.79215782853873,251.32649490515018,0.0,0.3761321800727311,0.1,0.13076472282409668,2.1112635135650635,0.048941147,3.4613228,277.4152159525413,-1.737836627535799,5.638463362731554,0.0,4800,0.8586866855621338,0.0022747640836207755,0.001395465525679087,288.4395194327251,0.0
348,6.754026412963867,276.26458436162994,38.61239722003068,296.71644879440026,-64.79484440590142,0.0,0.9993535742175937,0.1,0.1179356575012207,2.8088796138763428,0.04866767,0.0625928,277.3001527934502,-1.7528754721663304,5.528595310776218,0.0,4788,1.0721569061279297,0.028045739053594053,0.024179864659293646,286.33421050337495,0.0
349,6.142198085784912,278.32735908721014,21.545456186246064,293.0821489649032,90.28713171764048,0.0,0.9098163773839787,0.1,0.11613917350769043,2.4123120307922363,0.050211813,0.4278174,277.4028734228262,-1.7434023740034135,5.573890148911494,0.0,4799,2.206655740737915,0.010128354901688579,0.008354835404467034,284.47088432677816,0.0
350,6.706732988357544,282.1146181612746,5.372668034024421,294.00853147356935,266.84417061609844,0.0,1.099554623769833,0.1,0.15894770622253418,1.4069554805755615,0.0490398,0.087367,277.874047896671,-1.7327763851255191,5.645827537250143,0.0,4800,0.566910982131958,0.0016410782764252978,0.0009520830743625063,283.14186636289287,0.0
351,6.634528398513794,279.9788826710376,18.893968604991993,294.1948993367352,117.52555879128192,0.0,1.1334733298717679,0.1,0.13674545288085938,2.2069528102874756,0.0491091,0.07614859,278.08453137410766,-1.7312984662233983,5.604167016120299,0.0,4800,0.6756842136383057,0.006535072885478653,0.006127340172880615,286.68934114274805,0.0
352,7.102497577667236,281.93616094826115,8.624056648520469,293.244369826089,227.56400707831526,0.0,0.9733453194795975,0.1,0.1213839054107666,2.927233934402466,0.049386892,0.28742567,278.469694331523,-1.733440415810099,5.645350002859414,0.0,4800,1.014512300491333,0.003020991732184711,0.0022621859306651243,285.9487232706054,0.0
353,6.686164855957031,279.267008155549,31.992294426745485,293.62479729333654,-18.225992587935966,0.0,0.7698968279379952,0.1,0.11154460906982422,2.4748191833496094,0.049979623,0.09256636,278.5494257139256,-1.7330881007849464,5.588536420568221,0.0,4785,1.3424816131591797,0.01633714838846314,0.013736333273636828,290.25598290962546,0.0
354,5.9846742153167725,282.4605447670562,9.798105388534536,294.50554532308854,197.85046570472335,0.0,1.1025759747819535,0.1,0.10643959045410156,1.8848206996917725,0.049287718,0.13422766,278.9405376192387,-1.7190876859378028,5.652484104309539,0.0,4800,0.8162703514099121,0.0027106062332204806,0.001941687707357036,288.9279734122076,0.0
355,6.767686605453491,281.8486653970029,9.217919461236377,294.2436065778291,232.02402918975008,0.0,0.9523806470529114,0.1,0.06542563438415527,3.1755588054656982,0.050028402,0.076278344,279.2313503970151,-1.7224614336319413,5.640429776593511,0.0,4800,1.0613856315612793,0.0027000273544018137,0.0020868442394906127,289.6810813429343,0.0
