iteration,time_sampling,stoc_pol_mean,stoc_pol_std,stoc_pol_max,stoc_pol_min,rollout_success,alpha,delta,time_vpg,time_npg,kl_dist,surr_improvement,running_score,rwd_sparse,rwd_dense,success_percentage,num_samples,time_VF,VF_error_before,VF_error_after,eval_score,eval_success
0,1.801260232925415,-225.1073013464991,15.576368552963803,-181.76125629352123,-265.7389908087755,0.0,0.4584698477948134,0.1,0.13632869720458984,0.6762166023254395,0.05665413,0.27745572,-225.1073013464991,-0.11110102061612596,-2.9565980937224325,0.0,1925,0.24409818649291992,1.0010702965315164,0.9268454382873788,-271.03317928704547,0.0
1,1.8724286556243896,-225.369073824886,16.28633396022525,-175.95561823596208,-268.97831387974963,0.0,0.518578696791754,0.1,0.18384385108947754,1.5348563194274902,0.049999136,0.22143723,-225.1334785943378,-0.11186338221074003,-2.960443430816286,0.0,1914,0.2383737564086914,0.9266439002704072,0.3807993941697116,-273.0784750634673,0.0
2,1.697631597518921,-222.16420386173024,15.792686549314295,-190.42300110867185,-267.05441971909,0.0,0.5431513382807917,0.1,0.0802450180053711,1.9649133682250977,0.054196574,0.22236054,-224.83655112107704,-0.11080719871725171,-2.9187079974609236,0.0,1903,0.49310851097106934,0.3748901642394942,0.14467823192298543,-271.5909810571968,0.0
3,1.7978222370147705,-229.0449369583196,26.06244367937967,-196.8436398326723,-441.2235326022879,0.0,0.560105440462363,0.1,0.1682415008544922,0.9747071266174316,0.04953759,0.19764371,-225.2573897048013,-0.1108817774645734,-3.0097168899940585,0.0,1962,0.4150056838989258,0.15050244887187797,0.1266004459953184,-294.81193153399374,0.0
4,2.0270609855651855,-224.1587066020686,17.865725190909234,-195.258758515997,-308.11569171130736,0.0,0.5830554475222101,0.1,0.08395504951477051,1.2144825458526611,0.048491795,0.19020954,-225.14752139452804,-0.11063437565495,-2.943230867023901,0.0,1928,0.6345193386077881,0.1176861022937747,0.09174265038734007,-312.5296956543427,0.0
5,1.753962516784668,-221.47084020576509,21.368478437094677,-184.69322334607608,-356.77716164080977,0.0,0.5353917201403227,0.1,0.023289918899536133,0.6519112586975098,0.04780846,0.19125003,-224.77985327565173,-0.1099904500228358,-2.9082992650634645,0.0,1916,0.3173401355743408,0.09143276750070933,0.06910928590042859,-298.2320445315025,0.0
6,1.9090509414672852,-222.60358098167535,20.99910815048929,-192.17191046032534,-336.657737403699,0.0,0.5452304039940264,0.1,0.2226095199584961,0.49768543243408203,0.051260967,0.20289595,-224.5622260462541,-0.10927232603488157,-2.924190619761371,0.0,1944,0.45067906379699707,0.07100264707813186,0.049140837523148226,-278.1922704893964,0.0
7,1.3044986724853516,-223.2246940036464,21.856538750031095,-187.3399614594682,-359.78193639850326,0.0,0.5777040015634054,0.1,0.0677034854888916,0.6750497817993164,0.052092653,0.18633418,-224.42847284199334,-0.10922502491822234,-2.9321866462729944,0.0,1935,0.1300201416015625,0.05036253511962038,0.03505341106882992,-299.76136669287683,0.0
8,1.8627264499664307,-222.3931554681059,14.5366051277299,-184.52640494870582,-265.0750135610745,0.0,0.5472252737907937,0.1,0.0395045280456543,0.6516628265380859,0.05014712,0.21514198,-224.2249411046046,-0.11058831647791773,-2.920787068905066,0.0,1908,0.12735271453857422,0.0291669994350395,0.020836134778704666,-285.5605865211632,0.0
9,1.9057204723358154,-219.9257886601362,16.618218865404756,-184.3727530940199,-277.87553399805375,0.0,0.5537849609654226,0.1,0.029273509979248047,0.4449882507324219,0.051137347,0.19622557,-223.79502586015775,-0.10945753369044305,-2.887976130703615,0.0,1913,0.4374701976776123,0.02252641250635384,0.020269262166109636,-284.31894956399464,0.0
10,1.3644590377807617,-219.45798961809314,14.612024695340427,-190.37908753556314,-256.6310750580589,0.0,0.5665666699361197,0.1,0.045337677001953125,0.17284035682678223,0.05081204,0.19303568,-223.3613222359513,-0.10837456263477685,-2.8813072602339553,0.0,1927,0.1607210636138916,0.01996555320459164,0.019382440860883646,-254.69676317232677,0.0
11,2.008763074874878,-219.28146667029537,16.492035027857238,-190.64791507455357,-302.14119034981337,0.0,0.5450841717523446,0.1,0.02899956703186035,0.1748964786529541,0.050490238,0.19472681,-222.9533366793857,-0.1079517199499496,-2.878734810046496,0.0,1932,0.3413393497467041,0.02281216066254853,0.020995887476386664,-242.84172012082217,0.0
12,1.8569879531860352,-219.40128628681046,20.015833558548085,-180.1903729651441,-350.87199491446,0.0,0.5497094773687357,0.1,0.0447080135345459,0.14472365379333496,0.049402945,0.1877404,-222.59813164012817,-0.10744938659537585,-2.880132933736897,0.0,1951,0.3580012321472168,0.025519430391378838,0.023736859603273038,-238.49416552198164,0.0
13,2.0164146423339844,-214.79000095122737,16.019688502336063,-180.24758000230577,-279.6610432284803,0.0,0.5581872052504503,0.1,0.17834711074829102,1.9211008548736572,0.048741173,0.19621317,-221.81731857123808,-0.10612637908300475,-2.819523873323673,0.0,1929,0.36568498611450195,0.02023224953947626,0.019149047667706226,-225.90888600875505,0.0
14,1.703519344329834,-216.2896384933665,18.375922826516618,-171.139546698319,-321.11575540407944,0.0,0.5620520021931181,0.1,0.17828083038330078,2.5268993377685547,0.04994036,0.17663473,-221.26455056345094,-0.10605493155398538,-2.8401294564493242,0.0,1950,0.33071255683898926,0.023952268172312337,0.022987693215258134,-203.2520204782071,0.0
15,1.612860918045044,-212.17135598701543,15.630975004141813,-171.409295595405,-267.70760961255917,0.0,0.5696172262342715,0.1,0.1175999641418457,1.4664320945739746,0.049282555,0.18499623,-220.35523110580738,-0.10377568538487049,-2.784355533728655,0.0,1951,0.4125478267669678,0.019597769856121067,0.018794366941041137,-203.32501830946842,0.0
16,1.8808667659759521,-213.5751705296451,15.602973260494531,-173.52581481713509,-244.09852062313843,0.0,0.555072052230258,0.1,0.2078242301940918,1.394221305847168,0.050207768,0.19792084,-219.67722504819116,-0.10323664892630924,-2.802804176890336,0.0,1982,0.2689371109008789,0.01894803880060024,0.018054403615791623,-225.10510439634004,0.0
17,1.588897705078125,-207.8341386553445,18.0789893708293,-166.62673302239702,-252.3449668692036,0.0,0.5705124935510686,0.1,0.1814417839050293,1.340355396270752,0.05183832,0.18798666,-218.4929164089065,-0.10199809741527029,-2.726372579376483,0.0,1960,0.29810190200805664,0.019997254225640578,0.018845294866744935,-235.5615241646893,0.0
18,1.7310616970062256,-210.58856206174005,16.644131619659618,-166.34128955457646,-256.41183503646045,0.0,0.5822557582203104,0.1,0.18184280395507812,1.0474507808685303,0.051645104,0.18726173,-217.70248097418985,-0.10105853077247844,-2.763040112101941,0.0,1999,0.16711711883544922,0.020514922238715393,0.01935177964775519,-230.59340958780405,0.0
19,1.8261728286743164,-208.61273376073677,17.253539012333917,-172.2363542368822,-264.96620396652463,0.0,0.5523836745156595,0.1,0.059159040451049805,0.7212405204772949,0.05277754,0.1941616,-216.79350625284457,-0.099922786075148,-2.737452235896974,0.0,2012,0.40429067611694336,0.02055969710660583,0.01978649893445807,-235.72971681579384,0.0
20,2.0633795261383057,-206.96406963495392,14.638378617485502,-173.23766445427663,-255.15509723745353,0.0,0.6077540662720858,0.1,0.06255006790161133,0.5882444381713867,0.051980913,0.18635648,-215.8105625910555,-0.100243725039179,-2.7141513872583594,0.0,1990,0.3580300807952881,0.018959090803142765,0.017791923797729328,-235.4011626451529,0.0
21,2.0123579502105713,-207.03335054036816,14.782008671425448,-173.0806121975556,-242.5177409816548,0.0,0.5770954280129894,0.1,0.06789040565490723,0.3777914047241211,0.04972577,0.1907837,-214.93284138598676,-0.10027762831002263,-2.7160226324042847,0.0,1994,0.323810338973999,0.017002499843500832,0.016201012744781015,-261.19214131260276,0.0
22,2.107201099395752,-204.7866235598395,18.16774427849217,-156.45420980145354,-257.7442127261602,0.0,0.6001729019528123,0.1,0.004893779754638672,0.10433125495910645,0.049193595,0.17989792,-213.91821960337202,-0.09840838181520854,-2.6860970919002263,0.0,2008,0.20319771766662598,0.019030548892997518,0.01820952882758826,-277.6213729330467,0.0
23,1.9326648712158203,-205.3835092724671,18.47840141011825,-170.22775562615726,-273.1516335399898,0.0,0.5797679435475003,0.1,0.14010071754455566,1.2580418586730957,0.049829837,0.17753333,-213.06474857028152,-0.0993979537410213,-2.6934376015021932,0.0,2007,0.3074779510498047,0.019771057015913477,0.01921299658611747,-256.2956654105003,0.0
24,2.0035629272460938,-206.65569703177175,17.878529852706045,-162.5550101682293,-273.6258177303055,0.0,0.596622549761665,0.1,0.18205809593200684,0.8242781162261963,0.05015751,0.16818638,-212.42384341643054,-0.09825634912554575,-2.7101988877114116,0.0,2044,0.31763625144958496,0.020157848526335388,0.019101410046571093,-236.4391117229966,0.0
25,2.154529094696045,-205.24006728007626,18.633278468928854,-166.93375329279326,-278.77179214889844,0.0,0.565582250723575,0.1,0.18200421333312988,1.1412897109985352,0.050012466,0.18406126,-211.70546580279512,-0.09678460170865007,-2.692549532290414,0.0,2046,0.5845396518707275,0.017394610217317318,0.016735933387282072,-242.46170679998858,0.0
26,2.436009168624878,-204.76318937147417,22.12735975272708,-165.18828105821024,-286.7108448161132,0.0,0.6331428167372353,0.1,0.18201041221618652,0.7909252643585205,0.050191563,0.16455638,-211.01123815966304,-0.09679592750040851,-2.68608034499033,0.0,2043,1.2616841793060303,0.023069056244025252,0.02262131360368657,-256.54159141238205,0.0
27,2.203813076019287,-202.11394526110521,16.036047948194483,-167.7792725015688,-245.59214037334925,0.0,0.6068271013150764,0.1,0.0643153190612793,0.4762883186340332,0.049358945,0.17933722,-210.12150886980726,-0.09731762206413792,-2.650673392294013,0.0,2015,0.43314361572265625,0.016889041731449592,0.015443401534842444,-247.14547798994357,0.0
28,2.1845409870147705,-198.01347041603097,16.61580836792661,-164.6734052667618,-242.4433172661809,0.0,0.6234904356318153,0.1,0.09122824668884277,1.3725731372833252,0.050149515,0.16597931,-208.91070502442963,-0.09628445666264361,-2.5968545011469573,0.0,2011,0.4022860527038574,0.016428340174513494,0.015216026076405815,-235.39945878464863,0.0
29,1.9419147968292236,-200.1115534990744,13.967617926959857,-164.03780868912008,-239.4823923422823,0.0,0.6128381574593447,0.1,0.05079460144042969,0.805927038192749,0.050041668,0.17590365,-208.03078987189411,-0.09713557924539479,-2.623347608214128,0.0,2003,0.47678375244140625,0.014036220085690975,0.01336133986518137,-231.15930100250966,0.0
30,1.7715637683868408,-197.1450192192241,15.368973612288963,-158.13722008651203,-234.9157890878678,0.0,0.6337777525364799,0.1,0.06203436851501465,1.695838451385498,0.050968036,0.16052875,-206.94221280662714,-0.09523592950854672,-2.5849020821218986,0.0,2025,0.563488245010376,0.014543370400118006,0.0137489825927423,-246.86018086424477,0.0
31,1.7841887474060059,-201.24176935708275,21.630722452387307,-162.56326807686915,-320.00387441691777,0.0,0.6278509218491124,0.1,0.1041107177734375,0.7206015586853027,0.050667375,0.15943295,-206.37216846167271,-0.09625362427429163,-2.639022604152012,0.0,2034,0.5695745944976807,0.01946474931083679,0.018278292908515955,-217.12803563584052,0.0
32,1.8510420322418213,-198.93811399050716,15.859278444953688,-158.20558325235194,-238.27217841639893,0.0,0.6592534770375351,0.1,0.05029487609863281,0.20463824272155762,0.049576122,0.16175732,-205.62876301455617,-0.09493759293476593,-2.606801706032476,0.0,2045,0.47754597663879395,0.014011079477046726,0.012737279660968081,-219.1690955280279,0.0
33,1.8583273887634277,-195.74153545014505,18.3370389006114,-160.73388075440323,-249.74967623455726,0.0,0.6141027885998677,0.1,0.005087137222290039,0.13419580459594727,0.05010844,0.16339913,-204.64004025811505,-0.0947831849673273,-2.5652614312479143,0.0,2021,0.4379723072052002,0.015607337755821815,0.014961457748186321,-229.6913624869009,0.0
34,1.743682861328125,-195.68927471288086,18.662784849154455,-159.5560303495405,-242.7852598521899,0.0,0.6175987252436587,0.1,0.01273345947265625,0.1692368984222412,0.050970953,0.16607408,-203.74496370359162,-0.09472225898568698,-2.5649389737082733,0.0,2037,0.44811487197875977,0.016069320219989008,0.015551960515276788,-235.9408886473957,0.0
35,1.5966219902038574,-196.6201045353671,15.055548052601258,-170.45633398945273,-242.68810063928115,0.0,0.6041589057748128,0.1,0.04993796348571777,0.2503643035888672,0.05020705,0.17866741,-203.03247778676916,-0.0937630788094317,-2.577294864221009,0.0,2059,0.5857527256011963,0.013149267813256227,0.012641979711542193,-237.73351623091514,0.0
36,2.006089210510254,-195.04616671035217,16.735938733710384,-167.42189676505848,-263.3813959993882,0.0,0.6212834448474658,0.1,0.053679704666137695,0.8742802143096924,0.050087348,0.1629798,-202.23384667912748,-0.09536629034242106,-2.5567422515150184,0.0,2016,0.6742749214172363,0.014021238826663339,0.01336150820825459,-233.73931730230535,0.0
37,1.8436863422393799,-195.88993293223868,15.29764209552416,-165.1860164378262,-234.52945053172874,0.0,0.6295666486299031,0.1,0.08956575393676758,0.161834716796875,0.050159965,0.16513082,-201.5994553044386,-0.09473441645096063,-2.5667874440809264,0.0,2037,0.6187210083007812,0.012792310180190964,0.012387496466428732,-221.67350239224663,0.0
38,1.8715379238128662,-195.5251596384821,15.683754674633219,-159.4688243866925,-237.80993547437112,0.0,0.6150563385336449,0.1,0.05745053291320801,0.7142674922943115,0.050576467,0.16958791,-200.99202573784297,-0.09448479972075574,-2.5628115388716384,0.0,2025,0.8213779926300049,0.012373938074108927,0.01194992402856027,-225.7793528024307,0.0
39,1.6191065311431885,-195.66399995934617,15.399055185593756,-160.66943496523453,-239.1424992078102,0.0,0.6296338120017071,0.1,0.07068872451782227,0.6210799217224121,0.049701508,0.16869725,-200.45922315999331,-0.0939747117640614,-2.5646613749070686,0.0,2037,0.5719716548919678,0.01173877481224494,0.011685294199362832,-210.2556741783573,0.0
40,1.3902478218078613,-192.25920230180864,14.450498718362113,-156.84181847511735,-229.2928892191486,0.0,0.6609925573976753,0.1,0.21266412734985352,1.3017165660858154,0.050336614,0.15362112,-199.63922107417486,-0.0935316799652019,-2.5190668830869076,0.0,2042,1.2722511291503906,0.011740317130157432,0.011219893301670033,-231.33415537363976,0.0
41,1.792644739151001,-192.12041060288257,16.824249297534642,-153.9033916722523,-264.32354927103177,0.0,0.6285993710345271,0.1,0.21901869773864746,1.3043832778930664,0.049039874,0.15793188,-198.88734002704564,-0.09335429172177867,-2.517379684838828,0.0,2040,0.5531303882598877,0.013996929599327537,0.013596943525135434,-231.15982675831503,0.0
42,1.9399998188018799,-190.53798018252246,14.408784808925162,-159.29597901190692,-227.45175370270005,0.0,0.6587914052553837,0.1,0.07774996757507324,0.7024548053741455,0.050679713,0.1564232,-198.05240404259334,-0.09347598546007412,-2.496098043555652,0.0,2028,0.6426169872283936,0.011550432356570899,0.011121863430255606,-211.73115518654313,0.0
43,1.8936874866485596,-190.1781433522009,14.737904252431242,-154.1467613247376,-221.19304604586617,0.0,0.6607834477910352,0.1,0.05899930000305176,0.4115118980407715,0.05117359,0.16284505,-197.2649779735541,-0.0922546459231139,-2.491928120083059,0.0,2066,0.6234612464904785,0.0106023272696795,0.010205332410129952,-220.07163439227568,0.0
44,1.8596436977386475,-189.08746036056718,14.502716571555592,-156.02125984129336,-222.17550831420243,0.0,0.6608406573838231,0.1,0.0758364200592041,0.9096791744232178,0.04977633,0.15480953,-196.44722621225543,-0.09243369442047995,-2.476893743456258,0.0,2049,0.7037074565887451,0.011367195033744238,0.011115262773724313,-225.66514487557657,0.0
45,1.9018893241882324,-190.2021741292555,15.744194256373667,-149.31356418406588,-233.56745054194926,0.0,0.6214438840544299,0.1,0.10826921463012695,0.27584338188171387,0.051685255,0.16312581,-195.82272100395545,-0.09357123752253316,-2.492240451603395,0.0,2030,0.7204916477203369,0.012353942362858568,0.011924534516828,-205.79219874183346,0.0
46,1.7844219207763672,-188.8106667739004,16.070569820922117,-151.1711372416391,-251.14163054632962,0.0,0.6238815150310264,0.1,0.09601330757141113,0.45018935203552246,0.04932425,0.165268,-195.12151558094996,-0.09265848449887748,-2.4730354107355184,0.0,2048,0.7524709701538086,0.011849349465469379,0.011505176450709292,-204.36268411273005,0.0
47,2.0672760009765625,-188.92362102618995,15.53562006588518,-154.09616041850825,-236.88335172627427,0.0,0.6261161165282828,0.1,0.09114885330200195,0.6850523948669434,0.04940101,0.17435461,-194.50172612547397,-0.09311451585586429,-2.4751352005665757,0.0,2033,0.6646525859832764,0.011447285169744819,0.010921106068192932,-209.3743369579198,0.0
48,1.7779321670532227,-188.4447988592964,13.39245886322151,-160.20149636510598,-220.2031979460422,0.0,0.6271121588692317,0.1,0.09433555603027344,0.6474337577819824,0.049274933,0.15642595,-193.89603339885622,-0.09342832222593965,-2.4680872142770123,0.0,2022,0.619959831237793,0.010155026573743477,0.009625502186067034,-188.07311815180083,0.0
49,1.815244436264038,-187.49909530177933,15.173741378510094,-155.22508928210542,-232.3486585663966,0.0,0.6878706027349154,0.1,0.08976411819458008,1.036853551864624,0.051099613,0.14640963,-193.25633958914855,-0.09321785954731932,-2.456275155387559,0.0,2016,0.7400119304656982,0.010480309809189852,0.010131780070469908,-199.53831108072353,0.0
50,1.657895803451538,-185.6952836633277,15.772862396369938,-154.66786596619292,-224.37619810895973,0.0,0.6122895239887998,0.1,0.07452273368835449,1.1440508365631104,0.05091491,0.1619614,-192.50023399656646,-0.09228342729312296,-2.432000720014108,0.0,2032,0.5954196453094482,0.011031595364373039,0.01069705119261958,-201.40607224940987,0.0
51,1.8071372509002686,-189.7796678567366,16.80385139346294,-155.0270438149941,-232.03143524736265,0.0,0.6588982854156987,0.1,0.06118440628051758,0.6187810897827148,0.049552515,0.15095206,-192.22817738258348,-0.09290902795519747,-2.486711190571435,0.0,2050,0.6595046520233154,0.011952969398850034,0.010436774289803193,-203.72391640911408,0.0
52,2.0256540775299072,-185.39499720423785,13.111467265627422,-159.0975303720739,-231.11437412972302,0.0,0.6509070104404223,0.1,0.08727097511291504,1.0110862255096436,0.049536742,0.16222914,-191.5448593647489,-0.09263437040365576,-2.4283791320891073,0.0,2017,0.8564820289611816,0.007964513773218352,0.00764802858377293,-195.53689900690893,0.0
53,2.395263671875,-186.26532037571755,14.771514679064605,-143.70755990973532,-234.58785052193792,0.0,0.6694289625982281,0.1,0.07088088989257812,0.7108938694000244,0.050469257,0.16018423,-191.01690546584578,-0.09318584936333267,-2.439055011711351,0.0,2020,0.823495626449585,0.009240372984647624,0.008863603161822022,-198.36415716841776,0.0
54,1.9607083797454834,-186.68510232278447,14.400361435980145,-148.12392897821064,-220.57485156725107,0.0,0.6588876291579142,0.1,0.035713911056518555,0.39930248260498047,0.049756065,0.16286014,-190.58372515153965,-0.09229697942704007,-2.4441009629087573,0.0,2044,0.5734536647796631,0.008886726710239606,0.008689742193934069,-203.47847784863973,0.0
55,2.0366265773773193,-186.11055102271726,15.877496929605352,-148.54006948738632,-237.11113187724072,0.0,0.6567276698588822,0.1,0.023660898208618164,0.3744328022003174,0.050868906,0.1572297,-190.13640773865743,-0.09268210531600203,-2.437732526294645,0.0,2024,0.648491621017456,0.009846800609098488,0.009494640854581664,-193.24478717586933,0.0
56,2.1119117736816406,-184.40015547173834,15.321022169925918,-156.49217779356513,-223.56120020054126,0.0,0.6677960002251422,0.1,0.10762596130371094,0.4696800708770752,0.05082792,0.1440079,-189.5627825119655,-0.09162002377995411,-2.4150681717522535,0.0,2022,0.4469292163848877,0.009968424624140243,0.009648208835463783,-199.3409372941572,0.0
57,2.030513048171997,-183.91387627572487,13.826663389426328,-157.34788978868067,-218.90096005367275,0.0,0.6917930048375905,0.1,0.09369707107543945,1.0496904850006104,0.050238036,0.14430918,-188.99789188834146,-0.09153725434237547,-2.407550169986529,0.0,2051,0.9496116638183594,0.008736786359918392,0.00815319457239087,-208.3469852942418,0.0
58,1.64005446434021,-185.50913943301802,14.096498684508136,-152.89892663649343,-222.0857373331482,0.0,0.663890771280634,0.1,0.09316420555114746,0.28012537956237793,0.050424594,0.15240008,-188.6490166428091,-0.0919998370688523,-2.427909674066178,0.0,2048,0.7631816864013672,0.009104337383010488,0.008518686000383604,-210.5577892344656,0.0
59,1.9212234020233154,-185.0787235151951,15.840925478725586,-146.6451968715223,-242.61434046938152,0.0,0.6852834973132118,0.1,0.049596309661865234,1.1611411571502686,0.05023354,0.14061244,-188.29198733004773,-0.09135002774255489,-2.4239267265890514,0.0,2057,0.8717272281646729,0.010288327176905962,0.009741616339630268,-175.90071333050724,0.0
60,1.709641456604004,-181.23148753853164,16.06043530959143,-145.31530444383847,-235.05344391483828,0.0,0.6730473123252094,0.1,0.06778883934020996,0.5333445072174072,0.051017623,0.16291606,-187.58593735089613,-0.09089008952224999,-2.371819158082077,0.0,2039,0.527202844619751,0.008555925930075552,0.008242671436523246,-168.74586766709245,0.0
61,1.785027265548706,-179.9227657345382,14.327807637783453,-143.2839203901831,-218.57293696728823,0.0,0.7029601993593952,0.1,0.08314943313598633,0.8351609706878662,0.050638337,0.13945703,-186.81962018926032,-0.09007315897550999,-2.354398695822819,0.0,2053,0.6939992904663086,0.008268012389730404,0.007868688251123893,-164.5683667960381,0.0
62,2.046816110610962,-180.9473253369613,13.557028538886739,-150.51727232942224,-213.90564056675834,0.0,0.7152452869217707,0.1,0.07227849960327148,0.8014121055603027,0.049805287,0.13968025,-186.23239070403042,-0.09009778298499567,-2.368100692029182,0.0,2068,0.7180047035217285,0.008583337524693821,0.008168063414301117,-164.78161262485395,0.0
63,1.5188806056976318,-182.7083261208844,16.57224701130567,-139.607039101165,-226.26961568118995,0.0,0.6692529705008292,0.1,0.05518531799316406,0.37125730514526367,0.050110593,0.14739433,-185.87998424571583,-0.09054299455942716,-2.391919930951968,0.0,2068,0.44800615310668945,0.009031155389043973,0.008734012304250997,-175.26924701669344,0.0
64,1.5638327598571777,-184.13259311424304,14.533434251778841,-154.65644862950901,-220.251428476114,0.0,0.6907229658151337,0.1,0.01318049430847168,0.22654938697814941,0.05023459,0.14753237,-185.70524513256856,-0.08978240882643984,-2.41086416897214,0.0,2090,0.4225597381591797,0.007360013579332115,0.007074399118035958,-194.63689776427339,0.0
65,1.9445950984954834,-180.1931427881881,15.726556820660017,-140.24021445753203,-226.98393196311696,0.0,0.6905149499148304,0.1,0.012775659561157227,0.181427001953125,0.0502234,0.14968279,-185.15403489813053,-0.08952132637884148,-2.3577917966493676,0.0,2078,0.677215576171875,0.009259746746222684,0.008632220085432405,-184.40844253459096,0.0
66,2.181318998336792,-179.66459699650326,14.090587058491314,-147.07168812237444,-217.258621421854,0.0,0.684289095907864,0.1,0.06622910499572754,0.6551430225372314,0.050036334,0.14967835,-184.6050911079678,-0.08929724207090135,-2.3512787786050455,0.0,2087,0.6965744495391846,0.006824566106019815,0.006570489489020577,-188.37880319570078,0.0
67,2.236992120742798,-180.80443962852613,16.190157616383846,-144.89166419576702,-212.3228153503004,0.0,0.6603294373077173,0.1,0.07425379753112793,0.8435549736022949,0.05016266,0.15683499,-184.22502596002363,-0.08987560861953632,-2.3666963083013157,0.0,2080,0.5125720500946045,0.009839169835759196,0.008971757867079704,-183.299214595504,0.0
68,2.1399173736572266,-180.07590343003662,16.13726412280396,-140.87187622358778,-230.27830598330104,0.0,0.6837326010105573,0.1,0.08147454261779785,0.9513051509857178,0.05037519,0.14725393,-183.81011370702495,-0.08936116055524197,-2.357099091250005,0.0,2086,0.5015034675598145,0.009135868004834099,0.008667667119011476,-178.2950903105563,0.0
69,2.2164113521575928,-178.84431960134089,13.446797858816906,-152.25325622003703,-208.27609203995542,0.0,0.6896590009852746,0.1,0.05412650108337402,1.2034521102905273,0.049498,0.15553282,-183.31353429645657,-0.08930942177048484,-2.3394091316495893,0.0,2085,0.8743705749511719,0.007331978461333915,0.006900333118864692,-177.86485600792864,0.0
70,2.4066967964172363,-178.4291327432535,15.545634116889744,-143.75860463820095,-229.39798069993356,0.0,0.6615462799344854,0.1,0.1036989688873291,0.4659459590911865,0.050483722,0.1528262,-182.82509414113628,-0.08876681382021286,-2.335061252892959,0.0,2090,0.6330935955047607,0.007687849026962024,0.0073125706369431215,-181.27768800379516,0.0
71,1.9267573356628418,-176.67322549003248,14.909805823921184,-145.12333921564965,-218.16400932206435,0.0,0.6995994685969,0.1,0.08617448806762695,0.899216890335083,0.05061639,0.14146651,-182.2099072760259,-0.08838980388626579,-2.311276302059898,0.0,2094,0.5924191474914551,0.008031514159880215,0.0074661245629946416,-164.561633502557,0.0
72,1.751877784729004,-175.4188011100508,13.020748685810956,-151.23680396502965,-216.64035058454067,0.0,0.675665576535891,0.1,0.09030723571777344,0.8036463260650635,0.05117438,0.15529734,-181.53079665942838,-0.08816823441673692,-2.2940820308695966,0.0,2085,0.8378143310546875,0.0068608945557020184,0.006364884345323646,-159.53224342816787,0.0
73,2.066727876663208,-176.42203043172108,18.37176456375605,-136.55609989275962,-232.4533206105389,0.0,0.6821619587803505,0.1,0.08048486709594727,0.9908206462860107,0.050984215,0.14591505,-181.01992003665765,-0.08729820441228842,-2.3074531923903656,0.0,2117,0.6883983612060547,0.009436490415566207,0.009739622711611263,-165.11020216017,0.0
74,2.2394423484802246,-173.871754278803,14.249626565334395,-133.05209537748374,-206.77275300240052,0.0,0.6994673046929426,0.1,0.0054759979248046875,0.18329381942749023,0.05063293,0.15391457,-180.30510346087217,-0.08708430465146172,-2.2745754327737995,0.0,2116,0.6189315319061279,0.007779524328830457,0.007060146042459037,-157.81219079298802,0.0
75,1.584228754043579,-173.67506490271725,16.720675201042358,-136.4889285036429,-223.36105860866937,0.0,0.6685914674648163,0.1,0.005956411361694336,0.1922163963317871,0.05077443,0.14041549,-179.64209960505667,-0.08669514117618639,-2.272260448707469,0.0,2118,0.6509737968444824,0.008178784301006168,0.007929764149322921,-191.1066246117777,0.0
76,1.8830299377441406,-174.54793446678715,15.478584010155476,-143.6606623078498,-214.39079149385668,0.0,0.6836527397898134,0.1,0.08594155311584473,0.24304962158203125,0.0504114,0.14533111,-179.13268309122972,-0.08754256572683757,-2.2830090608822804,0.0,2111,0.6822535991668701,0.00862259463278752,0.00823608989386701,-180.81931965054474,0.0
77,2.1219639778137207,-171.91850960805297,16.08607351611041,-135.83719442833257,-217.70725990941557,0.0,0.6815654554771853,0.1,0.09483551979064941,0.1690053939819336,0.051045384,0.14920329,-178.41126574291206,-0.08613651075272628,-2.247680698524733,0.0,2145,0.7509927749633789,0.007795039091729055,0.007445532866430284,-173.5230764306524,0.0
78,2.4088094234466553,-170.65780493525727,16.460297694096077,-136.43615910948162,-214.96287111750073,0.0,0.6609081842493889,0.1,0.012917041778564453,0.5002448558807373,0.05116302,0.14969808,-177.6359196621466,-0.08523479786145005,-2.231063922169799,0.0,2165,0.6280794143676758,0.008128571964030485,0.007543529972531885,-191.74797922613533,0.0
79,1.7581050395965576,-170.42460181850913,15.53479304626102,-139.5385062662918,-219.30271615895577,1.0416666666666667,0.6696404617837173,0.1,0.0968019962310791,0.9203543663024902,0.050615422,0.15427712,-176.91478787778286,-0.08524456117293198,-2.227232618370651,1.0416666666666667,2177,0.8600172996520996,0.007118410150954153,0.00713335508857003,-185.47075782496782,0.0
80,2.1771016120910645,-170.05655770944907,15.620748147601368,-139.1523183656934,-203.08069914707445,0.0,0.6762689917085529,0.1,0.012923240661621094,0.18250393867492676,0.05066143,0.14763801,-176.22896486094947,-0.08539433045101867,-2.221845253094679,0.0,2164,0.837806224822998,0.008080700486097573,0.007716421865269504,-152.616836595293,0.0
81,1.9480249881744385,-169.4091442122271,17.374297325677947,-136.53240515612347,-221.31119049085763,0.0,0.6956305941461036,0.1,0.0052411556243896484,0.14603424072265625,0.049304612,0.14617331,-175.54698279607726,-0.08430841947975737,-2.2146043417377395,0.0,2188,0.6190872192382812,0.008777315015996262,0.008439326970384521,-185.03777311155548,0.0
82,1.6867835521697998,-165.3209501515328,14.647357524123805,-128.9406973821578,-196.44974288266545,0.0,0.6841904019591192,0.1,0.09167242050170898,0.6660938262939453,0.05076087,0.15368381,-174.52437953162283,-0.08401524473867289,-2.16031624661388,0.0,2170,0.632070779800415,0.007310282530270422,0.006955299258667201,-205.90333698647814,0.0
83,2.050739049911499,-166.61801087972609,13.610131381496469,-138.1725824471995,-214.44578118909226,0.0,0.6899992802287725,0.1,0.09453439712524414,0.49521970748901367,0.04985547,0.15204751,-173.73374266643316,-0.08533137075868014,-2.1769849422862433,0.0,2157,0.573688268661499,0.006126439631886449,0.005817456315378025,-195.95526825894973,0.0
84,1.8200104236602783,-166.81209331481713,15.064214107240572,-129.69821510790135,-196.8262567756938,0.0,0.6919770457060873,0.1,0.06641769409179688,0.8298230171203613,0.04987689,0.14305672,-173.04157773127156,-0.08455762086171094,-2.180130214966647,0.0,2173,0.7581970691680908,0.007574130109764481,0.007272085861062776,-213.49618222243546,0.0
85,1.735140085220337,-164.60168936630993,14.463409973483527,-132.50637159094202,-196.36612127990298,1.0416666666666667,0.7107698948827045,0.1,0.08671021461486816,0.7743659019470215,0.050409313,0.14391358,-172.1975888947754,-0.08371307239798127,-2.150304437413421,1.0416666666666667,2181,0.7033238410949707,0.007263773189536478,0.007123988701476815,-201.15929306327124,0.0
86,2.018976926803589,-166.34444738880006,14.787504164688665,-133.70649989803997,-203.26425389718338,1.0416666666666667,0.6936306763641281,0.1,0.09927964210510254,2.119913101196289,0.05005558,0.14419132,-171.61227474417788,-0.08467370636494498,-2.1736687595560067,1.0416666666666667,2162,0.7201390266418457,0.007073272108034837,0.006596946563571559,-185.51277154246333,0.0
87,1.978989839553833,-167.88002913923106,16.305296646550328,-132.96048598619242,-231.5301933217325,2.0833333333333335,0.7020819174002046,0.1,0.18444585800170898,0.43511319160461426,0.0503579,0.14064506,-171.2390501836832,-0.0835853573278386,-2.1942906059505023,2.0833333333333335,2206,0.6591873168945312,0.0064883984539171055,0.006302807909291531,-180.83569117247475,0.0
88,2.362031936645508,-161.7799377048391,15.004630437494022,-120.23475336501477,-201.3564010085427,2.0833333333333335,0.7138552338570469,0.1,0.05443620681762695,0.8310799598693848,0.04963389,0.14464492,-170.2931389357988,-0.08291292388485216,-2.1130318061154276,2.0833333333333335,2195,0.525468111038208,0.008075893998378457,0.00747977301639283,-182.35650196452985,0.0
89,1.6476523876190186,-164.60053586458318,15.74820489446497,-129.3730001290482,-206.20717123593082,0.0,0.6799338665272588,0.1,0.05638289451599121,0.23954105377197266,0.051297426,0.14974427,-169.72387862867723,-0.08480797873349122,-2.1498444370458363,0.0,2170,0.6991746425628662,0.0075226007092124726,0.007412604160511919,-181.98673906875533,0.0
90,2.207071304321289,-161.60275335365435,13.197220885759354,-131.4761374126299,-189.6464370769338,0.0,0.6788888834393618,0.1,0.09604620933532715,0.3099827766418457,0.050629962,0.14569053,-168.91176610117495,-0.08371890739037424,-2.1104600497942108,0.0,2175,0.6284241676330566,0.00592043628916935,0.005761162967811158,-193.69051366127104,0.0
91,1.8352437019348145,-164.44539509376418,15.423462304557237,-123.98512597726094,-226.8657340517629,0.0,0.7114032148624809,0.1,0.06605386734008789,0.49884915351867676,0.051121403,0.139476,-168.46512900043388,-0.08320318379975183,-2.1491721815555187,0.0,2212,0.794884443283081,0.007576784989298059,0.0070346899198056555,-231.1889571847547,0.0
92,2.0840227603912354,-161.13075827489456,15.479488047701249,-116.03347275730172,-200.6535234787888,2.0833333333333335,0.7203878813470403,0.1,0.05435633659362793,0.7620382308959961,0.050543003,0.14256889,-167.73169192787995,-0.08253635802809765,-2.1040491537393025,2.0833333333333335,2214,0.8473072052001953,0.007367395051584659,0.007071399203976771,-214.2405184938794,0.0
93,2.4075965881347656,-159.97599500790795,15.107832359418296,-118.41107424941681,-201.61705046193316,3.125,0.6972280529721485,0.1,0.012924671173095703,0.1723649501800537,0.049151734,0.13962951,-166.95612223588273,-0.08338908212727865,-2.0878384660744724,3.125,2175,0.6177570819854736,0.007531294024036941,0.007249996304219185,-213.6244822217469,0.0
94,1.7736356258392334,-159.67330289831847,12.936459380098801,-128.2520052566889,-201.19287642670517,0.0,0.7042981530896884,0.1,0.004815101623535156,0.10766005516052246,0.04939156,0.14474997,-166.2278403021263,-0.08173019755224005,-2.0844556323441132,0.0,2236,0.4299018383026123,0.005827148424132674,0.0057502457323195515,-215.16858119818048,0.0
95,2.2462549209594727,-160.15789510768306,14.9306051655979,-127.66045975342205,-191.90426875423782,2.0833333333333335,0.7433544099029883,0.1,0.013141870498657227,0.14686250686645508,0.050378475,0.13556997,-165.620845782682,-0.08241725202805465,-2.0905403523652324,2.0833333333333335,2223,0.557499885559082,0.007223128257424345,0.006952266259933486,-210.91584765252804,0.0
96,2.0367891788482666,-156.33528542880663,13.90428024502971,-132.21128044560623,-203.84106511080918,3.125,0.722733968465857,0.1,0.013197660446166992,0.15594220161437988,0.04964621,0.13582174,-164.6922897472945,-0.08113339655836242,-2.0395083065386213,3.125,2230,0.635317325592041,0.006994931288030877,0.006448922730371042,-213.56801829424336,0.0
97,2.2561378479003906,-155.11664246954857,14.253250134076872,-130.87712487636944,-195.38030320397647,1.0416666666666667,0.7684382060127469,0.1,0.058104753494262695,0.4069085121154785,0.050680388,0.13543426,-163.7347250195199,-0.08093515299429864,-2.0234611721192963,1.0416666666666667,2231,0.7634665966033936,0.007347228009253488,0.007072785235448629,-215.26999450928378,0.0
98,2.3276329040527344,-155.54554827103416,16.065923069225114,-124.60412608962478,-201.7910330900788,2.0833333333333335,0.6868187066067052,0.1,0.020722389221191406,0.5278980731964111,0.05029414,0.14352725,-162.91580734467135,-0.08083916994865743,-2.0297809505127558,2.0833333333333335,2234,0.5657968521118164,0.007572450102538992,0.007310235566147783,-222.96943210004133,0.0
99,1.9618189334869385,-154.6646348528761,15.837194735320367,-120.97766338733379,-188.65841855081726,8.333333333333334,0.6813593795518392,0.1,0.012829780578613281,0.14747309684753418,0.05040483,0.14520393,-162.09069009549185,-0.080435253883211,-2.0173721611577218,8.333333333333334,2260,0.651069164276123,0.007840174137090393,0.0075643247015538505,-209.1413352229419,0.0
100,2.194577217102051,-156.50496885572048,16.93350722781297,-118.03881259374698,-208.28991986952525,6.25,0.7427302025780338,0.1,0.057720184326171875,0.6000685691833496,0.05062492,0.12972267,-161.5321179715147,-0.08097497008095486,-2.041499094718134,6.25,2256,0.7408134937286377,0.009065969126006514,0.008738979012643215,-231.37029577631,0.0
101,2.2226080894470215,-152.97799577261455,17.059367661168427,-113.38639339566197,-216.34568552028685,8.333333333333334,0.7131127903500075,0.1,0.061513423919677734,0.21239519119262695,0.050961178,0.13401638,-160.6767057516247,-0.07969761586618535,-1.9952930888725409,8.333333333333334,2270,0.6041624546051025,0.00882840035168,0.00783706453443529,-230.50055756942803,0.0
102,1.7663085460662842,-152.85618890251746,17.481091517874564,-117.13487344643652,-213.06111264964056,13.541666666666666,0.7630620061643281,0.1,0.013019800186157227,0.14750266075134277,0.05013946,0.12911436,-159.894654066714,-0.07976555617315613,-1.9939667761154647,13.541666666666666,2287,0.5856382846832275,0.008528438563784232,0.008506349826805924,-206.470081466311,0.0
103,1.790698528289795,-153.52204529348728,14.162958556262817,-114.04046024799868,-195.69086080056957,11.458333333333334,0.7651442798404829,0.1,0.028952598571777344,0.1879732608795166,0.051062033,0.13156846,-159.25739318939134,-0.08004372469247746,-2.002038995923291,11.458333333333334,2284,0.5625481605529785,0.006831850271988043,0.006214620462178796,-217.43897607898649,0.0
104,1.9283957481384277,-150.24546907868236,14.549715798696955,-118.51235493191467,-184.4633139563653,19.791666666666668,0.7279357335541623,0.1,0.07888340950012207,0.4759340286254883,0.05028923,0.13768822,-158.35620077832044,-0.07812060915815103,-1.958781749619735,19.791666666666668,2346,0.8568849563598633,0.007371438660027358,0.006846568959253954,-237.6632871030377,0.0
105,2.4207763671875,-152.9318798666046,16.326257989078965,-119.89582345712037,-191.63211502935485,15.625,0.7498605654218536,0.1,0.09290075302124023,0.6120338439941406,0.049420383,0.1319243,-157.81376868714887,-0.07841889350420016,-1.9943229439219141,15.625,2332,0.9707510471343994,0.00786222014227981,0.007319196045883341,-240.82274066267456,0.0
106,1.884308099746704,-147.6966475005386,12.31525561947507,-104.16306603903413,-185.31689629508506,16.666666666666668,0.7834710811573667,0.1,0.012964010238647461,0.14881348609924316,0.04938025,0.13500175,-156.80205656848784,-0.07751289537290879,-1.9243158963591294,16.666666666666668,2338,0.643186092376709,0.0064327996757862415,0.005853576171383331,-220.41980466430297,0.0
107,1.5377087593078613,-149.35572030518625,15.468092364316071,-109.65049457654317,-190.12332497026705,32.291666666666664,0.7535612806831576,0.1,0.10530924797058105,0.27965521812438965,0.050804697,0.13242725,-156.05742294215767,-0.07788024813077819,-1.9465074119508496,32.291666666666664,2371,0.7156381607055664,0.0071814239358412675,0.006672579588764108,-219.01977218879833,0.0
108,2.189919948577881,-146.778675188677,17.391899351400767,-102.84332988752786,-204.76719705320676,35.416666666666664,0.7618371649593016,0.1,0.08927226066589355,0.386275053024292,0.050251383,0.12728977,-155.12954816680963,-0.07695857810570451,-1.9132735703091643,35.416666666666664,2384,0.7106494903564453,0.010479658626651386,0.009691691214876359,-192.32447414698413,0.0
109,2.1505470275878906,-148.493303805887,14.43784612125778,-109.42477175586299,-183.97020935379095,23.958333333333332,0.7303183347203863,0.1,0.05602383613586426,0.668515682220459,0.04985418,0.14971499,-154.46592373071738,-0.0769455367459435,-1.9358586379818206,23.958333333333332,2396,0.7736740112304688,0.007881436536843419,0.006858169610109857,-203.40249308950004,0.0
110,2.487745761871338,-147.52383540041396,15.857334667409571,-108.74705562545947,-190.3072026396622,30.208333333333332,0.7253181325843361,0.1,0.0727682113647461,0.47327303886413574,0.049646974,0.13959724,-153.77171489768705,-0.07666990197278892,-1.922417167476363,30.208333333333332,2403,0.49921154975891113,0.007419230099519726,0.0069535092369923225,-180.52237526858374,0.0
111,2.272888422012329,-146.21693378078285,13.796723869980331,-116.88333477862787,-196.62670297134383,31.25,0.7552443753126313,0.1,0.012710332870483398,0.1756753921508789,0.050795343,0.12416632,-153.01623678599663,-0.07593624377990855,-1.9047844445396274,31.25,2426,0.8713512420654297,0.006796879570230756,0.006590343525125453,-186.28126018477877,0.0
112,2.416386842727661,-143.27768264556389,16.530898011504796,-113.37975382389232,-190.04498063200316,44.791666666666664,0.783585837253704,0.1,0.01291799545288086,0.19976234436035156,0.05022397,0.12363658,-152.04238137195335,-0.07493598024411423,-1.866899747974842,44.791666666666664,2432,0.8389339447021484,0.008203573596042943,0.007932190968323208,-199.93538336136464,0.0
113,2.5216472148895264,-147.03437915966447,13.33148635470676,-123.92949380185057,-195.71450857552637,47.916666666666664,0.7509557486539746,0.1,0.07129192352294922,0.4529306888580322,0.049922675,0.12835684,-151.54158115072448,-0.07667312902561944,-1.9163371809173304,47.916666666666664,2424,0.9215860366821289,0.006675665218534835,0.00544085695463445,-213.71757530992565,0.0
114,2.3524587154388428,-144.77027770119426,14.487173480183088,-107.68276194784272,-183.2653571002013,47.916666666666664,0.7462119229291518,0.1,0.013711214065551758,0.18850016593933105,0.04867712,0.13221432,-150.86445080577147,-0.07564078524047552,-1.88553961739038,47.916666666666664,2446,0.8798995018005371,0.006786632256865305,0.006685069702739848,-196.0104716418957,0.0
115,2.217822790145874,-146.1915817580017,15.751087537051635,-110.54514674104517,-184.72126167628403,38.541666666666664,0.7611432589069329,0.1,0.08976602554321289,0.1688220500946045,0.050147273,0.12962805,-150.3971639009945,-0.07459318814724716,-1.9053285032454592,38.541666666666664,2496,0.7509379386901855,0.0075235530352479926,0.007153403241502807,-183.55004011599723,0.0
116,2.552408456802368,-142.13808038390104,14.65766372421985,-110.33541828933542,-185.05672788573705,45.833333333333336,0.7901717673824766,0.1,0.19183731079101562,0.8133234977722168,0.050418984,0.13681896,-149.57125554928518,-0.07347251500844516,-1.8504841428547658,45.833333333333336,2521,0.8750407695770264,0.00746583073905988,0.007110999269570832,-203.31306026965586,0.0
117,2.247513771057129,-141.32239514069727,18.579867429849656,-110.47284845516404,-205.78812140280994,54.166666666666664,0.7666466929539285,0.1,0.10132479667663574,1.547788381576538,0.05038013,0.120845996,-148.7463695084264,-0.07274773026788184,-1.8406918080047754,54.166666666666664,2550,0.9581115245819092,0.009508957102764596,0.00959375681008732,-201.78539584840675,0.0
118,2.0547800064086914,-140.30192733949005,15.249017239879572,-105.01062628854339,-175.0208892535071,55.208333333333336,0.8019323710284197,0.1,0.08739376068115234,0.7096691131591797,0.050313953,0.12685673,-147.90192529153276,-0.07334643203217171,-1.8261217757214823,55.208333333333336,2508,1.1242260932922363,0.007355514291788152,0.007143734291211287,-169.71166114355532,0.0
119,2.430335760116577,-142.38970334229683,15.320468668566436,-105.42423012070859,-172.99016459318187,48.958333333333336,0.7591442047102439,0.1,0.08764290809631348,0.6569736003875732,0.05036059,0.13453194,-147.35070309660918,-0.07318775218847152,-1.8532332782042902,48.958333333333336,2556,0.8952536582946777,0.0075981510630651556,0.007409921707873354,-192.6958212400351,0.0
120,2.329932928085327,-135.82906706599817,15.516946294719672,-91.89708756276065,-170.97315197032333,67.70833333333333,0.7715095355870253,0.1,0.01304483413696289,0.1970231533050537,0.050215106,0.13316831,-146.19853949354808,-0.07199702627134573,-1.7676897065902564,67.70833333333333,2560,1.052499532699585,0.00917292051472604,0.008519514455285676,-191.7106894805479,0.0
121,2.3344931602478027,-138.41951092425043,15.672293116813234,-105.68133376504281,-175.465879219797,62.5,0.7875097221294985,0.1,0.005574464797973633,0.7232580184936523,0.05019209,0.12635383,-145.42063663661833,-0.07166011789455988,-1.8001582780404008,62.5,2595,0.9510762691497803,0.007881649240168587,0.007625831900139041,-194.9821532512001,0.0
122,2.233640432357788,-137.74857147084273,15.36176557993251,-96.84282817115914,-175.47090732067846,67.70833333333333,0.7987795395764725,0.1,0.07559537887573242,0.811474084854126,0.050145395,0.12556404,-144.65343012004078,-0.07103495219905308,-1.7919463327553924,67.70833333333333,2650,0.7040448188781738,0.007168084287263512,0.006664114927177877,-216.40858568887563,0.0
123,2.457289934158325,-134.04430722161626,17.18216772152127,-101.17165831369394,-178.92708534919726,71.875,0.7756641304745605,0.1,0.09466695785522461,0.4717519283294678,0.050099947,0.12659012,-143.59251783019835,-0.06986957587953485,-1.7435288981621204,71.875,2671,0.8482050895690918,0.008633148666727935,0.00803162037227073,-188.48579556288715,0.0
124,2.156214714050293,-132.87924398581416,16.417552873652568,-101.78570934128294,-183.96745704160736,84.375,0.8337190830153738,0.1,0.013257503509521484,0.4966249465942383,0.049159154,0.11830969,-142.52119044575994,-0.07017623444379527,-1.72683030395086,84.375,2663,0.9830901622772217,0.00901988093007057,0.008504109459110978,-215.91198634904976,0.0
125,2.40679931640625,-133.43796780949717,17.399076064440816,-94.18144156451432,-184.57539644746151,65.625,0.7913490393176166,0.1,0.07373237609863281,0.1829085350036621,0.05052256,0.12222637,-141.6128681821337,-0.06865584790409564,-1.7344759594769723,65.625,2732,0.9869985580444336,0.009680680424315698,0.009648083756280476,-206.9024585344318,0.0
126,1.9672415256500244,-130.18546572559143,17.15498587966591,-92.85037919777372,-174.7852874753616,81.25,0.8231868821113167,0.1,0.07987165451049805,0.5915579795837402,0.050509706,0.120924845,-140.47012793647946,-0.0688177274218294,-1.6917401488065325,81.25,2738,1.0678062438964844,0.010548594826289634,0.009631526452272714,-204.45893912239063,0.0
127,2.0036652088165283,-133.06103577281735,18.61738025405409,-94.57684138327569,-194.4857349043226,78.125,0.7815594217939398,0.1,0.08467316627502441,1.802459716796875,0.050781284,0.12607884,-139.72921872011327,-0.06878413753523438,-1.7282954675354283,78.125,2759,0.8042023181915283,0.0105295879396778,0.01016061897569744,-221.77097080660067,0.0
128,2.055924654006958,-128.1444601008731,18.64991078155063,-92.14230742581314,-197.76164463643872,78.125,0.8366462630783706,0.1,0.0875692367553711,0.7740471363067627,0.050669722,0.11891821,-138.57074285818925,-0.06746323200571137,-1.6647862211614484,78.125,2773,1.0502793788909912,0.009872952221603393,0.00957273406385922,-212.96621038193717,0.0
129,2.2368555068969727,-126.6471786560677,19.606385502319633,-81.26746363779705,-185.37632435675198,82.29166666666667,0.8118752599898565,0.1,0.013332128524780273,0.26930975914001465,0.050198592,0.12401132,-137.3783864379771,-0.0670813686347734,-1.6436497275242214,82.29166666666667,2806,1.0275990962982178,0.011196234928441422,0.010525005371810345,-199.9176201066246,0.0
130,2.462667226791382,-125.00271597875361,18.599086970281355,-88.72877998887333,-172.78415115391905,82.29166666666667,0.8356948984386651,0.1,0.08504796028137207,0.2966296672821045,0.05002223,0.118338645,-136.14081939205477,-0.06637672898954565,-1.6223188294287774,82.29166666666667,2869,0.9450705051422119,0.010589025432705084,0.010205225810760101,-231.15506137039932,0.0
131,2.4303183555603027,-123.673689330723,19.86469403285308,-82.79005066418065,-187.23598585741382,84.375,0.8520330705462801,0.1,0.08456611633300781,1.0879144668579102,0.050100625,0.11276539,-134.8941063859216,-0.06569864305603342,-1.6047812701739854,84.375,2869,0.9119455814361572,0.012680220606952439,0.01167534138023621,-199.24168651124285,0.0
132,1.9352984428405762,-121.59163479688641,22.3122805592744,-73.0679488619772,-186.59904396807923,84.375,0.8621510173515174,0.1,0.05561256408691406,1.4726738929748535,0.05051561,0.121123545,-133.56385922701807,-0.06517023447149216,-1.5766125680243368,84.375,2920,0.930619478225708,0.014127949496711985,0.01374440073202166,-250.1112107141198,0.0
133,2.692397356033325,-117.77958470267924,20.872595283251453,-64.75384661907309,-168.0201855360552,85.41666666666667,0.8902001158124452,0.1,0.08497071266174316,1.6953544616699219,0.049923237,0.112901166,-131.98543177458419,-0.06383839502159143,-1.5268630394270903,85.41666666666667,2994,1.1140573024749756,0.013999439373667539,0.013603657100462505,-377.0181258234712,0.0
134,2.5723888874053955,-117.68385238441562,20.436746412338493,-69.93193839988876,-185.1234442989322,83.33333333333333,0.8799822985840436,0.1,0.07305049896240234,1.5964648723602295,0.049941316,0.10973289,-130.55527383556733,-0.06315966018381929,-1.5245911922254682,83.33333333333333,3023,1.0523123741149902,0.014026849130939585,0.013229353153958581,-166.8452265481842,0.0
135,2.1822562217712402,-123.07690948824192,22.519584797491326,-71.99702734385947,-201.15316752929206,80.20833333333333,0.8605888590037846,0.1,0.10474133491516113,1.6617538928985596,0.049530286,0.111462936,-129.8074374008348,-0.06417203349990568,-1.5966789469405789,80.20833333333333,3017,1.2816190719604492,0.014027389609311635,0.013023727385654263,-196.74876496729976,0.0
136,2.5936107635498047,-111.74271469226456,20.492568057967194,-40.68830041273259,-149.27592971502173,92.70833333333333,0.9008178134723679,0.1,0.07956361770629883,1.5162222385406494,0.051018935,0.11047239,-128.00096512997777,-0.062354524540914315,-1.4453500935211274,92.70833333333333,3033,1.107166051864624,0.0164930923407264,0.0143289054918087,-249.21733724503335,0.0
137,2.7150824069976807,-116.97600245567851,21.831095190183404,-69.67709226364202,-174.820940419933,85.41666666666667,0.8419555582841153,0.1,0.10467028617858887,2.2435436248779297,0.05032173,0.112504244,-126.89846886254786,-0.06308025939066123,-1.515369360919938,85.41666666666667,3046,1.1974403858184814,0.015303702403258953,0.013759056496730437,-365.47907110301617,0.0
138,2.1198675632476807,-112.36792351071692,24.261503319583788,-50.660966654650004,-155.39382725650387,88.54166666666667,0.9034144072653062,0.1,0.09855270385742188,1.661801815032959,0.05041634,0.11253606,-125.44541432736477,-0.06182831768378799,-1.4537566643922701,88.54166666666667,3114,1.130655288696289,0.01869939678753574,0.017576845455611792,-375.24449725428525,0.0
139,2.6376028060913086,-109.21671654570434,21.624167334681022,-65.45689217029009,-187.81399074637318,88.54166666666667,0.9697415997575045,0.1,0.08582639694213867,1.8535425662994385,0.05000785,0.10408404,-123.82254454919872,-0.060939031650808974,-1.4118075458139556,88.54166666666667,3144,0.9735915660858154,0.016035143325647094,0.015280170579941414,-316.5903684338366,100.0
140,2.209944009780884,-106.01982152118474,19.86303573531865,-52.98129322625982,-154.46670292465052,94.79166666666667,0.9112750436911836,0.1,0.08272361755371094,1.4340713024139404,0.05080919,0.10978448,-122.04227224639732,-0.06073753198247237,-1.3695692487128224,94.79166666666667,3139,0.935142993927002,0.015277308138214733,0.014620780617074638,-106.01219015135624,100.0
141,2.1918656826019287,-105.50219932132966,19.777217454069497,-51.20478247765404,-149.3137414082347,91.66666666666667,0.9140835788065711,0.1,0.1166388988494873,1.4308252334594727,0.051210105,0.10675904,-120.38826495389056,-0.06027405052978215,-1.3621551594099683,91.66666666666667,3175,1.361260175704956,0.014529359703829294,0.013649502606926855,-31.6617549373174,100.0
142,2.418713092803955,-103.8500113978644,20.687444664697168,-47.32369480301272,-153.0955829033089,95.83333333333333,0.9686455696749178,0.1,0.08232998847961426,1.7698512077331543,0.049916215,0.10115871,-118.73443959828793,-0.06016129147632839,-1.340347444464247,95.83333333333333,3188,1.0166592597961426,0.017306681255546994,0.016123579911643728,-14.430813635162727,100.0
143,2.682962417602539,-101.91045413415058,19.734586829743474,-55.86712782016061,-157.12260099164592,98.95833333333333,0.9632594105343737,0.1,0.08390045166015625,0.36964893341064453,0.050458744,0.099775724,-117.0520410518742,-0.05982447444270803,-1.3143204963401003,98.95833333333333,3214,0.6427009105682373,0.015988636155554715,0.015067388083909599,-27.81870425594156,100.0
144,2.043229579925537,-101.62415570265591,18.00185396277825,-45.56569583291213,-139.2804176061083,93.75,0.934591106935672,0.1,0.0791921615600586,0.5058255195617676,0.050396755,0.106830046,-115.50925251695237,-0.05862899841019814,-1.3103176748145575,93.75,3298,0.7581295967102051,0.014676862851901968,0.013444701663912274,-44.49289891934946,100.0
145,2.774967908859253,-98.96357213703614,20.115332552783233,-52.40910149027643,-152.26975435728616,93.75,0.9608601830576662,0.1,0.056986331939697266,0.6208972930908203,0.049501643,0.10604844,-113.85468447896075,-0.05838413753933905,-1.274918420221743,93.75,3300,0.9993250370025635,0.016069656230674564,0.015227912234041668,6.189455757499451,100.0
146,2.5841307640075684,-98.80912773500694,25.289983723280763,-51.273164000847416,-153.16957573250303,93.75,0.9592507170075499,0.1,0.10884690284729004,1.3080027103424072,0.049543157,0.09844707,-112.35012880456537,-0.05868058018953328,-1.274099287910173,93.75,3325,1.1891615390777588,0.020605859846239683,0.02020201284416016,102.19720913483525,100.0
147,2.896907091140747,-95.59732593608506,20.88141924136012,-36.75894062582519,-140.6226499362773,98.95833333333333,0.9451919556361438,0.1,0.09989619255065918,2.2291743755340576,0.04973367,0.107156545,-110.67484851771734,-0.05843598184873857,-1.2310774157650173,98.95833333333333,3327,1.4386413097381592,0.019323351704429472,0.01829361298224127,222.8809884432717,100.0
148,2.8359460830688477,-98.50999939078572,24.375701369913884,-24.23496618091828,-149.82405502592187,93.75,0.993223753961851,0.1,0.12016582489013672,2.038398027420044,0.050038166,0.10442098,-109.45836360502418,-0.05794516839396491,-1.2695150097266443,93.75,3392,0.9942381381988525,0.023082515451782356,0.02197061789663763,98.69117709006,100.0
149,2.4880032539367676,-94.01254754079183,24.796213155722498,-36.082304877742345,-149.76152079321977,91.66666666666667,1.0273575616063488,0.1,0.09450531005859375,1.0735878944396973,0.05046719,0.09679119,-107.91378199860094,-0.057158400978579826,-1.2083950974894708,91.66666666666667,3426,1.0039219856262207,0.02373615920908047,0.022241415631160735,-10.367242365473958,100.0
150,3.0405781269073486,-93.40444710372036,28.748501290305665,-20.240364428307156,-188.57817672540435,97.91666666666667,1.007767309795779,0.1,0.14919614791870117,1.3847670555114746,0.050270718,0.10029804,-106.46284850911289,-0.05723779152396143,-1.1999434960931616,97.91666666666667,3478,1.0172064304351807,0.030621240337528565,0.029451742825745184,-44.326538782487106,100.0
151,3.193580389022827,-93.1753511084883,24.92593482448209,-36.80621334326068,-181.3586717773348,93.75,1.0159654017329933,0.1,0.11441588401794434,1.4720408916473389,0.049997885,0.095315576,-105.13409876905044,-0.05636984896242844,-1.1971535327924003,93.75,3470,1.2348506450653076,0.02392928327941808,0.022377881086251068,40.264668348704646,100.0
152,2.2537224292755127,-89.83600945132825,25.46945387529282,-9.40689637536861,-151.39155662615985,95.83333333333333,1.0313733197153607,0.1,0.12080597877502441,1.5960931777954102,0.049513616,0.09720483,-103.60428983727822,-0.05569030365612674,-1.1537455384923783,95.83333333333333,3538,1.066819190979004,0.02505915964208915,0.024055824888725978,181.42758684788788,100.0
153,2.9103095531463623,-91.3827181482738,23.536208047863784,-34.81804535376244,-194.19905400664774,95.83333333333333,1.1402558087472863,0.1,0.08150720596313477,1.1999475955963135,0.049996912,0.08662966,-102.38213266837778,-0.055954911466391144,-1.173541355574659,95.83333333333333,3545,1.0771794319152832,0.02186616696341968,0.020680563408510693,197.0265666368396,100.0
154,2.2667715549468994,-91.88553539616379,29.11508682384618,-11.855847172850154,-164.8213329251237,94.79166666666667,1.0411173545679275,0.1,0.07342648506164551,2.362178087234497,0.05062485,0.09594707,-101.33247294115638,-0.05653645620312161,-1.1808964473411556,94.79166666666667,3500,1.431410312652588,0.03008793080432028,0.029054959338994595,200.10211212521284,100.0
155,2.413356065750122,-88.58711054258583,28.108571843103267,-14.631774242670968,-168.2161205878255,93.75,1.0879298288301928,0.1,0.09715557098388672,1.1068077087402344,0.049718082,0.0961078,-100.05793670129933,-0.055427854856280094,-1.1366652077672736,93.75,3602,1.2545607089996338,0.0308296533817611,0.029931613254542598,201.94347029202152,100.0
156,2.7470285892486572,-83.9568365095669,29.049270006863786,11.390932417709266,-179.75724935148554,97.91666666666667,1.0353128269265883,0.1,0.11361193656921387,0.9096546173095703,0.05023479,0.09523555,-98.44782668212608,-0.055475880861284445,-1.0741243344168738,97.91666666666667,3594,1.1834211349487305,0.031466518740908854,0.03021703470982461,188.47047971700044,100.0
157,2.956920862197876,-79.41964509476226,30.14880473774429,-2.9563768572197517,-149.45395708676307,93.75,1.162096354747073,0.1,0.09328794479370117,0.5166337490081787,0.05077887,0.08497271,-96.5450085233897,-0.05322470613846064,-1.014647582683643,93.75,3749,0.8587384223937988,0.03295161549114592,0.03218227904915098,202.45086705449714,0.0
158,2.8319079875946045,-77.49025392649816,35.53583472464013,25.11566051467654,-160.47756530722657,96.875,1.191445419333575,0.1,0.10574698448181152,0.8782005310058594,0.049569733,0.086238675,-94.63953306370054,-0.05330180776272181,-0.9879418674258957,96.875,3835,1.0163414478302002,0.049869422942782904,0.04792778610343524,206.8859315446364,100.0
159,3.0137667655944824,-77.15569654882536,32.62511111012205,7.960288744052896,-140.31866912048764,98.95833333333333,1.191133787473143,0.1,0.08498740196228027,1.0311639308929443,0.050965406,0.08684138,-92.89114941221303,-0.053510471370521416,-0.9842998555888224,98.95833333333333,3791,0.9549918174743652,0.041937061240807885,0.040641896285264933,208.72717322560916,100.0
160,3.1614837646484375,-67.74894116434832,36.28720219916773,10.609318788618097,-157.68769136668269,95.83333333333333,1.1574404300506251,0.1,0.05156087875366211,1.2953994274139404,0.050386734,0.08687857,-90.37692858742656,-0.05120076243439475,-0.8585284832675407,95.83333333333333,3993,1.1879239082336426,0.05640782791909221,0.0485329222575269,205.19651254900734,100.0
161,3.0803351402282715,-74.99920369426974,34.38859432994278,2.782306730065386,-166.82020710366083,97.91666666666667,1.1399540469886915,0.1,0.0919647216796875,0.36799049377441406,0.049313825,0.08961959,-88.83915609811088,-0.05270275875494126,-0.9542968074596416,97.91666666666667,3896,0.8182475566864014,0.04266594399443257,0.03990249239030931,220.83107852065348,100.0
162,2.860250949859619,-67.02384583597926,36.691013959609776,67.08587516326293,-146.88729649602251,95.83333333333333,1.203429671759926,0.1,0.014147520065307617,0.20142674446105957,0.048335135,0.08418621,-86.65762507189771,-0.05130900174486286,-0.8481638992087865,95.83333333333333,4025,1.206364393234253,0.053374013155769055,0.050029083460342974,251.1759209026122,100.0
163,3.015096426010132,-68.38781280557534,34.83990826532339,27.761424981760328,-139.19922202131303,97.91666666666667,1.0875072743196594,0.1,0.013725042343139648,0.1662735939025879,0.049136266,0.09324815,-84.83064384526548,-0.05163304271048504,-0.8675255743798003,97.91666666666667,3936,0.9624345302581787,0.0521587043619184,0.05038884111387238,225.77337170919947,100.0
164,2.9736809730529785,-66.91674361637983,34.512820640984486,5.012141096308014,-137.0135891799326,97.91666666666667,1.194313256141867,0.1,0.013933897018432617,0.2349860668182373,0.049090154,0.08369645,-83.03925382237692,-0.05116473338621819,-0.8465146631465889,97.91666666666667,3998,0.5690302848815918,0.04931822889927675,0.04747912669891107,227.21192641890036,100.0
165,2.4617135524749756,-61.108218035590596,35.63561479071218,30.88257021614823,-165.54265974680624,96.875,1.2113058853853347,0.1,0.06274843215942383,0.6586394309997559,0.044938132,0.07765491,-80.84615024369829,-0.050479226567481404,-0.7695799019913357,96.875,4067,0.8974626064300537,0.050503283592506214,0.04787788286888026,226.205508259493,100.0
166,3.1404879093170166,-59.36679568770847,40.95765575402162,79.23421292196318,-152.62316712625514,98.95833333333333,1.239264923957568,0.1,0.06366109848022461,0.6893815994262695,0.04985385,0.086103834,-78.6982147880993,-0.050186798563887546,-0.7468488932802991,98.95833333333333,4146,0.6829278469085693,0.06648000256479478,0.0646537634584874,218.9606517174222,100.0
167,3.6406657695770264,-57.70419409945697,39.812489791636665,61.527863045635584,-138.80027338270244,97.91666666666667,1.1692761580026159,0.1,0.06368279457092285,0.3653082847595215,0.049800918,0.08677554,-76.59881271923508,-0.05014462098830073,-0.7243347452856699,97.91666666666667,4153,0.660132646560669,0.06364356970986958,0.062085522159818954,194.51874627173945,0.0
168,2.6799168586730957,-54.23751831070761,49.14323765829899,104.61172211782436,-146.87906930671824,98.95833333333333,1.1487253287758776,0.1,0.0875239372253418,0.5251202583312988,0.050531644,0.08983383,-74.36268327838233,-0.04903862732356475,-0.6788551543576687,98.95833333333333,4270,1.2498626708984375,0.09246842852689348,0.09100543493365794,174.141414425987,0.0
169,3.105726957321167,-61.37325664910882,51.32206842425091,239.02687128605317,-162.4351560956562,95.83333333333333,1.233128727385088,0.1,0.0679481029510498,1.072103500366211,0.04530028,0.08302092,-73.06374061545498,-0.050292287064846196,-0.7740058054384672,95.83333333333333,4192,1.2242460250854492,0.12542168504796758,0.12199390967148686,10.13308712535218,0.0
170,3.3848717212677,-49.719336909293986,47.6109262441926,73.93226424877793,-139.38978996237236,98.95833333333333,1.3198730954502222,0.1,0.08814311027526855,0.9187779426574707,0.047960285,0.07335186,-70.72930024483888,-0.04830328275926247,-0.6173037201103924,98.95833333333333,4447,1.347438097000122,0.09770496970550857,0.09331274687250907,176.32788383785797,0.0
171,3.472822427749634,-38.70485088619524,52.74860567330268,141.06978601394167,-142.98504559409497,96.875,1.2700902272147565,0.1,0.06783103942871094,0.8106763362884521,0.048742007,0.08095955,-67.52685530897452,-0.04722050642153638,-0.47158956133675806,96.875,4545,1.4528334140777588,0.13188744449684633,0.12380711579298465,195.38014677466276,0.0
172,2.9397530555725098,-50.73858836146659,44.18221731729164,143.14821533317462,-153.41333984596122,97.91666666666667,1.2986394582322918,0.1,0.08555150032043457,1.199517011642456,0.048289154,0.07814579,-65.84802861422372,-0.047706209016280275,-0.6325570035569622,97.91666666666667,4560,1.3204841613769531,0.09151338194446668,0.07662086279422176,170.53739624060177,0.0
173,2.9539594650268555,-39.042174320824536,59.45038882910954,149.61304166103264,-146.93429650524072,95.83333333333333,1.2764041934675248,0.1,0.022289037704467773,1.1460340023040771,0.04866358,0.07840913,-63.16744318488381,-0.04719916272333379,-0.4762956330891715,95.83333333333333,4533,1.3709275722503662,0.13495031464834917,0.12891336283401084,17.761850739196337,0.0
174,2.67018985748291,-28.308390506941606,73.19407328414253,185.7729286184063,-147.77623837558855,98.95833333333333,1.3748893215804001,0.1,0.04543042182922363,0.2837374210357666,0.048467003,0.075048,-59.681537917089585,-0.046251058364411866,-0.33267961298039533,98.95833333333333,4741,1.1220521926879883,0.23563130861175208,0.22259510704608126,-43.280399180550624,0.0
175,3.886641263961792,-17.050198801948845,87.48678602268618,366.98459526562465,-159.22912486972274,98.95833333333333,1.3370463666490278,0.1,0.0767366886138916,0.5969300270080566,0.048472743,0.08807237,-55.41840400557551,-0.04477189968328005,-0.18710231850655223,98.95833333333333,4842,1.2860195636749268,0.3651297293663581,0.3496748311003571,20.853693188895278,0.0
176,3.5178539752960205,-11.92864070254979,98.4854714997014,398.1499944141755,-155.104402057291,98.95833333333333,1.4275439747845917,0.1,0.08980774879455566,1.5479693412780762,0.04883375,0.071106896,-51.06942767527294,-0.04480336257308918,-0.11963613642788018,98.95833333333333,4855,1.0371878147125244,0.43186818152663825,0.4145745991762924,21.235252309903988,0.0
177,3.698723077774048,-6.181013735856048,98.45673445166193,416.9754667021777,-134.283307870627,100.0,1.392597463063838,0.1,0.04041004180908203,0.44381165504455566,0.04806248,0.075045034,-46.58058628133125,-0.04402991213699842,-0.04129298454976008,100.0,4934,1.0878276824951172,0.4311246782336371,0.4135443693967615,-35.11772432790313,0.0
178,3.6266887187957764,19.301218341587354,135.14162502935878,453.68231866174267,-133.65699498640217,98.95833333333333,1.4312628177925035,0.1,0.06493067741394043,0.5409083366394043,0.048125993,0.06757637,-39.99240581903939,-0.04106900893479796,0.2984866658109743,98.95833333333333,5245,1.2487704753875732,0.6441996734706226,0.6058757334879954,-79.89003310671215,0.0
179,4.152885675430298,-3.6378452879616474,109.1722673256232,436.2646976488359,-154.88070564456223,100.0,1.402574518223244,0.1,0.08990597724914551,1.424346685409546,0.049395863,0.07395346,-36.35694976593162,-0.04263381962648538,-0.01690275237282413,100.0,5217,1.829578161239624,0.5104694225765762,0.4771340452581089,-100.59306768610774,0.0
180,2.8392114639282227,12.364542112198494,128.21818282488718,466.85955088477107,-246.5507286233256,98.95833333333333,1.4538446760754613,0.1,0.08945703506469727,1.3557066917419434,0.046483785,0.06654579,-31.48480057811861,-0.04124852826642653,0.20146102586015938,98.95833333333333,5386,1.3179619312286377,0.6073805140948746,0.5859413905251851,-83.01723215489335,0.0
181,3.4380030632019043,46.964891766665225,148.04631948335808,467.5435880636196,-202.02314173361088,97.91666666666667,1.4693452427817162,0.1,0.007782459259033203,0.3960840702056885,0.048252337,0.068174854,-23.639831343640225,-0.0375634597709869,0.6596966046417712,97.91666666666667,5712,1.2885539531707764,0.7537360371189995,0.6869594400360762,-95.59170908618593,0.0
182,3.3893232345581055,44.936555661608374,157.89011196715427,434.76201984676965,-178.61585073504352,96.875,1.4954538324174054,0.1,0.06781530380249023,0.2602524757385254,0.046027355,0.06628099,-16.782192643115366,-0.03860582478565961,0.6386823621939547,96.875,5485,0.9666078090667725,0.7255745900412582,0.6787046323867219,-112.16126777126766,0.0
183,3.5957562923431396,61.510478720563135,148.52437281904872,430.7083582364801,-184.75055832256936,94.79166666666667,1.5174584817083927,0.1,0.04910898208618164,1.2923626899719238,0.043675907,0.061966594,-8.952925506747516,-0.035905964175174054,0.8510867987373955,94.79166666666667,5862,1.572204351425171,0.6721388725900611,0.6470046887489002,-118.30932941721288,0.0
184,3.120190382003784,53.22636701672881,163.84254879013378,475.90201980232,-144.1370321391538,98.95833333333333,1.4242310355635843,0.1,0.08516669273376465,0.6956162452697754,0.04900375,0.06978447,-2.734996254399883,-0.03786434351683205,0.7454723861028101,98.95833333333333,5512,1.1623132228851318,0.7028481834586816,0.6604054951883715,-132.61083657614074,0.0
185,3.4358999729156494,67.34550038251568,156.09967254121526,476.41174918894757,-188.92239160704156,95.83333333333333,1.4345196021607336,0.1,0.07436108589172363,0.4491415023803711,0.04539829,0.06439136,4.273053409291673,-0.03467685558014618,0.9223710926618951,95.83333333333333,5923,1.5827784538269043,0.6859012667666854,0.6515218682712496,-158.96470746877836,0.0
186,4.305591821670532,55.39772652928858,141.7633409432965,493.87298075586097,-134.10657360698815,100.0,1.4818700025395575,0.1,0.08277082443237305,0.5246918201446533,0.050279588,0.06739045,9.385520721291364,-0.035025784618398476,0.7711890931594528,100.0,5980,1.2369306087493896,0.6623600188888247,0.6451676623064482,-195.2732933073554,0.0
187,3.4041693210601807,59.07761955291502,169.56001881664275,436.723921159319,-227.77098578708961,93.75,1.5748478666090593,0.1,0.06663823127746582,0.8816032409667969,0.048450995,0.061195895,14.35473060445373,-0.03516392627039563,0.8119309621322541,93.75,5779,1.4702799320220947,0.7469227312818855,0.728812632628332,-188.52292400764742,0.0
188,4.198541641235352,67.1610563751699,155.60355777057111,442.87421664259637,-276.83475937155174,98.95833333333333,1.5520104911693795,0.1,0.015097618103027344,0.26546406745910645,0.049333025,0.06244574,19.63536318152535,-0.033204877340197676,0.9087295412299666,98.95833333333333,6143,1.3401663303375244,0.7539871978047931,0.720570197923677,-189.0737106668996,0.0
189,4.210330963134766,68.92771701986362,153.38091958491307,492.8711161339639,-184.16837884166972,96.875,1.6953037557444217,0.1,0.026076078414916992,0.34321069717407227,0.04957146,0.055256847,24.564598565359177,-0.033021439111491975,0.9532243578437526,96.875,6105,1.9737367630004883,0.6875396775078346,0.6609252781665461,-174.84863664487852,0.0
190,3.515115261077881,78.91204105891494,154.31715671011003,522.7475669661872,-103.6647269367277,97.91666666666667,1.8168031042700195,0.1,0.04336857795715332,0.39649248123168945,0.047658525,0.055601917,29.99934281471475,-0.03149442271984883,1.0675570201409281,97.91666666666667,6163,2.1478543281555176,0.7174621160243452,0.718778497020165,-151.09988444839735,0.0
191,3.273179292678833,68.52133389170972,164.02565293785898,452.8750731229731,-192.7135809070508,100.0,1.5567110167109133,0.1,0.10022139549255371,1.7493572235107422,0.050435796,0.06636741,33.85154192241425,-0.03447988955306763,0.9446901781723175,100.0,5919,1.3477859497070312,0.7012384696349016,0.6678658628026533,-189.01403163578036,0.0
192,4.6316516399383545,75.3584200131406,151.65589432000698,461.04283951157345,-206.67346317538465,96.875,1.4826839679397283,0.1,0.03190970420837402,0.5155355930328369,0.047312677,0.06760524,38.002229731486885,-0.03143332233557261,1.0343874117623013,96.875,6167,2.475029945373535,0.6715215228718183,0.6552954107277278,-178.74179705129228,0.0
193,4.2613794803619385,77.04615767150308,166.3718026770823,405.4353313355947,-201.32889837557934,97.91666666666667,1.6873004344126834,0.1,0.12017679214477539,1.6571660041809082,0.048734862,0.05689394,41.90662252548851,-0.032125616919985556,1.0686181754975879,97.91666666666667,6026,1.4984548091888428,0.6997023891789933,0.6881528222877518,-221.18120788681438,0.0
194,3.853999376296997,94.16832466267924,154.2125942205456,493.99507079024147,-138.04716333823083,97.91666666666667,1.6346499193624071,0.1,0.07723832130432129,0.747333288192749,0.04950255,0.06503438,47.13279273920759,-0.029847482127834047,1.2782751749575347,97.91666666666667,6202,3.4200901985168457,0.6250594332288367,0.6053996716327902,-213.5483976390573,0.0
195,4.819180488586426,69.94919509664857,148.82490124777397,420.95046127562784,-122.37334780207435,97.91666666666667,1.495330629278843,0.1,0.09047150611877441,1.5587694644927979,0.045519724,0.06333165,49.414432974951694,-0.033170478769237184,0.9535514417787395,97.91666666666667,5912,1.8662028312683105,0.6422420920039821,0.6156054451396916,-218.35590229292282,0.0
196,4.112808465957642,64.76092227169589,150.79228260782614,424.2063732004329,-175.77986340077584,96.875,1.5521015092921326,0.1,0.052884817123413086,0.5077297687530518,0.04739249,0.062088523,50.94908190462611,-0.03317824674387115,0.8828655035791823,96.875,6088,3.231549024581909,0.6583232388884223,0.6419749201335091,-228.2926183863646,0.0
197,4.3322930335998535,90.00552132619775,160.90333938715509,456.17159716676167,-158.6475550757562,97.91666666666667,1.7285101874354731,0.1,0.01759648323059082,0.47797632217407227,0.04680933,0.055839542,54.854725846783275,-0.030793364190488684,1.2189039516153752,97.91666666666667,6159,2.371826410293579,0.653073437992668,0.6348947311477703,-216.34070892933786,0.0
198,4.201143026351929,94.34572668776504,148.93611194070397,415.70538494936744,-241.98950427289094,96.875,1.70010498130761,0.1,0.016512632369995117,0.33214759826660156,0.046660293,0.053914834,58.80382593088145,-0.028926611448694694,1.2818070153396743,96.875,6422,1.8619441986083984,0.7316693829720654,0.7006030082759934,-240.06848908928072,0.0
199,3.3429317474365234,94.14311949056143,158.77797440956783,435.5205636176689,-259.2273098406813,97.91666666666667,1.7368092269410043,0.1,0.016427278518676758,0.5066437721252441,0.0468668,0.05455879,62.33775528684945,-0.029848760209059338,1.2641870837372744,97.91666666666667,6285,2.0297889709472656,0.698606674359727,0.6868830170361563,-243.3445918172489,0.0
200,4.5974180698394775,98.01294262313316,171.06625930369125,460.63264821540304,-247.69357802526196,97.91666666666667,1.7181355994702685,0.1,0.03178000450134277,0.36055445671081543,0.048724603,0.0576899,65.90527402047782,-0.02916923482166708,1.3412178072674674,97.91666666666667,6315,1.3740551471710205,0.7577956645860138,0.7439602856316848,-227.62536285014266,0.0
201,4.611856698989868,98.74832464774848,168.20844382070447,444.6964120295569,-203.22212961524383,96.875,1.5104596081862973,0.1,0.01076054573059082,0.3522825241088867,0.04956875,0.06546848,69.18957908320488,-0.03095519776661054,1.3431359121671396,96.875,6182,1.588592290878296,0.7057906172854235,0.7024827505984569,-186.83663494124858,0.0
202,5.0411317348480225,101.32354825768068,151.4547480674783,430.56697725421594,-237.72165926958888,100.0,1.642449524083732,0.1,0.015566587448120117,0.3412802219390869,0.046320923,0.056785516,72.40297600065246,-0.02839568545533068,1.367509160456229,100.0,6502,1.8801863193511963,0.7082511532924929,0.6681552873853723,-170.67048356058245,0.0
203,4.79272723197937,113.77814949289659,165.70578826306405,493.40457063180946,-144.0715779510559,96.875,1.6739073930183437,0.1,0.01118159294128418,0.42131662368774414,0.04949105,0.059964757,76.54049334987687,-0.029102355297479062,1.539877893917639,96.875,6398,2.2938647270202637,0.6777290623374858,0.6644940456200144,-156.93878530336698,0.0
204,3.364426374435425,113.39251352568813,181.7131074019018,489.6447458977793,-169.1089434965593,97.91666666666667,1.6146021702680204,0.1,0.011160135269165039,0.43728065490722656,0.04727652,0.05935195,80.22569536745799,-0.030724955339367848,1.540047343999186,97.91666666666667,6089,1.5808608531951904,0.6363132818805218,0.6050773488694203,-165.95129800506476,0.0
205,4.41670298576355,113.51441453288265,152.28086226606797,401.8965140784471,-170.7594644274585,97.91666666666667,1.620754149548803,0.1,0.016229867935180664,0.4378993511199951,0.04763051,0.057694178,83.55456728400046,-0.02817586479453485,1.5174083211986666,97.91666666666667,6384,2.592057704925537,0.6270113585262409,0.6442274030378883,-165.30500752292593,0.0
206,3.7480220794677734,141.73551837402871,159.88748211873062,511.1397277844993,-162.13460134313993,97.91666666666667,1.7762231299227003,0.1,0.017507553100585938,0.4740629196166992,0.04916991,0.05578298,89.37266239300328,-0.0259336067658531,1.9067733935726752,97.91666666666667,6535,1.4926083087921143,0.7009344504979519,0.6068360551337527,-142.28932664401765,0.0
207,3.6344380378723145,114.59846763669411,160.38010780859315,473.0133872588011,-327.74344999575874,96.875,1.7588160739216847,0.1,0.016080856323242188,0.33249735832214355,0.050135553,0.059641387,91.89524291737237,-0.02671031854188997,1.5476628729284687,96.875,6548,1.5857830047607422,0.7407339368218125,0.6763600564099682,-108.40010532953694,0.0
208,3.5336625576019287,131.10584242481931,164.15170326088946,466.1527799962256,-138.01787124663403,95.83333333333333,1.6004647562530856,0.1,0.01677870750427246,0.39920711517333984,0.049273863,0.060409997,95.81630286811708,-0.026675244253885528,1.7760948119238849,95.83333333333333,6485,2.1783618927001953,0.6167525140956174,0.6044341805961928,-116.90503793885526,0.0
209,4.678974628448486,141.93747113027402,162.7458778234426,480.61737982962495,-306.3268985157261,97.91666666666667,1.611845967999499,0.1,0.014174699783325195,0.3790287971496582,0.048189096,0.059994735,100.42841969433277,-0.026126525029905767,1.905430664510731,97.91666666666667,6598,1.8338038921356201,0.6067141221116924,0.586210529573878,-87.28143712323968,0.0
210,4.41385817527771,144.19043373753573,153.6395911237305,471.55779997234134,-122.63181389660039,97.91666666666667,1.6802248564220952,0.1,0.019132375717163086,0.37194323539733887,0.04884043,0.05937577,104.80462109865309,-0.02511510134829685,1.9512168103105398,97.91666666666667,6560,1.4971609115600586,0.5577225813993364,0.5433366084151501,-88.6497193980647,0.0
211,4.8193042278289795,133.6218680251376,155.11718832653614,492.1106090384992,-155.68772702271906,97.91666666666667,1.6971581141717056,0.1,0.032224416732788086,0.39357924461364746,0.049289096,0.05990073,107.68634579130155,-0.025489829128016086,1.8141057169838746,97.91666666666667,6602,2.366464614868164,0.5955282117685955,0.5859194053712424,-91.84639941004733,0.0
212,4.661437511444092,163.5547499459935,160.79161715232502,451.87299050409223,-104.69138711041435,100.0,1.7230596818069495,0.1,0.01658940315246582,0.4132392406463623,0.049280155,0.05580403,113.27318620677075,-0.023532757609841127,2.20049848666751,100.0,6628,1.7884438037872314,0.5594603809384278,0.5419750038360329,-69.34261662066369,0.0
213,3.463595151901245,162.66358751891966,153.2003148487603,471.1000122466597,-133.81321272165027,100.0,1.5657071674695002,0.1,0.015924453735351562,0.2698791027069092,0.046022996,0.060437225,118.21222633798564,-0.02465868506932749,2.182784021527833,100.0,6575,1.3857874870300293,0.5323576186249331,0.5213534307229681,-71.48666648308425,0.0
214,4.731595516204834,171.20336049960167,162.25316513252542,496.22074600871287,-185.4534053508289,96.875,1.690493214914407,0.1,0.03140687942504883,0.4044780731201172,0.049599387,0.05610441,123.51133975414726,-0.023732665014204544,2.295835317226237,96.875,6747,1.802549123764038,0.5588370424856015,0.5450735088967591,-65.2311429998136,0.0
215,4.218777894973755,128.83621745118236,165.3988915930962,445.45446741064364,-154.94853134434504,97.91666666666667,1.5882776776100729,0.1,0.03183102607727051,0.33016324043273926,0.049348675,0.0641507,124.04382752385077,-0.028040800399369403,1.7300195263082074,97.91666666666667,6309,1.8241660594940186,0.5733900954061751,0.5413814436176659,-88.5957213894149,0.0
216,4.421044111251831,164.17753947539236,164.62301658047667,530.1252147080045,-164.90348846527547,97.91666666666667,1.7330163308040702,0.1,0.022352218627929688,0.48723387718200684,0.045222115,0.052485384,128.05719871900493,-0.024508285293154904,2.220480318214623,97.91666666666667,6537,1.7779617309570312,0.5165818947338066,0.49267563515866347,-84.13505150625849,0.0
217,4.695197820663452,145.87626493560617,165.50995901244679,465.3227842608606,-174.24101443795203,98.95833333333333,1.6286738550313677,0.1,0.015999794006347656,0.2841458320617676,0.049148813,0.05837694,129.83910534066504,-0.026038128942639144,1.9496212991425173,98.95833333333333,6567,1.9816641807556152,0.6322000809410965,0.5862397946280851,-59.52120160997977,0.0
218,4.814985275268555,162.2273040515471,154.87030307943547,492.87304501505747,-204.00079485741824,97.91666666666667,1.7461660733412743,0.1,0.01591634750366211,0.32180166244506836,0.049838223,0.055504266,133.07792521175327,-0.024289140870049086,2.167024112548433,97.91666666666667,6643,1.8348643779754639,0.5205243061238434,0.49303975638933456,-34.899250637205235,0.0
219,3.5963432788848877,172.6502369556106,173.71015530207345,485.3737872324168,-258.9683520059005,97.91666666666667,1.621304862011545,0.1,0.011049509048461914,0.4212043285369873,0.04827932,0.059038334,137.035156386139,-0.024461061224009262,2.31675452091025,97.91666666666667,6680,1.6214001178741455,0.561334903268938,0.5515944662712805,-6.466242277175686,100.0
220,4.673038959503174,175.88671047437217,168.67410347893204,516.9681052252034,-119.56207270488531,100.0,1.6497884493045019,0.1,0.016931533813476562,0.3581218719482422,0.050143242,0.05811813,140.92031179496232,-0.024126386968901944,2.3637404937378674,100.0,6688,1.9973227977752686,0.5117424578885318,0.4985294295773511,194.29343468661673,100.0
221,4.882378816604614,182.92171371678762,181.44818053125024,521.6944469922892,-106.78187648992505,100.0,1.702469055733778,0.1,0.02510237693786621,0.34810876846313477,0.049667206,0.059248567,145.12045198714486,-0.024106186516480787,2.4520269214344146,100.0,6483,2.471705675125122,0.5054881264497573,0.4903982810417431,203.9611351423872,100.0
222,4.589702606201172,171.463725645329,186.22798119825848,512.2422173463226,-177.977311904414,98.95833333333333,1.7272501804772389,0.1,0.029384136199951172,0.3794724941253662,0.049929105,0.05657202,147.75477935296328,-0.025024004802161538,2.2950662194127456,98.95833333333333,6478,1.9098336696624756,0.5391017038824917,0.5201505564696216,14.933832554217387,100.0
223,4.260530948638916,158.03742619718147,178.7192629140058,531.9433844529624,-160.07523382408618,96.875,1.5542488671454506,0.1,0.01646137237548828,0.35260748863220215,0.047680747,0.061689872,148.7830440373851,-0.026186834255882554,2.125194477085398,96.875,6524,1.8525798320770264,0.5617921324086054,0.5450045481627088,-42.22135879062669,0.0
224,3.612135410308838,186.28559778803194,180.10138981312562,496.1023925832655,-120.99006306954671,100.0,1.6489026610474193,0.1,0.02100682258605957,0.37111449241638184,0.047022015,0.056723308,152.53329941244982,-0.024578769404890826,2.492538662567786,100.0,6510,1.821180820465088,0.4811296662996563,0.4464374177540919,-21.135642676706446,100.0
225,4.320651531219482,202.92426405879633,190.85942175466423,524.0039099180591,-152.1413121168309,98.95833333333333,1.6174505838777213,0.1,0.016841411590576172,0.28932762145996094,0.048548184,0.05964875,157.5723958770845,-0.023402422720598098,2.730849100412382,98.95833333333333,6501,1.5158085823059082,0.4826573735132637,0.4613602166564431,-58.268871933824485,100.0
226,3.709599733352661,198.28898735148854,176.40424196335428,471.4370655113393,-163.29350997148902,96.875,1.568837041218092,0.1,0.016951799392700195,0.4028019905090332,0.04879695,0.060535457,161.6440550245249,-0.02302010485867959,2.6607153053527934,96.875,6620,1.6577579975128174,0.45825731325226027,0.4464008337979471,-64.13992741711058,0.0
227,4.637754201889038,197.28018064798792,178.32333550976873,490.6801341445872,-105.60590283578549,100.0,1.7540629922016266,0.1,0.016957521438598633,0.3554253578186035,0.049390126,0.057313707,165.2076675868712,-0.02333176003549663,2.6464065247384165,100.0,6578,1.7149035930633545,0.4752746650981778,0.45904531166175794,-29.522702127051677,100.0
228,3.425147771835327,171.03224938989692,190.3752349344666,523.0266049213105,-158.3980822610086,98.95833333333333,1.5626907643360175,0.1,0.020829439163208008,0.39782166481018066,0.044975992,0.05742986,165.79012576717378,-0.02656995775082434,2.291300478937552,98.95833333333333,6318,1.8797388076782227,0.48000166849607573,0.4505549624166572,-30.301167623539442,100.0
229,3.4185311794281006,234.36465915913718,175.51269103198942,515.5431721223399,-124.09520147354748,100.0,1.7360968015017497,0.1,0.017833948135375977,0.3728055953979492,0.049201045,0.05569834,172.64757910637013,-0.021135486842847703,3.1246136819669297,100.0,6719,1.5553154945373535,0.4139709855609271,0.3645357609575807,-45.391347490925824,100.0
230,4.5206780433654785,181.49789968741732,184.95520391253035,481.1163276950298,-135.1892049543132,98.95833333333333,1.5408485562733605,0.1,0.010408878326416016,0.3608279228210449,0.04683841,0.05930692,173.53261116447487,-0.025026977680536036,2.4386264365553156,98.95833333333333,6426,1.5285935401916504,0.4928083164374644,0.45797426671175995,-35.751045366404135,100.0
231,3.73968768119812,166.72827093373738,178.11156907457774,506.6605756414648,-129.4088008232358,98.95833333333333,1.5440422208737856,0.1,0.01169896125793457,0.3305015563964844,0.040579524,0.055534728,172.85217714140114,-0.02622976781833829,2.2585739178592408,98.95833333333333,6423,1.3036069869995117,0.4652764006088658,0.44549985223587446,-36.706117267287766,100.0
232,3.528562068939209,201.9158400250948,175.32330028464156,531.9990253918302,-160.89816254937506,97.91666666666667,1.7382603874622606,0.1,0.011729955673217773,0.3678591251373291,0.047416173,0.056988504,175.7585434297705,-0.022137160412827577,2.702779726353785,97.91666666666667,6759,1.3574881553649902,0.462090253395557,0.44907524986857605,-66.39321141820567,0.0
233,4.6383750438690186,226.1704714179585,165.97568271814845,491.71672149115045,-109.28921188697306,98.95833333333333,1.7612604731234593,0.1,0.011776447296142578,0.39948177337646484,0.048557717,0.05448877,180.79973622858932,-0.020046494096153698,3.0238127092986478,98.95833333333333,6823,1.7436671257019043,0.3974193058997145,0.38761577745528575,-28.384394504055784,100.0
234,4.852235794067383,206.773382653479,175.36816499202973,461.1789319675587,-106.92268647994811,100.0,1.780987298597657,0.1,0.010756492614746094,0.4348900318145752,0.049330246,0.055071555,183.3971008710783,-0.022452819792092373,2.7678555847594164,100.0,6675,1.7893636226654053,0.432469390532497,0.4126424140347067,-45.85958122886378,0.0
235,4.5552284717559814,194.86014852484243,178.14587238820295,521.5773399280507,-96.56453259601308,98.95833333333333,1.5936171945015436,0.1,0.01598954200744629,0.31897687911987305,0.048198488,0.06007557,184.54340563645474,-0.022933634082514715,2.610986186987915,98.95833333333333,6603,1.580275297164917,0.4460000779644532,0.425683149697556,-14.940062120823521,100.0
236,4.505570650100708,216.43684885183188,175.2182808291796,522.9736398777486,-86.8681842007617,100.0,1.5790290113695498,0.1,0.041356801986694336,0.42397022247314453,0.049549177,0.06347091,187.73274995799244,-0.021735330405037223,2.906618645951722,100.0,6673,2.4403679370880127,0.410322774661549,0.3974571921692657,-17.326660627143106,100.0
237,4.499841213226318,259.53229623718215,175.87015063860648,516.5248865151308,-109.77856406717544,100.0,1.6217008870544907,0.1,0.042704105377197266,0.5646491050720215,0.044149105,0.054807235,194.91270458591143,-0.01902616775106348,3.4783312048444315,100.0,6742,2.3915746212005615,0.3495041596193347,0.33655968743241027,5.439498035431559,100.0
238,4.423128843307495,223.65772540295734,185.87833344453296,504.8970410261045,-165.36727067371282,98.95833333333333,1.575807471054633,0.1,0.011389732360839844,0.37444353103637695,0.049282957,0.0621658,197.78720666761603,-0.02209448604752026,2.986521156605953,98.95833333333333,6591,1.5149948596954346,0.44241605533536804,0.3806022124845741,-14.531702770210492,100.0
239,3.9493489265441895,259.50875141890657,144.64968677510356,511.24605866135954,-102.79321940366646,98.95833333333333,1.7665963799634088,0.1,0.01771402359008789,0.42098307609558105,0.0494599,0.053974863,203.9593611427451,-0.01725818281411105,3.4681091872379355,98.95833333333333,6980,1.4169771671295166,0.3285512846351727,0.2975558987579691,-8.027293499620493,0.0
240,4.9404966831207275,242.7104610327717,155.4083300415612,496.47292371928614,-91.53757998771161,100.0,1.6999694434969002,0.1,0.017281770706176758,0.435638427734375,0.04702228,0.05883197,207.83447113174776,-0.018599097122540098,3.243979162434872,100.0,6863,1.2163684368133545,0.3346591592378426,0.32625327603917875,194.5487569565751,100.0
241,4.786017894744873,245.83001731798856,171.49356326958574,526.5980791455659,-132.6213180537017,98.95833333333333,1.6255544186902469,0.1,0.008765935897827148,0.33298826217651367,0.048806034,0.056905665,211.63402575037185,-0.019059540954954237,3.281112609052579,98.95833333333333,6818,1.1550841331481934,0.3711707055199762,0.36570772099171295,193.47284400830338,100.0
242,4.8621368408203125,299.69672553231254,156.90598915757803,516.4551724082589,-123.59320360787936,98.95833333333333,1.7089376730516854,0.1,0.016141653060913086,0.39339494705200195,0.049043044,0.054428745,220.44029572856593,-0.01584962943257122,3.9966292259575433,98.95833333333333,6941,1.2685506343841553,0.2900992821086852,0.25434409447533374,205.2181204220332,100.0
243,3.936225414276123,252.42136484016206,172.6518768492292,515.2962607036033,-103.64252615257094,100.0,1.683733979921052,0.1,0.011080265045166016,0.3350670337677002,0.049027644,0.054575633,223.63840263972554,-0.020165435671105274,3.361716708343453,100.0,6769,1.6308238506317139,0.3448094534932775,0.316159969387047,192.02154165232807,0.0
244,4.74850058555603,250.78049366936173,184.97995946673154,524.9043879949348,-94.54366927540903,100.0,1.8240396567540824,0.1,0.017084121704101562,0.397693395614624,0.044535056,0.050096616,226.35261174268916,-0.019773301327916076,3.3513464202581247,100.0,6725,1.788787841796875,0.3532424443806278,0.3408891220992408,-16.722024777318584,0.0
245,4.607945919036865,263.07903073079825,170.9623647845052,506.19311550527385,-83.0500356224322,100.0,1.5700565379129965,0.1,0.015948772430419922,0.4441068172454834,0.04247488,0.053831495,230.02525364150006,-0.01892454718535236,3.5232123939171314,100.0,6783,1.9735255241394043,0.2885022225514942,0.2859900880823385,-32.9012901466572,0.0
246,4.686357021331787,269.00948792634625,165.25293087501788,522.0849676413898,-130.13699065114827,100.0,1.7837896865174319,0.1,0.008852481842041016,0.32515954971313477,0.04556106,0.05054431,233.9236770699847,-0.017927313939189986,3.5800854502554835,100.0,6852,1.4435558319091797,0.29943985548033997,0.28484386753839225,-27.926547773867572,0.0
247,4.547713994979858,272.80900361855396,161.37405057446736,528.1303302075667,-146.10982183021957,100.0,1.8756425298270911,0.1,0.009686470031738281,0.28191375732421875,0.04880181,0.049689643,237.81220972484164,-0.018518347397220924,3.634403570061225,100.0,6864,1.5641841888427734,0.27433527536927244,0.2685954453545358,-23.647401616496513,0.0
248,3.679692268371582,298.27898893049684,155.34845295805394,514.4718636006434,-89.99725301105255,100.0,1.8374744040718807,0.1,0.01618027687072754,0.3258059024810791,0.049075883,0.049621306,243.85888764540715,-0.016449671915002656,3.9918065101998756,100.0,6940,2.0889339447021484,0.24490538073661894,0.22973934913701133,-41.60135567221471,0.0
249,4.660288572311401,281.3006861538334,172.04143210797886,526.4991962983801,-82.20723524325334,100.0,1.7117243383972363,0.1,0.011674880981445312,0.38985490798950195,0.049814418,0.057039652,247.6030674962498,-0.017862166667356964,3.768995470062413,100.0,6887,1.3578767776489258,0.3030300164696477,0.29989959495503304,-66.13462274917632,0.0
250,3.9192397594451904,293.94535820639953,147.5861148668128,526.3633352674096,-119.12593408128612,100.0,1.8730697138860284,0.1,0.017183303833007812,0.5017294883728027,0.04650617,0.047093455,252.23729656726476,-0.015590274123258224,3.916731144789626,100.0,6983,2.282191038131714,0.23932015575700444,0.2183420680309663,-28.726570607961467,100.0
251,4.692253112792969,305.1588763205504,142.00105640268498,507.64197876498463,-160.6313834148062,100.0,1.7276673792030135,0.1,0.017832279205322266,0.4119710922241211,0.048630636,0.053457268,257.5294545425933,-0.015254627953385516,4.067963357525286,100.0,7053,2.169739007949829,0.21949359904718385,0.2113293829206154,-23.362182042503882,0.0
252,4.061110496520996,297.4191136895137,161.10654570401672,511.47853283059635,-96.18465162746767,98.95833333333333,1.8432854526621436,0.1,0.01638031005859375,0.5373761653900146,0.04682757,0.04790856,261.51842045728534,-0.016828665967103803,3.976436175213299,98.95833333333333,6916,1.8590600490570068,0.25086185380849846,0.2411987630827901,196.5334745574954,100.0
253,4.529889106750488,272.2971315173631,176.78566132046478,528.0409466998675,-77.62710638729598,100.0,1.8913042658920187,0.1,0.044389963150024414,0.47744035720825195,0.04813836,0.049820147,262.5962915632931,-0.018388919996344528,3.6390157016098725,100.0,6801,2.1515400409698486,0.288419749054668,0.27816697187677586,200.01045351891372,100.0
254,4.675859451293945,281.6231915556309,187.62545235612362,528.543512108478,-119.51585446404025,100.0,1.6088919388184586,0.1,0.016056299209594727,0.4131815433502197,0.048332922,0.055967268,264.49898156252686,-0.018815012768391967,3.774146770890917,100.0,6737,1.891918659210205,0.28355472618442523,0.2650447563994289,199.39365445574285,100.0
255,4.455812931060791,297.345665304514,155.6403036694149,524.8902215626201,-68.31003080215288,98.95833333333333,1.748415754785656,0.1,0.03212857246398926,0.40727782249450684,0.049270347,0.05548529,267.78364993672557,-0.01603005646078891,3.9595935720756317,98.95833333333333,6925,2.0211658477783203,0.24524453149854564,0.24456105169818856,233.3783792799291,100.0
256,5.468523979187012,326.0661195009782,173.83153044986787,533.1599018306786,-92.78338295574247,100.0,1.7007003220241217,0.1,0.024199247360229492,0.3670079708099365,0.048531722,0.053018242,273.61189689315086,-0.015530939875377583,4.339764726020694,100.0,6876,1.8563759326934814,0.2178771491856296,0.2055822065792048,230.9930266017321,100.0
257,4.852392196655273,277.6461886554967,200.30260657651147,528.0443724477401,-123.715177503872,100.0,1.615401208217212,0.1,0.015953540802001953,0.3288586139678955,0.04683672,0.05458701,274.0153260693855,-0.01965382512126421,3.7030370184898627,100.0,6670,1.7211298942565918,0.32655991179791555,0.3134103229544151,217.54733094400504,100.0
258,3.725813150405884,293.45346184322415,161.4830479531821,520.7711215890375,-76.1843157317897,100.0,1.78031687776038,0.1,0.009492874145507812,0.34948015213012695,0.047758583,0.051120445,275.95913964676936,-0.016412544931398747,3.916484540356192,100.0,6975,1.4788975715637207,0.2742852652558768,0.2600380761095533,240.69759755350026,100.0
259,5.24515175819397,321.7218427410061,160.46309958077717,533.0173079590843,-109.13082708998664,100.0,1.756042218296171,0.1,0.022139787673950195,0.37844347953796387,0.04936896,0.053503934,280.53540995619306,-0.015614239667551369,4.293225523669938,100.0,6945,1.6061499118804932,0.2208073139697336,0.20787199488211677,216.08155951824074,100.0
260,4.607151985168457,296.0205011592895,163.20676069552673,528.9729639109706,-98.97822657168433,100.0,1.8153569198013273,0.1,0.01717400550842285,0.3811628818511963,0.05056802,0.05282998,282.0839190765027,-0.01681670409593737,3.9427556727877278,100.0,6907,1.7350130081176758,0.25116512498427795,0.23334926929796745,192.79654758480257,0.0
261,4.869625091552734,296.1338998959361,154.8541650661262,515.7916893557164,-74.19405547198268,100.0,1.7153768779395386,0.1,0.009442567825317383,0.3542606830596924,0.050342645,0.0537117,283.48891715844604,-0.01650392428600872,3.9470272687277324,100.0,6926,1.8725292682647705,0.2306183413929004,0.22082074337302346,211.9261731359263,100.0
262,4.974776029586792,309.19071518855236,167.6785802288091,523.4007496819727,-89.79457976712428,100.0,1.7745133310861474,0.1,0.021091938018798828,0.38351941108703613,0.048446894,0.050676294,286.0590969614567,-0.016119248790408214,4.113069710574459,100.0,6897,1.7551372051239014,0.22384362717061604,0.21877126949715797,196.35743458376587,0.0
263,3.509648084640503,286.0788122934732,155.79464688040562,520.6539576910301,-50.91757185067387,100.0,1.6832152521307873,0.1,0.03075575828552246,0.35620880126953125,0.05070964,0.05493669,286.06106849465834,-0.016839444119942214,3.818180208505223,100.0,6961,1.731910228729248,0.28534276545666276,0.26909346135692014,196.18239342919006,0.0
264,4.513235092163086,295.34066466307075,172.398141591393,525.636867228601,-107.00215527254733,100.0,1.6352378908716143,0.1,0.03216838836669922,0.431262731552124,0.049326055,0.053061385,286.9890281114996,-0.017049396088572293,3.9476670961620512,100.0,6823,2.2580904960632324,0.2447085566145951,0.24097481727368064,182.1908132742504,0.0
265,4.7101874351501465,335.1559295425043,149.3367691189313,528.6433200908625,-70.3920387706186,100.0,1.667622820225119,0.1,0.011179447174072266,0.38706421852111816,0.049793202,0.057283517,291.8057182546001,-0.013744842097155803,4.465264220022218,100.0,7000,1.595841646194458,0.19373155512008047,0.19092454916496107,201.40100435175168,100.0
266,4.635096549987793,312.8867307223204,176.53873307722992,541.9318066065728,-80.74289011233328,100.0,1.7267923300819297,0.1,0.009506940841674805,0.273343563079834,0.04893596,0.05521535,293.91381950137213,-0.016355712802915857,4.1635998471733116,100.0,6811,1.4779901504516602,0.24183562961580363,0.21564107960389045,195.6471807171487,100.0
267,4.670863389968872,345.42684171147516,131.97654332130597,536.6508968933833,-80.54761353410947,100.0,1.781675121738404,0.1,0.016448974609375,0.42705821990966797,0.050540727,0.056143023,299.06512172238246,-0.013147504270276484,4.604069618954676,100.0,7084,1.9588675498962402,0.1706428317611483,0.1524495473827054,194.81914436605604,100.0
268,4.83405613899231,325.797823345963,152.1898730856705,528.359174526556,-81.3869546118143,100.0,1.658843062058571,0.1,0.010260581970214844,0.39606404304504395,0.050536763,0.057053674,301.7383918847405,-0.014409659413745187,4.34967494367434,100.0,6962,1.903226375579834,0.1811810744989812,0.17515304433230452,180.77925858014737,0.0
269,4.965660810470581,299.3053820779867,196.6758818222758,533.7624143453794,-171.45138089251353,98.95833333333333,1.5980218629950735,0.1,0.016173124313354492,0.3649599552154541,0.04903635,0.05182026,301.49509090406514,-0.017909929627391796,4.004770489130363,98.95833333333333,6720,1.9470412731170654,0.26342032885764355,0.25437447317697126,178.25440515358048,0.0
270,4.697533369064331,315.9242736901252,179.35530006321423,532.0835561328046,-114.5796913648747,100.0,1.602869716919099,0.1,0.015947341918945312,0.4249749183654785,0.04984256,0.06062969,302.9380091826711,-0.01618329327685669,4.209928475868794,100.0,6803,2.054548501968384,0.22579697482990377,0.21810651833677855,179.78917863184986,0.0
271,3.927384853363037,320.2928858137769,174.83070250102503,539.5213812233916,-151.7844808550285,98.95833333333333,1.7344777268258011,0.1,0.01595759391784668,0.38590407371520996,0.0506032,0.050975993,304.6734968457817,-0.016039605081171276,4.2708176608640285,98.95833333333333,6887,1.6273458003997803,0.21419361301826687,0.20159037555921072,174.62847957892765,0.0
272,3.8681888580322266,301.5548274953472,172.73180818834498,533.6825308577506,-130.63698432411576,100.0,1.5754712133300917,0.1,0.0158236026763916,0.3625214099884033,0.048493292,0.05665762,304.36162991073826,-0.016972878481656895,4.025518886144044,100.0,6857,1.4266893863677979,0.23374228072661526,0.22806770633749326,180.0907200182793,0.0
273,4.441869020462036,319.13576253969364,161.91599128514883,541.4424532414047,-97.33189072640045,100.0,1.8086576904249243,0.1,0.032463788986206055,0.3708679676055908,0.049157258,0.05042948,305.8390431736338,-0.015124130701849666,4.267171798850611,100.0,6869,1.7950246334075928,0.17983063963738036,0.17211552413020365,127.01846005483668,0.0
274,4.410558700561523,306.22864408941047,176.16694040861424,526.4741782747606,-100.06929596743305,100.0,1.7745068781518183,0.1,0.009329557418823242,0.3366434574127197,0.049623236,0.054859392,305.8780032652115,-0.016133791119694593,4.086604091008768,100.0,6839,1.6059997081756592,0.23844192331890735,0.23313074208674764,177.1012771763319,0.0
275,3.6464874744415283,345.3046806003451,133.2292247612428,523.5338968212475,-55.34463959028217,100.0,1.6065799032819341,0.1,0.044031381607055664,0.4339590072631836,0.05041276,0.05821819,309.82067099872484,-0.012862246646048861,4.598442666430567,100.0,7031,1.9713735580444336,0.13718492685277006,0.12627871076901626,183.17652061896223,0.0
276,3.620887517929077,304.6775590707903,195.07884384069223,536.5301166974343,-110.93552207980059,100.0,1.6580694520279429,0.1,0.009227752685546875,0.43242454528808594,0.051304247,0.05471301,309.3063598059314,-0.017743369534686616,4.074988304876389,100.0,6731,1.383610725402832,0.26192460594888034,0.24400973759213676,62.22544934138915,0.0
277,4.32491397857666,340.98899762875635,144.72433414625397,542.2164277155806,-75.00020333649235,100.0,1.5905092358435604,0.1,0.02481222152709961,0.36321592330932617,0.049473997,0.057971578,312.4746235882139,-0.01403581932593205,4.537092833731092,100.0,7035,2.349669933319092,0.17644109720680898,0.16332832012025011,176.45827023387565,0.0
278,4.028501749038696,356.8885094918049,164.16456718861164,530.3433152933105,-131.23149474581243,100.0,1.5943086186916924,0.1,0.03263068199157715,0.41618776321411133,0.04988845,0.057381075,316.916012178573,-0.013715691676397626,4.755849133359451,100.0,6963,1.7694368362426758,0.17767276324227124,0.1680596361299829,-53.640965520285164,100.0
279,5.0192883014678955,354.6323427374291,167.13901922449998,526.8761011512089,-83.58210596145042,100.0,1.6449262789133465,0.1,0.0164034366607666,0.3713500499725342,0.047992863,0.0560677,320.6876452344586,-0.014485385588776406,4.722711598508002,100.0,6904,1.802581787109375,0.16403839829002181,0.15424842872295277,-65.86348908610165,0.0
280,5.074914216995239,318.3673914169928,195.66015868545838,540.3732542053417,-122.35804214369341,98.95833333333333,1.575694219600911,0.1,0.031854867935180664,0.37589454650878906,0.04982481,0.056549698,320.45561985271206,-0.017115499649019872,4.241051464818746,98.95833333333333,6726,1.958681583404541,0.23934401406760933,0.22300324797603935,-77.31540737134674,0.0
281,4.760254144668579,345.5485333982685,179.394628903611,528.0605088279956,-83.90072269994522,100.0,1.7496078530191965,0.1,0.017467975616455078,0.3490781784057617,0.04919496,0.052244388,322.96491120726773,-0.015075397562761847,4.621489766666744,100.0,6880,2.0413239002227783,0.2053543280301639,0.19771771571373442,-82.66289055478015,0.0
282,3.999664306640625,340.6959854601075,154.23677906527152,527.6982176957526,-60.72120191799178,100.0,1.5899052291011648,0.1,0.03208661079406738,0.32392120361328125,0.049241185,0.05787416,324.7380186325517,-0.014289577829450591,4.541126161240185,100.0,6946,1.7580821514129639,0.1691124253698526,0.16351207070407497,-85.30165941017742,0.0
283,3.7986114025115967,354.9618939487125,153.82633989803892,530.1647556372155,-79.97281600598113,100.0,1.7204882373503028,0.1,0.03199481964111328,0.4156665802001953,0.04859772,0.052523315,327.76040616416776,-0.0133358695921501,4.729891180317693,100.0,6964,1.509916067123413,0.13654415229255704,0.12508510814618382,-50.50249730174623,100.0
284,3.6694819927215576,330.9310113285899,172.3610352811926,535.6895360235924,-139.08998775926904,100.0,1.6527607537608522,0.1,0.01658320426940918,0.41635847091674805,0.050731797,0.052641276,328.07746668061,-0.015156385507123163,4.412245358351903,100.0,6874,1.9631538391113281,0.19004784541220257,0.17774065403742834,106.10867825998197,0.0
285,4.877557039260864,360.9724342509134,166.58956437225916,521.794366273116,-92.77388675067914,100.0,1.8603767320688895,0.1,0.032225847244262695,0.34344959259033203,0.04957283,0.046686526,331.3669634376403,-0.013910987294779955,4.8044443953658025,100.0,6895,2.0589184761047363,0.1648230219177645,0.15456088629136686,-6.680622168905311,0.0
286,3.926614284515381,357.73280404435263,152.67859319178837,540.7766135112491,-110.27025111514402,100.0,1.6630492875029659,0.1,0.01566624641418457,0.3785972595214844,0.04963768,0.053585235,334.00354749831155,-0.01362161321359775,4.761594256943854,100.0,6992,1.6367053985595703,0.1495384215219838,0.13859006134099539,-36.270603530757185,0.0
287,3.7815606594085693,362.0000616981044,161.95899301064352,523.9498146529082,-65.39373758469932,100.0,1.699579758469197,0.1,0.016053438186645508,0.4889810085296631,0.048438627,0.054322753,336.80319891829083,-0.013529979928777197,4.82980740280787,100.0,6946,2.156604766845703,0.15372321757415258,0.14905461649458152,63.60495516650311,0.0
288,3.4552605152130127,325.25774743546793,185.84747309441832,532.1298980843485,-96.59817209266713,100.0,1.794664467369987,0.1,0.0322721004486084,0.3087756633758545,0.048536576,0.049832582,335.64865377000854,-0.01650671986393722,4.332577039732729,100.0,6878,1.5915813446044922,0.24449272857115922,0.2292273645129801,99.73737460590414,0.0
289,5.024997234344482,371.8473231516684,132.20432439502144,524.7863158410976,-77.970605966991,100.0,1.7217466126011671,0.1,0.03204154968261719,0.35780811309814453,0.04910408,0.05222289,339.26852070817455,-0.011976214966266123,4.949341093751364,100.0,7052,1.8560161590576172,0.1196399094931786,0.10064812444201536,-18.232896047989694,0.0
290,4.882757663726807,352.9935147401555,148.68476610171552,526.753292899075,-137.9301654561473,100.0,1.6618485927031506,0.1,0.01785874366760254,0.3794994354248047,0.046411403,0.05159853,340.64102011137265,-0.013421982850636128,4.704413696280387,100.0,6990,1.6326508522033691,0.11904648369833795,0.11426919703969084,49.92718350662163,0.0
291,3.897266149520874,364.0135581682695,125.01944189207066,517.7378578473539,-54.19453279840708,100.0,1.7651457771954462,0.1,0.01706409454345703,0.43052172660827637,0.049207885,0.052201703,342.9782739170623,-0.012294684526108851,4.858635845644631,100.0,7078,1.749140739440918,0.10117164818068135,0.0980915426102579,54.193158006231315,0.0
292,4.800928592681885,341.421528113099,152.44561299938442,513.7290759133948,-98.02365031567238,98.95833333333333,1.714100511834174,0.1,0.01639866828918457,0.4222676753997803,0.048328478,0.044571266,342.82259933666603,-0.013842598894170395,4.553363565469983,98.95833333333333,6959,2.0280566215515137,0.1287665955552078,0.12255661797932413,111.07533983274607,0.0
293,4.857508897781372,363.0325932841754,125.01379739545887,529.5883698363152,-43.13255244873177,100.0,1.7989176087314178,0.1,0.05749988555908203,0.8087162971496582,0.048970595,0.05139018,344.843598731417,-0.012156428286534888,4.834819812284866,100.0,7101,2.1905951499938965,0.11845844527824535,0.11533011817023293,-39.5225447024726,0.0
294,5.371291399002075,367.4040699252676,128.17293909911086,542.1485800390575,-76.66249936921788,100.0,1.762270550582995,0.1,0.05005359649658203,0.5478014945983887,0.049475577,0.05124086,347.09964585080206,-0.012188791029630825,4.8911959328628045,100.0,7085,2.368471384048462,0.1133264372515133,0.1126003253883873,-90.28576596145125,0.0
295,4.87733793258667,349.91524936168054,159.25842247091714,541.7686308990177,-58.91640604269534,100.0,1.8528301647587029,0.1,0.037067413330078125,0.4895205497741699,0.047905434,0.04927028,347.38120620188994,-0.014287559188993985,4.66421816773557,100.0,7006,2.3307297229766846,0.1720988265988559,0.16647378409116673,-70.86812530090876,0.0
296,4.798115253448486,376.77637204026337,120.17855826591739,527.0783075182235,-11.515408254049593,100.0,1.8445542897741436,0.1,0.032135725021362305,0.40836024284362793,0.04955395,0.04928436,350.3207227857273,-0.011990230113325404,5.020125336528535,100.0,7109,2.336320638656616,0.10574434740929158,0.10300259485496163,-93.59871815123302,0.0
297,4.792333126068115,352.94504192040085,137.531661135206,530.1166860621676,-42.772021329609615,100.0,1.8423840117793757,0.1,0.016460657119750977,0.5560970306396484,0.048266564,0.04789407,350.58315469919467,-0.01315571117343674,4.702651197003422,100.0,7087,2.435681104660034,0.15614749837258807,0.1384659736166234,19.670179568383208,0.0
298,4.143271446228027,365.53095663569275,133.1811754983082,531.8717588811164,-81.49330219998957,100.0,1.6507540857867846,0.1,0.03209877014160156,0.4675765037536621,0.048323154,0.05499053,352.07793489284444,-0.012653693220091944,4.8773167242232915,100.0,7055,2.5473639965057373,0.13275545555391954,0.12049334739177692,22.856163394161406,0.0
299,4.2297163009643555,350.5968373514311,174.26648082040785,529.47433216684,-124.78370299977246,100.0,1.6849506079505094,0.1,0.03142213821411133,0.41446518898010254,0.0463531,0.05292787,351.9298251387031,-0.014450875712581178,4.672316911115061,100.0,6928,2.417937994003296,0.17043771019786313,0.16451055341307458,65.62033966272095,0.0
300,4.086862802505493,359.3843298723057,161.28197197362405,536.20191613774,-73.72149206544502,100.0,1.7227140866164172,0.1,0.03264021873474121,0.44800782203674316,0.0471992,0.05054608,352.6752756120634,-0.013990065795290352,4.7901962013229324,100.0,6955,1.6092333793640137,0.14580911003163158,0.1415618132197739,-70.97700463474567,0.0
301,4.919204950332642,336.6738273647765,160.18011741195596,524.758461551014,-97.17568433097915,100.0,1.7601742154696542,0.1,0.016048669815063477,0.39341211318969727,0.048814155,0.04902473,351.0751307873347,-0.014748476032207747,4.494729933483467,100.0,6938,1.4893333911895752,0.18374367166224453,0.16307267928655014,-50.459581029654444,0.0
302,3.6470627784729004,347.0518056941355,147.99293672780257,529.4856679318996,-104.38249342486009,100.0,1.6601249360535184,0.1,0.03192782402038574,0.5204522609710693,0.04815251,0.056615736,350.67279827801474,-0.013742643791497172,4.622485325677854,100.0,7052,2.181593894958496,0.16482711619958618,0.1593711668651749,-36.73845076926356,0.0
303,3.507704257965088,309.79565818271317,195.7058137434196,535.7660525796069,-101.66066162712019,100.0,1.6799669185110295,0.1,0.03263354301452637,0.4421861171722412,0.047229446,0.051700734,346.5850842684846,-0.017725564619293966,4.123305050912187,100.0,6806,2.1286983489990234,0.24067417571772518,0.2274556666595208,-45.97229642228788,0.0
304,4.674381256103516,360.89738350913814,151.2569101702323,525.1686501360898,-68.01786647555352,100.0,1.8426672525022674,0.1,0.03173017501831055,0.5122067928314209,0.04814514,0.04597309,348.01631419254994,-0.013498807190527826,4.815555655992163,100.0,6983,1.489867925643921,0.13952023779863795,0.12906066650032919,-53.22400522996384,100.0
305,3.642350435256958,356.26413146846636,166.21093619022798,541.0212289387646,-98.10730752515916,100.0,1.705460077066643,0.1,0.01794266700744629,0.44565606117248535,0.048887435,0.05125328,348.8410959201416,-0.014239261522833663,4.747726909081691,100.0,7000,1.9992046356201172,0.17380733783254043,0.18334772290746393,-81.21800821496909,0.0
306,4.815868139266968,339.9935953530334,157.12306762729713,527.9366985560399,-75.93058606833881,100.0,1.7615237997097246,0.1,0.017075300216674805,0.5092582702636719,0.046584424,0.05118094,347.9563458634308,-0.014686870324703742,4.530757735570076,100.0,6996,2.4113476276397705,0.1957961861491639,0.15320856284903556,30.700994123832132,0.0
307,3.739208936691284,366.6009545159042,150.4958903452607,525.8886631902087,-57.52413740592321,100.0,1.8206636115891006,0.1,0.01711273193359375,0.42856335639953613,0.04853864,0.048946563,349.8208067286781,-0.012796838214897537,4.886632603337073,100.0,7009,1.6421358585357666,0.1336075569847742,0.1275758848042421,27.379367644467067,0.0
308,4.741218090057373,394.1260995688138,132.4346385339118,531.4732286921303,-73.54548224236106,100.0,1.6099964739775263,0.1,0.010972976684570312,0.42582249641418457,0.04847276,0.051984053,354.2513360126917,-0.011501348803136904,5.255691697224759,100.0,7040,1.2769691944122314,0.08248468067184703,0.07745864778104562,118.01358586807842,0.0
309,5.112025260925293,370.47070088555074,153.05126665316263,523.6514349073537,-101.09405698220277,100.0,1.7618029306155214,0.1,0.016781091690063477,0.4064750671386719,0.04892695,0.050570697,355.8732724999776,-0.013000251561657959,4.942823224779446,100.0,6979,1.3520874977111816,0.12913852602243278,0.12179377224626138,134.31005350611565,0.0
310,5.0920398235321045,390.59409976824185,146.4177934526629,540.6162312261853,-82.79141724080371,100.0,1.7429917426306758,0.1,0.016460895538330078,0.3630521297454834,0.05030672,0.05228679,359.34535522680403,-0.012021955043342927,5.197825372394788,100.0,7011,1.5072097778320312,0.10898409975563676,0.09596850760239384,119.86713290071775,0.0
311,4.964559316635132,383.8290709143652,153.78024379857317,533.8066012793998,-100.63325836232411,100.0,1.7308843169932164,0.1,0.016092300415039062,0.33070945739746094,0.05025642,0.051616915,361.79372679556013,-0.01243115394927854,5.120457859435274,100.0,6978,1.9957716464996338,0.1144389251816665,0.11035100155909518,139.55939725352502,0.0
312,4.818605422973633,400.7380123442578,125.65779431959461,532.5991569773452,-65.71618669435358,100.0,1.9066123037989615,0.1,0.017921924591064453,0.42240118980407715,0.04974234,0.04891295,365.6881553504299,-0.010949779280369916,5.333062560107998,100.0,7128,1.763923168182373,0.10045602175845951,0.09626731204139899,153.6769921202366,0.0
313,3.82365083694458,387.61475156159696,133.73049718660968,533.8542546368086,-90.92213805445313,98.95833333333333,1.74718267466195,0.1,0.03252840042114258,0.45778656005859375,0.04854666,0.054707125,367.8808149715466,-0.011598871713604327,5.160187024600756,98.95833333333333,7097,1.9511668682098389,0.11117339212824201,0.11347645619328504,188.16292071404231,0.0
314,4.878677129745483,366.4177885698141,178.38643096706676,526.0762061146354,-100.07893557884158,100.0,1.6724339650354423,0.1,0.018136024475097656,0.40607237815856934,0.048360914,0.051279444,367.73451233137337,-0.014140074161627872,4.895024718094139,100.0,6930,1.513068437576294,0.16469979661439355,0.15551837355476747,143.91136794083974,0.0
315,3.810689687728882,385.4234537616168,141.96613554542637,524.9503459190739,-73.24845937912725,100.0,1.686402274472785,0.1,0.016796350479125977,0.4467337131500244,0.04908498,0.047962956,369.5034064743977,-0.012027862697482364,5.12827841606358,100.0,7043,2.5988690853118896,0.10731445120953965,0.10286878256805497,135.04114440933245,0.0
316,3.6934292316436768,375.4638789158227,136.7835407403798,529.0527408019743,-85.94074014851144,100.0,1.7459850143964244,0.1,0.04418325424194336,0.420147180557251,0.048472494,0.051395874,370.0994537185402,-0.012134697577101948,5.010311571953586,100.0,7035,2.022928237915039,0.11275515266262762,0.10607113397607405,107.87770253277468,0.0
317,3.96319580078125,367.18738594591156,156.98399083903357,530.0603892473041,-144.37867995379742,100.0,1.7450363183950286,0.1,0.011769771575927734,0.5694396495819092,0.0500186,0.05049715,369.80824694127733,-0.013248555887758418,4.895984819430592,100.0,7015,1.8392837047576904,0.1401373568351718,0.13670432695480766,137.62289518044446,0.0
318,3.912992477416992,399.28221347767413,142.4370654609634,533.0771801710462,-66.6046211589402,100.0,1.742235533346968,0.1,0.015514612197875977,0.4154493808746338,0.049144275,0.05091434,372.75564359491705,-0.011585403108967109,5.328449520015016,100.0,7080,1.8920538425445557,0.11180492760654066,0.1026862763310003,161.86412729286894,0.0
319,3.8535637855529785,384.9899372008054,152.4042687403734,536.6265706438394,-119.13473282308459,100.0,1.6083285892071106,0.1,0.016573667526245117,0.37175941467285156,0.04717858,0.04908591,373.9790729555059,-0.01232874503284194,5.137688149985245,100.0,6985,1.7807972431182861,0.11105991526117416,0.10684823584354894,182.21279860289965,0.0
320,3.9283599853515625,374.3563060696234,158.6321706920362,533.9013947087965,-78.63471736105089,100.0,1.680210454702134,0.1,0.01146841049194336,0.3220381736755371,0.048607778,0.056244705,374.01679626691765,-0.013117238165857545,4.9964106190229725,100.0,6997,1.361419439315796,0.14287717881000989,0.1362414940757493,197.7296293338929,0.0
321,5.100917100906372,375.358955091023,159.23874624734114,532.1621201197422,-125.55491368592163,100.0,1.6133264380912078,0.1,0.009117364883422852,0.32671570777893066,0.048312735,0.050421998,374.1510121493282,-0.013525134548780552,5.009979397617327,100.0,6991,1.347489833831787,0.13836508870425487,0.12528462294261775,216.92117496769342,0.0
322,4.862813711166382,368.6949211743078,160.45564531606553,536.645055229181,-34.844298386210006,100.0,1.815909771521101,0.1,0.008614778518676758,0.33976316452026367,0.048839025,0.053137254,373.6054030518262,-0.01344200664834263,4.912887505174769,100.0,7091,1.4326014518737793,0.1878254071963867,0.17150546377997022,209.78084563694117,0.0
323,3.7786335945129395,392.1238771555399,159.7986480512052,536.2637331237751,-137.47489124711268,100.0,1.6745600219498165,0.1,0.009471893310546875,0.29813098907470703,0.049094032,0.047275264,375.4572504621976,-0.012538782176388735,5.237890823921723,100.0,6989,2.201547145843506,0.12695001115652366,0.11422683307396664,242.3521899834324,100.0
324,4.802223443984985,407.5931919461893,141.07664962527468,530.3721032861973,-102.3650967429068,100.0,1.8664266108143854,0.1,0.017055273056030273,0.38636183738708496,0.05013604,0.047748987,378.67084461059676,-0.011503376948752565,5.433834016811848,100.0,7050,1.6606123447418213,0.09921504937093119,0.09506241723648072,256.0626840019516,100.0
325,3.71490478515625,405.44228320681776,162.10556042569146,537.027178340263,-98.07019742040134,100.0,1.7536443630647351,0.1,0.01143646240234375,0.4373140335083008,0.04880264,0.04582559,381.34798847021887,-0.012126843148214184,5.405136118996331,100.0,6971,1.3554010391235352,0.11563895666607119,0.10992831762083623,311.6335630918172,100.0
326,4.784773111343384,375.67138669140587,190.2703510540264,533.0319187081277,-129.67850178612306,100.0,1.7760848408556678,0.1,0.018270015716552734,0.3510265350341797,0.04878997,0.04884449,380.7803282923376,-0.014288487227748913,5.007283572465649,100.0,6868,1.7988922595977783,0.1753475014980105,0.17051661125437834,326.91185990687023,100.0
327,4.770169973373413,420.5773276500779,135.52580406429698,533.4871205457291,-72.30326030143394,100.0,1.6652553015491027,0.1,0.013987302780151367,0.370236873626709,0.04636555,0.05083656,384.76002822811165,-0.010812175883901038,5.602581951992117,100.0,7075,1.4826514720916748,0.09035878594784245,0.0826972384220037,287.79489652194036,100.0
328,4.864446401596069,377.8989054794552,190.70242441059094,539.5246494446181,-97.28394177989986,100.0,1.680287680525464,0.1,0.012994766235351562,0.3096187114715576,0.049462136,0.05343521,384.073915953246,-0.014099214267145851,5.049946244296456,100.0,6894,1.5167574882507324,0.16897379177656124,0.1561696619997824,255.71052286833293,100.0
329,4.818710088729858,403.65827439203485,164.7305919608417,536.9460594007569,-115.71470227881065,100.0,1.7882629121096751,0.1,0.017032384872436523,0.5266814231872559,0.04787492,0.045325518,386.0323517971249,-0.012500391702521749,5.380915386232343,100.0,6981,1.2817070484161377,0.12334350416255838,0.11599355828637074,217.9823424236837,0.0
330,4.751500606536865,439.4423643240089,143.06957049868674,538.3597744907096,-91.34087545468881,100.0,1.7495933881370291,0.1,0.03148913383483887,0.45050883293151855,0.048808288,0.05085229,391.37335304981326,-0.010405249061505119,5.8536134760588014,100.0,7052,2.2441093921661377,0.10256011010645005,0.07286165054304794,248.09083301492632,100.0
331,3.8576176166534424,421.4236571410108,138.33599535044715,534.4143919509442,-121.07012332105671,100.0,1.7171775121460613,0.1,0.0318150520324707,0.41579508781433105,0.04990824,0.0525725,394.378383458933,-0.010770016091462711,5.6114010617187935,100.0,7077,1.623032808303833,0.0967770144369152,0.09014873563306494,220.0709869371699,100.0
332,5.204312801361084,414.42802111872646,151.17631008303516,539.1803375909303,-127.1421352519082,100.0,1.6180180538033242,0.1,0.03261303901672363,0.3279390335083008,0.050684202,0.051692992,396.38334722491237,-0.011483061864337491,5.525167559221242,100.0,7041,1.8434100151062012,0.10840975786723836,0.10113281473359031,221.7235573195593,100.0
333,3.613039016723633,408.8595525688079,171.63569608829928,538.8815671272398,-132.94312814054373,100.0,1.859020114492609,0.1,0.015932083129882812,0.4306344985961914,0.049389213,0.046396453,397.63096775930194,-0.012323325466162825,5.451602992274336,100.0,6961,2.3406193256378174,0.11748631348966124,0.11387964498736974,218.88226427921325,0.0
334,4.898756742477417,408.4461616676476,169.43174043906296,536.5770783798039,-84.69156087584383,100.0,1.6360177294242169,0.1,0.016312122344970703,0.4939303398132324,0.05037136,0.05470401,398.7124871501365,-0.012227401446550448,5.442565551674661,100.0,6953,2.0464346408843994,0.1226623343613506,0.11548443006371445,211.00420235788792,0.0
335,3.6918890476226807,418.58594538587954,151.72416817319183,540.7646768494578,-99.18398877002068,100.0,1.715900607234386,0.1,0.01693415641784668,0.4053966999053955,0.048185278,0.049940355,400.69983297371084,-0.011219962082290084,5.572895155844134,100.0,6974,2.1669692993164062,0.0798723207507563,0.07899134798394097,206.98011163975616,0.0
336,3.9060933589935303,417.9894513014442,154.58749972536063,538.0460329659734,-127.53224556207269,100.0,1.6671697581958862,0.1,0.030701637268066406,0.39153289794921875,0.04928091,0.0518364,402.4287948064842,-0.011529994110929151,5.572503531497904,100.0,6985,2.699481725692749,0.08823102812481964,0.08132837732813128,203.41920126403946,0.0
337,3.8200571537017822,428.4092529739963,109.36668294332087,535.5026315059647,-45.44100105783163,100.0,1.7332425543791206,0.1,0.03573107719421387,0.4682021141052246,0.04889326,0.05340723,405.0268406232354,-0.010135419229545547,5.7186175596837865,100.0,7140,2.1778581142425537,0.07048369161085885,0.06633128296578904,205.8539084021723,0.0
338,3.7186779975891113,426.02732115020416,122.05156199736938,529.6482863337127,-54.40194486032464,100.0,1.7599051986239267,0.1,0.04342198371887207,0.4296855926513672,0.04862256,0.049315087,407.12688867593226,-0.010360649209942015,5.670293829456681,100.0,7068,2.3486990928649902,0.06570504052799292,0.060853409162081915,246.83585199458497,100.0
339,3.743570566177368,413.7461488263093,170.84689460329562,534.967092238519,-99.00777590196361,100.0,1.5718377403835626,0.1,0.012614965438842773,0.4606754779815674,0.05009109,0.052344315,407.78881469096996,-0.012092304078226182,5.50824910504727,100.0,6955,1.7659273147583008,0.12488169204572128,0.12104656733887022,280.5667184376685,100.0
340,3.9148497581481934,436.76990388025706,138.0845053094143,538.5907043666268,-78.73955632909329,100.0,1.7324044294912762,0.1,0.01648402214050293,0.4424774646759033,0.049517807,0.053610332,410.6869236098987,-0.01030679565414735,5.8304650516065,100.0,7070,1.8084287643432617,0.09651328837272245,0.08796428567642847,230.62351557594994,100.0
