iteration,time_sampling,stoc_pol_mean,stoc_pol_std,stoc_pol_max,stoc_pol_min,rollout_success,alpha,delta,time_vpg,time_npg,kl_dist,surr_improvement,running_score,rwd_sparse,rwd_dense,success_percentage,num_samples,time_VF,VF_error_before,VF_error_after,eval_score,eval_success
0,3.1043269634246826,-350.37553601302005,53.79692928598865,-269.4342621425362,-693.5033206168936,0.0,0.6132258079105954,0.1,0.12302541732788086,0.43779468536376953,0.054222796,0.18873882,-350.37553601302005,-2.648031810821875,-2.3234706897886768,0.0,3196,0.32128310203552246,0.9992298659800649,0.661123667904918,-543.3488993208273,0.0
1,2.9614386558532715,-358.20151838741566,76.8469219984787,-263.70897536501667,-910.3828648123624,0.0,0.8349026537712488,0.1,0.00662684440612793,0.2026081085205078,0.047701325,0.13160966,-351.1581342504596,-2.69242244228791,-2.375471335438396,0.0,3206,0.29874086380004883,0.6809365212959045,0.2286847125530645,-542.8279962327151,0.0
2,3.160616636276245,-365.9258680074707,104.21084239148635,-260.8216741950565,-1147.4061359656378,0.0,0.8517554981117066,0.1,0.007234811782836914,0.15332651138305664,0.052309364,0.119138144,-352.6349076261608,-2.657114863285248,-2.4271259514391144,0.0,3258,0.4042797088623047,0.2710244084189191,0.21801473592610834,-549.6345255050155,0.0
3,3.029521942138672,-367.518996909137,209.36821943739713,-274.96174683365865,-2381.1620044251226,0.0,0.7412247158490448,0.1,0.06141161918640137,0.20850729942321777,0.049694803,0.11042133,-354.1233165544584,-2.669231739894619,-2.43747818483687,0.0,3277,0.29744720458984375,0.4375899810692591,0.37157988534132796,-835.5920879781738,0.0
4,3.150109052658081,-379.1537867452548,185.99398074651106,-254.2339856663456,-1514.5388423650095,0.0,0.766219545634683,0.1,0.02806830406188965,0.3203396797180176,0.051021982,0.1257683,-356.6263635735381,-2.7261915899744125,-2.515305373879686,0.0,3292,0.2977781295776367,0.33600445110570826,0.29917664287104095,-514.5291868417896,0.0
5,3.1732499599456787,-406.16506034431154,285.211086816598,-260.7589315658205,-2598.8359738419103,0.0,0.6806601640661951,0.1,0.006994724273681641,0.15939927101135254,0.04887284,0.12088798,-361.58023325061544,-2.749806876413364,-2.6948053969819825,0.0,3431,0.32122182846069336,0.45941548798328774,0.37739702754417676,-500.8909107545071,0.0
6,3.085327386856079,-368.05106793096843,238.58897339724467,-275.70806311706434,-2670.457361943651,0.0,0.5694906654373861,0.1,0.007731199264526367,0.18143844604492188,0.0520423,0.13045397,-362.22731671865074,-2.7065703822819542,-2.4411995618080344,0.0,3228,0.30090975761413574,0.42096971988930226,0.35590642865782657,-508.73970088670774,0.0
7,3.2053472995758057,-348.44947001975544,44.966599752292694,-273.51574497962184,-504.2446939688696,0.0,0.7701961744883774,0.1,0.07350540161132812,0.21033215522766113,0.050496537,0.13982685,-360.8495320487612,-2.6270421309924776,-2.3106403807424853,0.0,3160,0.2867467403411865,0.1013896822798546,0.06978778516222174,-525.707774283223,0.0
8,3.1864919662475586,-349.4786417858889,82.25310027793394,-267.1552596660399,-1058.3195919937648,0.0,0.6819608708884048,0.1,0.03342127799987793,0.15452241897583008,0.050036207,0.17051703,-359.71244302247396,-2.656443305705483,-2.317244657820132,0.0,3125,0.2794358730316162,0.12383605022209758,0.10924417831249326,-512.5212390633349,0.0
9,3.09596586227417,-369.4219874484733,231.0010793176864,-274.9656897863823,-2565.4358789964535,0.0,0.650804320638227,0.1,0.035239219665527344,0.17523479461669922,0.04849369,0.1307465,-360.6833974650739,-2.706267409194042,-2.4501384744824573,0.0,3248,0.28069591522216797,0.3922566671816908,0.34214928240886505,-518.9350981328472,0.0
10,2.957252264022827,-348.40434442525424,42.749364013900255,-260.6523049732816,-499.7122397623639,0.0,0.7062542406865354,0.1,0.007314920425415039,0.15435457229614258,0.051672444,0.20355582,-359.4554921610919,-2.6441453938099677,-2.310217532937433,0.0,3161,0.2812342643737793,0.10009214920397207,0.07428398953325362,-530.6617592703585,0.0
11,2.622936248779297,-346.53379311482814,69.28002235023185,-274.7165237188729,-879.5290508844294,0.0,0.7190807999818725,0.1,0.0067636966705322266,0.15382146835327148,0.051074516,0.16503869,-358.16332225646556,-2.59203107345378,-2.2977484612414814,0.0,3139,0.28386473655700684,0.10695569294316153,0.09521632107548199,-512.5873729032048,0.0
12,3.027172088623047,-336.5902178756221,36.504469033210796,-269.03050303418286,-469.270248658532,0.0,0.6743849990532109,0.1,0.019107818603515625,0.1595909595489502,0.050840024,0.29946324,-356.00601181838124,-2.5280091271366487,-2.2315448548860854,0.0,3130,0.2901434898376465,0.06024963930850892,0.05307093148636255,-517.9520503828335,0.0
13,3.2035012245178223,-375.50413721422774,233.07230448485433,-250.51755920562974,-2610.2205550306103,0.0,0.6042727008347307,0.1,0.006869316101074219,0.15709829330444336,0.05039329,0.11470978,-357.9558243579659,-2.6437112935053637,-2.4903953279649005,0.0,3328,0.33639955520629883,0.3835210150789766,0.27835467290708166,-523.7009985284833,0.0
14,3.090902328491211,-357.70509909466887,135.4847461600558,-281.5976442050752,-1571.8715058186103,0.0,0.7384227301624575,0.1,0.0694437026977539,0.6230039596557617,0.050040234,0.15250808,-357.93075183163626,-2.6626878471348676,-2.3719692861229107,0.0,3226,0.533440351486206,0.2182216743660333,0.18080177832066952,-761.7805088151247,0.0
15,2.705287456512451,-350.4684227807818,52.06938876702188,-239.85657511649873,-613.6016814822359,0.0,0.6345180059224325,0.1,0.006796121597290039,0.26859498023986816,0.05134582,0.23345499,-357.1845189265508,-2.5779974938259254,-2.3236756945188866,0.0,3201,0.43613600730895996,0.08692617691611984,0.07143208842190979,-816.6368987150887,0.0
16,3.0726799964904785,-355.058591229467,44.121294005005886,-279.9101305354645,-560.9217429673524,0.0,0.6931431557473505,0.1,0.006847858428955078,0.2689058780670166,0.048194174,0.34246525,-356.9719261568424,-2.726732174912364,-2.3544842916459774,0.0,3234,0.6110832691192627,0.07918353614854651,0.05889415206588254,-867.1748394896862,0.0
17,3.14907169342041,-355.5482120037977,240.63849264673365,-269.54688964764534,-2683.3662652062353,0.0,0.7378408401150344,0.1,0.007043361663818359,0.15148258209228516,0.049506273,0.10215304,-356.82955474153795,-2.5604025947254447,-2.3573340262324396,0.0,3259,0.5405271053314209,0.3697480973118966,0.2902408457371696,-816.6688643694129,0.0
18,3.2996504306793213,-363.1752334312485,102.66427489030568,-273.17751945244015,-1221.1570879674089,0.0,0.6884083684993875,0.1,0.0067424774169921875,0.1641232967376709,0.048415344,0.21460894,-357.464122610509,-2.7265592946331005,-2.408574007876409,0.0,3287,0.5743000507354736,0.15548493510525602,0.12480913310596081,-1025.9189913297619,0.0
19,3.3574349880218506,-347.0674248131415,39.278316920179456,-267.80047860128826,-463.93013198969044,0.0,0.6745605438799738,0.1,0.006885051727294922,0.1557626724243164,0.05028462,0.23609522,-356.4244528307723,-2.609037614206223,-2.301078090095105,0.0,3206,0.5580158233642578,0.07571403686486475,0.05829708321496429,-942.0114781110387,0.0
20,3.12424898147583,-374.980423921664,221.8051876237799,-265.80857273722455,-2460.8305011031016,0.0,0.6739076139925126,0.1,0.06642866134643555,0.2765083312988281,0.049031634,0.13364555,-358.28004993986144,-2.682493333621528,-2.4875346095889377,0.0,3321,0.5682804584503174,0.2909068375779988,0.2586178072937633,-927.8118412822992,0.0
21,3.111844539642334,-359.0496068540303,60.235733013143474,-267.73616885384234,-731.5177848703166,0.0,0.6893243738672608,0.1,0.051397085189819336,0.17381501197814941,0.04938708,0.27334967,-358.3570056312783,-2.6882227604861733,-2.381310095992343,0.0,3241,0.5517139434814453,0.08408445920722149,0.06617454456299887,-831.9273590764968,0.0
22,3.0787720680236816,-347.8858123118151,42.38259182347972,-266.1975903651647,-469.5820568173352,0.0,0.7250910841347425,0.1,0.010182380676269531,0.17277121543884277,0.050270904,0.17278768,-357.309886299332,-2.6679526039463846,-2.3067547678680964,0.0,3194,0.5332505702972412,0.05480469689377248,0.045227755934077685,-878.247147720943,0.0
23,3.0495975017547607,-347.6307303472493,43.79698024860751,-259.8501219245725,-495.3581654715199,0.0,0.7581572059451828,0.1,0.00690913200378418,0.15145397186279297,0.04983637,0.15598723,-356.34197070412375,-2.701202311873601,-2.3048452583563006,0.0,3170,0.5394222736358643,0.0535091994097905,0.043609784638673786,-916.1161340294236,0.0
24,3.2348248958587646,-360.9342360436693,134.1683984298903,-275.7224304326483,-1614.6748443391045,0.0,0.5956446919445617,0.1,0.007997512817382812,0.16697907447814941,0.052896112,0.10243591,-356.8011972380783,-2.6332857150426716,-2.393775382708487,0.0,3291,0.5639822483062744,0.17019754062348472,0.1460993454470184,-950.1006299538111,0.0
25,3.139303207397461,-360.58237011698475,57.69113382687357,-271.23495349912406,-674.7843891171726,0.0,0.7759883253589483,0.1,0.007115840911865234,0.15517735481262207,0.050044388,0.16028912,-357.17931452596895,-2.727829742556095,-2.3907580349395148,0.0,3282,0.5746943950653076,0.06718431396561637,0.05254374454913382,-880.3543879026778,0.0
26,3.144340991973877,-344.2073581440075,42.123954568279174,-262.8007656524176,-534.19699662258,0.0,0.7536163788578025,0.1,0.06438899040222168,0.2205810546875,0.05090097,0.15486516,-355.88211888777283,-2.7307932901407503,-2.281833688514983,0.0,3209,0.5740745067596436,0.039343966729843936,0.032773538302366734,-835.2204225183085,0.0
27,3.0516340732574463,-332.28251719753627,43.24594501468622,-252.22619022069185,-481.58251566546306,0.0,0.7806276084323945,0.1,0.006663084030151367,0.15197086334228516,0.049055804,0.14469618,-353.5221587187492,-2.507215431818461,-2.202548825673207,0.0,3148,0.4817349910736084,0.03720680997071463,0.03102199116955076,-554.7465811275057,0.0
28,3.1112570762634277,-339.2458335026625,50.415356567252694,-257.6715554866383,-651.5100414488633,0.0,0.7297579858134231,0.1,0.006456613540649414,0.14946365356445312,0.04996124,0.15682949,-352.0945261971405,-2.583841812460799,-2.2490126732527442,0.0,3199,0.4697747230529785,0.037584818336609954,0.034386434780109124,-730.5241146868773,0.0
29,3.321762800216675,-340.0509705719335,36.83896718921569,-248.5210377876529,-452.0115024099794,0.0,0.8030910576534145,0.1,0.006838083267211914,0.16415691375732422,0.049621332,0.17640382,-350.8901706346198,-2.615642814305438,-2.254408355093886,0.0,3185,0.5645508766174316,0.02647626677044753,0.023249749000076297,-925.6948393240505,0.0
30,3.345825433731079,-334.3057742306917,37.0879262395418,-248.41343248600094,-467.5518293744,0.0,0.7535137809633472,0.1,0.007711887359619141,0.2560601234436035,0.05070157,0.18864086,-349.23173099422695,-2.612263797364123,-2.2157087202402823,0.0,3174,0.5561168193817139,0.025664042733550958,0.023230387400121018,-516.4297542382756,0.0
31,3.045132637023926,-359.1137776043584,169.83654090903704,-263.8235889590537,-1954.317416654797,1.0416666666666667,0.6276875339379995,0.1,0.007062673568725586,0.1633908748626709,0.04920312,0.10640884,-350.2199356552401,-2.6831949899868435,-2.3814124195534427,1.0416666666666667,3285,0.6130437850952148,0.26679326265046055,0.20563276555152063,-801.4026594917527,0.0
32,3.1125600337982178,-340.48205960395535,44.13228952433266,-252.4546733792058,-477.0772227980555,0.0,0.7783351667294456,0.1,0.024789094924926758,0.1605088710784912,0.04992858,0.15024516,-349.24614805011163,-2.7103801034711217,-2.257180798568619,0.0,3175,0.5570340156555176,0.04830919341005412,0.029312822128280434,-860.6654964725086,0.0
33,3.108245849609375,-339.1171256002021,39.40500723354413,-252.06417570447445,-496.2934546414283,0.0,0.656062036588819,0.1,0.0071027278900146484,0.25995945930480957,0.049890414,1.1177176,-348.23324580512065,-2.633163238458401,-2.248006803739193,0.0,3201,0.5945327281951904,0.02719906949541738,0.023545690431792967,-612.4755287538619,0.0
34,3.122021436691284,-340.6104581105421,45.391647733437104,-266.2562193963162,-495.2310604095734,0.0,0.7326923641306086,0.1,0.007080078125,0.16536283493041992,0.048874818,0.22951746,-347.4709670356628,-2.6134179681671195,-2.258394663373007,0.0,3210,0.49541544914245605,0.027637903184149944,0.02558210668948542,-548.76418003598,0.0
35,3.18137526512146,-337.266679197145,35.851161213100504,-269.7925742983043,-455.61236646141856,0.0,0.783973053961286,0.1,0.0064849853515625,0.14521241188049316,0.049749598,0.1387374,-346.450538251811,-2.621883335080119,-2.235478695317685,0.0,3211,0.46989941596984863,0.019943349810115193,0.01821922275378877,-479.50081910676386,0.0
36,3.1931543350219727,-356.70865790493235,192.31153566351523,-266.81714439034334,-2077.773041260191,2.0833333333333335,0.7209629767648954,0.1,0.006249189376831055,0.14136791229248047,0.05113565,0.111434236,-347.4763502171231,-2.55561861929151,-2.3652890674565104,2.0833333333333335,3282,0.47716593742370605,0.2771885431600402,0.20367935757729572,-487.6508352044135,0.0
37,3.1334095001220703,-331.5029429459549,37.295244328402575,-242.0812932916198,-449.3539499986447,0.0,0.7982330668751504,0.1,0.009026527404785156,0.18688035011291504,0.049104344,0.1376348,-345.8790094900063,-2.584052791345932,-2.1973842729884554,0.0,3174,0.5759987831115723,0.05245563058334806,0.022676912845390987,-452.80096763869517,0.0
38,3.1402015686035156,-335.14404509065304,58.60602747082509,-238.55625327385982,-806.1386462750651,0.0,0.7058829865249664,0.1,0.016888141632080078,0.15241599082946777,0.04994774,0.72505206,-344.80551305007094,-2.554755361705893,-2.2221617215469713,0.0,3195,0.5519514083862305,0.0431363851595264,0.03955316021582162,-430.63891593918,0.0
39,3.15163254737854,-353.634104729522,68.0699050405227,-259.0779864448379,-833.2326533153723,0.0,0.7667468575575055,0.1,0.08727645874023438,0.17137384414672852,0.050522953,0.12397088,-345.688372218016,-2.771243232166681,-2.3444295491705818,0.0,3283,0.5745556354522705,0.062147741566005894,0.05143636793476749,-433.32559707707105,0.0
40,3.246037721633911,-338.39158806641825,43.282874871065154,-262.2133007857175,-566.3399124437789,0.0,0.6960046868178943,0.1,0.06765389442443848,0.17943501472473145,0.048337128,0.28898403,-344.95869380285626,-2.63834703678373,-2.24308813353354,0.0,3268,0.565152645111084,0.02935039615058672,0.023676232663036267,-425.3117670311743,0.0
41,3.5194363594055176,-360.2356666885658,255.0337070020794,-252.65225849515724,-2808.8027503543676,0.0,0.5572372924520039,0.1,0.0075261592864990234,0.28211188316345215,0.048527848,0.11319425,-346.4863910914272,-2.605117630838264,-2.3889423373339445,0.0,3352,0.4905390739440918,0.42426564234067654,0.22440719309678278,-413.57728157772,0.0
42,3.1948370933532715,-337.88589723396944,62.15534673720483,-245.67579412548523,-774.8025952452529,0.0,0.8096155859579229,0.1,0.006788969039916992,0.14975380897521973,0.05039051,0.14515385,-345.62634170568145,-2.579010828612698,-2.2397049675210754,0.0,3286,0.5549800395965576,0.17149316260538544,0.04601258077907403,-409.1426495724779,0.0
43,3.2335526943206787,-338.5601271605088,43.10602022468434,-252.00585740474492,-490.40837509241186,0.0,0.801343134791302,0.1,0.00705409049987793,0.15459084510803223,0.049417365,0.1245003,-344.9197202511642,-2.647909127734113,-2.2445350497559406,0.0,3298,0.5566904544830322,0.03060878472299292,0.025249889062950857,-401.1996484993049,0.0
44,3.278668165206909,-338.85506393834424,41.65456064302629,-246.1759213640243,-523.4484273036495,1.0416666666666667,0.8058155979495368,0.1,0.006999969482421875,0.15197992324829102,0.05061947,0.17192398,-344.31325461988223,-2.6700601699648714,-2.246294711369977,1.0416666666666667,3306,0.536715030670166,0.02511046732414189,0.02249672978953193,-418.1220702128659,0.0
45,3.222796678543091,-337.7961371969799,44.021120469807975,-254.18456333699353,-588.8731626498076,0.0,0.798581927313383,0.1,0.006668806076049805,0.2369232177734375,0.04940068,0.11874977,-343.661542877592,-2.714582169761836,-2.2391472129091348,0.0,3285,0.7407803535461426,0.0277281008690739,0.02597779882686474,-392.47757865863014,0.0
46,3.267625331878662,-329.4705022887899,35.70883253079978,-257.3283771183762,-422.0987974945535,0.0,0.7612830586768953,0.1,0.06571578979492188,0.16342568397521973,0.050896376,0.16346367,-342.24243881871183,-2.5811783561085964,-2.183496064568135,0.0,3310,0.568925142288208,0.021656661706101074,0.019789848045374682,-391.1830999834922,0.0
47,3.2464005947113037,-340.0188836668514,56.91790882739296,-258.87562739868827,-621.3192790037209,0.0,0.6928790854687199,0.1,0.007044315338134766,0.19782519340515137,0.05021667,0.19844948,-342.0200833035258,-2.5747317204008837,-2.2535830261592635,0.0,3370,0.5707640647888184,0.04170889034410734,0.035422025796297496,-393.00565529043087,0.0
48,3.23614239692688,-381.3413995705868,281.738358963181,-248.15917718192992,-2484.5574333949003,0.0,0.7504145785492893,0.1,0.006897687911987305,0.15521597862243652,0.050424024,0.10649373,-345.9522149302319,-2.6860802940386255,-2.529376377750133,0.0,3514,0.6214261054992676,0.37515810128796384,0.2841569851959516,-398.59877641739325,0.0
49,3.367739200592041,-365.8683279033001,254.18973265635697,-236.64959979792988,-2423.5368657729764,0.0,0.7433569500461973,0.1,0.05486798286437988,0.38077831268310547,0.04932885,0.14088388,-347.9438262275387,-2.645458027656241,-2.4262255422878867,0.0,3486,0.6116621494293213,0.3500426875710555,0.2537308371355686,-460.406029793181,0.0
50,3.3230185508728027,-335.01375804661546,42.93434840567973,-258.83732342619913,-513.9283504055303,0.0,0.7266073620409249,0.1,0.06315827369689941,0.17255878448486328,0.050132174,0.43710485,-346.6508194094464,-2.6706739888511515,-2.220501870709231,0.0,3324,0.5451953411102295,0.08650749320581165,0.030216238548618258,-413.28960670981206,0.0
51,3.409721612930298,-331.6101164186157,43.810088592448,-235.7014293041654,-539.6973128309726,0.0,0.6600082532940659,0.1,0.006644725799560547,0.15507125854492188,0.04912043,0.26837337,-345.1467491103634,-2.640814494146927,-2.197757710322439,0.0,3318,0.5545728206634521,0.033559470158796276,0.026820934301884678,-399.11444869075865,0.0
52,3.504701614379883,-329.258843582825,69.62829501980941,-241.8560855220697,-764.5049784984368,0.0,0.6079865473703213,0.1,0.03308606147766113,0.22719836235046387,0.05113115,0.29195914,-343.5579585576096,-2.550427713191521,-2.1820154768771745,0.0,3384,0.5735988616943359,0.06542328592841101,0.051118981546223054,-404.1446288594153,0.0
53,3.250347375869751,-329.46367296755625,56.284496408899905,-255.66905161369658,-735.5878794320148,2.0833333333333335,0.7150191209854468,0.1,0.007416963577270508,0.16236233711242676,0.050078034,0.13358101,-342.14852999860426,-2.598337559373237,-2.183735707967024,2.0833333333333335,3355,0.5812084674835205,0.0421448024699565,0.03535215944126575,-466.1306303968803,0.0
54,3.2839958667755127,-343.96436466953264,222.99763352382143,-244.4505308895028,-2480.471765285016,0.0,0.607927715758908,0.1,0.006887197494506836,0.213270902633667,0.049884826,0.10840405,-342.33011346569714,-2.6356484731387013,-2.280402347198537,0.0,3433,0.5587708950042725,0.302102210091928,0.2500491443059742,-514.9880022961705,0.0
55,3.190836191177368,-321.51790789485534,36.538632212660794,-239.5748617088844,-420.6499730912627,0.0,0.6201973931897915,0.1,0.007215023040771484,0.1574089527130127,0.05108025,0.3853603,-340.24889290861296,-2.708487290780216,-2.130640128630246,0.0,3273,0.4854164123535156,0.0672879669022069,0.025452192365195376,-406.6143801705027,0.0
56,3.4799740314483643,-384.8128342448115,344.32113968769767,-246.6002060492046,-2644.4739927719684,0.0,0.7323947975254185,0.1,0.0066454410552978516,0.14786648750305176,0.04888659,0.119761616,-344.70528704223284,-2.699339782894492,-2.5529125197553224,0.0,3597,0.546485185623169,0.3715136357230441,0.28826468256252796,-384.5856510534297,0.0
57,3.3478446006774902,-338.3869238552308,183.07455608262143,-236.1696609800974,-2083.0831122625386,0.0,0.6463962867926403,0.1,0.0064544677734375,0.14210915565490723,0.050393183,0.12676352,-344.07345072353263,-2.655666412086573,-2.2428046153040797,0.0,3402,0.4927253723144531,0.22632657668111106,0.19405245125547993,-434.3338125247676,0.0
58,3.2845091819763184,-329.4016835892133,43.85186708729641,-235.24543651896758,-548.1563088518822,0.0,0.5977879021585121,0.1,0.006223201751708984,0.14338326454162598,0.04990905,0.30949908,-342.60627401010066,-2.7197053498827324,-2.182659119204665,0.0,3371,0.4872896671295166,0.08063708782692974,0.03990611771679718,-476.18312505588995,0.0
59,3.2761471271514893,-325.9974265441744,41.88747755606097,-240.01797496227218,-512.6683014807406,0.0,0.6227048650735499,0.1,0.0064923763275146484,0.15018439292907715,0.048847843,0.42158195,-340.945389263508,-2.6799736530089326,-2.1603001604664223,0.0,3330,0.48622584342956543,0.03752680649891359,0.028523504819095772,-472.8319079315002,0.0
60,3.5292418003082275,-341.8475800194381,194.2224339218263,-251.32011660595646,-2201.2094459795053,0.0,0.6170389338370542,0.1,0.006225109100341797,0.14648032188415527,0.04990833,0.46698877,-341.03560833910103,-2.604062678205095,-2.2662589356228433,0.0,3448,0.5102601051330566,0.26722100045275743,0.20264111211120678,-431.49975791451794,0.0
61,3.576256275177002,-316.55837169629893,35.701184878312866,-217.09475182513742,-387.3955549248111,0.0,0.8332706234257561,0.1,0.007454633712768555,0.15841436386108398,0.051602833,0.20448026,-338.5878846748208,-2.565983061192931,-2.097764126000913,0.0,3344,0.5467379093170166,0.03739418035220344,0.022470374621977096,-425.3691414177852,0.0
62,3.248065233230591,-327.395325028027,41.25787585938322,-259.9462574863641,-502.41598234785295,0.0,0.7763033413521462,0.1,0.024547815322875977,0.27563977241516113,0.05035519,0.1638913,-337.46862871014145,-2.7263881870231805,-2.1695360928869705,0.0,3341,0.4719865322113037,0.026621641987006985,0.02275019644434825,-442.3230135536478,0.0
63,3.3976240158081055,-344.7360376666949,231.4974875665972,-235.85069111319405,-2543.956186711108,0.0,0.6725145119242545,0.1,0.00648045539855957,0.14904546737670898,0.049830962,0.11080379,-338.1953696057968,-2.6176186693538166,-2.2854366146459464,0.0,3530,0.5006721019744873,0.37035705737227526,0.25359066589654206,-443.8752371304191,0.0
64,3.3120310306549072,-324.5304580873717,47.120586287599394,-236.3589960165746,-555.3692422352273,0.0,0.6166811212943335,0.1,0.006445884704589844,0.14590048789978027,0.051258728,0.31169412,-336.8288784539543,-2.6544483173497526,-2.150741494222512,0.0,3373,0.4686713218688965,0.1094498633850558,0.0375497403568699,-437.4898950877682,0.0
65,3.356729507446289,-330.67915706714865,75.73631355386895,-218.64239776050513,-793.9605612456469,0.0,0.6363291882472838,0.1,0.006534099578857422,0.1464238166809082,0.04916842,0.31748363,-336.21390631527373,-2.700274960209562,-2.1920067005513517,0.0,3429,0.5112693309783936,0.07959884440447434,0.06290048408469592,-450.3790855044314,0.0
66,3.246293544769287,-318.4658384913475,31.659980342372258,-259.6324679613312,-427.00730181716926,0.0,0.6618179401157136,0.1,0.006412506103515625,0.14182400703430176,0.050717577,0.73163205,-334.4390995328811,-2.665718046947063,-2.1104584568728892,0.0,3363,0.4680674076080322,0.024282191550460814,0.019844588701675856,-452.7921130760192,0.0
67,3.3796932697296143,-321.7733073660664,71.99192638692094,-236.21148038484975,-939.5069758339579,1.0416666666666667,0.6452095856110572,0.1,0.006316184997558594,0.1430950164794922,0.05091842,0.115409255,-333.1725203161996,-2.5604280736187244,-2.1320470503712388,1.0416666666666667,3392,0.4756608009338379,0.07122671697078989,0.06296313836054991,-426.0360051881269,0.0
68,3.3212220668792725,-320.17670117532606,52.32539489206142,-232.84037401328052,-661.7796437417428,0.0,0.6339931769178228,0.1,0.007119894027709961,0.22800660133361816,0.048385236,0.27328965,-331.87293840211225,-2.6545329789814667,-2.12148827167204,0.0,3373,0.5336289405822754,0.04120766939372125,0.0322677126400515,-419.65162920160384,0.0
69,3.2710120677948,-313.03424954724943,31.942136559333303,-242.84888400424057,-418.76711032164945,0.0,0.8357745297348923,0.1,0.00678253173828125,0.17308735847473145,0.050368678,0.18200201,-329.989069516626,-2.652594335619096,-2.074130814304871,0.0,3346,0.5554294586181641,0.018338885998531132,0.01644147648981915,-419.1916017343172,0.0
70,3.46122670173645,-322.1444859637759,53.59072288741569,-234.53964985516032,-762.0745111757122,0.0,0.5896429706036979,0.1,0.0669400691986084,0.2524397373199463,0.049328335,1.3467418,-329.20461116134095,-2.6995788551782263,-2.1342392601891023,0.0,3418,0.5395164489746094,0.04235808382756103,0.03300880854900127,-420.40548336147117,0.0
71,3.4516191482543945,-311.7772342673134,31.38470544249466,-243.161380114479,-381.3374476650962,0.0,0.8434148591932751,0.1,0.006801128387451172,0.14794182777404785,0.050630465,0.12491813,-327.4618734719382,-2.662721953261647,-2.0653551946722195,0.0,3369,0.5476009845733643,0.016824331350350143,0.014903824936836344,-436.84680525114516,0.0
72,3.495681047439575,-312.3853135597314,37.582530511091974,-214.61379348870065,-404.9394042063602,1.0416666666666667,0.8371246296561734,0.1,0.006469249725341797,0.14679574966430664,0.050991006,0.13808991,-325.9542174807175,-2.602866560751456,-2.0694960723914417,1.0416666666666667,3396,0.5625669956207275,0.016964808830354956,0.01611893686699246,-444.6588578616456,0.0
73,3.450373649597168,-318.7757876240171,39.48761766318169,-249.7634317755367,-436.50319864008867,0.0,0.8344221971527594,0.1,0.042792320251464844,0.21165919303894043,0.049946263,0.13077982,-325.23637449504747,-2.7161572648091497,-2.112414788993988,0.0,3467,0.567312479019165,0.022424768372690727,0.019947533531449735,-435.1536333521947,0.0
74,3.4256579875946045,-311.97723688630987,41.711573562453644,-218.53701221847223,-466.47139380612816,0.0,0.8356926807436648,0.1,0.03989744186401367,0.16383051872253418,0.050631147,0.116247185,-323.91046073417374,-2.646046504144358,-2.0672982167763077,0.0,3425,0.54931640625,0.021233770416032756,0.01935717547882172,-500.7481155582268,0.0
75,3.3437726497650146,-330.82149150108904,219.16558787578512,-239.2653003714949,-2441.7427573045334,0.0,0.6873721059790292,0.1,0.0066983699798583984,0.15407180786132812,0.049782373,0.098670624,-324.6015638108653,-2.6973737064162546,-2.1921303836359893,0.0,3589,0.7985365390777588,0.4457334099752773,0.3041626149075135,-520.843694050556,0.0
76,3.3808794021606445,-306.8743519947133,33.37921593058791,-227.77337838362615,-395.1464408118486,0.0,0.5811840655106707,0.1,0.006605863571166992,0.13907337188720703,0.050003596,0.25513598,-322.8288426292501,-2.607993786881126,-2.032529223763959,0.0,3444,0.488375186920166,0.11436024969953434,0.026507359683276166,-483.0261974304974,0.0
77,3.398651599884033,-315.4580181282165,35.88789047428814,-241.08460808964793,-456.6418774991249,0.0,0.7821595272142265,0.1,0.027815580368041992,0.24998712539672852,0.049614258,0.14163066,-322.0917601791468,-2.802845944409724,-2.090015164874469,0.0,3467,0.5890052318572998,0.023975488662584515,0.019899933531737562,-491.1136489560897,0.0
78,3.3925092220306396,-312.75330108880974,42.37702564432051,-223.24591324846796,-580.2937063235719,0.0,0.8136930088916663,0.1,0.006974220275878906,0.1483900547027588,0.049623333,0.10760755,-321.15791427011305,-2.6523934232276267,-2.0718464011893167,0.0,3483,0.5217154026031494,0.0303254026018444,0.027763584930231438,-509.53284224886784,0.0
79,3.4101293087005615,-306.30181962080127,36.64035015950201,-206.7757280267932,-467.9511682735481,1.0416666666666667,0.8028524024101052,0.1,0.013184785842895508,0.2259669303894043,0.05007277,0.1286863,-319.6723048051819,-2.600164866498023,-2.028429914646255,1.0416666666666667,3469,0.5908992290496826,0.023573391320460227,0.022131483985604352,-500.8367192951408,0.0
80,3.4509661197662354,-307.31075220653383,35.761206580398884,-245.64037048989312,-464.7014949432202,0.0,0.8305647968435802,0.1,0.006338596343994141,0.13974428176879883,0.05029341,0.14527173,-318.4361495453171,-2.732423552742818,-2.0357082776810347,0.0,3410,0.7482049465179443,0.016920023766603905,0.015810432556046205,-506.6743351513427,0.0
81,3.4534037113189697,-305.83535903895904,35.653765324552715,-222.0170909536611,-426.44951260678727,0.0,0.772009625919197,0.1,0.061444997787475586,0.3847634792327881,0.05035124,0.12935457,-317.1760704946813,-2.694988089824424,-2.0261449873659303,0.0,3371,0.6341800689697266,0.019825423666716965,0.01906263185776696,-479.80264328141106,0.0
82,3.5346310138702393,-311.32536277263677,55.49330719613271,-196.3435873985828,-702.3164151587738,0.0,0.8161365455990145,0.1,0.05083465576171875,0.152632474899292,0.050320666,0.14364925,-316.59099972247685,-2.8265985182476974,-2.0623440957173904,0.0,3447,0.6814610958099365,0.03685462318734588,0.03449317972395786,-482.97923190438087,0.0
83,3.350482940673828,-311.1448721963573,35.60282675641979,-222.21742468875203,-420.31819501669986,0.0,0.806626068902984,0.1,0.04317474365234375,0.2168745994567871,0.049196143,0.1624422,-316.0463869698649,-2.8831502236405755,-2.060973626781344,0.0,3423,0.5666017532348633,0.018137995946628835,0.017120573146701748,-481.0302310739503,0.0
84,3.3069849014282227,-302.155723968265,41.39900052806663,-227.25773595845473,-471.9430533032344,0.0,0.8552872460581407,0.1,0.006894588470458984,0.1549549102783203,0.04993392,0.11493679,-314.657320669705,-2.699969540577179,-2.0010585924887603,0.0,3352,0.5230622291564941,0.021500124833077706,0.019963942120489,-470.26224748173695,0.0
85,3.3238563537597656,-304.18443373563724,46.20268465346005,-227.27670464818917,-444.5636728740598,0.0,0.8773796135537509,0.1,0.05177640914916992,0.16036462783813477,0.050424814,0.11460741,-313.6100319762982,-2.701467633280538,-2.015133598727902,0.0,3434,0.5232141017913818,0.026375023138468456,0.018220989703037652,-476.2109735265584,0.0
86,3.242661714553833,-302.9948096641051,64.98733540248398,-218.68328075680887,-833.8527945769353,1.0416666666666667,0.7188023273678912,0.1,0.02635955810546875,0.15882515907287598,0.05037739,0.12627506,-312.5485097450789,-2.736052610924578,-2.006822088047095,1.0416666666666667,3321,0.5033104419708252,0.04645532379984923,0.04031736418957138,-442.8512175695609,0.0
87,3.3267664909362793,-305.79157794283776,126.72835266155654,-218.60702388358465,-1498.5684899792514,0.0,0.6750009802447564,0.1,0.058957815170288086,0.21644806861877441,0.051901646,0.108600795,-311.8728165648548,-2.7139162857151145,-2.025935234931756,0.0,3369,0.5244777202606201,0.265036926262281,0.18947110365088654,-432.56886048380136,0.0
88,3.1772778034210205,-287.87709290562094,28.421044300801785,-220.65056604067894,-377.5449806438207,2.0833333333333335,0.6992322626053498,0.1,0.0610966682434082,0.15602898597717285,0.04947611,0.18113033,-309.4732441989314,-2.6850942503705055,-1.9060386831009033,2.0833333333333335,3245,0.49889469146728516,0.036129496022545615,0.0146932641155278,-404.9410571960375,0.0
89,3.143927812576294,-297.53120793769017,35.734050337653684,-225.10719737361543,-379.6334738430675,0.0,0.7927686912083037,0.1,0.006760835647583008,0.15068960189819336,0.050093792,0.14274505,-308.27904057280733,-2.822016295731366,-1.969942598076136,0.0,3275,0.5008909702301025,0.027175392130302078,0.019791457298144896,-419.6060356451167,0.0
90,3.338344097137451,-292.350462894843,33.67117305884095,-219.91940421428015,-378.0302562226204,0.0,0.7618396028284253,0.1,0.00979471206665039,0.14854812622070312,0.050289318,0.18038139,-306.68618280501096,-2.646825439541133,-1.9360708031801737,0.0,3269,0.6762633323669434,0.018505092271634622,0.01673670449270402,-449.7384352368265,0.0
91,3.478092908859253,-303.75092777693106,107.35973236954952,-219.36017984563452,-1285.253519978835,0.0,0.6334587392222167,0.1,0.017033100128173828,0.2671482563018799,0.04876647,0.08212469,-306.39265730220296,-2.7588837598427083,-2.0123399960474013,0.0,3333,0.6252150535583496,0.1387246124541102,0.11006112812245063,-450.9312479398417,0.0
92,3.4063720703125,-291.5152015217801,54.77793960366296,-212.49043016090727,-633.2503571515585,0.0,0.7668948761837432,0.1,0.01207113265991211,0.2198636531829834,0.05013401,0.15061669,-304.9049117241607,-2.6801170760501605,-1.930392846554969,0.0,3244,0.4648756980895996,0.04829342236466223,0.032864409103883184,-423.9595783542142,0.0
93,3.1490488052368164,-289.00386861237,36.74471857082755,-215.68331336029908,-439.95393520198047,0.0,0.8328953284770833,0.1,0.0066568851470947266,0.14435768127441406,0.05024332,0.11612986,-303.3148074129816,-2.688670942551626,-1.9134586303340704,0.0,3170,0.4229915142059326,0.021189464587317065,0.018288895575629672,-459.5622982573036,0.0
94,3.1237521171569824,-281.25082764218024,31.38030028374364,-217.32016227417324,-362.96529734646515,0.0,0.8300383512117132,0.1,0.006525754928588867,0.14461326599121094,0.049904168,0.12669033,-301.1084094359015,-2.6140778163102523,-1.8620895112727285,0.0,3137,0.4188501834869385,0.018200502318480236,0.016542463943574066,-423.34428626053653,0.0
95,3.1534180641174316,-285.5082115686173,40.933116001791774,-211.63178526084,-403.4048719167922,0.0,0.7909124567324322,0.1,0.0062520503997802734,0.1460278034210205,0.049156662,0.12781958,-299.5483896491731,-2.6401592007228234,-1.8905700937083585,0.0,3171,0.424774169921875,0.023156599727616384,0.022034782867333753,-423.08699835572526,0.0
96,3.156606674194336,-286.5092922583624,41.5725830157523,-209.03743681251592,-413.0780139359405,0.0,0.7454786132372045,0.1,0.0062024593353271484,0.155961275100708,0.04825295,0.12765227,-298.244479910092,-2.681783987749545,-1.897009652130521,0.0,3140,0.41218042373657227,0.02252792654530726,0.020437473249012197,-404.4002537938661,0.0
97,3.174353837966919,-288.7047898374118,37.20800009827722,-209.54821535224278,-398.1755766012753,0.0,0.8087953698900016,0.1,0.03843188285827637,0.1530745029449463,0.049937602,0.11383391,-297.290510902824,-2.7739328879151457,-1.9115925608766446,0.0,3159,0.4755384922027588,0.022070568221039415,0.018901871923011,-384.29040634557964,0.0
98,3.157548666000366,-295.85615409070346,70.5460913542555,-215.99102082018965,-806.4449737632134,0.0,0.7426051042354969,0.1,0.07137513160705566,0.1882338523864746,0.049918294,0.102583274,-297.14707522161194,-2.842576504313334,-1.9588592159483043,0.0,3160,0.47072315216064453,0.07623681164710432,0.06442352835396514,-389.96770205715814,0.0
99,3.1085824966430664,-283.887644407522,34.56679166071952,-198.8051558460227,-359.5744355357773,0.0,0.7580215871717172,0.1,0.04459881782531738,0.24415278434753418,0.04966742,0.14331429,-295.82113214020296,-2.6649368383425562,-1.8795546822381883,0.0,3097,0.4691436290740967,0.024160743463310264,0.016940203963185053,-372.1801042104854,0.0
100,3.0360910892486572,-272.7796675028742,38.41259929775916,-195.62600327279898,-386.9519805090265,0.0,0.8052800889950051,0.1,0.007020711898803711,0.1548752784729004,0.050654173,0.1254188,-293.5169856764701,-2.613728076076871,-1.8057129253992128,0.0,3015,0.44746994972229004,0.022547824281804955,0.01743221140879706,-345.46458726173364,0.0
101,3.261343479156494,-284.9752526341715,50.432974159896226,-216.44048750277878,-491.6307051340054,0.0,0.782624764446262,0.1,0.024847984313964844,0.18692398071289062,0.048853517,0.11763568,-292.66281237224024,-2.7856458264497284,-1.8866537483983379,0.0,3080,0.44514012336730957,0.03706249915701669,0.02903025448354721,-311.2173463617114,0.0
102,3.2568459510803223,-279.88708599064836,39.044030051155474,-210.53177987512112,-426.5371877184399,0.0,0.7623768667971363,0.1,0.01300501823425293,0.27283811569213867,0.050112773,0.12612514,-291.3852397340811,-2.786060225797129,-1.8526609756429728,0.0,2990,0.4931678771972656,0.023291744929622018,0.021357013547601084,-310.36780736939625,0.0
103,2.9109761714935303,-272.29337398271235,34.82556241411177,-210.37514753692352,-384.4405149097068,0.0,0.7385103425318374,0.1,0.007128000259399414,0.15514183044433594,0.049600676,0.13634613,-289.47605315894424,-2.694162304351133,-1.8025025268664399,0.0,2921,0.4201676845550537,0.018598170216109256,0.01729424369310039,-302.86088823005275,0.0
104,2.9070425033569336,-269.9732324081858,35.51404438809422,-190.42865491344332,-375.1136578695522,0.0,0.7866371353948203,0.1,0.006559133529663086,0.14980387687683105,0.04922624,0.13679309,-287.5257710838684,-2.6986819391255596,-1.7866516180924326,0.0,2855,0.40459537506103516,0.01821556564490792,0.016192915123362326,-289.15953182606336,0.0
105,2.8239588737487793,-268.7055746706512,42.00929478667511,-199.4033027848191,-445.0758528018913,0.0,0.7828922284044635,0.1,0.0064809322357177734,0.14963436126708984,0.049122095,0.1191887,-285.64375144254666,-2.6015169472582396,-1.7785197222635396,0.0,2854,0.396240234375,0.026478783753178317,0.023294664272501004,-286.4887550170524,0.0
106,2.7883596420288086,-260.83479471274177,34.578483746376364,-204.61004360888342,-408.1462944937816,1.0416666666666667,0.7600082629502295,0.1,0.00640869140625,0.1450023651123047,0.049120724,0.14171782,-283.1628557695662,-2.580789309922718,-1.7261803862356686,1.0416666666666667,2754,0.43797850608825684,0.020437462347697815,0.01879264176894298,-281.1295164030298,0.0
107,2.7832937240600586,-261.77674016783357,35.44561350301428,-198.06842014514802,-383.6867567423545,0.0,0.7498574239806701,0.1,0.023348093032836914,0.23321771621704102,0.050195307,0.13016133,-281.0242442093929,-2.621823940519722,-1.7316783363321662,0.0,2715,0.3970363140106201,0.016525517961785505,0.014283079646263873,-261.98303659467314,0.0
108,2.7822105884552,-259.5542031051512,35.47847339726373,-200.1526550698667,-389.66788616226734,0.0,0.7789388210175744,0.1,0.006593942642211914,0.14962291717529297,0.048617035,0.13358729,-278.87724009896874,-2.5606990464539137,-1.7176320875416256,0.0,2736,0.40384793281555176,0.01970083381212058,0.01700215825734649,-246.38944663396404,0.0
109,2.743514060974121,-260.10358208212745,37.78354834087439,-204.17756341657432,-460.4834045674602,0.0,0.7385065613542743,0.1,0.006709575653076172,0.14372944831848145,0.049227882,0.17152496,-276.99987429728463,-2.6188531887763893,-1.7211542973928324,0.0,2681,0.39557957649230957,0.023713471055720588,0.021488151709394502,-229.1706129682061,0.0
110,2.634495735168457,-259.1852277506871,83.96475231590978,-199.7066561043574,-1016.9781658372054,0.0,0.6386554986576386,0.1,0.006541728973388672,0.14524435997009277,0.048737813,0.09847487,-275.2184096426249,-2.539047851487563,-1.7154102412976122,0.0,2666,0.40978574752807617,0.11360213841944708,0.09361982874901026,-224.65770196472317,0.0
111,2.7411797046661377,-256.507918327963,48.62583193411386,-182.92701891122314,-563.1447529411421,0.0,0.6837884300014555,0.1,0.006639719009399414,0.1475062370300293,0.048555467,0.1284821,-273.34736051115874,-2.5686570913607945,-1.6970949652417946,0.0,2671,0.39322876930236816,0.04863124429483779,0.03312293512617449,-217.444645976549,0.0
112,2.7125773429870605,-256.37494606066554,31.73130352670016,-199.58741038325815,-377.14452126193106,0.0,0.6750378291791822,0.1,0.01755070686340332,0.14516758918762207,0.05090144,0.21844557,-271.6501190661094,-2.66986927299517,-1.6963009715259991,0.0,2612,0.37537622451782227,0.01997581294762854,0.017593682809403294,-215.5590087360855,0.0
113,2.8587162494659424,-250.59072517850777,25.910245620587567,-194.12492629928022,-315.6986489770577,0.0,0.8026353789638454,0.1,0.006604909896850586,0.14453530311584473,0.04961275,0.11831563,-269.54417967734923,-2.5483976872515424,-1.6577754462188352,0.0,2572,0.39560389518737793,0.013956661769013216,0.01206663869722418,-209.6875024167243,0.0
114,2.7825753688812256,-247.59011301877885,32.338774368458424,-196.88930013677918,-429.7251208826723,0.0,0.6669665566356257,0.1,0.04195094108581543,0.18048596382141113,0.04939749,0.14215781,-267.3487730114922,-2.553918726485206,-1.6378464686573253,0.0,2518,0.45097851753234863,0.018848258629005167,0.01708332945929092,-212.36869143424929,0.0
115,2.7910799980163574,-250.9655018632537,29.88864730336931,-192.08919279469595,-341.12636695103095,0.0,0.7548972384226232,0.1,0.0062427520751953125,0.14371323585510254,0.049832016,0.13590367,-265.7104458966684,-2.692852875743634,-1.6602041668226981,0.0,2524,0.3799569606781006,0.014755627065133914,0.01317382390159507,-209.97353202340548,0.0
116,2.74887752532959,-249.05158771777906,39.57731149592992,-187.34088950917024,-435.41520586606873,0.0,0.7418871427090257,0.1,0.006350994110107422,0.13635683059692383,0.049815707,0.123688504,-264.04456007877945,-2.5983469892575237,-1.6474781448330091,0.0,2522,0.38424229621887207,0.023643765254306344,0.02063552735902404,-210.27617233245036,0.0
117,2.5748560428619385,-244.93885908510097,30.092619247303112,-172.7484653557094,-331.4982593177933,1.0416666666666667,0.7282427147493069,0.1,0.0442807674407959,0.14715838432312012,0.049456984,0.13370873,-262.13398997941164,-2.600333781537285,-1.6201671953267456,1.0416666666666667,2451,0.3941676616668701,0.017271360306584937,0.012814036838012029,-208.81939770225546,0.0
118,2.588498830795288,-242.13275995669304,32.11458363455836,-179.80205467731787,-347.856928399642,0.0,0.7112777077031618,0.1,0.006616830825805664,0.14485907554626465,0.048336577,0.1295915,-260.13386697713975,-2.6032911966340238,-1.6014249784756147,0.0,2430,0.3723762035369873,0.013480113645404104,0.012115638968067863,-206.33467795014437,0.0
119,2.5125086307525635,-237.15786971239822,31.400285081858925,-179.6705042837501,-383.2132666450891,0.0,0.7332824178585805,0.1,0.006514549255371094,0.1451096534729004,0.04985776,0.12743185,-257.8362672506656,-2.5633660131159886,-1.5682441817524733,0.0,2362,0.35416340827941895,0.01634198863426736,0.014546881482259149,-205.484116310467,0.0
120,2.4735610485076904,-230.40384839929243,28.745570725440675,-184.58158978890378,-322.8815068564569,0.0,0.7679677970255655,0.1,0.006757497787475586,0.1473686695098877,0.047568917,0.12654246,-255.09302536552832,-2.4566239028932864,-1.523230550058848,0.0,2334,0.36975884437561035,0.012056232230183098,0.01017118541263884,-201.51266827728375,0.0
121,2.494657278060913,-232.95737876887492,27.285931921806934,-168.06942595675773,-302.4847347694034,0.0,0.7187949117624535,0.1,0.017507314682006836,0.16063237190246582,0.049835548,0.14555416,-252.87946070586298,-2.5929342676826352,-1.5403023587584566,0.0,2278,0.3542752265930176,0.011782757209926841,0.010754539894805733,-198.886448714212,0.0
122,2.4034299850463867,-230.04098119817058,30.251489737675627,-181.9042762394493,-338.0472340551409,0.0,0.7046263234098714,0.1,0.00666046142578125,0.14539122581481934,0.049946826,0.1393955,-250.59561275509375,-2.609892858068386,-1.5211199223598542,0.0,2258,0.35799622535705566,0.01252691273088856,0.011310475544494785,-197.15930312295876,0.0
123,2.3934030532836914,-232.84756533939628,35.24162191746081,-174.16387442165984,-451.34062568144145,0.0,0.6146543428080862,0.1,0.008638143539428711,0.14870095252990723,0.048419945,0.12591515,-248.82080801352402,-2.649797899625012,-1.53905571296397,0.0,2252,0.35913991928100586,0.02662995604442092,0.01990587179666837,-195.50941242716473,0.0
124,2.3410885334014893,-226.51714423929948,28.20909612329446,-170.62109939442666,-296.7323639076007,0.0,0.7012649040202419,0.1,0.006493806838989258,0.14273476600646973,0.04893596,0.14448921,-246.59044163610156,-2.6518295861311203,-1.4976863550803383,0.0,2186,0.3459906578063965,0.013612741767502547,0.008111094913515877,-195.33460515399065,0.0
125,2.338089942932129,-221.90437577037008,26.03441774378285,-183.89404465516142,-344.22222239611943,0.0,0.7239202476643243,0.1,0.007213115692138672,0.1414194107055664,0.049874935,0.13135481,-244.1218350495284,-2.573429614194072,-1.4668884418568195,0.0,2144,0.33423662185668945,0.012011105226421969,0.010855808564680875,-192.09584797130813,0.0
126,2.408306837081909,-230.19268375437733,40.84966101509856,-159.53629335073975,-497.4968053220969,0.0,0.6656667987244004,0.1,0.02888011932373047,0.16499018669128418,0.050923835,0.13059193,-242.7289199200133,-2.7339342234348503,-1.5216737237342783,0.0,2188,0.34679079055786133,0.03419716545893523,0.030261503203339955,-193.05996698696117,0.0
127,2.283872127532959,-214.25979914338623,22.28504016172949,-174.11839383383088,-291.9140934421568,0.0,0.6603611245064422,0.1,0.006723642349243164,0.14352130889892578,0.050175387,0.14114073,-239.88200784235062,-2.5047612383367657,-1.4156489224766418,0.0,2056,0.3382706642150879,0.016093012190171233,0.008405407653606464,-192.68932726857327,0.0
128,2.2379696369171143,-213.6490683436477,22.68652918371858,-174.497400826207,-288.5448419615633,0.0,0.7110147872361057,0.1,0.02311086654663086,0.15889215469360352,0.04847531,0.1396218,-237.25871389248033,-2.611739677985948,-1.4117011876984458,0.0,2040,0.3247263431549072,0.010513763431896602,0.008531554632373406,-192.80064360538157,0.0
129,2.2605206966400146,-221.90675438316643,49.06406664447615,-178.01702007962203,-642.5781524535754,0.0,0.5906153719157574,0.1,0.006181240081787109,0.14011526107788086,0.050287537,0.11168459,-235.72351794154895,-2.6505248288861494,-1.4665931727967412,0.0,2088,0.31522679328918457,0.058698975528949066,0.04934153089718242,-191.30172653536553,0.0
130,2.1205360889434814,-218.54476742020537,24.411395177002017,-174.70184286287184,-330.41630696345135,0.0,0.7201037704460168,0.1,0.005810260772705078,0.13317322731018066,0.049102608,0.13261431,-234.00564288941462,-2.6547628445284546,-1.4441652064559813,0.0,2059,0.2770555019378662,0.015670238362792663,0.010017429886137689,-190.92749864994028,0.0
131,2.1528964042663574,-218.95537429429115,26.734517330842134,-166.4803555459045,-375.8681881715814,0.0,0.7408924551312788,0.1,0.006164073944091797,0.1386547088623047,0.049171966,0.12408294,-232.50061602990226,-2.645225724491601,-1.447103370780913,0.0,2083,0.2813546657562256,0.012767946279982819,0.01109080148783322,-190.5207902163544,0.0
132,2.131593942642212,-217.33996161815935,25.074386927058626,-176.3876701307791,-300.33833322463755,0.0,0.7052281910662398,0.1,0.006268024444580078,0.140702486038208,0.04897578,0.13431126,-230.98455058872798,-2.67569660915044,-1.4363594502551675,0.0,2026,0.3080720901489258,0.012562767023540948,0.0114315502400051,-188.57620670602938,0.0
133,2.0732884407043457,-210.1620798091002,23.73290756615231,-157.53339079252328,-286.43790169610367,0.0,0.6902947698724111,0.1,0.005865812301635742,0.13326334953308105,0.050060213,0.1491582,-228.90230351076522,-2.5422500552288096,-1.3886326774276745,0.0,1994,0.27074408531188965,0.009202038605475674,0.007139914988878916,-184.32216256037498,0.0
134,2.479192018508911,-208.0603248890666,20.238091128331167,-167.63007002732365,-262.70948336413886,0.0,0.7225104895559019,0.1,0.02176833152770996,0.1390695571899414,0.04965466,0.14152898,-226.81810564859535,-2.518640970017053,-1.3744384894295123,0.0,1964,0.307636022567749,0.00869072375524588,0.007793956070246257,-180.57386768858828,0.0
135,2.2189440727233887,-210.1962197360791,28.28005638701315,-163.9833746657971,-373.5625969229502,0.0,0.6926912039227037,0.1,0.028458833694458008,0.1568899154663086,0.048003938,0.12952988,-225.15591705734374,-2.5826426582040996,-1.3888003491701308,0.0,1971,0.2993130683898926,0.013588903110328612,0.012282040843569302,-180.1014392933975,0.0
136,2.180016040802002,-208.25761710203656,22.319914848782158,-167.37517877968529,-274.8785888904715,1.0416666666666667,0.6677857273377577,0.1,0.006014347076416016,0.13540887832641602,0.049351167,0.14600024,-223.46608706181303,-2.608016424136468,-1.3757825097748047,1.0416666666666667,1928,0.3054187297821045,0.009430498157230596,0.008193112248200244,-178.51934217693994,0.0
137,2.1140100955963135,-199.08708321727386,20.660054771258796,-158.72675325992978,-248.6964351291355,0.0,0.6439883614280633,0.1,0.0061359405517578125,0.13093996047973633,0.049264744,0.14736624,-221.02818667735914,-2.5229279100992463,-1.3149400036648915,0.0,1856,0.28941869735717773,0.009548145481087409,0.007109779779195945,-174.35560666057478,0.0
138,2.142709255218506,-199.73026858161043,19.17119845101311,-163.83030745157322,-265.78064811146953,0.0,0.7037375308791917,0.1,0.006362199783325195,0.13674211502075195,0.049588326,0.13796556,-218.89839486778428,-2.502197535101508,-1.318957483521998,0.0,1870,0.29872894287109375,0.008241774838062174,0.007403386790510998,-173.56158949493678,0.0
139,2.1214540004730225,-202.25647226389015,29.39757393161623,-160.41188512955975,-433.39926773543885,0.0,0.6551746065751425,0.1,0.005983829498291016,0.13747787475585938,0.050434347,0.13010634,-217.23420260739488,-2.5054713589400457,-1.33576437744286,0.0,1882,0.2979166507720947,0.015962288185306685,0.014346731358533926,-177.13099291549318,0.0
140,2.0894949436187744,-198.0190032435669,20.65018181502884,-161.8544205275073,-245.60054279884687,0.0,0.6505713484858071,0.1,0.005871772766113281,0.16329455375671387,0.049092293,0.15354107,-215.31268267101208,-2.5469094764056033,-1.3076416478038977,0.0,1850,0.3550717830657959,0.010023456901837327,0.008681254701524066,-174.65362112173455,0.0
141,2.106241464614868,-199.00820154065073,20.104948780815192,-155.14981758067307,-265.85412679952975,0.0,0.7059934937918309,0.1,0.0059299468994140625,0.1900343894958496,0.04948613,0.13727358,-213.68223455797596,-2.5806173852017587,-1.3138064422620044,0.0,1845,0.3116915225982666,0.00946238771305734,0.008935923106567238,-174.12318752575544,0.0
142,2.0625598430633545,-197.06158329792598,22.633209703993817,-163.59948137800586,-274.5073629938566,0.0,0.6864060872607941,0.1,0.006079435348510742,0.13611340522766113,0.048595864,0.13811,-212.02016943197097,-2.452351934010997,-1.3011369387011975,0.0,1849,0.28634142875671387,0.010273471549573001,0.009516601397313177,-175.28873631488057,0.0
143,2.084773302078247,-193.71011288970848,23.36687717715962,-151.89355088673355,-358.8105204966271,0.0,0.6836614293528375,0.1,0.005860567092895508,0.13500475883483887,0.049831297,0.13007373,-210.18916377774474,-2.4254131193319255,-1.2789605629196765,0.0,1812,0.28472232818603516,0.014816084447694352,0.013816510640370604,-171.63103286764317,0.0
144,2.08404278755188,-187.83050961900025,14.779522161943552,-158.23558235975509,-228.19885643414523,0.0,0.6784190215393575,0.1,0.0061528682708740234,0.13351941108703613,0.049578145,0.14515842,-207.95329836187028,-2.4280409428643623,-1.2398650327915808,0.0,1773,0.28175950050354004,0.010450764172866096,0.006731227661306845,-171.43116037766043,0.0
145,2.0811219215393066,-195.0506498734892,18.56993162157377,-160.44068758865237,-255.45705481947095,0.0,0.632583892666489,0.1,0.005947589874267578,0.15362238883972168,0.049445644,0.15145785,-206.6630335130322,-2.501908199125011,-1.2876268857198203,0.0,1795,0.28812170028686523,0.009620577762468973,0.0077534944334362085,-170.5303578443295,0.0
146,2.0612308979034424,-185.44533998648345,17.046127893406275,-155.26543464665028,-237.35242772670284,0.0,0.7096223686759562,0.1,0.0061571598052978516,0.13656210899353027,0.04972821,0.14242056,-204.54126416037732,-2.3377130862654525,-1.22406066847369,0.0,1767,0.28243064880371094,0.010355499539214674,0.00730531324091578,-172.98869360793424,0.0
147,2.0819785594940186,-191.05783241761085,18.24926382891612,-149.95401079748223,-244.45710721972466,0.0,0.7046479066676731,0.1,0.006002902984619141,0.1343531608581543,0.0502698,0.14420453,-203.1929209861007,-2.4611360543251286,-1.2614659710763252,0.0,1783,0.2699546813964844,0.0084324417668949,0.0068617926507289935,-171.61629215939297,0.0
148,2.0949244499206543,-192.1413951757369,16.226079119751635,-165.96651761952677,-240.4367098989357,0.0,0.7033811705735363,0.1,0.026757478713989258,0.13166356086730957,0.049915917,0.13760942,-202.0877684050643,-2.4996930468622742,-1.2684486144093763,0.0,1790,0.27025938034057617,0.008116893347025226,0.00655233284878803,-171.54833571561872,0.0
149,2.066977024078369,-186.05344275869302,17.45266145298409,-156.39960699627648,-254.84555352135652,0.0,0.6296732423759189,0.1,0.02230525016784668,0.2439570426940918,0.047482274,0.15331596,-200.48433584042718,-2.3944141553773712,-1.2279699812926326,0.0,1741,0.2624361515045166,0.00869475521304721,0.007669258442810738,-171.35050042861275,0.0
150,2.0492889881134033,-185.97107568034085,15.757977079527986,-153.2959727506191,-242.8710589672766,0.0,0.6794385095956185,0.1,0.005968332290649414,0.1319105625152588,0.048772395,0.15560505,-199.03300982441854,-2.394383527290719,-1.227512423548628,0.0,1746,0.2605900764465332,0.006884552974190098,0.006012533475053908,-170.51982784241397,0.0
151,2.0299088954925537,-186.08827163434225,16.378291012985258,-160.37765028391235,-235.64209234737112,0.0,0.6348876766121897,0.1,0.015503406524658203,0.13740849494934082,0.048852816,0.14967994,-197.7385360054109,-2.4215252002205827,-1.22783332862727,0.0,1745,0.26056528091430664,0.007498183723047869,0.006947020173187934,-170.09195705414257,0.0
152,1.9510023593902588,-183.17268077912186,14.728020355253479,-152.41954652602845,-237.44782388555257,0.0,0.6087465626415686,0.1,0.0060253143310546875,0.14852547645568848,0.04896231,0.15595688,-196.281950482782,-2.352323009802703,-1.2087966673467048,0.0,1731,0.26059460639953613,0.006477003946739602,0.006036022782887502,-169.3620687504436,0.0
153,1.770179033279419,-183.35560327989265,15.390688965729531,-149.86399448415332,-222.3285026113003,0.0,0.689724166081199,0.1,0.006055116653442383,0.15042829513549805,0.050423965,0.13933222,-194.98931576249308,-2.442399319442949,-1.2098445089159913,0.0,1715,0.26072025299072266,0.006450419099270639,0.00609849806030779,-170.42827570907235,0.0
154,2.027899742126465,-185.8811658222115,14.959705084434237,-150.73319713237956,-236.41984214609624,0.0,0.663479721470444,0.1,0.006005048751831055,0.1575007438659668,0.049409393,0.15304756,-194.07850076846492,-2.5077119005278794,-1.2266853901992711,0.0,1727,0.24867486953735352,0.0076133416699682085,0.006977078358835701,-170.19796642361615,0.0
155,1.9631223678588867,-183.78221036398497,16.064067486270833,-154.11521226747624,-238.76228255224962,0.0,0.6609406647316167,0.1,0.020002126693725586,0.20427417755126953,0.045812584,0.14351483,-193.0488717280169,-2.403242413184737,-1.2128144967304417,0.0,1727,0.26072001457214355,0.006487250945516982,0.006123801935406788,-170.07471295713478,0.0
156,2.018566131591797,-182.41847646349618,16.969513077578906,-150.6755144335489,-242.53064654044243,0.0,0.6422107578990557,0.1,0.006025791168212891,0.1908268928527832,0.048953425,0.15004073,-191.98583220156482,-2.426407465203437,-1.2034289493925987,0.0,1705,0.29057908058166504,0.008462686500644072,0.007589754763837812,-169.55099372306108,0.0
157,2.2201194763183594,-182.7692073679732,13.856635204294427,-150.06635321219065,-224.26974644439258,0.0,0.7399217977605765,0.1,0.024498701095581055,0.13289189338684082,0.048896417,0.13332368,-191.06416971820565,-2.449164481435776,-1.20589038793943,0.0,1701,0.34061479568481445,0.006546663806357915,0.006138651827483221,-170.2406438803984,0.0
158,2.1646981239318848,-181.9991448170399,15.859129791383639,-150.79597970026958,-236.08521474049127,0.0,0.6835310968940262,0.1,0.06838631629943848,0.12524819374084473,0.049332894,0.13979952,-190.15766722808908,-2.450188547141453,-1.201097526144366,0.0,1694,0.25041937828063965,0.0061525118064545735,0.005817564379055211,-169.79892175320506,0.0
159,2.19413161277771,-179.76350381998802,13.562764031451684,-152.90596505995896,-213.99156305594448,0.0,0.6761274568574143,0.1,0.006293535232543945,0.1297740936279297,0.048735738,0.14724953,-189.11825088727898,-2.3352043295601184,-1.1859104205975433,0.0,1688,0.2565138339996338,0.0055979656855136475,0.0053387550455271755,-169.92665498684914,0.0
160,1.957761287689209,-182.9197213502166,17.310765062840627,-149.66659754145587,-280.5060975406234,0.0,0.6219861420122024,0.1,0.006716251373291016,0.13907074928283691,0.04844482,0.14095135,-188.49839793357276,-2.4032448395042305,-1.206876733303491,0.0,1710,0.25821352005004883,0.008368125027387478,0.007554568908775482,-170.30264577196706,0.0
161,2.224867105484009,-180.51597299178547,13.954650151533768,-147.5371291603269,-214.2816196830258,0.0,0.6733011907223438,0.1,0.0060083866119384766,0.1309511661529541,0.04736933,0.1403254,-187.70015543939405,-2.4250593447774063,-1.190894460020422,0.0,1686,0.25684094429016113,0.0055352207610635095,0.005152887176726821,-169.75525792382354,0.0
162,2.1249635219573975,-178.39341980100676,15.425601741471755,-141.34891376655503,-231.99848498835192,0.0,0.71054375028627,0.1,0.006149768829345703,0.13078022003173828,0.050420746,0.1378681,-186.76948187555533,-2.332410854839674,-1.1764926050682216,0.0,1682,0.25111913681030273,0.0063761490345453685,0.005860274698244015,-169.81221958826183,0.0
163,2.0160045623779297,-179.1064433389405,14.52627793419244,-142.51817857093815,-238.85553548579492,0.0,0.6829658617644863,0.1,0.005781650543212891,0.14031457901000977,0.048745863,0.14169788,-186.00317802189386,-2.340624720210928,-1.181645999546646,0.0,1688,0.22754669189453125,0.00808995853422283,0.006740316645425792,-169.57583005081824,0.0
164,1.980424404144287,-178.33609426649886,12.901463978094593,-152.23967032482827,-215.3297043807992,0.0,0.6978664937992954,0.1,0.006265401840209961,0.13640594482421875,0.0481493,0.14326426,-185.23646964635435,-2.3842206933742736,-1.1764993446644763,0.0,1678,0.22525382041931152,0.005968953966275498,0.0050533814217254384,-170.57437876312605,0.0
165,2.009064197540283,-178.58806165309343,13.481334318773518,-144.13394131234816,-208.64731768187823,0.0,0.6594632951865393,0.1,0.0064656734466552734,0.1366724967956543,0.04944656,0.14995036,-184.57162884702828,-2.428750226925707,-1.1781481117908972,0.0,1684,0.23979878425598145,0.005596386032060405,0.005101764671653429,-169.46103809840895,0.0
166,2.007650375366211,-178.48928079217794,12.963683163023848,-137.94078257157489,-230.6123155631358,0.0,0.6585382625769661,0.1,0.006469011306762695,0.14513373374938965,0.04878123,0.15790604,-183.96339404154324,-2.35289118243245,-1.1773552839493255,0.0,1674,0.2537047863006592,0.005593148923221888,0.005004237734839196,-169.87450972667148,0.0
167,1.964174509048462,-176.87666610225494,12.186319380739585,-149.7057646961967,-207.3571428043828,0.0,0.692102637064982,0.1,0.0062255859375,0.1409139633178711,0.04840741,0.14082222,-183.2547212476144,-2.3859617610965533,-1.166872626121618,0.0,1665,0.28275322914123535,0.006269245561858143,0.00522427552367244,-169.82649562136413,0.0
168,2.0077836513519287,-179.22366701435294,10.881506141702639,-153.12675164096797,-203.51116465582038,0.0,0.6533021303634524,0.1,0.006761312484741211,0.3617286682128906,0.047856957,0.14946584,-182.85161582428827,-2.4188733638372013,-1.182299473723098,0.0,1675,0.2689235210418701,0.00517128735157831,0.004547135960973246,-170.40659518829182,0.0
169,1.9816865921020508,-179.07733794335545,10.903349363492822,-155.43588568012288,-205.3988598907418,0.0,0.6808968381991366,0.1,0.031964778900146484,0.18289613723754883,0.04679878,0.15193,-182.474188036195,-2.43758106412893,-1.1812403764708608,0.0,1669,0.27400922775268555,0.005255029968697865,0.004556442202701984,-169.73944808940277,0.0
170,1.9780488014221191,-177.10715875304308,13.976124075869224,-150.37578724666426,-245.0764352443386,0.0,0.6737998730513485,0.1,0.02325129508972168,0.16185808181762695,0.04694917,0.1329256,-181.9374851078798,-2.3936273444407887,-1.1682336859104279,0.0,1663,0.24953532218933105,0.006879560485730915,0.006293823486680202,-170.4136877369154,0.0
171,2.060304880142212,-178.76522783577238,13.145995372047777,-147.87141430698247,-213.50813216806603,0.0,0.6725304210978373,0.1,0.0077762603759765625,0.14896631240844727,0.049159724,0.15159728,-181.62025938066907,-2.483160413785852,-1.179348702641035,0.0,1666,0.2584347724914551,0.0059202052970438925,0.005676915140151121,-170.52323221310758,0.0
172,1.9878249168395996,-179.2787878457234,11.462595682061709,-156.93807434735243,-214.3817412358185,0.0,0.6654620931116162,0.1,0.006250143051147461,0.18216514587402344,0.04797964,0.1495144,-181.3861122271745,-2.4417592906322745,-1.1824081003926574,0.0,1671,0.2670905590057373,0.004623199359657155,0.004291147184187876,-170.69185828740086,0.0
173,1.9657258987426758,-178.06186439248793,13.098613917926265,-148.85260536973556,-212.72113880615086,0.0,0.6913139738539932,0.1,0.017375469207763672,0.13379263877868652,0.04857241,0.14088206,-181.05368744370583,-2.462471048343739,-1.1743318355405556,0.0,1665,0.275775671005249,0.00682614986437725,0.006482391095363721,-170.52629488098478,0.0
174,1.9848103523254395,-176.97800153795825,13.016351367081713,-151.8622063375222,-213.88626545828197,0.0,0.6287105103693416,0.1,0.006509304046630859,0.14333462715148926,0.04818066,0.15023917,-180.6461188531311,-2.4181120993359286,-1.1670753421204332,0.0,1662,0.24343371391296387,0.005626226109308553,0.004722975256035296,-170.5020553721639,0.0
175,1.9831366539001465,-177.1545711651278,11.323049806837222,-154.12962611560076,-230.21000366084826,0.0,0.616989929545692,0.1,0.01329803466796875,0.25008583068847656,0.049332622,0.15388301,-180.2969640843308,-2.42710262544023,-1.1687626585975839,0.0,1651,0.2566540241241455,0.00487601060528259,0.004343831235904299,-170.33763772953438,0.0
176,2.003551721572876,-178.36667298190164,17.58237567565312,-136.81743967733775,-283.53532197705465,0.0,0.6468950819612475,0.1,0.02891826629638672,0.1865682601928711,0.048486564,0.13821445,-180.1039349740879,-2.453361730968,-1.1766984177573054,0.0,1666,0.28519725799560547,0.008336800986705402,0.006830690945895177,-170.3398420866081,0.0
177,1.996323585510254,-176.77719452996408,12.005290454941793,-148.85948236362452,-208.7253897232133,0.0,0.6449287991992432,0.1,0.02801346778869629,0.1356959342956543,0.050510943,0.15753126,-179.77126092967552,-2.4011009025670673,-1.165966133831655,0.0,1653,0.253037691116333,0.0063309078781964255,0.005071467545090372,-170.48231529905456,0.0
178,1.9679169654846191,-176.47959684928276,13.184857654988438,-149.12882026178832,-228.22390162919953,0.0,0.6604175162601121,0.1,0.006146430969238281,0.18637347221374512,0.04910387,0.14598638,-179.44209452163625,-2.410456086854288,-1.164262248823252,0.0,1647,0.24888372421264648,0.005611189238598495,0.005266309484469852,-170.2723122061132,0.0
179,1.9659223556518555,-178.24823754105833,12.021120625741675,-151.5901317608105,-218.4434093276134,0.0,0.6587683995847949,0.1,0.017732858657836914,0.13953590393066406,0.046400923,0.14418595,-179.32270882357847,-2.48961865689391,-1.1758162384966395,0.0,1656,0.24395012855529785,0.005094867069939668,0.004567063579016123,-170.25417754791312,0.0
180,1.98850417137146,-176.04302732403198,12.051546852830405,-142.29408053266138,-212.4631681459572,0.0,0.6596994091074684,0.1,0.019890546798706055,0.13965559005737305,0.0473676,0.14226356,-178.99474067362382,-2.399143195819663,-1.1613995126367975,0.0,1650,0.2508063316345215,0.004901843827015447,0.004150386541297386,-170.24259243450666,0.0
181,1.9481713771820068,-175.36349725816186,12.971918237341137,-146.9848236152001,-210.04059916603381,0.0,0.6733061484144865,0.1,0.006486654281616211,0.144819974899292,0.04544452,0.13189669,-178.63161633207764,-2.4311012377381593,-1.1569097134047632,0.0,1645,0.28012681007385254,0.005963440526992524,0.0056111881550889395,-170.2926284454976,0.0
182,1.9805736541748047,-175.6033052978161,12.852990773649887,-151.74564835163494,-219.25943710619748,0.0,0.6827178724273868,0.1,0.006241559982299805,0.13643503189086914,0.047277685,0.13966328,-178.3287852286515,-2.4282252768773804,-1.158122869254057,0.0,1642,0.2415759563446045,0.005850593037105758,0.005592104468025118,-170.165354307365,0.0
183,2.01485276222229,-176.04379454328947,12.339078583652071,-143.998888094856,-204.8646311134978,0.0,0.6674510862107261,0.1,0.006670951843261719,0.14715003967285156,0.049726117,0.1506019,-178.1002861601153,-2.342566203700627,-1.1611595735206828,0.0,1648,0.26209044456481934,0.005392268795304834,0.004605047687617928,-170.12030104187863,0.0
184,1.9657375812530518,-174.07561639206696,11.494888524469506,-150.59968366763596,-205.22880774583592,0.0,0.6677661591318154,0.1,0.022641420364379883,0.1961977481842041,0.04901902,0.15615454,-177.6978191833105,-2.3400813482343517,-1.1479716118064553,0.0,1648,0.2674736976623535,0.005306327596353441,0.004511259371069469,-169.9789342835581,0.0
185,1.9626095294952393,-174.99209206184216,12.148545231095806,-145.90509721770465,-208.15210931786405,0.0,0.6895212764643591,0.1,0.006588935852050781,0.23786377906799316,0.04784658,0.1406732,-177.42724647116367,-2.3781692006489075,-1.1541019525538625,0.0,1651,0.2765474319458008,0.005261516117094026,0.004920603887185558,-170.32363404639293,0.0
186,1.7714953422546387,-177.11015344976295,12.035347189715779,-146.95673320806446,-214.20395056373803,0.0,0.685054796129806,0.1,0.0064394474029541016,0.1419353485107422,0.049247395,0.15323065,-177.39553716902358,-2.453989427249329,-1.1682422495305114,0.0,1643,0.2565031051635742,0.004826451972004449,0.00361574756380385,-171.35683381667144,0.0
187,2.001729726791382,-174.9359884025274,11.155133632034989,-155.01210973500045,-215.51917823731188,0.0,0.6410393623586556,0.1,0.006009101867675781,0.14916586875915527,0.047940284,0.15500179,-177.14958229237396,-2.3981152666901875,-1.153822833895469,0.0,1646,0.22003507614135742,0.004591326347293088,0.0041140394249071935,-170.44851278250616,0.0
188,1.9661409854888916,-174.54081800713493,10.877897036150307,-142.3052175470728,-200.878525358924,0.0,0.6395494215898008,0.1,0.006177425384521484,0.1378011703491211,0.04910061,0.15586817,-176.88870586385005,-2.3464823008181193,-1.1509410342255335,0.0,1643,0.22026610374450684,0.004282485457242983,0.003919742992821114,-170.63256334435317,0.0
189,1.7065856456756592,-178.2007190152838,13.867368588001709,-142.2954659672466,-219.10440611004285,0.0,0.676632150100943,0.1,0.004799365997314453,0.12584447860717773,0.048909627,0.14628872,-177.01990717899344,-2.500044135523275,-1.175417166123516,0.0,1650,0.21837377548217773,0.0053696871159225135,0.004616543148437672,-170.09451871960638,0.0
190,1.7859010696411133,-176.37736899837105,14.38507817343553,-148.85971012949943,-251.06053386337416,0.0,0.6747238442418535,0.1,0.007669925689697266,0.13724446296691895,0.046925925,0.1350125,-176.9556533609312,-2.4234584346826504,-1.1630700149691549,0.0,1645,0.22822117805480957,0.006199207455996989,0.005404679723003482,-169.2699665783729,0.0
191,2.001798629760742,-177.3842200522181,16.129328032370104,-144.7575156147859,-256.88393086818184,0.0,0.6682800951661072,0.1,0.006392002105712891,0.13931608200073242,0.048411455,0.13624744,-176.9985100300599,-2.440350631821698,-1.1700486258558875,0.0,1652,0.2370443344116211,0.007588009190340227,0.006501124674966056,-170.33477748378607,0.0
192,1.772083044052124,-173.92229756580014,13.635750319664426,-138.85122971827974,-220.93630758332026,0.0,0.7118490874407062,0.1,0.012797117233276367,0.2216956615447998,0.047521,0.13871126,-176.6908887836339,-2.3529395541850158,-1.146923370268241,0.0,1645,0.2506740093231201,0.005870628816689248,0.005297502117878425,-170.72786915858197,0.0
193,2.1981537342071533,-177.43278156897819,13.963134276468372,-147.61873655280934,-253.71279980529897,0.0,0.647840672914728,0.1,0.026955366134643555,0.15940070152282715,0.047528636,0.13703981,-176.76507806216833,-2.44561057700618,-1.1703278482899777,0.0,1656,0.25493335723876953,0.006029908264486794,0.005143801475128066,-170.9166535701466,0.0
194,2.0427112579345703,-173.15270528793894,11.268175244434065,-148.2669101011444,-204.1626243215658,0.0,0.7102398369106706,0.1,0.006398916244506836,0.1352219581604004,0.04808828,0.13527897,-176.4038407847454,-2.329232926679833,-1.1418327110809392,0.0,1635,0.4149150848388672,0.0050637835490125,0.004873783774663735,-172.98656808828005,0.0
195,1.9678318500518799,-174.657886578001,13.443525089763877,-140.6435357650791,-215.17764284608128,0.0,0.6167588567174813,0.1,0.016246318817138672,0.23912382125854492,0.049135797,0.15627667,-176.22924536407095,-2.410011460222416,-1.1517163474760694,0.0,1651,0.23418712615966797,0.006233786082296957,0.005160466732236956,-172.69300425561698,0.0
196,2.1554665565490723,-177.53490012218222,13.21373321222613,-144.64126767081567,-224.54956138143297,0.0,0.6683478377293105,0.1,0.006509542465209961,0.1411733627319336,0.045953445,0.13677958,-176.35981083988207,-2.4776516226912135,-1.171006729527918,0.0,1645,0.23402714729309082,0.005884256174857797,0.005182645549353425,-172.07375748138162,0.0
197,2.1598687171936035,-178.16899922024496,13.45417157315056,-148.00199333416128,-213.53670397741763,0.0,0.6394867703591872,0.1,0.017304658889770508,0.15498661994934082,0.046803683,0.15533465,-176.54072967791836,-2.4869905659009297,-1.1752854367266936,0.0,1649,0.23618507385253906,0.006186454861165709,0.0055333117096491155,-171.088161810474,0.0
198,2.130357503890991,-176.17992140764065,12.918652281353081,-144.3452081938329,-205.16492476846818,0.0,0.6652555800587655,0.1,0.026846647262573242,0.2727224826812744,0.046475243,0.13828634,-176.50464885089062,-2.469179743627882,-1.1620753285532408,0.0,1642,0.2446906566619873,0.0048701869785845835,0.004409403767903372,-169.63389877180396,0.0
199,2.0963945388793945,-174.54065061699532,11.207954341016835,-146.71368908835018,-205.94835445845877,0.0,0.6793217413174867,0.1,0.02320241928100586,0.17589497566223145,0.0480795,0.14802103,-176.3082490275011,-2.4064728047775965,-1.1509301489894403,0.0,1632,0.24037718772888184,0.004825640128509321,0.004242511787802624,-170.44378391240247,0.0
200,2.1510190963745117,-174.85057040866658,13.939197736417084,-146.54603387808575,-217.99615143285502,0.0,0.6374142128841908,0.1,0.006919145584106445,0.15259790420532227,0.04754675,0.14720203,-176.16248116561763,-2.391260463198206,-1.1531117828146338,0.0,1637,0.2399132251739502,0.00455636400438622,0.00417658230525434,-170.56127193248375,0.0
201,1.9670510292053223,-176.1594369378646,11.086462299264657,-150.0153778741393,-198.78081157956206,0.0,0.7320582173560325,0.1,0.00634002685546875,0.14731168746948242,0.048646912,0.1398857,-176.16217674284232,-2.457230787679077,-1.161798414327411,0.0,1638,0.24327898025512695,0.004846525578253977,0.004004698862992146,-170.65153344280418,0.0
202,1.9412732124328613,-172.44798600142613,12.87701478885104,-142.64141841836832,-212.97888995452635,0.0,0.7075661232740842,0.1,0.016093015670776367,0.14067292213439941,0.04816182,0.13979857,-175.7907576687007,-2.345962484756567,-1.137149652317633,0.0,1622,0.21946215629577637,0.005230594596986451,0.004635191945895771,-170.75939885848078,0.0
203,1.9696617126464844,-171.9159324212393,11.441909146519624,-141.24810954603157,-203.68211539720662,0.0,0.6734320832187491,0.1,0.006139278411865234,0.20470190048217773,0.05003488,0.14486234,-175.40327514395457,-2.3186163848116137,-1.1336967790286336,0.0,1629,0.24766325950622559,0.004933294764632924,0.0047098635634408486,-170.60432611751548,0.0
204,1.9397292137145996,-174.95967239885167,12.150050300885917,-141.63006560683374,-203.75909643387865,0.0,0.6729149413346025,0.1,0.006136894226074219,0.13635993003845215,0.04883441,0.14955921,-175.3589148694443,-2.4355997418604556,-1.1538975051900657,0.0,1634,0.22551441192626953,0.0049292550943446116,0.004089762882557997,-170.54121102181205,0.0
205,1.9839122295379639,-176.83517393863244,11.598891852807533,-147.15048726898257,-208.79499903021215,0.0,0.6587317658993844,0.1,0.005982637405395508,0.13376450538635254,0.048337445,0.14597383,-175.50654077636312,-2.492150346281253,-1.166347104785332,0.0,1631,0.2229304313659668,0.004311229342096915,0.0036730881368623887,-170.41346917869492,0.0
206,1.9588623046875,-175.2494267079311,14.306075241405281,-148.80489569860518,-260.8938473569797,0.0,0.6792144180833352,0.1,0.005963563919067383,0.13389205932617188,0.046765115,0.13387892,-175.48082936951994,-2.394660171669511,-1.1560295529016262,0.0,1638,0.21762943267822266,0.005335817429571378,0.004803896556258391,-170.82773120024876,0.0
207,1.9488978385925293,-175.02526206979806,12.155126393162842,-142.37134150809155,-210.2771266419813,0.0,0.6864434863224465,0.1,0.006323337554931641,0.13374805450439453,0.046475828,0.14654402,-175.43527263954775,-2.4413790736338385,-1.15448510265097,0.0,1642,0.21720552444458008,0.0051148510362656295,0.004176749776750303,-170.71587916468124,0.0
208,1.947131633758545,-174.91392334651687,11.114630383916785,-150.96711086077215,-197.6405362627457,0.0,0.6724700538103563,0.1,0.006275177001953125,0.13121485710144043,0.049556345,0.14218912,-175.38313771024468,-2.5061710248841784,-1.153658083623703,0.0,1632,0.2173304557800293,0.0045863485100436155,0.004286151812441762,-170.19559168594415,0.0
209,1.997434139251709,-173.91768355067197,12.298290174685171,-145.53004644896936,-208.55742714436718,0.0,0.6613813879650661,0.1,0.008252859115600586,0.1396656036376953,0.048668843,0.14367591,-175.23659229428742,-2.371249340516752,-1.1470426534214773,0.0,1635,0.24514484405517578,0.005342695151917549,0.004923819171238673,-171.74591420852414,0.0
210,1.953216314315796,-174.1528101329226,12.699818361609546,-146.98930237598015,-204.03464007098952,0.0,0.6882258966904858,0.1,0.006403207778930664,0.13958263397216797,0.049581673,0.14604227,-175.12821407815093,-2.395532322013711,-1.1485790579932633,0.0,1633,0.24434542655944824,0.004228714986750288,0.0037283490154337595,-171.70310695485847,0.0
211,1.9894130229949951,-173.7560416047999,11.529526999017891,-150.8647558548246,-206.71504131416643,0.0,0.645289108362852,0.1,0.0065381526947021484,0.2534933090209961,0.04985221,0.15708217,-174.99099683081582,-2.411408658941069,-1.1457089025607619,0.0,1626,0.25327491760253906,0.005077306090744213,0.0038060603825322043,-170.28262684804568,0.0
212,1.934417963027954,-174.56856960041156,11.418052341400205,-145.20355712868698,-216.90576597203585,0.0,0.6837869292993874,0.1,0.006401538848876953,0.21426844596862793,0.04909062,0.14311907,-174.94875410777541,-2.4164988186994782,-1.151194039295473,0.0,1629,0.23804783821105957,0.005899483944881682,0.004976447092306031,-170.6259443139947,0.0
213,1.9502313137054443,-174.00540487148496,12.742248293113498,-146.603804602424,-204.9525877099402,0.0,0.687339538808826,0.1,0.02752828598022461,0.14769506454467773,0.049730193,0.13985781,-174.8544191841464,-2.44583795447523,-1.147311239505261,0.0,1634,0.22904562950134277,0.004226160734246111,0.0038280545111104417,-170.56630713241208,0.0
214,2.0062429904937744,-174.9068962561537,11.860112712450862,-145.6005718316691,-205.09198615185795,0.0,0.6941046512481721,0.1,0.0060329437255859375,0.13369154930114746,0.049853396,0.14516813,-174.85966689134713,-2.4550882763967254,-1.1535172402413283,0.0,1618,0.21625661849975586,0.004322583648641736,0.0039061474866529714,-170.67131407655626,0.0
215,1.9132072925567627,-172.91367223754892,12.197872212136856,-144.19062842715485,-200.46980689811812,0.0,0.696710335583486,0.1,0.006161212921142578,0.13320422172546387,0.047747817,0.14314803,-174.66506742596732,-2.347313523577613,-1.1400540856408743,0.0,1629,0.21567869186401367,0.004620334293463659,0.0042374534362869375,-170.68698273489656,0.0
216,1.924466848373413,-173.82755233143936,11.95030931112495,-145.6678822610037,-200.53191495276047,0.0,0.7218841456732973,0.1,0.006125450134277344,0.13441777229309082,0.049053732,0.1373051,-174.58131591651454,-2.441992993026506,-1.1461916599574251,0.0,1620,0.21974587440490723,0.004165699360388665,0.003627300444985867,-169.81648883694453,0.0
217,1.9033019542694092,-170.65374062520186,11.157413984982034,-143.39447053524464,-195.9288669540527,0.0,0.6868696693774982,0.1,0.006109952926635742,0.13565587997436523,0.04997723,0.14388551,-174.1885583873833,-2.290209009063872,-1.1251663685632802,0.0,1616,0.2126457691192627,0.004074883051843109,0.003629631091948056,-172.13286489303698,0.0
218,1.9781532287597656,-172.0489294012349,11.323937012664144,-145.5774594359947,-193.8584815435662,0.0,0.7024905407142955,0.1,0.006461143493652344,0.17405152320861816,0.048251536,0.14558311,-173.97459548876847,-2.283806014373712,-1.1348414591383396,0.0,1630,0.24067187309265137,0.004637025245553239,0.0038299212041653934,-172.11590694837275,0.0
219,1.9676153659820557,-175.92749707838823,11.297591978742247,-150.2559618883617,-213.77501513665158,0.0,0.7022031602728253,0.1,0.02298426628112793,0.2542150020599365,0.049388465,0.13570796,-174.16988564773047,-2.463728862246522,-1.1603159854563276,0.0,1637,0.23811721801757812,0.004655058455457281,0.003700775848224303,-170.4956880254506,0.0
220,1.9218547344207764,-172.91798157300886,11.391283566869808,-142.4498511085974,-203.9180972286243,0.0,0.7091317730660296,0.1,0.0064334869384765625,0.13816547393798828,0.04996897,0.14095023,-174.0446952402583,-2.4203595385339773,-1.140423717362105,0.0,1613,0.2731184959411621,0.00507033508574736,0.004258733152442949,-170.19600838095778,0.0
221,1.9442660808563232,-172.49758800543123,13.565105575106166,-145.1915048192027,-226.35170481831543,0.0,0.7196331641476585,0.1,0.0159912109375,0.13287639617919922,0.049497962,0.13751158,-173.88998451677563,-2.406111179795627,-1.1375637952819158,0.0,1619,0.2414543628692627,0.004738327637468625,0.004551942365762922,-169.73488864314987,0.0
222,1.9769458770751953,-173.0095046892509,13.00604480117547,-147.50759481770257,-220.98584004301708,0.0,0.6768395789108493,0.1,0.023316383361816406,0.1560509204864502,0.049053714,0.15152332,-173.80193653402316,-2.3855294702865772,-1.1409857337537797,0.0,1620,0.24199271202087402,0.0036647381010305553,0.0039483647164231745,-169.35059642043723,0.0
223,2.0250933170318604,-175.84346113613717,13.531905630703694,-144.01902565933867,-219.4204525071623,0.0,0.6865355400742486,0.1,0.0065631866455078125,0.14175653457641602,0.048468474,0.14822401,-174.00608899423457,-2.418870748819172,-1.1596086270504995,0.0,1642,0.2472984790802002,0.006251538281877556,0.004216475569550623,-169.70969340639263,0.0
224,1.9934303760528564,-173.11377990794801,11.66703320410017,-147.78798399053034,-199.1328950063069,0.0,0.7069040840834304,0.1,0.006617069244384766,0.1389157772064209,0.050492804,0.14456007,-173.91685808560592,-2.3543736041952,-1.1416091529750834,0.0,1627,0.24029016494750977,0.0042828937088600265,0.003388094551915074,-170.5271726332919,0.0
225,1.944725513458252,-175.90307623587807,13.385846308925187,-144.07850776580037,-213.84329391875025,0.0,0.6508236470117094,0.1,0.012073755264282227,0.3187243938446045,0.049855288,0.15787698,-174.11547990063315,-2.521036645622444,-1.1601525713196537,0.0,1632,0.2404162883758545,0.004388502257840248,0.003946533814834835,-169.20629398673026,0.0
226,1.945098876953125,-171.78031331024854,11.863044494372442,-148.42859580650227,-209.3445746420486,0.0,0.6777918576634828,0.1,0.01592731475830078,0.1386423110961914,0.049421616,0.14961079,-173.8819632415947,-2.3298965366709656,-1.1326301846891926,0.0,1623,0.2421860694885254,0.004298462304719136,0.003994763369430175,-169.417376940891,0.0
227,1.9734816551208496,-173.50687892973073,13.018141737084713,-147.32691172528325,-223.28527606233158,0.0,0.671963080572029,0.1,0.006540060043334961,0.1425778865814209,0.049040075,0.14673744,-173.8444548104083,-2.4028121760051104,-1.1438810853206858,0.0,1621,0.24328899383544922,0.004664468766101522,0.004002217457473848,-170.75326056161495,0.0
228,1.9299657344818115,-172.37756893194873,10.786107137485674,-138.10916173417203,-196.58935252778844,0.0,0.6565893617018025,0.1,0.01754140853881836,0.14598917961120605,0.04827488,0.15266943,-173.69776622256236,-2.4179640570990926,-1.1365576192600366,0.0,1615,0.23811721801757812,0.003979323047074405,0.0034405793247071718,-170.55165079982038,0.0
229,1.9682254791259766,-171.90468871040795,12.512427060517437,-144.92278910748553,-212.84857178553895,0.0,0.6614924452244758,0.1,0.006486177444458008,0.14789199829101562,0.04842209,0.14636022,-173.51845847134692,-2.372472942952711,-1.1333648102424658,0.0,1624,0.23714160919189453,0.005067006173460459,0.004778376149199902,-169.32939542118643,0.0
230,1.9746384620666504,-171.82593314832494,11.643150282211572,-148.09260959734172,-201.89273655606246,0.0,0.669867300253422,0.1,0.015665054321289062,0.17948627471923828,0.04924178,0.14682198,-173.34920593904474,-2.333647978672632,-1.1331756632634382,0.0,1626,0.2712721824645996,0.004193547095044565,0.003911580647865369,-170.2582939962426,0.0
231,2.1155154705047607,-173.16994531278644,13.20953355129816,-145.12215372930658,-209.46199575348345,0.0,0.6715219045471557,0.1,0.00634002685546875,0.1420910358428955,0.047745507,0.1420143,-173.33127987641893,-2.4040749034547524,-1.1423153781662938,0.0,1617,0.243239164352417,0.004917089763190956,0.004608065456461568,-170.62102374643706,0.0
232,1.9643867015838623,-172.3000864834089,13.27131147573544,-141.81333211202247,-200.29363738924084,0.0,0.6769908545296103,0.1,0.006862163543701172,0.1467430591583252,0.049121834,0.1460882,-173.22816053711793,-2.350670254412847,-1.1359577802376073,0.0,1618,0.256638765335083,0.00467902888548336,0.004278453596154991,-170.80359963724453,0.0
233,2.0046727657318115,-170.33935979917462,12.004049588400271,-142.89314302740777,-198.2161163470094,0.0,0.6386752961620953,0.1,0.006231546401977539,0.14901375770568848,0.048434213,0.15588671,-172.9392804633236,-2.3825488442014175,-1.1232418920111629,0.0,1599,0.23391389846801758,0.004428584388223727,0.0038724334404074672,-169.40487746217912,0.0
234,2.1271495819091797,-172.02565883129287,12.883325247106725,-139.88672302903123,-211.62030620052332,0.0,0.6252741416042664,0.1,0.006389617919921875,0.1468191146850586,0.048159163,0.15111567,-172.84791830012054,-2.420748283594443,-1.1341323441691535,0.0,1613,0.23942780494689941,0.004121419574991337,0.00401258548814062,-169.42491672792195,0.0
235,2.167867422103882,-173.10531397135256,13.438911065953643,-142.44886558682265,-211.39330387214366,0.0,0.6713099931659412,0.1,0.0159759521484375,0.20887327194213867,0.05049796,0.14838096,-172.87365786724376,-2.334580968661103,-1.141404706857512,0.0,1624,0.3433568477630615,0.006407874909527392,0.005115205773908446,-169.07910126103556,0.0
236,2.1627447605133057,-173.41892191820116,11.618763936861813,-153.15546609039342,-206.4262786549006,0.0,0.7171702187029656,0.1,0.04992246627807617,0.19701409339904785,0.049451146,0.13971658,-172.9281842723395,-2.465075491637311,-1.1435998449976523,0.0,1620,0.25125861167907715,0.0044742946682233215,0.0036708900344461374,-169.262501059018,0.0
237,2.1651978492736816,-172.81075003365098,12.194680861591175,-145.60439234318818,-200.51417518157865,0.0,0.6696760369476742,0.1,0.0065975189208984375,0.14026427268981934,0.04976712,0.15296067,-172.91644084847064,-2.406310366825416,-1.1396557492221318,0.0,1618,0.24083423614501953,0.0051382633654430895,0.004178779928671073,-168.78798121511795,0.0
238,2.0915489196777344,-171.74541171084857,12.825041556086832,-143.38222183820335,-200.30988797239016,0.0,0.634630410425159,0.1,0.019214391708374023,0.14153480529785156,0.050380874,0.15072714,-172.79933793470843,-2.393057366718313,-1.132535841575552,0.0,1610,0.24735236167907715,0.004641613599696821,0.003906478655481442,-168.67033124771217,0.0
239,2.195065975189209,-171.12496645476628,11.377638830103944,-145.9468029474176,-197.298028880821,0.0,0.6496375228820199,0.1,0.01805734634399414,0.1812434196472168,0.049739636,0.15986593,-172.63190078671423,-2.3555822475129955,-1.1282494618132477,0.0,1618,0.2465834617614746,0.004598364606430882,0.004135159685877435,-168.87597531828288,0.0
240,1.896928071975708,-172.73591061967818,12.593253221678726,-144.81330995647193,-208.81123259839532,0.0,0.6755589199222249,0.1,0.006552696228027344,0.14412689208984375,0.049567673,0.14595792,-172.64230177001062,-2.364553762011224,-1.1392080164059057,0.0,1623,0.3248133659362793,0.004928688506191714,0.00417884825712138,-169.22685746701495,0.0
241,1.9343738555908203,-171.53235004925213,12.173588081476376,-143.73133128187587,-214.17565491329552,0.0,0.6480037701864066,0.1,0.007883310317993164,0.13376379013061523,0.04947781,0.15217423,-172.5313065979348,-2.424015998344332,-1.1312884795453366,0.0,1605,0.2117171287536621,0.004932757678143576,0.00390961553800244,-169.6040771489895,0.0
242,1.9451274871826172,-171.05735204687505,12.001756873098437,-141.1351867177633,-202.82809212058876,0.0,0.6936496982815775,0.1,0.006380558013916016,0.13950562477111816,0.04980598,0.13991518,-172.38391114282882,-2.361484390047042,-1.1279548856909403,0.0,1611,0.2124185562133789,0.003996183351133388,0.0035966087641075457,-169.6548298082051,0.0
243,1.955411672592163,-172.4425201851537,12.492667643116715,-144.77573887731276,-202.00001205611846,0.0,0.7171377640272694,0.1,0.030019760131835938,0.14674139022827148,0.04979213,0.14513955,-172.3897720470613,-2.400858216007169,-1.1371799201244095,0.0,1607,0.2241816520690918,0.004294993974939817,0.004051097720033378,-169.67341446880508,0.0
244,1.9701576232910156,-170.58659011720803,11.787688071536412,-138.16836317791092,-193.70307090963666,0.0,0.6997079183169377,0.1,0.006330013275146484,0.1599421501159668,0.04926809,0.13757177,-172.209453854076,-2.3916276340881812,-1.1247154073877081,0.0,1607,0.254561185836792,0.005347419667188992,0.003915358409549068,-169.7283629576624,0.0
245,2.0265462398529053,-172.0882396128724,12.202705411334632,-134.74591187830225,-196.89974787346927,0.0,0.6759015861213779,0.1,0.00644373893737793,0.1439671516418457,0.050348878,0.15010816,-172.19733242995565,-2.4509761968096595,-1.1347078752602986,0.0,1599,0.2848062515258789,0.004870663898884215,0.0042821921640992,-170.04585793937116,0.0
246,2.0117015838623047,-173.54223513699716,11.583771276224134,-149.03954109021504,-214.8401243052485,0.0,0.622460916959984,0.1,0.02151322364807129,0.14377713203430176,0.05019174,0.14765391,-172.33182270065979,-2.4023084720601062,-1.1442265248817878,0.0,1622,0.30098962783813477,0.0039953519897618075,0.0036606088053250385,-169.8992970161969,0.0
247,1.9745867252349854,-172.21648634176245,11.857146793267079,-147.78130842173226,-198.64184945957402,0.0,0.6604573725697952,0.1,0.006473541259765625,0.13884663581848145,0.04772901,0.1495348,-172.32028906477004,-2.391689301614677,-1.1356338551792218,0.0,1619,0.2530026435852051,0.004245519714298411,0.00360679707764738,-170.1014883579727,0.0
248,1.9599823951721191,-171.1934735461616,12.74613276183058,-140.0375956369535,-198.60513137237587,0.0,0.6570763593915989,0.1,0.016034364700317383,0.13904142379760742,0.046677582,0.14711054,-172.2076075129092,-2.3741211787307823,-1.1287930757907703,0.0,1610,0.2500314712524414,0.004164943336192052,0.003670190609384733,-170.18160246241933,0.0
249,1.906904697418213,-171.1540375239604,10.068111330056697,-149.83658676425574,-193.72967786906577,0.0,0.6576717012543479,0.1,0.015784740447998047,0.15057063102722168,0.049502056,0.15892278,-172.10225051401432,-2.4075162214288306,-1.128515904027165,0.0,1607,0.25113439559936523,0.004316199320633811,0.0039251858011921485,-170.01448521494586,0.0
250,1.9299507141113281,-171.94673471156284,11.571062926446425,-147.76518735393256,-198.61460864833705,0.0,0.6264574576700997,0.1,0.026226520538330078,0.14030122756958008,0.049623597,0.17050895,-172.08669893376916,-2.434316615554422,-1.1335350191191627,0.0,1604,0.24728751182556152,0.00456731660084083,0.0038377767871555176,-169.8639114035671,0.0
251,1.9510350227355957,-172.10174780828876,10.70533415044446,-143.25131599576352,-200.3251410034731,0.0,0.6447472233462572,0.1,0.0064623355865478516,0.14000797271728516,0.049398907,0.15130813,-172.08820382122113,-2.454346238982761,-1.1345645232404538,0.0,1605,0.24913978576660156,0.004275279649089086,0.0037523769959105064,-169.93347054218776,0.0
252,1.9164185523986816,-173.8720267891671,12.382565460561535,-142.9296233486526,-212.25789204471172,0.0,0.659862810462903,0.1,0.02608466148376465,0.19464874267578125,0.049985595,0.15036926,-172.26658611801574,-2.4272619279391225,-1.1466461487467303,0.0,1610,0.24501943588256836,0.0041083710649437,0.0033894343222982165,-169.75885541962748,0.0
253,1.9344456195831299,-171.97839724658715,12.133070224156379,-148.61639405938993,-202.0378100959172,0.0,0.6319846538482292,0.1,0.023412227630615234,0.17354750633239746,0.049911775,0.15674637,-172.23776723087286,-2.425594938618429,-1.1336793013570468,0.0,1602,0.24423766136169434,0.0049062506882025314,0.004166304835299368,-169.97254416304276,0.0
254,1.9175267219543457,-172.0721988902234,11.510901608650386,-146.84528039003237,-195.4285610246011,0.0,0.6314145338470772,0.1,0.006214141845703125,0.13634014129638672,0.047844313,0.16105635,-172.22121039680792,-2.4430806233126945,-1.1349324095958655,0.0,1607,0.24427366256713867,0.004305537542970037,0.0037445602461304924,-169.99637346506242,0.0
255,1.9865727424621582,-173.0969306404635,10.852725497501384,-145.00917105598188,-209.33306035207428,0.0,0.6879724750381141,0.1,0.03513050079345703,0.15883874893188477,0.049486358,0.14816159,-172.30878242117348,-2.5011264600108603,-1.1413586332164305,0.0,1614,0.2385540008544922,0.005570198050134997,0.005099265485788023,-169.93769010114536,0.0
256,1.9472572803497314,-171.0146878195329,13.960811081509759,-140.60831968680614,-230.46032605574794,0.0,0.667908833491011,0.1,0.015610933303833008,0.17504286766052246,0.04957356,0.14334296,-172.17937296100942,-2.4282399743807797,-1.1275382436823749,0.0,1600,0.24536609649658203,0.0055318961830994,0.004724179592949261,-169.6208182323856,0.0
257,1.9432177543640137,-171.7154096715551,11.765731995843632,-142.1467093771359,-203.54975781836288,0.0,0.6432822657888091,0.1,0.006139039993286133,0.137282133102417,0.049656812,0.15310115,-172.13297663206401,-2.4494075553476358,-1.1320051173816732,0.0,1601,0.24100208282470703,0.005000260117289071,0.004239111169778827,-169.47182359257118,0.0
258,1.9679851531982422,-168.78651613025554,11.32825738915095,-144.7026750385417,-195.00701715739433,0.0,0.666604165637804,0.1,0.0063915252685546875,0.13930392265319824,0.04907751,0.17144628,-171.7983305818832,-2.3271071652928677,-1.1128031565586023,0.0,1606,0.2483527660369873,0.004114326025573587,0.0037724540780682395,-169.62838297217095,0.0
259,1.9662094116210938,-170.33756915486745,11.183583803008018,-141.44665519580838,-198.6559435933315,0.0,0.6488682237604264,0.1,0.016036510467529297,0.1611766815185547,0.049486175,0.16386694,-171.65225443918163,-2.401268733016903,-1.1230860393128597,0.0,1599,0.23090338706970215,0.0036560522042106015,0.003282541502545187,-169.14199057296102,0.0
260,1.9557733535766602,-170.4951033455203,12.223621114047042,-143.67074283302009,-198.2259577021387,0.0,0.6758130535476609,0.1,0.03748202323913574,0.207505464553833,0.049416166,0.14383097,-171.5365393298155,-2.4344893383826185,-1.124123376660451,0.0,1598,0.23918581008911133,0.003862342046955279,0.0036598957086088615,-169.62782817485225,0.0
261,1.9873838424682617,-173.53489416300454,13.071719457763278,-142.83369394190768,-206.4534146051468,0.0,0.6560473518684304,0.1,0.023446083068847656,0.14743590354919434,0.049042944,0.14200518,-171.7363748131344,-2.4653673658497244,-1.144092665400468,0.0,1610,0.2215585708618164,0.005598860368909748,0.0042026222738069515,-170.27437880214245,0.0
262,1.9688713550567627,-169.5954151588011,12.313753131530476,-138.723102027913,-200.10749580590294,0.0,0.6646656972595009,0.1,0.0060672760009765625,0.13359332084655762,0.048115853,0.14700332,-171.52227884770107,-2.36129909241138,-1.1181653171727453,0.0,1592,0.21229338645935059,0.005484931516016184,0.00422601739708087,-170.86076133991506,0.0
263,1.8922150135040283,-170.3902776798994,13.123500319668311,-136.45328135490973,-206.41837153804042,0.0,0.6965012451962619,0.1,0.006282806396484375,0.1354689598083496,0.049400948,0.14728817,-171.40907873092092,-2.3770184093777065,-1.1231543707571652,0.0,1605,0.2163100242614746,0.004904085066451461,0.004639025052835694,-171.76959469138836,0.0
264,1.942495584487915,-170.86321474771958,11.871468882724715,-142.70264826067563,-198.23295748543825,0.0,0.643125877811965,0.1,0.018352031707763672,0.17219877243041992,0.050232887,0.16082686,-171.35449233260078,-2.4071077169354727,-1.1267521470350623,0.0,1600,0.24493980407714844,0.0044011216430393215,0.004088507681628899,-172.75768671506862,0.0
265,1.9453024864196777,-171.97496518258927,12.120975994790866,-143.9543911945896,-217.3683457841707,0.0,0.6270585109477783,0.1,0.006192207336425781,0.15311694145202637,0.05023939,0.1527249,-171.41653961759965,-2.4275972894670423,-1.134016484654161,0.0,1605,0.2166001796722412,0.004443934324970845,0.004026938940176267,-169.9730086397831,0.0
266,1.9108529090881348,-167.8407101188195,12.671348025304509,-135.94706980731087,-197.50833129130993,0.0,0.6693838174538022,0.1,0.006062507629394531,0.1359999179840088,0.050194763,0.1537911,-171.05895666772165,-2.3288337848245555,-1.1067424204932566,0.0,1596,0.2141711711883545,0.005498800296622928,0.004604541888957978,-170.2623846042712,0.0
267,1.9898459911346436,-170.4100684569479,14.427778704991661,-145.09647130407816,-222.27717745785804,0.0,0.6156604660212202,0.1,0.006212949752807617,0.13352727890014648,0.049400758,0.15487927,-170.99406784664427,-2.3787791132126337,-1.1236535968980457,0.0,1599,0.24220657348632812,0.005165462840088147,0.0041212662700667105,-168.4813569820089,0.0
268,1.9476404190063477,-170.19383141433698,10.483269452973916,-147.69304963226335,-196.3165793824634,0.0,0.6172561283278063,0.1,0.0060350894927978516,0.13177204132080078,0.049258824,0.16091312,-170.91404420341357,-2.379295552101715,-1.1220688457210681,0.0,1600,0.27264928817749023,0.004523572556989566,0.003852648036073605,-168.9923628644732,0.0
269,2.180208444595337,-168.73282317133624,12.598572772873407,-139.53594922520037,-195.24386152723798,0.0,0.6542883263602172,0.1,0.02942657470703125,0.153733491897583,0.048832234,0.15069906,-170.69592210020585,-2.3350069394313815,-1.1122894935946135,0.0,1598,0.24298357963562012,0.004175751526378903,0.0037741159118174447,-169.2282110339834,0.0
270,2.487417697906494,-171.22435071516506,11.09151188439826,-147.60698879307418,-200.47021188785772,0.0,0.6063548582553666,0.1,0.0247802734375,0.14299488067626953,0.048725314,0.16850354,-170.7487649617018,-2.399650998069849,-1.12924656843631,0.0,1603,0.21825265884399414,0.003847746522500507,0.0035305184393573112,-169.56768374536523,0.0
271,2.1276135444641113,-171.27786657310207,13.206551315606012,-145.1469681122319,-223.8500396507346,0.0,0.671159069230766,0.1,0.00616765022277832,0.13486385345458984,0.04901584,0.14146425,-170.80167512284183,-2.460184655299099,-1.1294466323510344,0.0,1599,0.21381711959838867,0.005125854513614553,0.0049271507169186685,-169.30067948867347,0.0
272,1.9185950756072998,-168.9556179437225,11.88402604974501,-146.92783382123935,-204.19603330089788,0.0,0.6398776327599054,0.1,0.005913734436035156,0.13451313972473145,0.04991295,0.16015589,-170.61706940492988,-2.391571593072671,-1.113946278585083,0.0,1589,0.21358275413513184,0.005463155373814969,0.004177047938244133,-168.8055681789372,0.0
273,2.1413650512695312,-170.5814814120988,12.806818648880217,-136.40759770505505,-210.73194035587602,0.0,0.6732085611498209,0.1,0.006092071533203125,0.13505792617797852,0.048906673,0.15672739,-170.61351060564675,-2.441798480078109,-1.1245158722619648,0.0,1598,0.21512579917907715,0.004655071470687677,0.004268732973915081,-168.6393723395455,0.0
274,2.1029434204101562,-170.09145844188308,12.100234229853289,-144.18267535678703,-203.01913046242112,0.0,0.6310481410845655,0.1,0.00612640380859375,0.132462739944458,0.04858705,0.15769857,-170.5613053892704,-2.3503757305745303,-1.121301188286569,0.0,1603,0.2536473274230957,0.0038969814541983806,0.003582215250282776,-171.40073000969147,0.0
275,2.110041379928589,-169.38717762516697,11.324306132974526,-141.92828348567213,-196.22953481233355,0.0,0.6497448317803067,0.1,0.006701231002807617,0.13747835159301758,0.049741868,0.15453207,-170.44389261286005,-2.419862028448441,-1.1168271982675988,0.0,1583,0.2468583583831787,0.004076584889930279,0.003506606782632979,-170.73641982593557,0.0
276,2.082838773727417,-167.81498300058033,12.700521683711735,-137.22220915039918,-202.12514853147837,0.0,0.6411338458821002,0.1,0.0063855648040771484,0.14153432846069336,0.048941616,0.14802098,-170.18100165163207,-2.326058690737057,-1.1063811989454757,0.0,1591,0.2459876537322998,0.0053182778989246515,0.0051984868018184905,-169.68805292764264,0.0
277,1.9185559749603271,-170.62585042080545,10.524897558477935,-139.67715246372228,-196.50018337571373,0.0,0.6751792081513881,0.1,0.01966238021850586,0.15884900093078613,0.049141847,0.14786634,-170.22548652854942,-2.42164215003495,-1.1250192267337387,0.0,1597,0.24790477752685547,0.003636488574190393,0.0032851997502440916,-170.4381295454815,0.0
278,1.9567244052886963,-168.98765437634563,11.458077955489046,-146.71783968702675,-193.58315928124225,0.0,0.6915229100264345,0.1,0.015749692916870117,0.14732766151428223,0.049017753,0.1485903,-170.10170331332904,-2.4061885123479576,-1.1141271878644243,0.0,1584,0.24927759170532227,0.0046943735503804035,0.004200027766461495,-167.73067074571279,0.0
279,1.9095587730407715,-168.84299469914342,11.64999951617476,-139.83627276701196,-196.9198181969503,0.0,0.6400769474686655,0.1,0.02424931526184082,0.13615822792053223,0.050001934,0.15204845,-169.9758324519105,-2.3668594024140024,-1.1129653599472773,0.0,1590,0.24805521965026855,0.0047053493589053474,0.0039662820001995025,-169.47547835595654,0.0
280,1.8777849674224854,-166.80263215175682,12.479403436728575,-143.84929437912598,-204.6637074194821,0.0,0.666514117906574,0.1,0.02850031852722168,0.16884922981262207,0.048436053,0.14386925,-169.65851242189513,-2.329588723185562,-1.099506471866199,0.0,1579,0.2577066421508789,0.0034790487370607534,0.0031212326299905535,-169.17711946396287,0.0
281,1.8994488716125488,-168.54123711132502,12.734509946283957,-141.1459973291069,-223.756837644143,0.0,0.6470497353865078,0.1,0.0060956478118896484,0.13252472877502441,0.049534317,0.1525418,-169.54678489083813,-2.355613967779607,-1.1107459119115968,0.0,1583,0.21659255027770996,0.0037480862415617206,0.0034103192887231385,-167.48960501099157,0.0
282,1.9484236240386963,-167.56146701625917,11.070428309768854,-143.12368935240266,-193.39689889465998,0.0,0.6448216011543995,0.1,0.006122112274169922,0.13722515106201172,0.048790533,0.15009917,-169.34825310338022,-2.398283620689869,-1.1047918017031801,0.0,1590,0.21883225440979004,0.005041772006896724,0.004189728730386843,-169.58437882357828,0.0
283,1.944133996963501,-167.60789409807637,13.031058721026799,-141.40829531534803,-203.05132824976457,0.0,0.659093428948325,0.1,0.006214618682861328,0.13414478302001953,0.049833357,0.14454542,-169.17421720284983,-2.390649242796768,-1.1049361594219527,0.0,1577,0.23963546752929688,0.004852861533842988,0.004437528241072588,-169.20811380978574,0.0
284,1.9629275798797607,-167.32155150584467,12.491594962148964,-136.3996709141236,-197.20930129672954,0.0,0.6438197863662716,0.1,0.0063593387603759766,0.13753366470336914,0.04965603,0.15621673,-168.98895063314933,-2.300506545858185,-1.1029031348057894,0.0,1580,0.2408444881439209,0.0041598725120800305,0.0037672941507512435,-168.85674709098288,0.0
285,1.8909821510314941,-170.80129978201754,11.249482493665285,-145.32508579221698,-205.38758365762496,0.0,0.6577306715244193,0.1,0.020576953887939453,0.1989881992340088,0.04995882,0.14317904,-169.17018554803616,-2.460584044282149,-1.1263444835241125,0.0,1583,0.2643883228302002,0.0046287506842463645,0.0039382704748639865,-170.05024158448214,0.0
286,1.9545032978057861,-168.8236758960891,11.940937819690513,-145.5466122740919,-212.00708897711252,0.0,0.6709104628772079,0.1,0.015642166137695312,0.16379141807556152,0.04915936,0.14025016,-169.13553458284147,-2.4262385093635115,-1.112840345012213,0.0,1584,0.25853657722473145,0.005033547557079519,0.004458542223318415,-169.08870871214577,0.0
287,1.9107186794281006,-167.80034212916223,11.619916466311519,-142.07187069870406,-193.36830451828848,0.0,0.6805030348903306,0.1,0.006881237030029297,0.18132543563842773,0.049549386,0.15488629,-169.00201533747355,-2.392869831214323,-1.1063615369987307,0.0,1580,0.24788689613342285,0.004399646598243875,0.004101802359432626,-169.03163205580034,0.0
288,1.9047410488128662,-167.42299670912553,12.138272583962443,-136.17641429211733,-191.9715594352684,0.0,0.6610396198971915,0.1,0.015985965728759766,0.16225147247314453,0.04799693,0.14790785,-168.84411347463876,-2.336115307179926,-1.1035828373358647,0.0,1584,0.2430720329284668,0.005240704640479341,0.004461529653468449,-169.6158451944092,0.0
289,1.9078738689422607,-169.48584024005933,12.999259470249836,-137.80897083917182,-204.17215293841568,0.0,0.6597945120758035,0.1,0.01910877227783203,0.14795613288879395,0.049527217,0.14392772,-168.90828615118082,-2.446574183284786,-1.1171468384430723,0.0,1578,0.23737597465515137,0.005542842171910666,0.00513137466589321,-171.1839904067073,0.0
290,1.946378231048584,-168.77277895282535,11.395723930405978,-140.3720129391288,-199.24259759238166,0.0,0.657766990010228,0.1,0.01598501205444336,0.1363379955291748,0.048129458,0.15028575,-168.89473543134528,-2.4004179688613165,-1.112786090972444,0.0,1591,0.24921464920043945,0.004944769804222909,0.004159182015427096,-169.4628557009284,0.0
291,1.9507198333740234,-168.55215154890016,13.687486256999296,-136.32063835251242,-219.18985936071877,0.0,0.6662642231825117,0.1,0.006403684616088867,0.13933372497558594,0.048488636,0.14363922,-168.86047704310076,-2.398822234398786,-1.111276559471172,0.0,1582,0.24890446662902832,0.006193942084618027,0.005544883623384084,-169.0442895048684,0.0
292,1.9378457069396973,-167.96494079415376,13.068268232893091,-136.86942802761905,-209.37788155168147,0.0,0.6339265449689927,0.1,0.006705522537231445,0.13585233688354492,0.049526047,0.15564395,-168.77092341820605,-2.3241386153625165,-1.1074438170212562,0.0,1583,0.24829363822937012,0.005245356772631266,0.004379160339163697,-168.95025655768424,0.0
293,1.9063806533813477,-167.79735489430468,11.445147702513264,-136.5280870886958,-191.75467403986704,0.0,0.6481239427038855,0.1,0.00640869140625,0.1389143466949463,0.04923338,0.15600061,-168.67356656581592,-2.454354352882364,-1.1057105203688409,0.0,1573,0.24591922760009766,0.0055220288736561275,0.004599668945830547,-167.93799764860455,0.0
294,1.9692513942718506,-167.0659247324168,11.671548190247895,-140.13119522215248,-209.18031497206718,0.0,0.6189770306826997,0.1,0.015630006790161133,0.19524383544921875,0.04687245,0.15446477,-168.512802382476,-2.3419290718302346,-1.1013249211226543,0.0,1579,0.2529785633087158,0.004764819102072343,0.0042598230985538225,-167.88711485075538,0.0
295,1.935765027999878,-168.52516192571534,11.43293943264423,-138.9628110846374,-208.69505572780156,0.0,0.6298393031927126,0.1,0.02233719825744629,0.22276997566223145,0.04813796,0.1477179,-168.51403833679993,-2.3600867663659613,-1.1108222355619457,0.0,1578,0.24906373023986816,0.0031734989971393796,0.0029294480326231913,-169.27206870235278,0.0
296,1.9098474979400635,-168.55650792454875,11.269180315541318,-139.1159875675483,-198.6415276171286,0.0,0.6528221851826012,0.1,0.02904677391052246,0.18665409088134766,0.047803722,0.15522867,-168.5182852955748,-2.3708636771364637,-1.1114716346827678,0.0,1591,0.24635720252990723,0.0045968929992340314,0.004208389231257191,-168.39118153143767,0.0
297,1.9593098163604736,-169.94647021181694,12.807787665898333,-139.98639086389306,-207.77994615882002,0.0,0.6341294866482553,0.1,0.0157318115234375,0.13331913948059082,0.049151063,0.15488385,-168.661103787199,-2.4047718174647006,-1.1203712477428265,0.0,1591,0.2114090919494629,0.0038196164277137508,0.0034689970086106046,-168.73641832038604,0.0
298,1.9375042915344238,-170.09980265053932,11.797812070434968,-147.3229123006442,-217.48902347740446,0.0,0.6238141498008248,0.1,0.015683889389038086,0.14000916481018066,0.049811006,0.16247481,-168.80497367353306,-2.405778583373206,-1.1212770931311844,0.0,1589,0.21129298210144043,0.004312239364867552,0.004042528326909188,-168.80658264995446,0.0
299,1.8811941146850586,-168.94152325685863,12.483935774107033,-144.44417885475758,-210.9523683030991,0.0,0.6373087121610065,0.1,0.025336503982543945,0.13349366188049316,0.049739603,0.14751288,-168.8186286318656,-2.4349429719299334,-1.1137359913193683,0.0,1587,0.21420574188232422,0.004262990597482128,0.0034668610313745452,-169.26627220403913,0.0
300,1.8894050121307373,-168.44184644353433,11.293015266132914,-136.95143725747175,-192.3545778579674,0.0,0.6018741639457728,0.1,0.006144523620605469,0.13261699676513672,0.04857611,0.14932819,-168.78095041303249,-2.4336257782846946,-1.110556490432484,0.0,1573,0.2111341953277588,0.004678790808993836,0.0036392309249779313,-169.53549825020198,0.0
301,1.9152324199676514,-168.91964617373543,12.45688200341017,-145.38754295911664,-203.71661866970186,0.0,0.6214765376397978,0.1,0.007444143295288086,0.13827300071716309,0.04938706,0.17858575,-168.79481998910276,-2.3943770370318838,-1.1138433051342849,0.0,1571,0.21105170249938965,0.0047952873985750285,0.0035813576199746427,-169.73273671180755,0.0
302,1.9647715091705322,-168.98120274040386,13.08946727940476,-140.12205316534445,-209.0407599292124,0.0,0.6653796403997113,0.1,0.006045103073120117,0.13163328170776367,0.049699754,0.1433796,-168.81345826423288,-2.39577082914037,-1.114229458495123,0.0,1581,0.20884299278259277,0.004036099729156697,0.0034628851435484494,-169.7240337552016,0.0
303,1.7359585762023926,-165.88007017359527,11.147123225486974,-140.7733387193309,-202.61601985857308,0.0,0.6629694562746505,0.1,0.00603795051574707,0.13255810737609863,0.0485195,0.14931329,-168.52011945516912,-2.3551399903782184,-1.0933651103351847,0.0,1571,0.2122488021850586,0.004599415339756121,0.0037794297627366602,-168.29646081104332,0.0
304,1.951552391052246,-167.21724295327147,11.780576239537696,-133.89453297402326,-191.3375662091423,0.0,0.6775716854668395,0.1,0.015814542770385742,0.13603425025939941,0.047634773,0.14470544,-168.38983180497934,-2.3715782566367047,-1.1022530060979256,0.0,1571,0.25105786323547363,0.004320429215798909,0.0038165697351355754,-169.6939892061988,0.0
305,1.9046308994293213,-166.44327972655097,11.807479306544892,-140.7589198860902,-191.90477263229502,0.0,0.6393226783114471,0.1,0.006168365478515625,0.13602423667907715,0.04754125,0.14254557,-168.1951765971365,-2.313390386989725,-1.0973757004664273,0.0,1574,0.2475283145904541,0.0045044936450006,0.003878372069312842,-171.01897322841842,0.0
306,2.259002923965454,-169.17331556876684,11.744817343338264,-141.87205160237045,-206.60252710944746,0.0,0.6463865677382676,0.1,0.0061609745025634766,0.14255714416503906,0.048978258,0.15703267,-168.29299049429954,-2.445769025015141,-1.1152505729674018,0.0,1579,0.24886035919189453,0.00428263503356313,0.0038208181975807366,-168.2880061513,0.0
307,2.109189987182617,-170.6968650227797,11.922820869297412,-144.42380127803278,-200.0324179152008,0.0,0.6491008578317149,0.1,0.019565820693969727,0.1398935317993164,0.048657324,0.16037627,-168.53337794714756,-2.4873082939092166,-1.1253463110809783,0.0,1583,0.21505045890808105,0.003966007558230974,0.003673788533508005,-169.52204736831908,0.0
308,1.9180233478546143,-166.89248210323157,11.380706841367033,-138.50330457542745,-195.63848438173773,0.0,0.6098988449331195,0.1,0.006018638610839844,0.13183999061584473,0.049582537,0.17902313,-168.36928836275598,-2.3408351729494097,-1.1001583044667658,0.0,1571,0.2110600471496582,0.004573951085270862,0.0039148233832753815,-169.51906850966856,0.0
309,1.9015333652496338,-166.197149218605,10.34513862953463,-140.39844111849064,-195.75679120492515,0.0,0.6881602569192566,0.1,0.006092071533203125,0.13368439674377441,0.049251247,0.1388019,-168.15207444834087,-2.3689431477497607,-1.0955573884668202,0.0,1571,0.20973896980285645,0.004677790727281757,0.004245507554817558,-169.30203820214876,0.0
310,2.0850160121917725,-165.55898907986804,11.991401661501078,-134.33848535132495,-193.51673130909123,0.0,0.6410178527303667,0.1,0.005783557891845703,0.12981438636779785,0.049472623,0.15997122,-167.8927659114936,-2.3111041961141257,-1.0911193149584786,0.0,1568,0.21020722389221191,0.004871201593805823,0.004471431353219712,-169.09339621608527,0.0
311,2.1316540241241455,-168.896941800023,12.320391841039289,-140.93831190541385,-202.00177597112275,0.0,0.6312803981507249,0.1,0.006251811981201172,0.13121867179870605,0.049532436,0.15941614,-167.99318350034653,-2.4224253700182232,-1.1132587447122775,0.0,1580,0.2079775333404541,0.00451525138671311,0.003998286197706857,-169.01913488030635,0.0
312,2.074199676513672,-166.50727355437206,12.3912442800312,-141.69974095408134,-201.06401861256882,0.0,0.6495129951855159,0.1,0.006293535232543945,0.13611435890197754,0.04921623,0.15808395,-167.8445925057491,-2.3437603987954168,-1.0978141094884073,0.0,1574,0.20770263671875,0.005012743588153413,0.004565271988500374,-170.20134694860138,0.0
313,2.09417462348938,-167.7233641046457,11.689767208158395,-137.4139411012172,-193.09802610577842,0.0,0.6325429324594398,0.1,0.028317928314208984,0.13965535163879395,0.048391666,0.15409662,-167.83246966563874,-2.408785271317567,-1.1055021715245925,0.0,1576,0.25541210174560547,0.004590817969936813,0.00362958645124083,-169.3115718370529,0.0
314,2.110778570175171,-167.4981502968329,12.712999959213347,-138.45129075497658,-216.21023601848722,0.0,0.6514671639843488,0.1,0.015990018844604492,0.15406036376953125,0.049733087,0.15110765,-167.79903772875815,-2.3743941061715788,-1.1040605705728108,0.0,1581,0.20687055587768555,0.0045897850594941395,0.004101245674008856,-167.97287572235052,0.0
315,2.2641637325286865,-167.55355852360466,10.956147365612868,-143.28201236183187,-191.88186177748523,0.0,0.6294471019337972,0.1,0.0061151981353759766,0.1348717212677002,0.049014684,0.15835172,-167.77448980824283,-2.415369723417478,-1.1045689676177917,0.0,1577,0.24017763137817383,0.004036214505583579,0.00323393362153902,-169.60341554128271,0.0
316,1.9198012351989746,-168.7760131534756,10.953124451911947,-138.5032668143318,-197.84786013690382,0.0,0.6610552450619682,0.1,0.006253957748413086,0.137894868850708,0.047971856,0.14960058,-167.8746421427661,-2.44620527207344,-1.1127801975078826,0.0,1575,0.24100685119628906,0.004098898322845232,0.003838110587149448,-168.43579890749652,0.0
317,1.9390103816986084,-167.11183445841831,11.531521268209094,-147.03977704953184,-202.17510416549786,0.0,0.6423119400890279,0.1,0.01607346534729004,0.19827055931091309,0.04877227,0.15617841,-167.79836137433134,-2.3418329677659724,-1.1015487992236244,0.0,1572,0.2489480972290039,0.0037295829443904755,0.0036274776436561705,-167.02789866123464,0.0
318,1.9267528057098389,-166.70829298818714,11.668650859306549,-134.60944960562753,-195.57284085159745,0.0,0.6227674445513341,0.1,0.006161928176879883,0.1356358528137207,0.047904126,0.15939572,-167.68935453571692,-2.3978785141239034,-1.098945190629952,0.0,1569,0.23673272132873535,0.004525436648722116,0.00416757688482258,-166.98421229681549,0.0
319,1.9387502670288086,-165.8940684107979,11.054249209337177,-141.49672092546342,-192.0968293392118,0.0,0.6774651199221258,0.1,0.01651597023010254,0.15929508209228516,0.049216397,0.15188076,-167.509825923225,-2.3616327119286376,-1.093415548765172,0.0,1565,0.20749306678771973,0.0039293587774907775,0.0034972430994038746,-167.06578295445019,0.0
320,1.937173843383789,-167.37965219604158,11.686225187747882,-141.87135497129435,-192.42085727962606,0.0,0.673723715021386,0.1,0.0060040950775146484,0.13311123847961426,0.049999796,0.15169656,-167.49680855050667,-2.37429033038264,-1.103185532197093,0.0,1575,0.20520734786987305,0.004297417073874165,0.0038962351349887355,-165.60311267706786,0.0
321,1.6987190246582031,-169.08606735139014,11.902008935468652,-137.60629972464582,-210.1279711833882,0.0,0.6590200805327789,0.1,0.006201744079589844,0.1335151195526123,0.047924384,0.15394422,-167.65573443059503,-2.4267413749099043,-1.1148576263593426,0.0,1573,0.20820140838623047,0.004051690001860829,0.0037225609217685788,-165.61191108074757,0.0
322,1.9234049320220947,-166.22422436894965,12.44202665789751,-136.6937678935857,-193.6592045915915,0.0,0.6429602563701888,0.1,0.017260313034057617,0.20350384712219238,0.049661186,0.15994237,-167.5125834244305,-2.3561028915579327,-1.0956578222634372,0.0,1570,0.24234318733215332,0.00501906325712182,0.00423691523365397,-168.13496892055656,0.0
323,1.9315483570098877,-166.63729601994473,11.833235569934645,-136.10012323127188,-199.9087473106671,0.0,0.6539316155951076,0.1,0.006325721740722656,0.1535968780517578,0.050388917,0.15312895,-167.42505468398193,-2.388484822351987,-1.098474041858932,0.0,1569,0.21021699905395508,0.004662809814893578,0.004263990226466204,-165.27996457604564,0.0
324,1.8677828311920166,-166.46537544174632,11.023508282795998,-144.83553254953907,-190.420679444169,0.0,0.6484663728429556,0.1,0.006643056869506836,0.14042067527770996,0.049799632,0.16515203,-167.32908675975838,-2.3465039882387644,-1.0973330367443541,0.0,1571,0.2935819625854492,0.0034143428002470985,0.003171649528122945,-164.3155799263097,0.0
325,1.986473798751831,-168.02369639094823,13.105521104010194,-141.55059139805851,-234.08333734777582,0.0,0.5905345254681097,0.1,0.006221771240234375,0.1338977813720703,0.05008354,0.14893745,-167.39854772287737,-2.388554014578739,-1.107612264501667,0.0,1586,0.3610725402832031,0.005665060267881418,0.004873483692128408,-165.48130571472888,0.0
326,1.9292504787445068,-168.385098832434,12.334315514790712,-143.92130272910953,-213.34447056004177,0.0,0.6148133704015883,0.1,0.006158590316772461,0.1359548568725586,0.049292017,0.15826419,-167.49720283383303,-2.401588438111954,-1.1099646627705988,0.0,1581,0.2651655673980713,0.004772807385145197,0.0040999575341906435,-165.46646745076214,0.0
327,1.8245608806610107,-167.7072149076912,14.051212526891588,-142.53431318379774,-240.5193647940372,0.0,0.5647500803238208,0.1,0.006205320358276367,0.16508889198303223,0.04979134,0.15071064,-167.51820404121884,-2.346788001003605,-1.1053095245288873,0.0,1582,0.23451852798461914,0.005309031954983907,0.004592664209346768,-168.19464547026547,0.0
328,1.871208667755127,-167.07399859023374,10.619345005621751,-145.03422399070405,-195.1408211839444,0.0,0.6307733159322114,0.1,0.028794527053833008,0.1730494499206543,0.049587037,0.16818012,-167.47378349612035,-2.4294046833382477,-1.1014165159938523,0.0,1575,0.23389101028442383,0.004147317146907967,0.0034049876073766715,-166.7544435416872,0.0
329,1.964500904083252,-168.41303550042778,11.335113769138031,-143.64103884829422,-205.7961894986631,0.0,0.5965898937499063,0.1,0.008073091506958008,0.1516866683959961,0.048883066,0.16896184,-167.56770869655108,-2.4367091838677424,-1.1102415624796835,0.0,1575,0.23023390769958496,0.004734373401810263,0.003718528226764601,-166.67864025144635,0.0
330,1.9710783958435059,-168.92423663002097,12.454413081501821,-140.32106752770932,-204.467751601772,0.0,0.634892653139855,0.1,0.016078948974609375,0.14136171340942383,0.04971055,0.1513713,-167.70336148989807,-2.386827648404896,-1.1134887737221268,0.0,1581,0.2399909496307373,0.005098731944138713,0.0043095320898198595,-166.82992420831258,0.0
331,1.959946870803833,-167.28859287028553,12.012937727568827,-137.80207033821608,-194.6006047974507,0.0,0.6286003703594965,0.1,0.00593876838684082,0.15743637084960938,0.049004633,0.15510951,-167.66188462793681,-2.4060355441042813,-1.1026865073979124,0.0,1568,0.28583788871765137,0.004283914924754769,0.0036954674936749334,-166.9859087395745,0.0
332,1.9380195140838623,-166.02553290740147,11.10842426853984,-142.6551239313436,-188.38599856690502,0.0,0.6054803085358652,0.1,0.006192207336425781,0.14706897735595703,0.05036055,0.16450179,-167.4982494558833,-2.3699180682116086,-1.0946646426341848,0.0,1571,0.20543313026428223,0.004483230311287702,0.004078705487764335,-165.62968498459145,0.0
333,1.9415969848632812,-164.77735065383402,11.410840449522567,-139.1560475778309,-193.823393078914,0.0,0.6459573546967429,0.1,0.006243467330932617,0.1334702968597412,0.049153555,0.1515444,-167.22615957567837,-2.2926807977897,-1.0861464663995337,0.0,1572,0.20495295524597168,0.003753316079491519,0.0034452450225200583,-166.80997630990748,0.0
334,1.9120280742645264,-166.6097375095874,11.886693371326476,-136.67219507184825,-197.48672834634135,0.0,0.6410624836984811,0.1,0.014419078826904297,0.1334691047668457,0.04946181,0.15325041,-167.16451736906927,-2.357199355204776,-1.0983283029899733,0.0,1576,0.203444242477417,0.0041456249004196855,0.0036244890154998616,-165.41268071234043,0.0
335,1.9397332668304443,-168.28332844600803,11.629965807251589,-139.50101488512908,-193.2685761803663,0.0,0.6052467909599103,0.1,0.005942106246948242,0.12996292114257812,0.049589507,0.1696093,-167.27639847676315,-2.4708366693903523,-1.1092898876534976,0.0,1577,0.20177865028381348,0.0038987549281876803,0.0034136771768638586,-166.97571376278765,0.0
336,1.9160256385803223,-167.1942107612135,11.012199430614688,-136.24824120216346,-198.32540023209526,0.0,0.6454209971815689,0.1,0.00608515739440918,0.1334681510925293,0.04938889,0.15129352,-167.26817970520818,-2.3147666925241275,-1.1019015972894153,0.0,1584,0.20551776885986328,0.004593151342274025,0.003798159306760278,-167.9088401996375,0.0
337,1.9370086193084717,-168.654641413183,11.777439024548617,-138.6118018589343,-197.554850721391,0.0,0.6470226100541924,0.1,0.0059506893157958984,0.13457655906677246,0.049780607,0.144429,-167.40682587600566,-2.4427072458961185,-1.1119408599994907,0.0,1575,0.20547866821289062,0.004028927619934482,0.003678137960494382,-167.76426042265598,0.0
338,1.9289295673370361,-166.99648614545467,12.078305583745497,-137.8077021061813,-197.97679528508584,0.0,0.656075333633312,0.1,0.0063169002532958984,0.17936277389526367,0.049580205,0.15133286,-167.36579190295055,-2.412419640060891,-1.1004710465480703,0.0,1569,0.23218703269958496,0.004265142112348297,0.003771843571096608,-164.12694388423017,0.0
339,1.9170310497283936,-166.01769473983308,9.624948754329756,-144.85183929590988,-191.4748353479256,0.0,0.6585682880509929,0.1,0.006199359893798828,0.20084738731384277,0.04954603,0.14676416,-167.23098218663878,-2.367265998435401,-1.0944163196668397,0.0,1566,0.2884070873260498,0.0039022414048933856,0.0032663001274818066,-165.2549880828118,0.0
340,1.9109923839569092,-165.41170571215176,11.028958120317425,-141.75293007710684,-195.91937799195526,0.0,0.6469174710898098,0.1,0.0062770843505859375,0.13585305213928223,0.049754072,0.15321828,-167.04905453919008,-2.386087077002521,-1.0903780587228162,0.0,1565,0.24070358276367188,0.0038108348563009003,0.0034546170302892235,-168.0862072499871,0.0
341,1.937413215637207,-167.27512083949702,10.431398485995572,-144.14440800774727,-193.97744010920636,0.0,0.6288243763808011,0.1,0.015769243240356445,0.22066879272460938,0.04925268,0.16413113,-167.0716611692208,-2.4018218279038646,-1.1025400148322908,0.0,1571,0.24303889274597168,0.004116484096756468,0.0034724288430094297,-164.03833622251622,0.0
342,1.9002692699432373,-165.3578086933708,11.039136855703601,-137.06801744022314,-191.48875243121603,0.0,0.6371584703655708,0.1,0.006178855895996094,0.13714122772216797,0.04896777,0.15674198,-166.9002759216358,-2.327185482847994,-1.0902376160211318,0.0,1563,0.24437761306762695,0.004112148026897144,0.0037851142000528385,-165.16141592656612,0.0
343,1.9283435344696045,-167.62582533349317,10.383504327279091,-141.4808591054105,-197.7140560206185,0.0,0.6309428313309922,0.1,0.017067909240722656,0.21416783332824707,0.049026854,0.15700734,-166.97283086282152,-2.411691292233652,-1.1047915733790339,0.0,1573,0.2099013328552246,0.00423548185000371,0.003971140018703574,-166.4808866255088,0.0
344,1.9246318340301514,-169.17760369858468,11.013554434792425,-142.5355119494204,-198.47086516374347,0.0,0.684225769342212,0.1,0.0060577392578125,0.1371462345123291,0.049388092,0.14828625,-167.19330814639784,-2.4714595460853794,-1.1153775788230078,0.0,1570,0.20948529243469238,0.003636995789799494,0.0031494912951052765,-165.19146578700173,0.0
345,1.948500156402588,-167.7515714112068,11.199836439206374,-141.0876400011187,-199.20598512011432,0.0,0.6673856313284274,0.1,0.0063478946685791016,0.1381371021270752,0.05006524,0.15095259,-167.24913447287872,-2.4439718233993912,-1.1060320686985647,0.0,1574,0.28766560554504395,0.0035774429564720232,0.002857582380559989,-163.71331861581797,0.0
346,1.9082653522491455,-166.45927426668027,11.706222352426872,-129.78969720113201,-195.40147741538644,0.0,0.6607053648797303,0.1,0.006292581558227539,0.2062995433807373,0.04948514,0.15194169,-167.1701484522589,-2.3438281742063527,-1.0971784735559293,0.0,1572,0.2491436004638672,0.003405228835345865,0.0031771645040280295,-163.5660778007923,0.0
347,1.8602545261383057,-167.13002721106693,11.670687274730016,-139.7730019021066,-190.1272916217422,0.0,0.6584809042728283,0.1,0.00634002685546875,0.1355433464050293,0.050073,0.15862794,-167.16613632813971,-2.3754514028719087,-1.101574817833696,0.0,1572,0.27349162101745605,0.003213440880712683,0.0029196430229225033,-165.14569748069678,0.0
