iteration,time_sampling,stoc_pol_mean,stoc_pol_std,stoc_pol_max,stoc_pol_min,rollout_success,alpha,delta,time_vpg,time_npg,kl_dist,surr_improvement,running_score,rwd_sparse,rwd_dense,success_percentage,num_samples,time_VF,VF_error_before,VF_error_after,eval_score,eval_success
0,1.339763879776001,-116.46952074638659,36.93154628537166,7.728071171222182,-186.47356454510992,2.0833333333333335,3.6849213275938255,0.1,0.05504465103149414,0.2032780647277832,0.050362144,0.025508214,-116.46952074638659,-1.1101273228993156,-1.1634240425255127,2.0833333333333335,9600,0.8777384757995605,1.000987383320411,0.2803418653113981,-84.1487804543329,0.0
1,1.1322345733642578,-98.92017873234833,76.4034953273133,250.6441157815445,-189.07934504039758,6.25,3.3240807503692142,0.1,0.00882411003112793,0.18459129333496094,0.051402505,0.030545944,-114.71458654498277,-1.0590929088408834,-0.9889850938211429,6.25,9600,0.858154296875,0.6001735458683989,0.503921179749646,-76.06377946845453,0.0
2,1.1620290279388428,-105.81634534294726,51.29166505533339,233.12205670830954,-184.8866109111785,2.0833333333333335,3.5856911515437684,0.1,0.008840560913085938,0.1832716464996338,0.053748958,0.027995905,-113.82476242477921,-1.0593060492653137,-1.05771138910449,2.0833333333333335,9600,0.8586945533752441,0.3221393854409927,0.17593558741044926,-82.02619249976107,0.0
3,1.168156623840332,-95.47404810105623,72.32075079737871,346.7075399288617,-179.46936808341403,6.25,3.3589543271479423,0.1,0.007954835891723633,0.17068719863891602,0.060964357,0.032856416,-111.9896909924069,-1.056381164559116,-0.9550299840360513,6.25,9600,0.8688468933105469,0.3075200761609492,0.23966783666637026,-81.51730309252025,0.0
4,1.186781883239746,-84.54428255424436,78.28335517602115,305.59999212936856,-181.00674998074447,4.166666666666667,2.7313142925432774,0.1,0.008602380752563477,0.18194222450256348,0.05040198,0.036242872,-109.24515014859065,-0.9896744238441935,-0.8446682863557239,4.166666666666667,9600,0.988487958908081,0.2787051856662402,0.25506488056480286,-13.355253125321447,6.25
5,1.1426770687103271,-85.42665782608795,80.24175407192914,324.9068182216342,-185.92241327997112,4.166666666666667,3.1761342311574694,0.1,0.008759737014770508,0.1844334602355957,0.0517698,0.036266696,-106.86330091634038,-1.005214616096707,-0.8549784046543136,4.166666666666667,9600,1.2015290260314941,0.28188503240133417,0.258521915312725,10.814613894493245,6.25
6,1.1791367530822754,-73.96842513556469,90.923213546127,306.75364845746475,-184.50972117396026,8.333333333333334,3.1854465675434747,0.1,0.009135723114013672,0.18051838874816895,0.05339985,0.034716688,-103.57381333826281,-0.9704189245208145,-0.739948751640951,8.333333333333334,9600,1.2345876693725586,0.3682206749014133,0.31814600130113907,85.75258780505666,18.75
7,1.1878070831298828,-27.770540340056517,140.18283480696934,457.4512643275855,-164.21081392554973,12.5,3.8564401835888917,0.1,0.007452726364135742,0.17078614234924316,0.054064706,0.026204586,-95.99348603844219,-0.8650349201955311,-0.27834458307010196,12.5,9600,1.2485382556915283,0.8137559611391123,0.5678992093555534,-17.794926919964198,6.25
8,1.375859260559082,-8.29639431909286,146.53413569062198,447.41468971869114,-174.33253990651053,16.666666666666668,3.039903800686153,0.1,0.00938868522644043,0.18378376960754395,0.055869695,0.034301933,-87.22377686650725,-0.8096220415329061,-0.08462553162154722,16.666666666666668,9600,1.258274793624878,0.6548864891685591,0.5262822599357873,8.913433300057898,0.0
9,1.1578278541564941,-31.252623124774846,117.15398593296115,442.4399518204442,-183.60489133136304,8.333333333333334,3.69308729378018,0.1,0.008922576904296875,0.18557238578796387,0.052829426,0.026500287,-81.62666149233402,-0.8072280765220793,-0.3139562338214959,8.333333333333334,9600,1.2609295845031738,0.7177375317244248,0.45567116803990476,35.003978249120564,6.25
10,1.1970288753509521,-16.009320604153103,147.7576072422328,521.7255515900898,-150.4588915415814,15.625,3.468187104422742,0.1,0.00928807258605957,0.18623924255371094,0.05668258,0.026339432,-75.06492740351592,-0.7744473654868343,-0.16356625811231276,15.625,9600,1.2659399509429932,0.4943075064810911,0.3684030924758985,45.39661878957782,6.25
11,1.1977019309997559,5.26601759796813,181.96866257585387,558.4760677400353,-154.0511156436509,18.75,3.0307494525672767,0.1,0.008340597152709961,0.18386268615722656,0.054415487,0.032410372,-67.03183290336752,-0.7729029714600645,0.052189177075040415,18.75,9600,1.2785661220550537,0.49850844072958855,0.34364052412976215,80.88316125297504,18.75
12,1.1624011993408203,-12.30090608318971,155.09736147696728,588.1478594827182,-132.48747925027993,11.458333333333334,3.080487364388323,0.1,0.008086442947387695,0.1724529266357422,0.055402502,0.03141942,-61.55874022134974,-0.7797896632032127,-0.12395394757965544,11.458333333333334,9600,1.2968997955322266,0.3665826334865089,0.32360461055121936,95.1874515190918,18.75
13,1.1555426120758057,-17.698821803359262,148.09710694433755,640.1648428432828,-141.1206375070477,15.625,2.949703157915278,0.1,0.009040594100952148,0.17315173149108887,0.05110486,0.031783834,-57.17274837955069,-0.7853677494226909,-0.18009971098552738,15.625,9600,1.2775859832763672,0.3150845232506759,0.2658563115291732,75.90021699891068,12.5
14,1.2018837928771973,-1.5787027867283534,164.9980924015573,554.5901054234081,-142.76375823585923,15.625,3.0730854049751977,0.1,0.0086517333984375,0.18140292167663574,0.05236935,0.040406846,-51.61334382026846,-0.7625785933259194,-0.017679036186453927,15.625,9600,1.251706600189209,0.4303436702804103,0.3494688454894587,31.130142267198533,6.25
15,1.313655138015747,-10.532772386766032,142.5320517227839,455.69903005525464,-133.77385234752222,12.5,2.8511206103538944,0.1,0.008426427841186523,0.18699908256530762,0.046685264,0.035237882,-47.50528667691822,-0.7512801903811566,-0.10680812692959563,12.5,9600,1.2596311569213867,0.35060852503022905,0.2571348770549489,141.0969289470324,25.0
16,1.3941900730133057,14.916530025913955,161.22665793258676,532.9666813989442,-130.51617380175145,17.708333333333332,3.364226719599791,0.1,0.009137153625488281,0.18288516998291016,0.05483693,0.029367952,-41.263105006635,-0.7204310176155438,0.14639428589376205,17.708333333333332,9600,1.24495267868042,0.2772043994966657,0.2591034594787606,138.25570453043122,18.75
17,1.180586814880371,32.23644670374919,179.58250705822172,550.0691764116332,-129.70401166276199,14.583333333333334,3.3380652675356686,0.1,0.008526802062988281,0.1798865795135498,0.046784714,0.027303189,-33.913149835596585,-0.7037177796556772,0.3203778804790129,14.583333333333334,9600,1.2368664741516113,0.2639032338455125,0.22616700197586181,127.90432120227726,12.5
18,1.1955628395080566,67.30445464873195,214.74505277938204,662.7527224428093,-124.88558516699887,25.0,2.744901966070551,0.1,0.008872270584106445,0.18471169471740723,0.05275425,0.035685573,-23.791389387163733,-0.6856541301432131,0.6706753302866953,25.0,9600,1.2450640201568604,0.2308200175496578,0.15785197485470287,148.58668252429413,12.5
19,1.1729745864868164,-5.456986611245998,157.548918253398,607.9311727532314,-126.4767731730934,15.625,2.7465000077855364,0.1,0.008623123168945312,0.18056106567382812,0.049403936,0.030318072,-21.95794910957196,-0.7607402534644626,-0.05504067302408913,15.625,9600,1.2413954734802246,0.2851145852147458,0.18469747826329994,160.0831821614919,18.75
20,1.187849521636963,23.68086250555667,172.2559817294949,526.4111002640561,-128.90859596632637,15.625,2.750656054981069,0.1,0.009324789047241211,0.18799328804016113,0.050863296,0.035659682,-17.394067948059096,-0.724106430590262,0.2358464739433935,15.625,9600,1.2824475765228271,0.21697435661122844,0.2064200634018167,153.4062245506741,18.75
21,1.2044920921325684,-3.1921002957357842,127.23177101239843,362.419075051222,-123.71228202518036,12.5,2.9005384072345577,0.1,0.008683443069458008,0.1822817325592041,0.054214604,0.030798484,-15.973871182826766,-0.7436993952115191,-0.03288229075064137,12.5,9600,1.2790374755859375,0.3740916161819413,0.31636841087925094,119.9659252824885,6.25
22,1.220310926437378,14.60548647064436,155.0711610445603,532.1302390861447,-124.20407763962476,14.583333333333334,2.819404776607007,0.1,0.00887441635131836,0.18108773231506348,0.05734125,0.038776275,-12.915935417479655,-0.7248486562222375,0.1440260443723068,14.583333333333334,9600,1.2771008014678955,0.2884161664016383,0.23885844638932582,152.82826169718473,25.0
23,1.1725294589996338,40.0956227736641,202.34967920559163,633.034400136878,-114.81035988033882,23.958333333333332,3.1344308187589895,0.1,0.008713722229003906,0.1928572654724121,0.052673306,0.044243325,-7.614779598365281,-0.7115669827177458,0.39948392387694137,23.958333333333332,9600,1.2892377376556396,0.26267379423587606,0.24050421644413209,161.06479678704284,18.75
24,1.3185484409332275,46.33840021105642,191.16231864024857,665.8851065038749,-129.34209060825037,30.208333333333332,3.037511970643541,0.1,0.008333444595336914,0.18121743202209473,0.052620698,0.03484412,-2.2194616174231117,-0.6991175678197695,0.4591348814136141,30.208333333333332,9600,1.273895263671875,0.27876808726788416,0.2525065762513467,274.3453462287402,37.5
25,1.3974809646606445,15.297428902265112,165.78236428557517,523.3922334924872,-126.14134503092441,18.75,2.8826333194729896,0.1,0.008498907089233398,0.18443584442138672,0.050697338,0.034739457,-0.46777256545428925,-0.7313329531756622,0.15334703879309367,18.75,9600,1.3058114051818848,0.259912609273539,0.23227450563695368,283.5609415054624,31.25
26,1.1657867431640625,83.06228269140804,200.1142465145866,586.2779044665679,-123.45420634967475,30.208333333333332,2.6146582972457275,0.1,0.008758544921875,0.18322110176086426,0.054794256,0.045729276,7.885232960231944,-0.6555265615080771,0.8279001243392083,30.208333333333332,9600,1.2497844696044922,0.2666759563439378,0.20889317807498173,272.6429001591455,31.25
27,1.1825110912322998,93.77197236633357,192.72343340423765,627.4900666233656,-111.75160199107461,34.375,3.461602703499336,0.1,0.008553504943847656,0.18338656425476074,0.04971808,0.028534492,16.473906900842106,-0.6425131924348544,0.9344222013535036,34.375,9600,1.1972484588623047,0.28015117868079586,0.23649819208838163,232.0473924375626,31.25
28,1.174896478652954,50.330716198916186,160.88617494739592,559.110512939948,-124.64674874555018,25.0,3.1002394598523177,0.1,0.010042428970336914,0.18955731391906738,0.054246373,0.028724978,19.859587830649517,-0.6710183887240836,0.49998428390577027,25.0,9600,1.1902282238006592,0.3558166365698648,0.29666048077902624,281.6264937882782,43.75
29,1.1781229972839355,111.25171091016091,217.6631181080057,631.3831980983584,-129.49017540504428,34.375,3.097680062810654,0.1,0.009006977081298828,0.18045353889465332,0.05295409,0.03151911,28.998800138600657,-0.6402584342376443,1.1096756531983356,34.375,9600,1.1836023330688477,0.25823918733051815,0.17956234874609464,229.87718013703014,43.75
30,1.172628402709961,167.79284778930293,231.03829702746373,641.5432371932885,-121.12593657753598,44.791666666666664,2.8028751762061863,0.1,0.008907079696655273,0.18392348289489746,0.050250433,0.035729595,42.878204903670884,-0.6004713584247496,1.6750687753475824,44.791666666666664,9600,1.1736335754394531,0.15176479516221256,0.13754787563258414,260.1088956829617,37.5
31,1.2080605030059814,119.98203899767168,214.12952800001608,710.4846556066212,-122.36819662962931,41.666666666666664,2.916232994182143,0.1,0.008555173873901367,0.1824333667755127,0.050734177,0.03433346,50.588588313070964,-0.6313103344630426,1.1966053996308994,41.666666666666664,9600,1.211738109588623,0.26531093587271004,0.24373078266047557,288.52555989785594,50.0
32,1.190446138381958,112.66449431328692,192.6415610127257,650.9373211105107,-101.72597455037199,33.333333333333336,2.9057482976993514,0.1,0.008745431900024414,0.18219685554504395,0.05073144,0.03275155,56.79617891309256,-0.6142901427387931,1.1250523776255514,33.333333333333336,9600,1.2073051929473877,0.2284227145795584,0.19320192649125278,329.1205779205505,43.75
33,1.3697447776794434,142.25270968943406,225.73056057954588,648.7915552013566,-111.04226912537594,47.916666666666664,2.998174167425373,0.1,0.008761882781982422,0.18345069885253906,0.05516222,0.031714845,65.34183199072672,-0.6166596314180627,1.4190384240792158,47.916666666666664,9600,1.1889288425445557,0.23890038958353785,0.19322903863757593,355.3461316623114,62.5
34,1.1699612140655518,159.84552048592596,232.1304034044178,665.3095402265174,-117.80323335900921,47.916666666666664,2.8460604038011463,0.1,0.008375167846679688,0.17944550514221191,0.05058092,0.037398588,74.79220084024664,-0.5975574118384726,1.594651618359565,47.916666666666664,9600,1.1959152221679688,0.1462754528829516,0.11696853982077984,373.07896352209355,56.25
35,1.1939713954925537,170.36657611289073,232.85624853513963,688.994500520754,-110.95742939787074,41.666666666666664,2.6524645517805325,0.1,0.009310722351074219,0.1872730255126953,0.052682977,0.04537235,84.34963836751105,-0.5905595350798789,1.699002947706071,41.666666666666664,9600,1.2034859657287598,0.15309072857391368,0.1299710161111073,371.1640363254721,62.5
36,1.1722791194915771,153.73739794823192,248.64973307713413,656.8733514727395,-118.55656399151886,41.666666666666664,3.3546077362370124,0.1,0.008543729782104492,0.1834123134613037,0.05016602,0.027906282,91.28841432558313,-0.6038129991747662,1.5304409305006512,41.666666666666664,9600,1.2141327857971191,0.14776704377488967,0.12788343035539232,470.1406846634243,68.75
37,1.190319538116455,219.67756231609656,231.3895359062839,696.1269672804144,-118.21664789320184,62.5,2.5947012352609606,0.1,0.008759498596191406,0.18612384796142578,0.05258054,0.038212422,104.12732912463447,-0.5629736084632962,2.1898606915585153,62.5,9600,1.2012145519256592,0.14140454601085714,0.10355042455268827,461.7022920349167,81.25
38,1.1622109413146973,196.88915700640777,236.05604310729186,631.1164201614178,-130.8679918930112,58.333333333333336,3.0618750270725927,0.1,0.008499860763549805,0.1833658218383789,0.055519417,0.031373106,113.40351191281181,-0.5792698804175589,1.9629096610229926,58.333333333333336,9600,1.1973130702972412,0.2132839335956698,0.15418422814696559,404.90660485035966,81.25
39,1.210669994354248,205.28068135507112,259.21757300181827,695.5222472884805,-119.46897665207715,53.125,2.8549169493810984,0.1,0.008620500564575195,0.1928102970123291,0.051388063,0.035486523,122.59122885703775,-0.5765788114751177,2.0472721489144106,53.125,9600,1.229987382888794,0.18011994402945813,0.14771223392301439,416.5633395824487,75.0
40,1.1899328231811523,247.94104296845344,237.49748279867063,694.2305728062257,-101.49786855379429,64.58333333333333,3.301207919495729,0.1,0.008988618850708008,0.1871962547302246,0.0535911,0.031316318,135.1262102681793,-0.5235969305207959,2.472965820273401,64.58333333333333,9600,1.232903003692627,0.15212699270245664,0.1272800613790029,425.7370858510271,75.0
41,1.3874356746673584,236.52168482636657,241.27550656340608,704.8624897828693,-126.82034743490922,66.66666666666667,3.4469435056935644,0.1,0.008708715438842773,0.18469500541687012,0.05445481,0.03039634,145.26575772399804,-0.5459101312528288,2.3627831647677753,66.66666666666667,9600,1.236384630203247,0.16460153211572867,0.14502260344380705,428.9885400758702,68.75
42,1.1860578060150146,249.268064742961,244.5771979715596,745.2202542301002,-114.38889867274808,59.375,2.763976067229348,0.1,0.008836030960083008,0.19485020637512207,0.053348206,0.03654261,155.66598842589434,-0.554242084923016,2.4870141964960784,59.375,9600,1.2218527793884277,0.19112877224741004,0.1478203480727853,435.30360060141567,68.75
43,1.1732873916625977,226.56305242204692,227.5817089051175,679.0457702161834,-124.7480889595554,65.625,2.6048302941321855,0.1,0.008614063262939453,0.18913030624389648,0.05242882,0.037063733,162.7556948255096,-0.5531856509567971,2.2600393009847695,65.625,9600,1.217029333114624,0.18289745544344685,0.15042025169392764,441.84546150930566,75.0
44,1.2186598777770996,247.09451691196364,241.2855751154603,699.2399347316801,-123.2655297024557,65.625,2.8526970635600404,0.1,0.008403539657592773,0.18272161483764648,0.05183547,0.03777051,171.189577034155,-0.5517337956934671,2.464878888899852,65.625,9600,1.1968307495117188,0.12282050464703653,0.10556485645523427,449.8031685504358,75.0
45,1.1626472473144531,294.5295072768113,243.46278338119322,674.4858912198185,-120.6185787037552,73.95833333333333,3.317554343405104,0.1,0.008254051208496094,0.1835639476776123,0.05381712,0.030039784,183.52357005842063,-0.5160717732968313,2.9387906715262644,73.95833333333333,9600,1.175887107849121,0.14048756835612222,0.10574356914877918,465.0662079541649,75.0
46,1.1978282928466797,255.64678329403918,261.22754494225467,708.6906844577197,-122.94469702255569,65.625,3.217386156891397,0.1,0.008299112319946289,0.18174076080322266,0.05055225,0.02984277,190.73589138198247,-0.5518442639754232,2.54777492178181,65.625,9600,1.1830332279205322,0.12718693601165404,0.10515809943690377,437.9455878047038,75.0
47,1.198817491531372,244.55785669175415,254.63312422391883,693.2622859107223,-115.28630950756754,57.291666666666664,3.3136780141699007,0.1,0.009929180145263672,0.21628999710083008,0.049761284,0.031372316,196.11808791295965,-0.5585868781564627,2.439869272822573,57.291666666666664,9600,1.5229170322418213,0.14946333749757668,0.11730023899485409,447.37912325369393,75.0
48,1.1945173740386963,252.9206601531582,260.06587674606516,704.4530690418372,-121.84819425478258,60.416666666666664,3.375599866301677,0.1,0.008652210235595703,0.1821439266204834,0.052094724,0.02798409,201.7983451369795,-0.5464175751320565,2.5250273878497134,60.416666666666664,9600,1.1789908409118652,0.12793853949393402,0.10166927326027903,433.42224622601265,75.0
49,1.313295841217041,282.41390529262435,260.44212277275926,755.699142561672,-114.9323917311434,62.5,2.8571487594111753,0.1,0.008828401565551758,0.18237996101379395,0.04926481,0.034942146,209.85990115254398,-0.5117704486746925,2.8171654013573058,62.5,9600,1.1823525428771973,0.12427498537538431,0.10402884650152826,398.19098479565577,75.0
50,1.3517706394195557,259.4382735637719,262.1708161617171,737.7735185315487,-118.5960235574304,57.291666666666664,3.381234455950327,0.1,0.008456945419311523,0.18111348152160645,0.04944967,0.02919069,214.8177383936668,-0.5366794144053932,2.5901828230707182,57.291666666666664,9600,1.1937735080718994,0.1347220233212718,0.11443470433779855,396.0094696039341,75.0
51,1.2262213230133057,321.0414466917026,260.892415983338,711.2902867243364,-127.75637876973184,72.91666666666667,3.093640615990417,0.1,0.008939266204833984,0.18769407272338867,0.053684406,0.032311838,225.4401092234704,-0.4991007876908084,3.204748680120067,72.91666666666667,9600,1.1941123008728027,0.08853569036483866,0.07328248430811214,454.1869538516927,75.0
52,1.1528053283691406,323.68940304512626,243.49507386323154,702.4842754439921,-117.51401878696295,73.95833333333333,3.0905809302458587,0.1,0.00838327407836914,0.18045353889465332,0.05319605,0.031639468,235.26503860563597,-0.4894554003958908,3.229001621873025,73.95833333333333,9600,1.1846871376037598,0.08832410807095849,0.07435368942962983,431.2534113296057,75.0
53,1.1959466934204102,378.7219816316261,270.94390611991855,740.9088204348423,-116.94018415076629,79.16666666666667,2.984120685759269,0.1,0.008498907089233398,0.180633544921875,0.052806932,0.03754749,249.61073290823498,-0.4719201649458113,3.7806464026143787,79.16666666666667,9600,1.195685625076294,0.08654099666332699,0.06831927443320442,447.65999090343666,81.25
54,1.1723089218139648,375.6745168302147,244.2832321450982,707.8558132847369,-111.11639553564842,80.20833333333333,2.695904498109217,0.1,0.00854039192199707,0.18282055854797363,0.04582564,0.03333387,262.217111300433,-0.4645347810335507,3.7484827660952997,80.20833333333333,9600,1.2079784870147705,0.0782586777326342,0.0642084788641764,430.2748965331916,68.75
55,1.2048084735870361,355.4871717648069,271.30102132635506,699.6013935420416,-115.7254679722399,71.875,3.247315097196295,0.1,0.008312225341796875,0.1831347942352295,0.048918597,0.03050911,271.54411734687034,-0.4750062021583081,3.545255650923558,71.875,9600,1.189997911453247,0.07623747175693883,0.06020838021798501,422.97153500228455,75.0
56,1.164980173110962,313.5216252252677,254.04447478203716,707.6788563038931,-96.09221008070847,69.79166666666667,2.9253548184462486,0.1,0.008706092834472656,0.18148541450500488,0.04905501,0.033508234,275.7418681347101,-0.5027266264173914,3.1291100801274716,69.79166666666667,9600,1.1840686798095703,0.10310642759053784,0.07423174438154073,412.95033740605203,75.0
57,1.1707634925842285,384.16196268964205,232.7423188769342,710.4316887409345,-95.38714795669753,76.04166666666667,2.939021081432287,0.1,0.008490800857543945,0.1809532642364502,0.05156295,0.034018517,286.5838775902033,-0.4485684024219196,3.832974732188608,76.04166666666667,9600,1.188704490661621,0.0742553477011756,0.054625471740611505,390.99831243958545,68.75
58,1.2792437076568604,357.41347706873876,250.50278822031987,754.6259866558942,-120.15339381372152,73.95833333333333,3.3765038458720866,0.1,0.008804559707641602,0.18137717247009277,0.052055728,0.02733466,293.6668375380568,-0.47541097884729383,3.568920915648589,73.95833333333333,9600,1.1933908462524414,0.07697307950983989,0.05754453091085865,388.75741945824416,75.0
59,1.3659765720367432,383.0571204089606,247.73634007275737,731.1247781680665,-95.99688949262132,73.95833333333333,2.5019873345745354,0.1,0.008384943008422852,0.18247413635253906,0.052054133,0.03915345,302.60586582514725,-0.4519486831416242,3.8223142504510235,73.95833333333333,9600,1.177257776260376,0.052332753121212085,0.039813410598259345,405.8960793497938,62.5
60,1.179680347442627,423.02884311139815,242.00746254403984,719.6512160466965,-100.068080718915,81.25,3.2167769870779517,0.1,0.008260011672973633,0.1866455078125,0.047801893,0.02711634,314.6481635537724,-0.43770063734322023,4.222932833372345,81.25,9600,1.1752872467041016,0.05584365731394712,0.03992790771114302,370.97894220048073,62.5
61,1.2069013118743896,332.9752197144109,257.25064858738654,716.5796699312725,-88.1626970002116,70.83333333333333,2.875858570864125,0.1,0.008488178253173828,0.18218159675598145,0.050326403,0.032600418,316.48086916983624,-0.4897856646867809,3.320686964085818,70.83333333333333,9600,1.1936697959899902,0.08007312725978658,0.05837612515366031,363.9159599597266,75.0
62,1.1884219646453857,377.81794284040865,255.56224620824713,696.5925787231325,-110.2476503761464,78.125,3.0108542701079535,0.1,0.00893545150756836,0.1869041919708252,0.048711386,0.033048227,322.6145765368935,-0.463949421867843,3.7676950132564797,78.125,9600,1.186549425125122,0.08378574425500494,0.05933138406916664,368.2274032937239,68.75
63,1.20951509475708,389.9465991443726,261.74769650825726,736.0807447160005,-94.50925369289844,78.125,2.9170034887828895,0.1,0.009443998336791992,0.1838538646697998,0.0521888,0.032382734,329.3477787976414,-0.4464170837796793,3.8903249687150647,78.125,9600,1.1914989948272705,0.06088204655412948,0.04735380779092926,363.4541944216048,75.0
64,1.1836044788360596,347.4096697612883,266.9562064650518,723.5506696273255,-90.22737255931007,75.0,3.1225891185988845,0.1,0.008270502090454102,0.17996501922607422,0.051185198,0.032318283,331.15396789400614,-0.49609280339673284,3.4649307463976697,75.0,9600,1.1528172492980957,0.06087267719915396,0.04561156935368559,383.6133827938177,75.0
65,1.1565914154052734,385.7616946486732,266.30770540536037,759.402513529953,-101.05600523779673,77.08333333333333,2.809636151327399,0.1,0.008544445037841797,0.1848304271697998,0.05019605,0.034113564,336.6147405694728,-0.4685888909092322,3.851493044562327,77.08333333333333,9600,1.1588401794433594,0.0606868614719436,0.04717362965532794,403.52575187798004,75.0
66,1.1970515251159668,449.69327051963256,217.4892859659718,746.4287983180059,-94.29442651720986,84.375,3.1452347531418536,0.1,0.008384466171264648,0.18153595924377441,0.050299905,0.027439157,347.9225935644888,-0.4036428425098461,4.486881293908833,84.375,9600,1.1529741287231445,0.04596360606209617,0.03461329946709589,403.29155659170067,81.25
67,1.281733512878418,431.56126015552445,261.1459326302148,753.7064105555527,-117.78350168490641,83.33333333333333,2.791435689939651,0.1,0.008544445037841797,0.1815042495727539,0.04738454,0.03451083,356.28646022359237,-0.43298479524850175,4.304672769450343,83.33333333333333,9600,1.1582262516021729,0.06653410603335862,0.04785083787765489,426.1254680024944,81.25
68,1.3664941787719727,385.3139410047643,275.7902608886589,729.1403950013341,-105.45630701957823,73.95833333333333,3.3562990642127963,0.1,0.00867009162902832,0.18142271041870117,0.04572931,0.02745293,359.1892083017095,-0.46323524968604907,3.8461470169941507,73.95833333333333,9600,1.1779334545135498,0.051349751554309736,0.04052165686519009,462.29819442045033,87.5
69,1.1964788436889648,363.1256254216276,270.70738145618964,740.6369108061224,-102.42224791239417,77.08333333333333,3.3469243946515452,0.1,0.00868988037109375,0.1807420253753662,0.05003956,0.030473132,359.5828500137014,-0.4742410190254436,3.620373213218541,77.08333333333333,9600,1.179539442062378,0.07216581853419796,0.06050236894864996,473.6646017288075,93.75
70,1.197627067565918,396.9043942168316,268.76081386444906,721.6376438642067,-94.05584423946333,78.125,3.3977209207272403,0.1,0.008701801300048828,0.1838839054107666,0.05023653,0.028784154,363.3150044340144,-0.44970429648596144,3.962110756334223,78.125,9600,1.1914148330688477,0.05354738924683679,0.04394660524889244,516.4109636426342,93.75
71,1.252173900604248,429.1886653122976,269.9253388133512,743.8747147715313,-98.85194463868606,78.125,3.3787027651205266,0.1,0.010081291198730469,0.21490120887756348,0.05076443,0.03043174,369.9023705218427,-0.4432085989126886,4.2830944466312175,78.125,9600,1.5433919429779053,0.057218854854312155,0.042800610514563936,485.954153038327,87.5
72,1.2096295356750488,452.58450351987307,243.96647705678367,754.0858552091568,-102.8904520264863,80.20833333333333,3.618029276366203,0.1,0.008773326873779297,0.1839125156402588,0.049144395,0.025981475,378.1705838216458,-0.41940318130713655,4.5153186820891715,80.20833333333333,9600,1.1999011039733887,0.042031324927906316,0.03592392104544277,489.07730103869415,87.5
73,1.1976549625396729,415.52408298252976,247.48959362845392,728.4067091856834,-95.70221194152725,84.375,3.2602644660461135,0.1,0.008980512619018555,0.18399548530578613,0.05016282,0.028914077,381.9059337377342,-0.4377364869395946,4.1499301379385605,84.375,9600,1.1733675003051758,0.05784347325280935,0.04544940207074448,503.1030862052779,87.5
74,1.184593915939331,313.8299162878146,277.2457130460376,736.6512329825815,-107.13781399810634,63.541666666666664,3.0112997209762793,0.1,0.008776426315307617,0.1799941062927246,0.04895588,0.029251521,375.0983319927422,-0.5002772368897591,3.1317762394182567,63.541666666666664,9600,1.181506633758545,0.08509017442409862,0.061456932148060105,508.9538359142981,87.5
75,1.2320854663848877,362.0314936606632,271.55061295660164,753.4528474072462,-90.02490137203365,75.0,3.394800919309605,0.1,0.008483171463012695,0.18669867515563965,0.035848875,0.02377103,373.7916481595343,-0.46637655060704103,3.6129157186716623,75.0,9600,1.2111051082611084,0.06109510794990746,0.046875574992915926,492.77209585133295,87.5
76,1.3753721714019775,431.1300818870495,250.2898704790829,720.9346407710424,-80.4618167506365,82.29166666666667,3.0217943578862263,0.1,0.008122920989990234,0.169769287109375,0.04648073,0.031153731,379.52549153228586,-0.42667141329255703,4.302953829532087,82.29166666666667,9600,1.1783192157745361,0.056093369999447036,0.042650169828132155,501.4505108520873,87.5
77,1.1899218559265137,378.76813381770467,253.31909333299225,732.139183152879,-108.03136071108621,78.125,3.1106049050008258,0.1,0.00877070426940918,0.19231867790222168,0.046955734,0.030261027,379.44975576082777,-0.4567362336724809,3.78108171307642,78.125,9600,1.1981558799743652,0.06334559385917685,0.05311994504467237,490.5615925965211,87.5
78,1.2317650318145752,408.89584153825325,256.97786194339074,739.1163173557892,-86.7942176160072,75.0,3.376224780050804,0.1,0.008479833602905273,0.18054866790771484,0.042191822,0.02392425,382.3943643385703,-0.4404383752802037,4.082439003333824,75.0,9600,1.1721606254577637,0.05858261086366314,0.0427908849464445,504.11023743332487,93.75
79,1.1953933238983154,419.0709246127304,259.39680013992256,756.8767571819369,-97.06574754592758,83.33333333333333,3.2698221244688406,0.1,0.008598804473876953,0.18368911743164062,0.05018734,0.027269008,386.0620203659863,-0.44589200715982585,4.181916010957497,83.33333333333333,9600,1.1892218589782715,0.058068079141704136,0.04501636199353999,492.6148876749175,81.25
80,1.210111141204834,416.05876438042304,257.5985129324362,751.9821579572754,-70.52371689780287,81.25,3.6697413703549193,0.1,0.008572101593017578,0.18415498733520508,0.04229654,0.022705726,389.06169476742997,-0.4417055063867495,4.152291668267124,81.25,9600,1.2070770263671875,0.058911196159297755,0.042212283060354884,488.5092570666769,93.75
81,1.1811809539794922,451.0219116080193,254.13040375546376,750.1987232136388,-105.9864952309425,81.25,2.9167807925048286,0.1,0.008553504943847656,0.18578410148620605,0.04933751,0.031662706,395.25771645148893,-0.42474520083678247,4.49966795919672,81.25,9600,1.202401876449585,0.04394983142768031,0.03072315980286113,493.0690512597241,87.5
82,1.1784400939941406,436.8459844960589,234.06688097156731,749.9328369021948,-51.383062217899344,87.5,2.879618836364152,0.1,0.008886575698852539,0.1836836338043213,0.04591444,0.030000553,399.41654325594595,-0.42082143819590395,4.358394390263352,87.5,9600,1.1871321201324463,0.0475006845055174,0.03390570799073156,512.9216758135846,87.5
83,1.167799711227417,413.441987474384,259.00583796984165,741.6861988630263,-70.84610081806436,80.20833333333333,3.106704486861326,0.1,0.008365154266357422,0.17913484573364258,0.048763614,0.03166238,400.81908767778975,-0.43833405754523885,4.125189773075179,80.20833333333333,9600,1.184988021850586,0.06869571930695045,0.048214935268446876,505.7535314808174,87.5
84,1.148982286453247,426.02864423386364,246.28554050382016,711.6356533061062,-79.13168356005305,79.16666666666667,3.5235573770461346,0.1,0.008934497833251953,0.18245983123779297,0.049245212,0.026636336,403.34004333339715,-0.4263281808114537,4.250650958508374,79.16666666666667,9600,1.1909303665161133,0.05840578841161385,0.05090220757954899,515.7106493292207,93.75
85,1.1746792793273926,389.4540441287516,270.4234640358578,743.938414213745,-97.77314065827501,73.95833333333333,3.451107364129036,0.1,0.008556365966796875,0.18054509162902832,0.044677526,0.026862375,401.95144341293263,-0.43435550951799856,3.8897100718904922,73.95833333333333,9600,1.1968538761138916,0.0615080640425369,0.04617060076452948,483.328127784238,87.5
86,1.2115004062652588,411.1039481213018,241.8915025863333,744.2547475282279,-65.87857582784864,77.08333333333333,2.8622721602292907,0.1,0.008470535278320312,0.1809837818145752,0.049469765,0.034786463,402.8666938837696,-0.42312962999210296,4.1035478979306586,77.08333333333333,9600,1.2027192115783691,0.059269190726695585,0.04272183720513283,486.33129749820876,87.5
87,1.155494213104248,425.84996346057414,238.0751247673777,741.8210544888045,-104.24901497045347,84.375,2.9438654884185467,0.1,0.008753061294555664,0.18146538734436035,0.051432043,0.03450761,405.1650208414501,-0.42443545646756836,4.249684688603293,84.375,9600,1.2094190120697021,0.0461177698596259,0.0361742810082861,474.76584961522514,87.5
88,1.1805510520935059,441.62762825471367,251.83301428075023,729.4688201564721,-114.54797600298048,82.29166666666667,3.222551852970091,0.1,0.007978677749633789,0.17802214622497559,0.04865303,0.030423028,408.8112815827765,-0.42367353922328604,4.407963706578546,82.29166666666667,9600,1.199127435684204,0.044438647795599404,0.03316560834946901,468.38907045812107,87.5
89,1.1809871196746826,471.2259411778204,248.18919389374778,745.1340973249328,-83.23200341476746,84.375,3.269540524555926,0.1,0.00874018669128418,0.18383049964904785,0.04555125,0.031616703,415.0527475422809,-0.3982410533030151,4.704767150100655,84.375,9600,1.227163314819336,0.04603672016359053,0.03390645560529181,501.5139070205896,93.75
90,1.1902213096618652,439.09197488636283,242.14981137007564,729.3193130788557,-91.35113143360127,79.16666666666667,3.206577843629598,0.1,0.00873255729675293,0.1879725456237793,0.050143123,0.03200964,417.45667027668907,-0.41249454830734694,4.381631021308716,79.16666666666667,9600,1.2257239818572998,0.04389321763123352,0.03134361559048444,535.3099009677254,87.5
91,1.1906096935272217,444.68216208994016,236.55722647993142,753.9204234272828,-86.71257463739384,81.25,3.2633801820714594,0.1,0.00874781608581543,0.17954492568969727,0.04778887,0.0297569,420.1792194580142,-0.4166008242140033,4.437506796294957,81.25,9600,1.1928260326385498,0.039931699139407514,0.031739597751378655,542.206475087737,81.25
92,1.299177885055542,462.8212460370284,238.92493830928845,728.1169011665218,-63.010222759497495,84.375,2.910492336331606,0.1,0.00871729850769043,0.17955923080444336,0.044800606,0.03273302,424.4434221159156,-0.3992214691670794,4.619845143246467,84.375,9600,1.2028796672821045,0.041063269364004173,0.03129675998709984,530.7311580064925,81.25
93,1.34743332862854,476.2716643906337,235.02315195598652,722.6089209115281,-66.50425217383842,86.45833333333333,3.5856299697061,0.1,0.00860452651977539,0.18551301956176758,0.045092117,0.023844391,429.62624634338744,-0.39683022310571553,4.752557252502241,86.45833333333333,9600,1.2270598411560059,0.037474460290195036,0.02730512128939318,514.1965421541638,93.75
94,1.160705327987671,481.3462068237939,234.75641002836167,757.0446059274182,-60.4420521200972,85.41666666666667,2.868091281335718,0.1,0.008652687072753906,0.1948106288909912,0.05066469,0.032396328,434.79824239142806,-0.39347574983718614,4.80458617061538,85.41666666666667,9600,1.237870693206787,0.04151363402887262,0.030752292717757864,510.9078412707838,87.5
95,1.2292842864990234,466.64853454157793,216.18112844516943,752.8513039279437,-44.50349348747703,88.54166666666667,3.489818684119406,0.1,0.008974075317382812,0.18041563034057617,0.046551015,0.02523439,437.98327160644305,-0.39846547159025447,4.65811336831953,88.54166666666667,9600,1.2296533584594727,0.040998191312632035,0.0309430205221259,518.7314765452475,87.5
96,1.1746535301208496,509.8950442923959,224.14960355610165,753.8189949824085,-11.374472431861061,89.58333333333333,3.4986115222586305,0.1,0.00855708122253418,0.18123626708984375,0.05038738,0.028636878,445.17444887503837,-0.377507420651159,5.0888628275430134,89.58333333333333,9600,1.2029750347137451,0.03145868598483616,0.022415054897124004,526.8241638166578,81.25
97,1.1623632907867432,440.6237473255848,242.97384313855554,729.2275349795377,-64.02055239127269,80.20833333333333,2.8887276137183187,0.1,0.00851297378540039,0.18320059776306152,0.04966171,0.033105936,444.719378720093,-0.41419657819382943,4.397048273068489,80.20833333333333,9600,1.2333097457885742,0.042202912830218,0.030586315409325087,518.306732994828,87.5
98,1.201791763305664,488.4726427179244,232.79992027342232,756.236443829512,-104.12940334777005,86.45833333333333,3.1624311464232253,0.1,0.009389162063598633,0.1901853084564209,0.044338457,0.025568957,449.09470511987615,-0.38839557401190145,4.873343618077876,86.45833333333333,9600,1.245485782623291,0.03774677160798053,0.023704411029816557,509.55591901411685,81.25
99,1.1907291412353516,486.4670366425574,232.15705899713467,743.130712621323,-78.3581948868363,84.375,3.366488599172381,0.1,0.008482933044433594,0.17876338958740234,0.048681356,0.02843076,452.83193827214427,-0.3947734916772216,4.854640758131128,84.375,9600,1.232414960861206,0.026643247920998894,0.020566092151023972,523.2172487889225,81.25
100,1.1985204219818115,444.46420527759784,252.76039866839284,751.2232953593482,-87.31242102570724,79.16666666666667,3.375657183381641,0.1,0.008529186248779297,0.18265604972839355,0.05185788,0.029326431,451.9951649726896,-0.4097737042372123,4.435821842185901,79.16666666666667,9600,1.2615718841552734,0.032853114062700875,0.020489178869783888,524.0395277400044,87.5
101,1.740079402923584,457.42818040050275,269.0641404781813,751.8623379927656,-105.77629035499193,83.33333333333333,3.435459217840105,0.1,0.008591890335083008,0.18216538429260254,0.048657697,0.029942399,452.53846651547093,-0.4166729344290047,4.566770290810852,83.33333333333333,9600,1.2384908199310303,0.047648548070359,0.024256507581529255,537.2748467480558,87.5
102,1.1768693923950195,438.93679386399145,236.77700156144715,757.001965359278,-69.13571385617892,81.25,2.9761149451712448,0.1,0.008575916290283203,0.1823711395263672,0.044701435,0.031756256,451.178299250323,-0.41024947974361203,4.38273462728067,81.25,9600,1.2320878505706787,0.029463040233946525,0.02095374588689744,535.5453474956844,93.75
103,1.1759638786315918,433.95677416921717,252.67252021224996,745.6718894448761,-78.18570811501581,83.33333333333333,3.0691478868704745,0.1,0.009035825729370117,0.18501543998718262,0.048798274,0.029622916,449.4561467422124,-0.4163400027358289,4.330377875799052,83.33333333333333,9600,1.2412002086639404,0.04508884149460428,0.0369128386010185,546.2656854180565,87.5
104,1.1847350597381592,431.49128380119663,259.5304953266362,756.8674280367217,-76.94575092777384,73.95833333333333,3.4155595835280397,0.1,0.008375883102416992,0.1823885440826416,0.04851839,0.026097257,447.6596604481108,-0.41386909061383886,4.30524792541119,73.95833333333333,9600,1.2364342212677002,0.044228612551157516,0.03280964320792992,557.8714987814458,93.75
105,1.171114444732666,435.15373869244354,250.87900574675828,733.9288697046929,-108.13788305195699,84.375,2.983939419348144,0.1,0.008236169815063477,0.1818523406982422,0.046970785,0.033834744,446.40906827254406,-0.42003757564428906,4.342280420299334,84.375,9600,1.2460439205169678,0.04191804987736357,0.031859143423601896,557.8687572521949,87.5
106,1.1781792640686035,433.9133675266253,251.56292410223458,759.4816868154776,-90.10806925308889,83.33333333333333,3.134837290651049,0.1,0.01012110710144043,0.21943378448486328,0.043344468,0.026369296,445.1594981979522,-0.4180992309974442,4.330323727721749,83.33333333333333,9600,1.566636323928833,0.04867764412646983,0.03517358477363557,557.6485077267257,87.5
107,1.169677972793579,414.5748987302459,240.61002453946867,747.1868767197318,-93.40348104525785,75.0,3.334662368980097,0.1,0.009853124618530273,0.21608710289001465,0.050925974,0.030288273,442.1010382511816,-0.42570971921609474,4.137871588325286,75.0,9600,1.5431036949157715,0.036773567671826095,0.029335138813357222,569.898870162692,87.5
108,1.2853312492370605,480.6931603565431,227.1581969261842,735.141595206708,-104.39908610195822,83.33333333333333,2.851284668566192,0.1,0.008880376815795898,0.1846635341644287,0.04508425,0.03289769,445.96025046171775,-0.3853807023384524,4.7959463408142815,83.33333333333333,9600,1.2025907039642334,0.030344423545993395,0.022811844640868943,570.2652245070517,87.5
109,1.343576192855835,429.60709147905806,273.7029054350122,756.1348613831613,-99.35748939586007,81.25,3.3330997366579216,0.1,0.008343219757080078,0.1810157299041748,0.04620843,0.027617868,444.3249345634518,-0.4168305101845879,4.287681355810691,81.25,9600,1.2059922218322754,0.03290750885377631,0.0173920734073846,577.1604354395078,87.5
110,1.198967456817627,488.90468460195785,214.11635590654484,738.5101670473244,-54.43274874663356,85.41666666666667,3.546394076607006,0.1,0.008463144302368164,0.18283414840698242,0.047081698,0.029677331,448.7829095673024,-0.3840770767929224,4.877661110325878,85.41666666666667,9600,1.212010383605957,0.03810559263602661,0.025594641448477073,575.445842976869,87.5
111,1.1837022304534912,456.99962153585346,246.40385743109618,743.8684149052416,-105.57944349328089,84.375,2.90811186037805,0.1,0.00857400894165039,0.18260669708251953,0.049270835,0.033094987,449.6045807641575,-0.4032784738070625,4.562580050865658,84.375,9600,1.214127540588379,0.042465437973428846,0.032835839996028945,579.1355366919446,93.75
112,1.1868691444396973,471.69280331545286,238.7605213591124,744.3573902468626,-82.85207755035296,82.29166666666667,3.3027009408067873,0.1,0.008342504501342773,0.17952656745910645,0.05037803,0.02847713,451.813403019287,-0.40151311153103436,4.708083850100939,82.29166666666667,9600,1.2111985683441162,0.03608951700889089,0.024878835595923614,567.0373375995831,93.75
113,1.1914923191070557,450.52663189862716,267.4799964197283,746.2976346876081,-63.13367836903097,82.29166666666667,2.903057984392898,0.1,0.00877070426940918,0.18581652641296387,0.04947531,0.043896,451.68472590722104,-0.41576202441681853,4.497342571279784,82.29166666666667,9600,1.2147908210754395,0.042786736017510964,0.01957346061998859,561.2714090913329,93.75
114,1.1676390171051025,463.8579780432139,249.3891716103917,759.236770842245,-74.90951219365655,87.5,3.4407052058523124,0.1,0.008507013320922852,0.18197107315063477,0.049713027,0.028354904,452.9020511208203,-0.40393131243432384,4.631498045346526,87.5,9600,1.2392921447753906,0.039078087604545106,0.025885771879593275,577.2775181609278,87.5
115,1.1594650745391846,429.1204248559372,248.8652201545218,756.5442397088598,-65.24152403888388,80.20833333333333,3.726622973279183,0.1,0.008744955062866211,0.1855771541595459,0.049345244,0.027507342,450.52388849433197,-0.4102732332336175,4.28193690391099,80.20833333333333,9600,1.242908000946045,0.047340134484804536,0.036688759970993474,571.3189755062697,87.5
116,1.204024314880371,488.31727101700517,224.59799154290016,723.363526362987,-96.95182537434408,86.45833333333333,3.0188556172935646,0.1,0.029102563858032227,0.183974027633667,0.049832877,0.029370975,454.3032267465993,-0.3934979741181397,4.875714273508889,86.45833333333333,9600,1.2514240741729736,0.03881244554411957,0.028377981739576293,550.9029532258184,87.5
117,1.350761890411377,479.6062465565153,229.72515020329485,755.7282940242943,-80.61619761341085,84.375,3.0773174896967874,0.1,0.008343696594238281,0.18062734603881836,0.04457583,0.028938042,456.83352872759093,-0.3921639339167053,4.7881170685190275,84.375,9600,1.2190582752227783,0.03580749967543439,0.02229667633304391,581.388705618105,87.5
118,1.1764624118804932,448.7378300481909,264.16484351078486,752.6776770359581,-61.473078760537376,82.29166666666667,3.2514548481988097,0.1,0.008355140686035156,0.17964720726013184,0.049240902,0.03057199,456.0239588596509,-0.40437478724893605,4.480709058726782,82.29166666666667,9600,1.202197790145874,0.04181225131579173,0.026263702453446086,560.8507766908242,93.75
119,1.197521686553955,475.4059367794185,259.3382077222253,750.1208630392593,-77.97697364472113,84.375,3.482466286214721,0.1,0.008805036544799805,0.18468451499938965,0.048008904,0.027207624,457.96215665162765,-0.3988946114352146,4.7430634997825605,84.375,9600,1.1915099620819092,0.038418959120142225,0.023485817061545393,575.5345906906962,87.5
120,1.2175648212432861,469.6473052088883,231.72380951865225,768.6905926580349,-71.03152618093212,90.625,2.803584900490996,0.1,0.008709907531738281,0.18427371978759766,0.048367523,0.03220084,459.1306715073537,-0.39324126828113865,4.687168513619137,90.625,9600,1.2207655906677246,0.039179009302376305,0.028686858128572888,572.0955769105717,87.5
121,1.1712603569030762,495.52635874452017,249.50684540106258,754.4640583396997,-76.21486051503342,86.45833333333333,3.593737366144127,0.1,0.00874781608581543,0.1827709674835205,0.044468153,0.025953814,462.7702402310704,-0.3868814135159675,4.944695039577347,86.45833333333333,9600,1.2255809307098389,0.03196757250231283,0.024014121324385906,547.4318783362137,81.25
122,1.169344425201416,455.3912308192769,244.13835498048957,729.2932639095252,-84.1341658711919,86.45833333333333,2.648569088526947,0.1,0.008931398391723633,0.18372774124145508,0.04525763,0.03414606,462.03233928989107,-0.4001333914872396,4.545149921026861,86.45833333333333,9600,1.2352445125579834,0.033819068802317734,0.022942385764256803,587.9538994475141,81.25
123,1.1573305130004883,514.6167497679033,222.18841132639463,733.5274470113043,-65.29616983541479,88.54166666666667,2.9505477407669876,0.1,0.008811473846435547,0.18061518669128418,0.04609424,0.03006805,467.2907803376923,-0.3741913527495546,5.136093201706839,88.54166666666667,9600,1.2117598056793213,0.028108941397787232,0.022113495414365556,580.5851082878988,81.25
124,1.201888084411621,453.96440003660535,236.38308518292683,760.6249655190849,-44.49714862570254,88.54166666666667,3.3220904953563424,0.1,0.008577108383178711,0.18508100509643555,0.047538795,0.026453763,465.9581423075836,-0.3998972217451134,4.529905187257254,88.54166666666667,9600,1.181654691696167,0.04686338316979075,0.029630062237766933,573.9919817272611,87.5
125,1.1719579696655273,490.8861964517566,242.18610734119918,753.3417880077268,-69.14395694350196,84.375,3.3184950064497105,0.1,0.00869607925415039,0.17958641052246094,0.04553135,0.028033935,468.4509477220009,-0.3810030782858757,4.899201977132988,84.375,9600,1.1862757205963135,0.03031943279805517,0.022123823971131083,592.6904944811859,87.5
126,1.3342561721801758,477.16828074173526,247.39273919011939,755.0156970230862,-81.80286191425738,82.29166666666667,2.935017245094814,0.1,0.008292913436889648,0.18088126182556152,0.048033003,0.029424133,469.3226810239743,-0.3893186570433607,4.762467009864232,82.29166666666667,9600,1.1746973991394043,0.024880487163038593,0.016867641689417217,574.4536956696686,87.5
127,1.1822755336761475,461.77858542492294,267.1213497640342,763.8987267044986,-77.54376434389722,83.33333333333333,3.871342798026145,0.1,0.008404970169067383,0.18101835250854492,0.046032887,0.022416526,468.5682714640692,-0.3987354977127482,4.606326578202462,83.33333333333333,9600,1.1792361736297607,0.03405185832750937,0.028056864673167856,575.387586887535,87.5
128,1.168257474899292,478.2396684171538,216.81746099193253,731.6275263510563,-37.68455012890204,88.54166666666667,3.14690561619511,0.1,0.008657217025756836,0.1806790828704834,0.048122603,0.030691963,469.5354111593777,-0.38562900232809644,4.773159420467438,88.54166666666667,9600,1.1882390975952148,0.04376185041039842,0.03035689152555617,564.5468845120905,87.5
129,1.2080464363098145,493.3108566115931,232.90412380893807,759.7794915769415,-61.78470458502218,83.33333333333333,2.9609531102201423,0.1,0.008764505386352539,0.18039941787719727,0.044896625,0.031731185,471.91295570459926,-0.38420781637894835,4.922071580995293,83.33333333333333,9600,1.2116639614105225,0.03420612984294317,0.029285860756564863,567.3005711969286,87.5
130,1.1638882160186768,514.7725721208595,229.70388642290055,759.8965425406793,-55.40828143849497,84.375,3.2081179451544557,0.1,0.00879526138305664,0.1829085350036621,0.049554512,0.027861368,476.19891734622524,-0.36374818757517335,5.138933119202811,84.375,9600,1.2377374172210693,0.02619609938906015,0.016801574472425904,551.9167212125407,87.5
131,1.2099483013153076,502.52212128039076,245.9424943614651,763.3254066180832,-57.45956302923826,88.54166666666667,2.9898449902750652,0.1,0.008858442306518555,0.1805098056793213,0.048904624,0.030780403,478.8312377396418,-0.3734358949284993,5.0159330953274806,88.54166666666667,9600,1.2415080070495605,0.030421481780415035,0.022241837141829854,545.900817151479,87.5
132,1.1630980968475342,516.5690131381517,208.76021245437263,748.0682453257967,-65.59334383041018,91.66666666666667,2.9133087387880447,0.1,0.008839130401611328,0.18137454986572266,0.0504641,0.037567772,482.6050152794928,-0.36877270458040273,5.158214845734686,91.66666666666667,9600,1.2482874393463135,0.03842881013676182,0.028962936421432762,537.7321429081428,87.5
133,1.207470178604126,491.9553200358064,231.42670698133188,748.6144800676075,-61.05058902337635,87.5,3.3727806078603,0.1,0.008462905883789062,0.18277335166931152,0.047494467,0.02706075,483.5400457551242,-0.37774602009609,4.909015891226358,87.5,9600,1.260472297668457,0.04729973959444621,0.035325008235263536,534.4798262455556,81.25
134,1.1809093952178955,522.6858366432107,202.03360918766904,758.6591390506253,-53.11052848658928,92.70833333333333,3.2033911556937835,0.1,0.008539438247680664,0.1822352409362793,0.049574256,0.032890916,487.45462484393283,-0.36353805030201736,5.218069134281936,92.70833333333333,9600,1.2532989978790283,0.03641969798392542,0.023403078612232918,567.5231704060404,87.5
135,1.1724517345428467,504.16898768521975,214.7283151437645,737.2373417125309,-12.28378546824941,91.66666666666667,3.3279098161659038,0.1,0.008800983428955078,0.18671011924743652,0.047858812,0.02500278,489.12606112806156,-0.377258397842764,5.030752974338292,91.66666666666667,9600,1.2587039470672607,0.040770701635161236,0.026398985408312335,536.8939996739606,81.25
136,1.1757326126098633,498.7255059454663,249.79178203335496,760.0586686457738,-60.05865470438686,86.45833333333333,3.1560642236035745,0.1,0.008695363998413086,0.18211674690246582,0.049044885,0.029661693,490.08600560980204,-0.3776263960198272,4.978457038536963,86.45833333333333,9600,1.2704503536224365,0.027888859469408694,0.016752994651197506,561.5873036063357,87.5
137,1.2028529644012451,505.21026057844784,244.3901419957509,761.7904588955487,-83.50745894723325,89.58333333333333,3.1575648993675576,0.1,0.00857400894165039,0.18048691749572754,0.04860077,0.031018998,491.5984311066666,-0.37790680198665666,5.041521672388695,89.58333333333333,9600,1.2521891593933105,0.030390703223292546,0.018893624880166802,571.46956115076,87.5
138,1.1854324340820312,470.6546732489669,256.764843460944,759.5355465468123,-47.55939556969505,83.33333333333333,3.3551668897530966,0.1,0.008678197860717773,0.18252062797546387,0.04785324,0.028940326,489.50405532089667,-0.3909581908008246,4.699071027586776,83.33333333333333,9600,1.2608089447021484,0.029995445133106133,0.019745536720931624,591.8276816814765,87.5
139,1.2334272861480713,481.4333171099379,221.39105106833472,749.7163583905991,-39.157970928251295,85.41666666666667,3.0083997044990287,0.1,0.008871793746948242,0.1841886043548584,0.049209666,0.040870864,488.6969814998008,-0.3840988250005452,4.80464687611675,85.41666666666667,9600,1.2920219898223877,0.049855543872906326,0.027272446602700697,565.0263363325939,87.5
140,1.1631760597229004,521.2545410764642,226.107698678969,752.8372296256638,-63.31439973985363,89.58333333333333,3.1025643145776933,0.1,0.009049415588378906,0.1797502040863037,0.051012214,0.03175138,491.95273745746715,-0.36878556858606554,5.2034870172867835,89.58333333333333,9600,1.2712397575378418,0.03660214775506577,0.02264901912607881,579.802538157146,81.25
141,1.1617345809936523,511.8678417722486,223.4630998302967,761.9087966832466,-53.45960992970184,88.54166666666667,2.877654077636169,0.1,0.008807182312011719,0.18558454513549805,0.047574982,0.0313701,493.9442478889453,-0.3703642352458491,5.1080851913841,88.54166666666667,9600,1.2957136631011963,0.033835829008568914,0.021903522713531347,576.5167701296882,81.25
142,1.3207964897155762,487.4505481782289,238.10212671343518,754.4295840792798,-60.628601300129006,86.45833333333333,2.706908310800539,0.1,0.00872349739074707,0.18485665321350098,0.046654917,0.029054077,493.2948779178737,-0.39066898037107006,4.8644249055478745,86.45833333333333,9600,1.309342861175537,0.03152569067061061,0.020235627508054948,566.3985205774741,87.5
143,1.3703644275665283,487.045855258784,247.42759025681602,750.1396617636519,-85.55503366521972,84.375,2.636229523473888,0.1,0.008630990982055664,0.1852436065673828,0.04683146,0.0376803,492.6699756519647,-0.38463439025501117,4.8598716391270615,84.375,9600,1.3033502101898193,0.04136484961971543,0.02878331532803932,562.2736987689183,87.5
144,1.1650266647338867,514.9948887038785,230.5588821871662,761.0293869435225,-74.25877166917608,89.58333333333333,2.9563533784791596,0.1,0.008558273315429688,0.1825878620147705,0.04736761,0.030995809,494.9024669571561,-0.3743722679803736,5.139423057575204,89.58333333333333,9600,1.2734031677246094,0.026078661019584806,0.017965535378112362,574.5355409226999,87.5
145,1.1770098209381104,541.5557657058404,204.55099808969968,756.024913328353,-50.58301645912816,95.83333333333333,2.525049169777557,0.1,0.009018182754516602,0.18128490447998047,0.046685286,0.034515988,499.56779683202456,-0.3543771030987323,5.403711596549741,95.83333333333333,9600,1.2411119937896729,0.02333285745532351,0.01572718184747962,575.4822827144108,87.5
146,1.2064440250396729,512.1919953066975,239.83313751729148,751.8411144225113,-91.90347274791219,81.25,3.213724882254702,0.1,0.01004934310913086,0.21511125564575195,0.045899507,0.024956882,500.83021667949185,-0.3710172556938806,5.112255339293233,81.25,9600,1.606248378753662,0.03136888285915541,0.01753398826953565,588.701760414019,87.5
147,1.1926090717315674,519.916236667157,240.09525911722332,759.8522142151,-60.112687289029125,84.375,3.319183064376984,0.1,0.010056257247924805,0.21360230445861816,0.048924286,0.026237248,502.7388186782584,-0.3609149401823153,5.188127736462831,84.375,9600,1.6124601364135742,0.02366500917828946,0.01676116627485886,572.0343537998667,87.5
148,1.2173340320587158,511.48668638417547,222.00178934608832,764.4379952319148,-68.33288413196614,85.41666666666667,2.8663085599083726,0.1,0.008714914321899414,0.18166160583496094,0.04819871,0.03415878,503.6136054488501,-0.3702938507293716,5.102997162966163,85.41666666666667,9600,1.28859281539917,0.03646725424837585,0.02029181955358464,559.6701010474474,81.25
149,1.1780455112457275,544.7849879854953,210.72760549830514,763.0098413444778,-41.561439997460646,91.66666666666667,3.519302852884422,0.1,0.008417844772338867,0.18106770515441895,0.048670426,0.029599424,507.73074370251464,-0.347251685315245,5.436354125177108,91.66666666666667,9600,1.3150951862335205,0.024246936022362307,0.01551461005597016,546.6668989319921,81.25
150,1.1699309349060059,527.1616544709256,224.23521501218494,737.1447413520625,-49.61344738561483,83.33333333333333,3.603372886019436,0.1,0.008316516876220703,0.1802220344543457,0.048296843,0.029086092,509.6738347793558,-0.3579684029786024,5.261463977359182,83.33333333333333,9600,1.3226685523986816,0.03591059510567297,0.014332492451930717,556.2371714824249,81.25
151,1.2990798950195312,475.1789861575721,247.00750427913255,748.4641734762928,-59.837531334626746,86.45833333333333,2.9115167284312427,0.1,0.008276224136352539,0.1807246208190918,0.04664491,0.030047974,506.2243499171774,-0.38862643663596397,4.743000335735271,86.45833333333333,9600,1.3250622749328613,0.05663671100025583,0.023869293819482263,541.2694078570009,87.5
152,1.3354556560516357,498.23387687613376,220.894564265758,755.3718807235338,-58.77884796441092,85.41666666666667,3.809646424533971,0.1,0.008595705032348633,0.18312716484069824,0.047421835,0.024654185,505.42530261307303,-0.378590423721011,4.973520964231267,85.41666666666667,9600,1.349353551864624,0.03266559074633591,0.01787848873122245,537.5378571470578,87.5
153,1.1975412368774414,508.49427441887093,229.6372395710828,750.8993895809912,-63.130686606869574,85.41666666666667,2.715509656198984,0.1,0.00856637954711914,0.1855628490447998,0.048999853,0.0341347,505.7321997936528,-0.3724652197569777,5.071280989111223,85.41666666666667,9600,1.3186416625976562,0.03804112605374374,0.02508299661942649,524.7650763121629,87.5
154,1.1645228862762451,519.4611057094413,225.39625163326113,770.437637983375,-44.43678562529086,90.625,3.322656432215545,0.1,0.00852823257446289,0.18077445030212402,0.048631515,0.029008733,507.1050903852317,-0.36358458048733855,5.1853819435042565,90.625,9600,1.304940938949585,0.02782869829675527,0.01848017736480675,586.7336212258383,87.5
155,1.2156314849853516,557.2326553307312,185.39902862707902,757.2370586236513,5.534789231570555,95.83333333333333,3.1565084607745155,0.1,0.008889436721801758,0.1817188262939453,0.044995528,0.029007057,512.1178468797816,-0.34869416194622954,5.561785407360077,95.83333333333333,9600,1.2861027717590332,0.01563943399789783,0.010999648154274478,572.1030971206037,81.25
156,1.189213514328003,553.7635591413267,173.60069167968683,757.0096927244273,88.58455076551013,93.75,3.3258357604795816,0.1,0.008547306060791016,0.18055319786071777,0.045562312,0.02987159,516.2824181059361,-0.3445643083757746,5.5266234924499615,93.75,9600,1.2835595607757568,0.02351453481332628,0.01334745656578598,579.6941373495308,81.25
157,1.1830780506134033,498.22085863173066,226.06672328678593,762.3312004210195,-66.42406857350726,88.54166666666667,2.772358868916094,0.1,0.008562564849853516,0.18358564376831055,0.048712827,0.033570934,514.4762621585156,-0.37753670603567363,4.970725442475327,88.54166666666667,9600,1.3027546405792236,0.04217960521218165,0.027971768039386568,552.3958972867679,81.25
158,1.1796722412109375,513.976351705354,235.51093166516782,759.886654342488,-62.450345338486194,86.45833333333333,3.3440946415232,0.1,0.008414745330810547,0.1809072494506836,0.049879484,0.027908677,514.4262711131995,-0.37063116420409403,5.130108855410318,86.45833333333333,9600,1.284325361251831,0.019735740782003037,0.014048371531904007,527.6185537604115,75.0
159,1.2085561752319336,539.6221824254284,204.52901896260107,755.5482346656536,-11.034907073276429,88.54166666666667,3.3521307817213555,0.1,0.008522987365722656,0.18362998962402344,0.04753936,0.025970666,516.9458622444224,-0.35315799226016736,5.384338967221887,88.54166666666667,9600,1.2475214004516602,0.021074976529841704,0.014471575780954815,599.027174682536,81.25
160,1.3555238246917725,514.1879419036721,229.92632321360725,763.2894345638063,-77.96175446678743,91.66666666666667,2.62792801701531,0.1,0.008465051651000977,0.18448591232299805,0.051043652,0.034890465,516.6700702103474,-0.37525202092353,5.133988743868611,91.66666666666667,9600,1.230381727218628,0.023283318945870286,0.01411241915203281,588.4590944491256,81.25
161,1.161564826965332,551.7130816828438,203.15952886827753,759.3807687181725,-110.72297247648577,93.75,3.2057082919814643,0.1,0.008638143539428711,0.18337011337280273,0.044150878,0.027206233,520.174371357597,-0.35450409673325584,5.5083932598839285,93.75,9600,1.223073959350586,0.032403192302377516,0.01893275699516384,541.412008759894,81.25
162,1.1780991554260254,504.9101689450201,211.36906869718985,760.1456267479995,-37.708177797463776,87.5,3.295643987714193,0.1,0.00868368148803711,0.1803438663482666,0.047213025,0.027078753,518.6479511163393,-0.3695936217658511,5.039917993499738,87.5,9600,1.189819574356079,0.029781624540638808,0.016979910518392576,589.463704674549,81.25
163,1.1787500381469727,489.3766525168215,231.29658962597279,759.5760837480639,-35.94852460072522,86.45833333333333,3.3802621029382736,0.1,0.008634805679321289,0.17951726913452148,0.049735874,0.030620102,515.7208212563876,-0.3773180997878118,4.884512710665132,86.45833333333333,9600,1.190018653869629,0.02892824283369015,0.018102364899652994,591.5049180817666,81.25
164,1.1641080379486084,498.78803200808215,225.58908142175054,756.8245800961718,-49.72647442219543,87.5,3.272856293199406,0.1,0.008582830429077148,0.18029999732971191,0.04453846,0.02795385,514.027542331557,-0.373060415580126,4.976006158560399,87.5,9600,1.2000336647033691,0.04809289634062679,0.025248860717166696,597.3059936104897,81.25
165,1.1872413158416748,469.90873747239476,239.49743018516364,757.198839966685,-82.84981279610179,82.29166666666667,2.783506934621856,0.1,0.008620738983154297,0.18251824378967285,0.049154654,0.030970426,509.61566184564083,-0.3910255898993846,4.690296470500319,82.29166666666667,9600,1.2202842235565186,0.03585751981386769,0.023272310014837986,590.2369174342716,87.5
166,1.1868832111358643,541.5205438868005,219.9854753658821,762.6887692247885,-57.89379645561228,87.5,3.0980472018268443,0.1,0.008963584899902344,0.18205785751342773,0.048806872,0.03492855,512.8061500497569,-0.34815640220510763,5.405102075321239,87.5,9600,1.234100103378296,0.02040084498326144,0.012247754830207364,601.2381870111755,81.25
167,1.1745572090148926,520.9962184460701,213.49596749469714,749.5099521534011,-52.934968163388284,90.625,2.984053743258056,0.1,0.010052919387817383,0.2144014835357666,0.04775825,0.03113582,513.6251568893882,-0.3590158458819113,5.200268056617371,90.625,9600,1.573474645614624,0.028687984099244612,0.018754738159970908,560.7350213559322,81.25
168,1.235595464706421,539.5663327712645,206.3567568817275,761.2836349794117,-53.88602696069969,91.66666666666667,3.3729646457229427,0.1,0.00975942611694336,0.21301913261413574,0.050287023,0.029929824,516.2192744775758,-0.35650943358724896,5.382501851349484,91.66666666666667,9600,1.5576965808868408,0.028133809764568835,0.01836449147208157,486.0924294620133,75.0
169,1.2262368202209473,534.049141708416,199.45841349298573,743.8908198003653,-72.13016184142786,89.58333333333333,3.1641000781155313,0.1,0.00855112075805664,0.18197298049926758,0.047674827,0.02887733,518.0022612006599,-0.3601877703041339,5.331668742286381,89.58333333333333,9600,1.23679780960083,0.02058936613012727,0.014164512544291135,587.3516503098144,81.25
170,1.149296522140503,546.8156939108518,185.09136099867555,757.3877375395614,63.6315687036291,93.75,3.3049770554791644,0.1,0.008701086044311523,0.1825850009918213,0.048639003,0.032755304,520.8836044716791,-0.3481900837494452,5.4572369498883475,93.75,9600,1.2253375053405762,0.028776231668715343,0.017905224790992873,551.7823795168636,81.25
171,1.1844291687011719,449.961868260461,247.59524052156218,749.5612042040665,-56.165031488635165,91.66666666666667,3.17517173679727,0.1,0.008510589599609375,0.18014144897460938,0.049696695,0.032349385,513.7914308505573,-0.39888106967930126,4.490011987151322,91.66666666666667,9600,1.2073886394500732,0.051507648165507486,0.024141891449390777,559.6539810398964,87.5
172,1.1624748706817627,536.269169761526,200.93425921194287,765.5419529137367,-53.84679740559316,92.70833333333333,3.2714040164243827,0.1,0.00834965705871582,0.17966723442077637,0.04946273,0.031016616,516.0392047416542,-0.35060085484606324,5.354386834967997,92.70833333333333,9600,1.20450758934021,0.024841423691961868,0.014046900305124675,581.0194862621405,93.75
173,1.188718557357788,507.49948817658213,226.51563630740637,760.4084567270669,-42.18145866640798,89.58333333333333,3.502355353319587,0.1,0.00839543342590332,0.18001604080200195,0.0489736,0.034058664,515.185233085147,-0.36654781707141826,5.064850176252073,89.58333333333333,9600,1.2070529460906982,0.03065893481045272,0.018477742338641318,579.1077979947328,93.75
174,1.1619455814361572,495.50744291681076,226.17933441548936,759.443599785478,-58.61080130170332,85.41666666666667,2.913363777704164,0.1,0.008519411087036133,0.1798996925354004,0.052797716,0.033399686,513.2174540683134,-0.38125848353026665,4.943634670485495,85.41666666666667,9600,1.182858943939209,0.026269379539652242,0.016276139786936653,626.2355925034171,81.25
175,1.226944923400879,525.0256792766157,213.42910802229989,749.8532880249871,-40.17280698056907,92.70833333333333,3.0703648065218085,0.1,0.008585929870605469,0.1804959774017334,0.049804475,0.032109305,514.3982765891436,-0.36008215070508726,5.240171290557149,92.70833333333333,9600,1.2067663669586182,0.033131503568804226,0.019950099166281935,559.2500966180139,93.75
176,1.3462083339691162,508.24991156449414,230.60910510088553,749.8740133474272,-72.73384664822218,89.58333333333333,2.9694806199991257,0.1,0.00874781608581543,0.17986011505126953,0.04914345,0.03240535,513.7834400866786,-0.37205628321466117,5.07282024641752,89.58333333333333,9600,1.1998424530029297,0.020249381919471492,0.01272990591160249,569.6961213953209,87.5
177,1.1840026378631592,530.5161021000331,212.73195289198244,759.6097401848201,-43.56910622836429,91.66666666666667,3.3690972612661816,0.1,0.008443593978881836,0.1814584732055664,0.049313758,0.028832126,515.4567062880141,-0.35832422179544626,5.294962808094226,91.66666666666667,9600,1.1936945915222168,0.027768445854388365,0.01724991076191238,561.6789856750931,93.75
178,1.1740520000457764,510.3880977293927,224.52486900825448,764.9328592766275,-65.70957666882182,85.41666666666667,3.1852941063294407,0.1,0.008658647537231445,0.1807563304901123,0.04721126,0.023496995,514.949845432152,-0.37194328847425256,5.092424788583689,85.41666666666667,9600,1.2009963989257812,0.037444270152651185,0.01863718388052098,564.6321339374954,93.75
179,1.1803812980651855,562.0807935558258,181.67276176601968,749.4673238419058,10.213705514354048,94.79166666666667,2.8960394683890396,0.1,0.008332490921020508,0.18018794059753418,0.047279537,0.03388217,519.6629402445194,-0.34642418174947914,5.609815133216219,94.79166666666667,9600,1.2152800559997559,0.02458187716222755,0.012166483478204267,532.459289811108,93.75
180,1.1618022918701172,560.4211529117256,190.12645654254217,759.374649956811,-51.04474972033704,93.75,3.1247027907967944,0.1,0.008630752563476562,0.1787409782409668,0.04813011,0.030498752,523.73876151124,-0.3462953472993135,5.594088229202733,93.75,9600,1.2046244144439697,0.021685999744407866,0.012246813076310042,511.82566482045627,81.25
181,1.191798448562622,519.6103838840007,206.9519346250691,761.0078229591281,-47.08777237319598,90.625,3.1582448922390203,0.1,0.008599281311035156,0.18058490753173828,0.046477467,0.0264103,523.3259237485161,-0.36601387959865767,5.185595227027709,90.625,9600,1.2070343494415283,0.021798115364399448,0.013627605163851317,569.8341601748717,93.75
182,1.2028131484985352,538.0905631377558,193.74247757001808,747.8539149926505,-11.714109860582457,92.70833333333333,2.9188711972190915,0.1,0.008622407913208008,0.18019318580627441,0.044673786,0.030425759,524.80238768744,-0.3529857404645151,5.370790341157979,92.70833333333333,9600,1.2087461948394775,0.024402815318889336,0.014861446449878468,493.155478059439,87.5
183,1.2130565643310547,505.12357482994065,228.0841869184636,749.2735403581343,-73.68821948540032,88.54166666666667,2.808399971259507,0.1,0.008737325668334961,0.1808156967163086,0.049786665,0.034106515,522.8345064016901,-0.3723870194682514,5.039886338539155,88.54166666666667,9600,1.2170064449310303,0.028249227153540998,0.015829838209336318,573.0500054708991,87.5
184,1.2987494468688965,528.8895997640648,202.06305455148419,753.5586415722729,-25.84751830390931,84.375,3.3718830065053464,0.1,0.008452177047729492,0.18425655364990234,0.050134964,0.027982783,523.4400157379275,-0.35251381224265915,5.279689296740673,84.375,9600,1.2258799076080322,0.022605257404415373,0.014653993988310344,513.6535142064414,100.0
185,1.1623711585998535,541.396923113013,202.48061690087414,756.7452506143057,-48.75315325823736,90.625,3.2677354567548487,0.1,0.008466482162475586,0.18234968185424805,0.0460775,0.02631342,525.235706475436,-0.35255250061963245,5.404698189731029,90.625,9600,1.2001447677612305,0.023244022682735867,0.016264698865450965,545.8763392861873,100.0
186,1.1842310428619385,560.0290010791358,173.61878840613514,760.736603169195,46.29685521640927,93.75,3.227438453927718,0.1,0.008599519729614258,0.1819019317626953,0.048102148,0.026726935,528.715035935806,-0.3408260972634993,5.5893067223124815,93.75,9600,1.1859097480773926,0.02647002700787367,0.01739606000710039,625.5969078853436,100.0
187,1.1731009483337402,519.0980446675212,218.0927077283266,748.9929368140944,-52.68479911016465,89.58333333333333,2.8893952891045704,0.1,0.008505821228027344,0.18115234375,0.0474872,0.03468597,527.7533368089776,-0.35944875494545103,5.179952598890139,89.58333333333333,9600,1.1897997856140137,0.02937198650141453,0.019051104517805856,626.2782592384631,100.0
188,2.506458282470703,530.1534237269403,228.5265649585471,762.1158107983492,-47.40204999461146,88.54166666666667,2.718565025978128,0.1,0.00835561752319336,0.18165349960327148,0.04840509,0.036036793,527.9933455007739,-0.3570816101765624,5.289622511813303,88.54166666666667,9600,1.1880242824554443,0.02513881769433152,0.018624479155948507,594.265815646758,100.0
189,1.2135593891143799,521.3660747683278,212.67325017290662,769.5543912778534,-59.95316473614182,86.45833333333333,3.3014186905662006,0.1,0.008959770202636719,0.18393206596374512,0.046507977,0.026392447,527.3306184275293,-0.3710219081958928,5.2027038387599704,86.45833333333333,9600,1.185225248336792,0.024009747037514583,0.015519133357892798,595.6989563297243,93.75
190,1.2208354473114014,559.5807852864237,194.3204573249644,759.3998979255795,-62.355666912486676,97.91666666666667,3.234321541335876,0.1,0.008504629135131836,0.18133759498596191,0.048978984,0.027777992,530.5556351134187,-0.34688416195232413,5.583907471277264,97.91666666666667,9600,1.1775498390197754,0.015967850076208476,0.01037419242512202,596.7016545959412,93.75
191,1.248075008392334,542.0308506212147,206.69109750833596,765.1108276396078,-38.10508133968871,92.70833333333333,3.3353062823182538,0.1,0.008784294128417969,0.18366575241088867,0.047011413,0.026054068,531.7031566641983,-0.34567624980032413,5.411020180872843,92.70833333333333,9600,1.1925687789916992,0.015266682620302834,0.00948652438077204,604.7414409679479,93.75
192,1.3727140426635742,514.8875630075482,199.62536524520553,762.734647827199,-50.4797632951969,87.5,3.391470743825301,0.1,0.008777141571044922,0.18255138397216797,0.045898467,0.025271041,530.0215972985334,-0.36485459821036476,5.138323014793301,87.5,9600,1.177748441696167,0.030957879279733338,0.019991420860239095,577.7774024293817,93.75
193,1.1658976078033447,540.7098086513707,191.1189287684408,738.8899352329681,-49.08191863321901,97.91666666666667,2.6737931541312667,0.1,0.008236885070800781,0.18071794509887695,0.046988044,0.032852765,531.0904184338171,-0.35430643599369915,5.395705868185719,97.91666666666667,9600,1.1580603122711182,0.02122904122492342,0.0139074105077615,617.2910011278003,100.0
194,1.1870465278625488,528.0684545333264,201.44719422873067,758.5242658563367,20.02314255224056,94.79166666666667,3.2109553566125237,0.1,0.008440494537353516,0.18071985244750977,0.047618624,0.02776568,530.7882220437681,-0.3544033359526882,5.269276076175311,94.79166666666667,9600,1.1419367790222168,0.02168619124963735,0.012272340786818159,567.3928997614935,93.75
195,1.188387155532837,521.9096627445361,181.7577959858911,735.0977530404693,104.11688071066666,93.75,3.2248051200457515,0.1,0.00870823860168457,0.18212080001831055,0.047348093,0.027723348,529.9003661138449,-0.35870905821416227,5.2076526886982775,93.75,9600,1.1257309913635254,0.025228981583593664,0.015930534936202282,557.5571999147975,100.0
196,1.1756422519683838,584.3087282797588,164.10211798185617,759.5883166010262,3.9119266519964753,96.875,3.014205844850487,0.1,0.008435487747192383,0.1840360164642334,0.049816553,0.033008344,535.3412023304363,-0.3326821616836153,5.831213258624167,96.875,9600,1.1451091766357422,0.017459416382695204,0.011204356011960478,651.8035285770344,100.0
197,1.169119119644165,546.2317054477174,180.16892344007337,771.9641828815514,-18.464687905144707,93.75,3.0320910217143444,0.1,0.008288383483886719,0.18749475479125977,0.047992334,0.02914698,536.4302526421644,-0.3500040028853461,5.453563833736756,93.75,9600,1.151038646697998,0.018134871747409173,0.013444091347451184,631.7717402511823,93.75
198,1.1721181869506836,537.8305554954114,213.86378998280173,759.5455747330326,-36.38149347809321,90.625,3.1099867310237017,0.1,0.008722305297851562,0.18195104598999023,0.048875943,0.031090776,536.5702829274892,-0.3536130712624577,5.366827190663954,90.625,9600,1.1413817405700684,0.018711415689775114,0.013407145138541233,645.3437979390928,93.75
199,1.188281536102295,552.2666580706818,198.90529730869446,759.2564461053869,-46.41857790660903,93.75,3.066690312798126,0.1,0.008700847625732422,0.18456363677978516,0.04812418,0.032728605,538.1399204418085,-0.34451993243664364,5.511213541336754,93.75,9600,1.1601197719573975,0.023594466557023876,0.016340064196744705,613.2467931456101,93.75
200,1.3075225353240967,511.65465705073575,225.2831466013921,758.9719451312401,-56.51835396264961,87.5,3.097005100303118,0.1,0.00850057601928711,0.184678316116333,0.04888588,0.030926995,535.4913941027012,-0.3678573493193735,5.1080966837851705,87.5,9600,1.151686668395996,0.032939049596205375,0.018944755071473647,595.1154767959565,93.75
201,1.1653666496276855,534.4437596421,190.5189209317644,770.9642371425364,-44.60721736250264,94.79166666666667,3.362724694603258,0.1,0.008749961853027344,0.1840803623199463,0.04951648,0.03032612,535.386630656641,-0.3545773522647278,5.334270286566007,94.79166666666667,9600,1.168968677520752,0.0288317260460815,0.01452844922454673,621.2351395039974,93.75
202,1.1672065258026123,531.0290782724137,212.76431941687002,748.0961327044836,-27.168629321596114,93.75,3.4041604427031187,0.1,0.008686065673828125,0.1849520206451416,0.04865336,0.028757922,534.9508754182183,-0.35585683662728523,5.300192780053725,93.75,9600,1.1234660148620605,0.024049789525043032,0.016490284395591318,605.1665240989405,87.5
203,1.176210641860962,529.0767898422656,204.97705937615603,765.0021390229022,-40.09859854740187,94.79166666666667,3.2364351027375253,0.1,0.008767843246459961,0.18159008026123047,0.05051994,0.029643685,534.363466860623,-0.3586323472111171,5.2810674386087735,94.79166666666667,9600,1.1248316764831543,0.025219755130343496,0.014430479454293524,638.7719243737653,100.0
204,1.198920726776123,499.8846105400475,215.41619948593512,764.0354813572618,32.51398303197433,90.625,2.7006581278746338,0.1,0.008474349975585938,0.18256664276123047,0.046233285,0.034283627,530.9155812285655,-0.374781473224739,4.987431471573484,90.625,9600,1.15602445602417,0.02771402840708235,0.01757577694467616,622.1476067490967,100.0
205,1.169978380203247,560.540654843772,169.20389861747347,764.4072381906486,0.778005075332854,98.95833333333333,2.8673951171952132,0.1,0.008659839630126953,0.1814258098602295,0.040598027,0.027077625,533.8780885900862,-0.3433753220759416,5.594324260227739,98.95833333333333,9600,1.1386027336120605,0.01905190544967653,0.012211126443624043,626.7635158504872,100.0
206,1.201859474182129,549.7671047883001,197.59272838468956,750.3610678839447,-21.368428313334103,94.79166666666667,2.759450397222316,0.1,0.00864100456237793,0.18343710899353027,0.04875715,0.032076195,535.4669902099076,-0.34496197874352186,5.487123571826532,94.79166666666667,9600,1.1592285633087158,0.042785370315954384,0.021856803345228423,632.0973403790289,100.0
207,1.164062738418579,552.4417678019373,190.12032721071378,746.3701040183519,6.361124849869404,93.75,2.9762848448332586,0.1,0.008260011672973633,0.184035062789917,0.04887313,0.03173541,537.1644679691107,-0.34490584835126,5.513374836295934,93.75,9600,1.1580941677093506,0.028179301670588908,0.01203969050272853,628.5697987184392,100.0
208,1.1736857891082764,550.3711680950854,201.55107118062176,765.0485076074051,-5.924248015837335,94.79166666666667,2.8174179475992847,0.1,0.008045673370361328,0.1825239658355713,0.05025966,0.034878682,538.4851379817081,-0.3440217523202873,5.49317631315578,94.79166666666667,9600,1.1483488082885742,0.037636809363561556,0.025416583409549786,633.4188378719709,100.0
209,1.2434024810791016,565.5252974064709,176.79458308823484,770.1727724638087,-3.7029405692137494,94.79166666666667,3.195257603007066,0.1,0.008465766906738281,0.18265366554260254,0.047551453,0.03075143,541.1891539241844,-0.33797934746725705,5.64502501347511,94.79166666666667,9600,1.1313209533691406,0.022922163533322812,0.012812065913571818,651.3488430179161,100.0
210,1.174492597579956,538.4076846042025,192.41694375957385,736.7161023809864,-23.250145024953984,93.75,3.301324525528233,0.1,0.00879216194152832,0.18443059921264648,0.046237946,0.025833981,540.9110069921862,-0.3519191802838531,5.373438660831975,93.75,9600,1.1673007011413574,0.024027579757466746,0.016386314815185044,624.2529169008232,100.0
211,1.17128324508667,557.1169751869184,175.04762143684846,762.2438076756645,29.02890041291753,92.70833333333333,3.347678334357231,0.1,0.008489608764648438,0.1831967830657959,0.044872284,0.0296184,542.5316038116595,-0.3447765621460763,5.558842244188383,92.70833333333333,9600,1.1458475589752197,0.025706704404723835,0.01677317451735337,661.5512315270086,100.0
212,1.1667084693908691,544.8001587590128,177.99899629479984,744.168531004459,-45.03713979935212,93.75,2.9131305170100363,0.1,0.008556604385375977,0.18372726440429688,0.045898262,0.0333282,542.7584593063948,-0.3466196622678775,5.437015530341296,93.75,9600,1.1734025478363037,0.0232460315963183,0.013968240334856821,673.914230631038,100.0
213,1.2038085460662842,557.6356261617819,168.15897379451982,760.3725629806023,57.96576254655287,96.875,3.304347521533571,0.1,0.008437633514404297,0.18245530128479004,0.048517644,0.030088283,544.2461759919335,-0.3469445492156569,5.565804499028128,96.875,9600,1.1543498039245605,0.023093189141939658,0.015471143301976294,640.358953891007,100.0
214,1.1689882278442383,575.9431001331827,150.86512486415566,742.4813772923176,112.03729252727922,96.875,3.2011366221417936,0.1,0.00835871696472168,0.18515968322753906,0.042077594,0.027742445,547.4158684060584,-0.33563787450489696,5.748398740980099,96.875,9600,1.1745054721832275,0.016541068507898122,0.011075813952046166,636.2767861865373,100.0
215,1.192816972732544,495.8196189410351,204.04974191185715,739.944627838976,-14.721501984973735,93.75,2.8468958479842175,0.1,0.009202003479003906,0.1838083267211914,0.048618603,0.030506369,542.2562434595561,-0.3748772922967116,4.947617777511344,93.75,9600,1.1879651546478271,0.03621591722122327,0.020827983442164754,695.3998553143005,100.0
216,1.1706874370574951,578.8795169530491,170.73333873134493,762.6236368739953,-39.90198670399525,95.83333333333333,2.7302128065115743,0.1,0.016854047775268555,0.20586514472961426,0.04910687,0.03415369,545.9185708089054,-0.3320724673652903,5.777315546425275,95.83333333333333,9600,1.2214868068695068,0.025717801739077714,0.01676361263103424,657.5963500765411,100.0
217,1.336677074432373,565.2043058706025,181.39281703763075,760.2994618515623,-36.70066740615969,96.875,3.0853399868285436,0.1,0.008717775344848633,0.18386268615722656,0.04866382,0.029213076,547.8471443150752,-0.3380513831879493,5.64232450385454,96.875,9600,1.2001845836639404,0.03126062252944201,0.017650623559922734,678.5031397764128,100.0
218,1.1818177700042725,557.3722135030806,172.4011274806754,761.4871785465351,-38.029557017988616,96.875,3.1240090197180987,0.1,0.008235931396484375,0.18245553970336914,0.04399398,0.02807213,548.7996512338757,-0.3414542380254795,5.563151113917307,96.875,9600,1.212491750717163,0.02167784320654479,0.01248659533525268,649.8927624930565,100.0
219,1.1821346282958984,528.7336228833789,199.32841919351262,759.1251060620442,-48.86722046662737,92.70833333333333,2.9466620298057524,0.1,0.008462905883789062,0.18055939674377441,0.048652876,0.031039454,546.793048398826,-0.3594729888990363,5.278028069960215,92.70833333333333,9600,1.2077503204345703,0.03172355117365399,0.018338347414681738,637.529444716903,93.75
220,1.1664273738861084,590.8164117319677,167.29084210276466,764.6376932790758,-27.332742664426675,96.875,3.390394800740427,0.1,0.008349180221557617,0.18194985389709473,0.050812863,0.029171852,551.1953847321402,-0.3200399417308182,5.898896843995002,96.875,9600,1.2176854610443115,0.015719138361948087,0.009922202433773333,626.5006865345176,87.5
221,1.17578125,564.3824552124338,178.28196608343563,759.2233683599402,30.167184704054833,93.75,3.172898574317203,0.1,0.008362293243408203,0.18142437934875488,0.047248654,0.031243786,552.5140917801696,-0.34073636270913865,5.63462620523801,93.75,9600,1.2326326370239258,0.02042938615770227,0.013056755113008356,650.5938306234148,100.0
222,1.1661186218261719,524.7505880745266,196.41048535214725,755.6653141635368,6.976996357236217,93.75,3.2244371048145277,0.1,0.008719682693481445,0.18088197708129883,0.04881431,0.02957659,549.7377414096053,-0.36071108899227394,5.237340819072863,93.75,9600,1.2197728157043457,0.035492043061568855,0.024980855713655235,642.5767049601,87.5
223,1.1613590717315674,597.0449816748907,138.36063302285373,755.2606965832517,90.85866300767722,98.95833333333333,3.333874566300033,0.1,0.008702754974365234,0.18115878105163574,0.04776238,0.027583312,554.4684654361338,-0.32240115259305707,5.958566110073605,98.95833333333333,9600,1.2097704410552979,0.014692528152814303,0.00760158587922844,634.1780772853506,87.5
224,1.1544909477233887,574.0928190247091,186.22088655517206,757.4499392710641,-41.255180490627886,96.875,3.0280241991855097,0.1,0.008777856826782227,0.18061256408691406,0.04666456,0.029619958,556.4309007949913,-0.33659092733320284,5.731627993025094,96.875,9600,1.2140171527862549,0.0230263013397562,0.011014838660291326,652.0231594155571,87.5
225,1.1484272480010986,569.8469761839898,157.76270496806256,762.7671282802511,-39.6174668657962,94.79166666666667,3.180632578680551,0.1,0.008752822875976562,0.18257761001586914,0.048155006,0.02757553,557.7725083338912,-0.33356915199609666,5.689676628183371,94.79166666666667,9600,1.2300810813903809,0.036786567780367575,0.015320267562726439,631.1595064333385,87.5
226,1.3218226432800293,560.5402033933863,181.3991271274234,761.8503420068492,53.16418945109514,89.58333333333333,2.8928639473018976,0.1,0.008228540420532227,0.18319177627563477,0.04777502,0.029039705,558.0492778398407,-0.34247678334840687,5.5926342668074644,89.58333333333333,9600,1.231778621673584,0.026775827104196348,0.015994924703005606,617.8484879755757,87.5
227,1.1779263019561768,535.8851697313843,178.37970802704322,757.4903781508507,-27.973021595163797,86.45833333333333,3.0587516776404287,0.1,0.008405923843383789,0.18433165550231934,0.04923067,0.032574788,555.832867028995,-0.3498359148675065,5.349624303425551,86.45833333333333,9600,1.2318344116210938,0.02899655552904688,0.011853264038034559,603.5453542342133,87.5
228,1.161634922027588,559.750478107189,179.32873089502766,760.7012257800225,-56.75819888610934,93.75,2.9123112099245376,0.1,0.008725881576538086,0.1857612133026123,0.049117964,0.031528715,556.2246281368144,-0.34459383591279585,5.585125152304667,93.75,9600,1.2601425647735596,0.022419744687081297,0.013800087327935959,681.2938636470046,100.0
229,1.1545131206512451,550.0223693779159,199.34121135451127,758.0271098040173,-51.31946064300271,95.83333333333333,2.9738568427837033,0.1,0.008667469024658203,0.18373894691467285,0.05155629,0.031141851,555.6044022609246,-0.34915616805156446,5.489279242745361,95.83333333333333,9600,1.2576274871826172,0.027314965388101665,0.013645138312879244,649.9714320838872,93.75
230,1.183638334274292,557.646204512046,169.83318106347915,762.4796913840626,9.894470697661493,91.66666666666667,2.7819493270168847,0.1,0.008466005325317383,0.17473363876342773,0.050117448,0.039777964,555.8085824860368,-0.3451699967419288,5.5645387551074466,91.66666666666667,9600,1.2650184631347656,0.027845810038153992,0.013051564403538884,677.8872270114473,100.0
231,1.163755178451538,604.9417422996787,173.20147334039115,763.3436373723285,-25.718475941482065,94.79166666666667,3.264519127264064,0.1,0.008195638656616211,0.1813488006591797,0.046878524,0.029860567,560.721898467401,-0.32167808623647137,6.036221161019067,94.79166666666667,9600,1.2265896797180176,0.013596917658298133,0.006721115018335272,684.4347641466572,100.0
232,1.1578469276428223,562.454132658389,167.53217949954123,749.7551498157333,61.47894267229708,98.95833333333333,3.0243809399976906,0.1,0.008340835571289062,0.1822357177734375,0.045444068,0.027563762,560.8951218864999,-0.34351820342422834,5.612191804307034,98.95833333333333,9600,1.242257833480835,0.024196261095153816,0.012019340001858699,678.5762154129297,100.0
233,1.1621372699737549,540.373167756168,194.6300597674756,756.9394807142809,-38.09330186698731,91.66666666666667,2.9371880769920797,0.1,0.008613824844360352,0.181915283203125,0.04690796,0.031199556,558.8429264734667,-0.3506582459328707,5.393160226584333,91.66666666666667,9600,1.2276201248168945,0.02323473223060065,0.01301669561164229,667.064639976168,100.0
234,1.1652271747589111,576.5300966914684,174.39344908310505,761.2856499788044,-54.28795037270795,97.91666666666667,2.679114888429667,0.1,0.008590936660766602,0.18632912635803223,0.04469397,0.033028215,560.6116434952669,-0.3355224069858855,5.753372852490692,97.91666666666667,9600,1.2263023853302002,0.023357520235682713,0.014799578437319194,658.8010025068138,100.0
235,1.3301129341125488,564.8800408940455,168.2140113000684,763.2489416712373,40.76266286396102,94.79166666666667,2.790203642700451,0.1,0.008702278137207031,0.1851668357849121,0.04713446,0.034321748,561.0384832351448,-0.3383988133191425,5.636884855394801,94.79166666666667,9600,1.2495484352111816,0.02613865986806922,0.01387318928521382,652.7197602532647,100.0
236,1.1699585914611816,569.6650116569099,182.4853348219887,759.4624502552949,-28.78278530035147,97.91666666666667,3.3020626468182597,0.1,0.008612632751464844,0.1846330165863037,0.0469031,0.028116086,561.9011360773213,-0.33851168081680044,5.684677430914012,97.91666666666667,9600,1.2470219135284424,0.01983504238575705,0.013359975802204887,692.3413458973041,100.0
237,1.1704132556915283,590.0729361405835,174.5155733714309,761.8268635743556,-0.6603405920249675,96.875,2.7878210096734106,0.1,0.008546113967895508,0.18419361114501953,0.042849947,0.026553065,564.7183160836476,-0.3276933336472016,5.889241430273384,96.875,9600,1.264988660812378,0.017825981514350275,0.010243881531149367,649.7550324986883,93.75
238,1.1636734008789062,576.719102119239,161.4187562968656,773.058314820335,19.897512605389934,96.875,3.1168829862820115,0.1,0.00880289077758789,0.18387937545776367,0.04927444,0.031119931,565.9183946872067,-0.33302012161620564,5.756114822008637,96.875,9600,1.2616775035858154,0.020722124024616182,0.011107197330191271,650.3664043593295,93.75
239,1.1632647514343262,550.6534558280895,175.17612119042548,762.6726927582064,-30.242724103925504,96.875,3.260366619427623,0.1,0.009920597076416016,0.21694183349609375,0.04544752,0.02473693,564.391900801295,-0.3479227493568115,5.4955055666944,96.875,9600,1.5932631492614746,0.029596053295287836,0.014417178004209233,644.1621050928111,93.75
240,1.1599578857421875,585.3300119116976,154.44054326401695,757.3282184959426,45.61031332597153,95.83333333333333,2.901693384789522,0.1,0.009167671203613281,0.18442463874816895,0.04729359,0.03440377,566.4857119123353,-0.3241166034862208,5.841818158607468,95.83333333333333,9600,1.2457036972045898,0.0158667671320674,0.007994693660447855,662.4866098776549,93.75
241,1.1730968952178955,550.2570936561419,190.14126254215233,763.4046423688067,-49.07326922474516,97.91666666666667,2.6111351121862545,0.1,0.01001882553100586,0.21610307693481445,0.04514981,0.03239465,564.862850086716,-0.3449086578535467,5.490637806467322,97.91666666666667,9600,1.5166335105895996,0.02628440601488559,0.015333857602505606,630.3393706409738,87.5
242,1.1661605834960938,546.9283323483255,203.19405668570855,763.8531723732171,-44.62123303476655,91.66666666666667,2.815834249791524,0.1,0.009184598922729492,0.1870880126953125,0.045763567,0.03146239,563.069398312877,-0.34104710757714524,5.459090042280894,91.66666666666667,9600,1.182384729385376,0.025965882969294186,0.013135538738077737,615.8223716302389,87.5
243,1.1674771308898926,609.2112309941174,164.7840042144684,757.3111348758634,-49.13474929082035,97.91666666666667,3.0218201844411,0.1,0.008439064025878906,0.18190932273864746,0.043944497,0.028757187,567.683581581001,-0.3172052243651725,6.082838132796819,97.91666666666667,9600,1.1909654140472412,0.03345927966569964,0.013281176671864417,641.3458735772726,93.75
244,1.1644184589385986,570.6970600557805,166.75534367206612,761.7000685765876,-50.289722224879895,96.875,3.0012010149557793,0.1,0.00893402099609375,0.18249177932739258,0.046538472,0.030495908,567.984929428479,-0.3365159484106137,5.697738330843438,96.875,9600,1.1973838806152344,0.03363933023585899,0.018669300110886883,671.7552663453191,100.0
245,1.1621243953704834,585.8089935015652,170.60469312151716,755.9940713491143,-42.60717935559732,93.75,2.7419913413246895,0.1,0.009487628936767578,0.18572187423706055,0.04958493,0.03770114,569.7673358357875,-0.32549810447966815,5.84529701232668,93.75,9600,1.2023358345031738,0.014948495856707085,0.007738326635045994,643.1616995103943,93.75
246,1.1780407428741455,567.5359127152118,179.40668381356537,762.8753519575534,-6.243214871811033,91.66666666666667,3.080055403926981,0.1,0.008692502975463867,0.18508195877075195,0.045518063,0.028076176,569.54419352373,-0.331592316419551,5.6651965481765645,91.66666666666667,9600,1.213191270828247,0.014643080374082776,0.009291362048246493,631.6312311477668,93.75
247,1.175849437713623,553.7786887638946,197.0385106979866,761.9327503198087,-48.24565070345586,92.70833333333333,2.5956402249029464,0.1,0.008682727813720703,0.18198156356811523,0.050107583,0.03833316,567.9676430477465,-0.34198531842840935,5.529750306356006,92.70833333333333,9600,1.1973137855529785,0.0216048826468606,0.012490538703273105,639.7835179331767,93.75
248,1.1697964668273926,574.0355446762043,157.3681977218994,762.7533134086772,146.8171931058945,93.75,3.449311888129896,0.1,0.008935213088989258,0.18375039100646973,0.049431313,0.027376993,568.5744332105922,-0.33436851237762477,5.730189876649305,93.75,9600,1.2145860195159912,0.019251241312148885,0.008291323804076586,682.8159260321872,100.0
249,1.1841280460357666,594.1337641994346,156.37352146734798,773.2152128458487,6.803716117834285,96.875,3.1771636094927085,0.1,0.00850367546081543,0.18238162994384766,0.047951702,0.030061448,571.1303663094765,-0.32066450748007996,5.92952030569679,96.875,9600,1.2224833965301514,0.016257661763000274,0.008240673334217002,670.9446085866455,93.75
250,1.1911559104919434,582.8964519385862,169.57836837964348,762.5089565785248,-18.007608455475427,94.79166666666667,3.018093754607305,0.1,0.008411169052124023,0.18478012084960938,0.04453333,0.026895588,572.3069748723875,-0.32917127241598937,5.816198394692928,94.79166666666667,9600,1.250504970550537,0.02256764474353192,0.009829390479908667,695.0307900247834,100.0
251,1.2829575538635254,566.9110072773204,162.13469356322375,742.9614494866012,-12.217533252709563,94.79166666666667,3.1565499070965264,0.1,0.00860285758972168,0.19945144653320312,0.04829172,0.0368082,571.7673781128808,-0.33486867871340653,5.658451072824742,94.79166666666667,9600,1.243856430053711,0.026628188796015625,0.014835702322331392,675.7708219649678,100.0
252,1.3488762378692627,610.6874421885059,142.46340386316547,764.9057898532076,-38.978511572718894,95.83333333333333,3.227747051817252,0.1,0.008515596389770508,0.1823573112487793,0.044876713,0.026284307,575.6593845204434,-0.3158085661162257,6.094532096614091,95.83333333333333,9600,1.2372159957885742,0.014051296454407676,0.005932011568059352,687.496005868976,100.0
253,1.1865978240966797,541.6567520010448,190.05847304408056,761.4347725052725,10.38840574324991,91.66666666666667,3.0063885895906726,0.1,0.008945226669311523,0.18427276611328125,0.04749768,0.030267645,572.2591212685036,-0.3493353710557218,5.4067958177327995,91.66666666666667,9600,1.2318007946014404,0.018335385495069804,0.00886478053667946,693.3950774689185,100.0
254,1.1734614372253418,559.4119589067626,165.86559937259494,761.1598704088232,23.59527872210458,92.70833333333333,3.241139134260003,0.1,0.008618831634521484,0.184586763381958,0.049314685,0.027865255,570.9744050323295,-0.3422814806631593,5.583918704284575,92.70833333333333,9600,1.2325236797332764,0.0157035964158444,0.010018324946824076,671.2560228545713,100.0
255,1.1655924320220947,544.4922395255202,171.9382976996317,758.6894505738463,60.81012764151995,97.91666666666667,3.1628431592175685,0.1,0.007482290267944336,0.1759483814239502,0.047432117,0.030919723,568.3261884816486,-0.3478368926619367,5.435206737141033,97.91666666666667,9600,1.2435059547424316,0.020292271206811888,0.012314605282429959,665.8758645701353,100.0
256,1.1886136531829834,599.4035499191008,157.91055241973973,758.4324536909533,53.550765803172226,93.75,2.933989731148849,0.1,0.008507013320922852,0.18345379829406738,0.04345054,0.029955026,571.4339246253938,-0.318042739723279,5.98172339330214,93.75,9600,1.2532143592834473,0.014801872477825304,0.006749915998487334,671.39196705152,100.0
257,1.1837191581726074,572.23327366002,187.42408917081258,766.9413654171534,16.71878058088736,95.83333333333333,2.862491995169657,0.1,0.008411645889282227,0.18321776390075684,0.04775326,0.030713309,571.5138595288564,-0.3359917020924516,5.712597147939377,95.83333333333333,9600,1.2643444538116455,0.02979950443028886,0.011168829058317264,672.8325511566707,100.0
258,1.1712462902069092,538.7265976045823,188.32337192585211,760.8383452651307,-25.396387822799767,93.75,3.1402313103689763,0.1,0.050464630126953125,0.19177603721618652,0.047173683,0.029895926,568.2351333364289,-0.3507062409789012,5.376618271600982,93.75,9600,1.272613525390625,0.03137040342442004,0.017332433426306117,678.9624080731152,100.0
259,1.163447618484497,562.8285437747066,156.95416029354277,758.2140138564409,111.24359921562989,95.83333333333333,2.7086979246889364,0.1,0.008223533630371094,0.18266940116882324,0.04973242,0.036645826,567.6944743802567,-0.33671240489630844,5.616799283802092,95.83333333333333,9600,1.2492268085479736,0.017146430161343117,0.010036012057482703,673.2874575284712,100.0
260,1.2913765907287598,545.1487823732466,175.15240965291304,745.3650285335874,25.690078875236395,98.95833333333333,2.755347636162008,0.1,0.008431196212768555,0.18361353874206543,0.04929374,0.03357681,565.4399051795557,-0.34667157601040427,5.441321160968108,98.95833333333333,9600,1.238253116607666,0.027515621087928828,0.01726774515483643,676.606414196605,100.0
261,1.317324161529541,585.449896698521,140.1559635448114,759.2531048133718,85.70381525461228,97.91666666666667,2.515855838283671,0.1,0.008598804473876953,0.18373751640319824,0.047722068,0.038193606,567.4409043314522,-0.33088508136415995,5.841284662246037,97.91666666666667,9600,1.2412424087524414,0.024246125304610414,0.013045475938780237,631.6541502711154,93.75
262,1.1760330200195312,585.4836370346837,149.73157196318843,767.4782260100715,25.088168950510426,100.0,3.000614084674766,0.1,0.008619308471679688,0.18212413787841797,0.047950212,0.030628864,569.2451776017754,-0.3237968292895752,5.843368579881218,100.0,9600,1.2251179218292236,0.028452533212883248,0.01879054294539419,637.15434176654,93.75
263,1.1698801517486572,577.6826679887743,173.1615524448798,764.8323879924471,0.2602481877950895,97.91666666666667,2.7217221728125707,0.1,0.008557796478271484,0.18180060386657715,0.045191154,0.036508467,570.0889266404753,-0.33222763811077066,5.764881759790289,97.91666666666667,9600,1.2263524532318115,0.020712416651331327,0.014020421953493642,608.5887483419981,93.75
264,1.2015674114227295,587.1148295091465,131.41950364388757,765.3310460449813,2.0657536990840972,98.95833333333333,2.722479304842431,0.1,0.008601903915405273,0.18265652656555176,0.046029978,0.032947227,571.7915169273424,-0.32584333263760223,5.859220888859421,98.95833333333333,9600,1.2182517051696777,0.0186838118648609,0.011636431731229335,665.5632344464686,100.0
265,1.187406301498413,584.3848925956119,128.61065205463757,756.6624070937523,195.549720023395,100.0,3.629373478707203,0.1,0.03967165946960449,0.18294405937194824,0.044011932,0.022262298,573.0508544941694,-0.3294235609816155,5.8336903789880195,100.0,9600,1.2425005435943604,0.019372243777169357,0.013242358107927352,677.1699672492805,100.0
266,1.1705310344696045,580.5832678268462,145.5445224100709,762.2504481801218,3.534544123919068,98.95833333333333,3.0136120177869126,0.1,0.008702278137207031,0.18118715286254883,0.050457772,0.029624322,573.8040958274371,-0.3324609625128331,5.794772855017844,98.95833333333333,9600,1.2292218208312988,0.016207090825487325,0.008007383032882082,697.702454789781,100.0
267,1.1599128246307373,588.4239331791864,137.98514178966408,761.6196498813783,67.86153793165877,100.0,3.038515260946695,0.1,0.00865793228149414,0.18191218376159668,0.04781646,0.030369177,575.266079562612,-0.32789027514154234,5.871843568694948,100.0,9600,1.2308683395385742,0.022049176306410404,0.01404229257322316,694.2860892224113,100.0
268,1.1676280498504639,579.2977513587947,137.01097866929302,771.4563716927887,137.2093862816512,95.83333333333333,2.903232768461627,0.1,0.00859522819519043,0.18039512634277344,0.046596263,0.033841472,575.6692467422304,-0.3300574125151418,5.7805767116692195,95.83333333333333,9600,1.22139573097229,0.01916940716164932,0.010326520573808132,692.9088853606331,100.0
269,1.3321592807769775,584.2010406564867,155.142585288575,770.8831034332044,42.94853203307055,100.0,2.8074994354347487,0.1,0.008277654647827148,0.18209242820739746,0.04613693,0.03161405,576.5224261336559,-0.3269475916721247,5.829212293014884,100.0,9600,1.22043776512146,0.03002304399544805,0.018501550466543136,681.768422087446,93.75
270,1.1470036506652832,604.843879406632,133.8871868679593,771.9947007695573,78.73797909861288,98.95833333333333,3.1067266878210003,0.1,0.008492708206176758,0.17421841621398926,0.04502099,0.028315973,579.3545714609535,-0.317623094922507,6.036071503986154,98.95833333333333,9600,1.2517790794372559,0.03296232747418849,0.01625615170739375,679.9539897653456,100.0
271,1.187422275543213,610.2841286317968,142.44101216008704,758.0339368148999,45.78481482261387,98.95833333333333,2.826350604726665,0.1,0.00861358642578125,0.18171930313110352,0.04898333,0.03410407,582.4475271780378,-0.3140649360931517,6.092162720575041,98.95833333333333,9600,1.216050386428833,0.024513171600938976,0.015054911307457317,700.2576616940028,100.0
272,1.1656653881072998,609.4428934912103,139.74181788900017,764.8303937033788,31.755031693427544,100.0,2.782725546182967,0.1,0.008671283721923828,0.19331145286560059,0.043549523,0.03267407,585.1470638093551,-0.3154642496717919,6.082487589641572,100.0,9600,1.2255735397338867,0.018270377295589085,0.011580897964648616,707.9024872113109,100.0
273,1.1595041751861572,593.5717449466031,124.14303724108211,764.6096839971563,243.6928138304989,96.875,3.0195531844182035,0.1,0.008520841598510742,0.18547987937927246,0.04219315,0.02371866,585.9895319230799,-0.32422191082465224,5.925044150375363,96.875,9600,1.2467198371887207,0.026730548525360016,0.013408831210558548,701.6440184194837,100.0
274,1.1573607921600342,594.2341761381066,146.58062600332414,759.2263977139816,44.295256556132415,100.0,2.5914622853112133,0.1,0.008742094039916992,0.1840043067932129,0.05059803,0.034199834,586.8139963445826,-0.3215117631096341,5.93167232220694,100.0,9600,1.2522623538970947,0.02812261540287905,0.016136229175819403,704.7528568480185,100.0
275,1.1838502883911133,611.2082613645234,140.29962766313778,759.9106682484969,49.945438521218286,98.95833333333333,3.1407871916748307,0.1,0.008415699005126953,0.18187499046325684,0.049525566,0.02892377,589.2534228465768,-0.31673655026824005,6.1005575881076695,98.95833333333333,9600,1.2382299900054932,0.020157853788068503,0.013216439692805832,698.94640574637,100.0
276,1.1638123989105225,589.3954178743725,139.5703429148695,751.3216195279233,88.1719949479765,100.0,3.1195239611092576,0.1,0.00864863395690918,0.18556785583496094,0.044768907,0.030086156,589.2676223493564,-0.3259221286149602,5.882377759579991,100.0,9600,1.2693638801574707,0.025596147942005317,0.01601311474309077,688.2211833454705,100.0
277,1.2423720359802246,580.7601059511877,131.354651474167,745.638482207364,216.82523101544012,98.95833333333333,3.0044244387871073,0.1,0.008467674255371094,0.1841585636138916,0.045990832,0.03019625,588.4168707095396,-0.33362047046307347,5.79743909099589,98.95833333333333,9600,1.212956428527832,0.025111730360288936,0.017328407606765274,685.319202805847,93.75
278,1.1636664867401123,583.732602279723,140.95458933677054,743.9509099856571,162.82370958820223,96.875,3.0179800817585862,0.1,0.028980731964111328,0.19283509254455566,0.049162634,0.03476594,587.9484438665579,-0.3287861567601303,5.824934328851673,96.875,9600,1.1990175247192383,0.022545362569423973,0.013478478008906064,699.9701314217893,100.0
279,1.1719517707824707,609.4714752028831,130.93151050725817,747.829032513218,58.00317472766544,100.0,2.7955822758734103,0.1,0.008276939392089844,0.18267393112182617,0.046842556,0.031153291,590.1007470001905,-0.31837367489926466,6.082774748847611,100.0,9600,1.1953113079071045,0.02992061383566959,0.013135866617710393,696.6429845327783,100.0
280,1.1777255535125732,599.3810690131223,162.2267347197479,769.9572314668796,10.44271607978142,95.83333333333333,3.1215224880717285,0.1,0.00840616226196289,0.18308758735656738,0.048931785,0.03162759,591.0287792014838,-0.3200343683370012,5.983120223344794,95.83333333333333,9600,1.2064709663391113,0.02716405323015258,0.01520649120948316,700.8879466404982,93.75
281,1.1702759265899658,591.9883214717216,141.8948349352851,761.2948944304084,62.111426430664544,97.91666666666667,3.1534725329057673,0.1,0.018945932388305664,0.1852715015411377,0.04692484,0.025199393,591.1247334285076,-0.32211156991171713,5.909235889231618,97.91666666666667,9600,1.2431490421295166,0.02078812670358265,0.011147099665749623,651.9037988003108,87.5
282,1.1585767269134521,607.0808566306409,144.86562056616054,761.336929635528,35.78823365265718,98.95833333333333,2.906164588297455,0.1,0.00836491584777832,0.18207406997680664,0.040457778,0.027678058,592.720345748721,-0.31802524166500157,6.057993356311468,98.95833333333333,9600,1.2221100330352783,0.022141996335684228,0.012870127672748187,663.2410636948323,87.5
283,1.1514430046081543,615.3423978671607,129.96787369225873,765.9735821167358,-15.99493393011116,95.83333333333333,3.3701282729370847,0.1,0.00823354721069336,0.18397068977355957,0.043726586,0.026867244,594.9825509605649,-0.31105148297518453,6.142343838937104,95.83333333333333,9600,1.216632604598999,0.019424644411248946,0.01361992355719972,666.5488584802252,93.75
284,1.1643502712249756,617.7190278957543,135.90058258297654,770.9883263587576,111.17641784943834,96.875,3.286427229246008,0.1,0.008305788040161133,0.18326425552368164,0.044395063,0.024372477,597.2561986540838,-0.30956047030580897,6.164327570565926,96.875,9600,1.2214162349700928,0.02091299540412953,0.009654453166008145,665.8456798517907,93.75
285,1.1649162769317627,608.2099085474691,138.6759362975242,762.1606131046802,102.9990465758493,97.91666666666667,3.0352527273027636,0.1,0.008324146270751953,0.18074440956115723,0.047385264,0.034136694,598.3515696434224,-0.3118776397185343,6.0696681009504685,97.91666666666667,9600,1.1993563175201416,0.023301790594547442,0.011473165338018168,651.0845219926348,100.0
286,1.2256965637207031,611.3013730642373,127.07140421921058,759.0191690495806,245.0240235196901,100.0,3.406597767406174,0.1,0.008273124694824219,0.18264055252075195,0.04329263,0.02848044,599.646549985504,-0.3119159888629433,6.101971766200966,100.0,9600,1.1979875564575195,0.013092245739080006,0.006683030233312791,668.4925582550094,100.0
287,1.1784911155700684,581.4081087633931,154.82774246936663,772.6866578139186,85.21546731286767,97.91666666666667,2.6491226280556965,0.1,0.008353948593139648,0.18140673637390137,0.04654426,0.03132613,597.8227058632929,-0.3246040485445107,5.803828190266223,97.91666666666667,9600,1.1665863990783691,0.03420621622599708,0.022104457562198268,656.2158545886182,93.75
288,1.1723787784576416,609.4164863896241,125.09060895773666,779.0305141373541,254.6560562600629,98.95833333333333,2.9981523308156706,0.1,0.008446693420410156,0.18296551704406738,0.048333485,0.029807288,598.9820839159261,-0.31551502131466913,6.081825878978916,98.95833333333333,9600,1.1969685554504395,0.021677002860381763,0.012208949176985099,662.4368562075174,93.75
289,1.1601707935333252,633.4004379474145,132.2808763524589,760.3970080838086,51.480171463960474,100.0,3.2645168591997256,0.1,0.008135318756103516,0.18297553062438965,0.04408035,0.02377845,602.4239193190749,-0.2989607044435354,6.322049443336863,100.0,9600,1.1941986083984375,0.02513668542764822,0.014673672416815421,670.2988121115009,100.0
290,1.167922019958496,605.5689114009123,144.36652285605516,774.0235970337028,1.8879185815269481,98.95833333333333,3.4217655882420175,0.1,0.008331298828125,0.18120050430297852,0.047993768,0.029381221,602.7384185272587,-0.3122649962148925,6.044130603406493,98.95833333333333,9600,1.1957828998565674,0.02124718614683717,0.013061859944764538,652.4002903282164,87.5
291,1.1830034255981445,605.0196651915011,127.80315739590675,759.5596918367398,137.9578803653114,98.95833333333333,3.4229788798539036,0.1,0.009669780731201172,0.1816091537475586,0.048993915,0.025511432,602.9665431936829,-0.3158861231624155,6.03957162807491,98.95833333333333,9600,1.2006444931030273,0.025375499939151922,0.012865895665174742,640.1533555954975,87.5
292,1.1643550395965576,607.1424581417012,140.95848551438795,753.8866214746579,77.35452486790933,95.83333333333333,3.0912962687541565,0.1,0.008270978927612305,0.18239426612854004,0.0434703,0.026077725,603.3841346884848,-0.3163972531704263,6.0612258776583445,95.83333333333333,9600,1.2064759731292725,0.03006221513660806,0.00969317249584726,618.9718705338427,93.75
293,1.1606605052947998,615.9026834882856,115.6633097354107,765.9455673227495,106.50071369517875,100.0,3.09610694186039,0.1,0.008290529251098633,0.18263578414916992,0.046076193,0.033098314,604.6359895684649,-0.31072629105164856,6.14829548733169,100.0,9600,1.219787836074829,0.02517265523823692,0.014458952271609817,628.5808479169982,93.75
294,1.386063814163208,610.4634659816498,136.94468547751933,766.0879316264308,62.97421448606504,100.0,3.0039009953226836,0.1,0.00852823257446289,0.1838998794555664,0.04525931,0.033421263,605.2187372097834,-0.31235210559878684,6.094512509179798,100.0,9600,1.223686695098877,0.03021525706202004,0.015881382486371515,668.3990395466706,100.0
295,1.1766722202301025,634.4547543041189,100.44393605986498,770.471662645645,267.49357112247753,100.0,3.338027509992179,0.1,0.008295059204101562,0.1828293800354004,0.047383774,0.030731056,608.142338919217,-0.29992615722421984,6.3325555768019735,100.0,9600,1.1995031833648682,0.023633665226387945,0.009592606892200676,649.0607019536054,100.0
296,1.1965570449829102,599.8798351589911,154.02907469725417,752.8122813250473,40.287904882258246,95.83333333333333,2.864768235109661,0.1,0.008803367614746094,0.1839601993560791,0.045185875,0.029338164,607.3160885431944,-0.32054319930916536,5.986002663668356,95.83333333333333,9600,1.2431304454803467,0.02306482265233137,0.014622426663056324,642.6921874570525,93.75
297,1.1883609294891357,602.5935071759299,116.90155262692832,748.8826273168262,265.38395968931786,100.0,2.8404910462673585,0.1,0.008708000183105469,0.1845381259918213,0.047918305,0.03247344,606.8438304064679,-0.31639326255177286,6.013515439268545,100.0,9600,1.2485897541046143,0.020056270591267873,0.011535330006016446,639.0784625462843,93.75
298,1.1495475769042969,608.4137908214939,128.72010467084363,767.0396932852684,-10.47990413314771,97.91666666666667,3.2748199874464343,0.1,0.008458375930786133,0.1829690933227539,0.04886949,0.029204946,607.0008264479704,-0.31654368920820675,6.07213525305198,97.91666666666667,9600,1.253082275390625,0.026283766728128,0.017252216908101522,664.6167193041206,93.75
299,1.181633472442627,626.0413821221605,112.03385312586977,743.5498384964252,151.90951318576552,98.95833333333333,3.3756604075541254,0.1,0.00858759880065918,0.1815040111541748,0.047944635,0.027846823,608.9048820153895,-0.3028021803532198,6.247973157742787,98.95833333333333,9600,1.257089614868164,0.018727233407451836,0.011578778702028378,663.1373038380149,100.0
300,1.156426191329956,619.8169987947967,112.67354381475448,753.904026216658,117.64674610829512,98.95833333333333,3.081864072136894,0.1,0.008728742599487305,0.18514037132263184,0.04511547,0.02702129,609.9960936933303,-0.3064756287096603,6.184904139322941,98.95833333333333,9600,1.2622489929199219,0.019107398187282302,0.011518164116418636,662.9004519080449,100.0
301,1.1658215522766113,617.1231671200541,119.0758585455045,774.4381261761927,2.594443802772958,100.0,3.1379033958979448,0.1,0.008693218231201172,0.1909956932067871,0.04605982,0.027083838,610.7088010360027,-0.3089693564081622,6.158420952087944,100.0,9600,1.2555365562438965,0.017919033928577258,0.011123075987474735,642.5608359574574,93.75
302,1.3657381534576416,625.0840026631898,100.12698722287604,756.2259496795593,285.20770188317636,100.0,2.782242627195329,0.1,0.009401559829711914,0.18392014503479004,0.045269284,0.0342224,612.1463211987214,-0.30618686885986474,6.237557828225785,100.0,9600,1.2260112762451172,0.016009612734074405,0.008924041996040966,673.4572375167834,100.0
303,1.175100564956665,607.9499528266844,134.03458438062586,762.4246547784514,79.40886146917767,94.79166666666667,2.8984879099314806,0.1,0.009784698486328125,0.21443557739257812,0.045353815,0.02870258,611.7266843615176,-0.31467543897373657,6.068359837008352,94.79166666666667,9600,1.5672976970672607,0.022413809284364407,0.012386481434465354,668.8840315022821,93.75
304,1.1744153499603271,627.8652362005274,113.00078969449602,760.0322023184561,29.71236456808775,100.0,3.214126812822114,0.1,0.008777856826782227,0.1837759017944336,0.043870926,0.03424972,613.3405395454187,-0.30380841501336375,6.266238449860364,100.0,9600,1.2426950931549072,0.014706342786921713,0.008635932238127456,685.8897905684,100.0
305,1.1606051921844482,615.2159018645951,120.33539585516222,748.2883710567096,61.005700287707455,98.95833333333333,3.2397541468091795,0.1,0.008607864379882812,0.18414855003356934,0.04220296,0.027107406,613.5280757773363,-0.31133489622866356,6.139711556596995,98.95833333333333,9600,1.2435839176177979,0.02173813073680395,0.014498832968566279,682.7800631192902,100.0
306,1.173689842224121,620.6639298428255,102.4411255217735,769.4943221481668,360.6039052810476,100.0,2.920261346872901,0.1,0.013361692428588867,0.18334293365478516,0.045249928,0.03296578,614.2416611838852,-0.30705818871632895,6.19420668123265,100.0,9600,1.203228235244751,0.016470925068693548,0.010989056822742479,685.0644515938023,100.0
307,1.156956672668457,632.7489470270637,109.93588706046653,772.7249764696066,289.04501527620897,98.95833333333333,3.0041414726339606,0.1,0.009785175323486328,0.21641778945922852,0.043878783,0.026069356,616.092389768203,-0.3001105314413013,6.315046376196105,98.95833333333333,9600,1.5423569679260254,0.009689517807853236,0.006404925062123692,666.4706570372227,100.0
308,1.1735045909881592,609.7894082118268,122.88833537640681,747.2714843931436,216.34532597732291,100.0,3.4528885855983242,0.1,0.00886225700378418,0.1813793182373047,0.045698687,0.026048137,615.4620916125655,-0.31195426086828015,6.087203274302129,100.0,9600,1.2275876998901367,0.020685389014636908,0.014391549417494348,669.8840219509539,100.0
309,1.1683249473571777,591.6640542472128,159.3611846870028,770.3990735680907,12.991181761209186,98.95833333333333,3.4650006283462003,0.1,0.008382320404052734,0.1813981533050537,0.049138375,0.027703257,613.0822878760301,-0.3221489193999347,5.905518368116994,98.95833333333333,9600,1.2373237609863281,0.03145950234166262,0.021498346845205747,662.7763142442163,100.0
310,1.3096611499786377,627.2011465481052,126.38125848202122,764.4796517745825,252.16072412121346,97.91666666666667,2.7958877460635203,0.1,0.008559942245483398,0.18409371376037598,0.042825207,0.02764073,614.4941737432378,-0.30452191045725324,6.258746772879029,97.91666666666667,9600,1.2431199550628662,0.016687869167821757,0.011470473927637363,661.6454979110797,93.75
311,1.197908878326416,615.7538933544587,141.35942321668392,772.6951662259268,222.82024652281183,95.83333333333333,2.672341022320367,0.1,0.00872659683227539,0.18160343170166016,0.043914508,0.030827062,614.6201457043599,-0.30737776054477006,6.145514203442435,95.83333333333333,9600,1.2307579517364502,0.023582345121910844,0.011551070562465059,658.1074974011123,93.75
312,1.1703782081604004,637.6725847994816,120.0704868482559,761.8881039013035,90.2654398734266,97.91666666666667,2.5045962929502745,0.1,0.00845026969909668,0.18130922317504883,0.047147047,0.037459467,616.9253896138721,-0.29875596331340876,6.3646571784215995,97.91666666666667,9600,1.2191188335418701,0.013169025301481917,0.008459080965744716,680.4934877867128,100.0
313,1.1590394973754883,627.9048490063002,121.83980345275614,767.3621770975848,46.34376767472571,97.91666666666667,2.6910924770286164,0.1,0.008635997772216797,0.18386268615722656,0.048927046,0.03241476,618.023335553115,-0.2976968204223098,6.266136808501906,97.91666666666667,9600,1.2498652935028076,0.015018274771247736,0.009362447956663805,682.2566971003846,100.0
314,1.1564679145812988,614.3977563297449,116.74924090817521,775.753791225616,171.51833477282614,100.0,3.1760420300274728,0.1,0.00870823860168457,0.18189072608947754,0.046663407,0.026508836,617.660777630778,-0.3116759255020456,6.131079024415796,100.0,9600,1.2340564727783203,0.023413031233720277,0.012504658492421028,663.0277187053439,100.0
315,1.1684653759002686,606.6403187974371,123.30380683058644,774.80887089267,144.27719572361505,97.91666666666667,3.0146885081643933,0.1,0.008506536483764648,0.18447422981262207,0.043241464,0.02522589,616.5587317474439,-0.31345820848739503,6.054446644684842,97.91666666666667,9600,1.2397022247314453,0.025894161793947667,0.014925172074838925,654.357056539088,93.75
316,1.1564810276031494,607.8989220499639,143.05866447660958,770.6858052057589,76.02252921607088,96.875,3.14841171551414,0.1,0.008756637573242188,0.18204188346862793,0.038219538,0.022846028,615.6927507776959,-0.31036934722830806,6.066108361012101,96.875,9600,1.2151308059692383,0.021985963732345938,0.011458834205910054,657.2345305595293,93.75
317,1.1620137691497803,616.6090448722861,120.09237189324665,761.540373442234,180.43902089544213,97.91666666666667,3.1479798941321384,0.1,0.008381366729736328,0.17970824241638184,0.04579214,0.02789868,615.784380187155,-0.31164034010216307,6.15542614940748,97.91666666666667,9600,1.208895206451416,0.018167885163969534,0.010334155909008613,655.2018636187714,100.0
318,1.222546100616455,615.2179711539713,119.73625836298682,773.6238545269441,251.38148379231595,98.95833333333333,2.7581213531517714,0.1,0.00843954086303711,0.1815199851989746,0.04296041,0.03019405,615.7277392838366,-0.30778380396820276,6.1397472109157745,98.95833333333333,9600,1.2138869762420654,0.014392530118813635,0.010291043700855186,667.0719045845897,100.0
319,1.1472368240356445,622.9003993004821,140.19029572050135,778.1084909010535,11.761355571329362,100.0,2.993385448657275,0.1,0.008687257766723633,0.18278741836547852,0.042747777,0.026480671,616.4450052855012,-0.30242415275517326,6.216583117082255,100.0,9600,1.242675542831421,0.017651735768740684,0.01080885381693178,641.7502811620539,100.0
320,1.1738123893737793,616.4419499850069,134.79138033187368,776.6460206883437,11.039769923103492,97.91666666666667,3.1364940717870775,0.1,0.03806114196777344,0.18439912796020508,0.03912719,0.024545902,616.4446997554518,-0.30950656023379824,6.151983523062114,97.91666666666667,9600,1.2559890747070312,0.014436135493410327,0.009168619381335156,661.5619372632782,100.0
321,1.1742677688598633,642.9564240729218,103.93927338601519,770.7143035287377,256.62465534390725,100.0,2.95447072069231,0.1,0.008641242980957031,0.18018174171447754,0.046572737,0.03118799,619.0958721871989,-0.29912589039572907,6.417532457836434,100.0,9600,1.2289364337921143,0.012170532598393293,0.00674449786047796,653.9776839829551,100.0
322,1.1438193321228027,622.7864056791032,136.94236611674984,762.6910429623639,4.640868977854098,100.0,2.5320167763363104,0.1,0.00841212272644043,0.18118643760681152,0.046618227,0.037580144,619.4649255363894,-0.30940309310539327,6.215908549226863,100.0,9600,1.2549688816070557,0.03252066226231545,0.01723380258475009,656.0280079533699,100.0
323,1.1757056713104248,616.9964635921025,118.44647822652097,773.1645242360927,237.11096289549383,98.95833333333333,2.7446019276392115,0.1,0.008696794509887695,0.1812000274658203,0.03862785,0.026729332,619.2180793419607,-0.3080018587544031,6.160128799451165,98.95833333333333,9600,1.2485339641571045,0.026793929179484914,0.016996611852811348,650.3472004624979,100.0
324,1.1647846698760986,619.1267070670806,115.6444900862672,775.7559700800426,165.58743596219728,100.0,3.0728559576129584,0.1,0.010012626647949219,0.21576690673828125,0.043171532,0.028324598,619.2089421144726,-0.3088951309263434,6.179240349505076,100.0,9600,1.5899980068206787,0.02344252420245857,0.013454888745302764,624.5442573001503,100.0
325,1.169940710067749,610.3994476315347,127.69128539226557,773.9098254171464,96.61581079624851,98.95833333333333,3.5611837906299697,0.1,0.008004188537597656,0.17097902297973633,0.04177477,0.025769109,618.3279926661788,-0.3178751905627858,6.093720898641607,98.95833333333333,9600,1.2363483905792236,0.02324443654499852,0.017535935973923288,634.0408209632578,100.0
326,1.1857450008392334,620.8208172541259,126.65482340565838,777.7138665398966,152.9883478553026,98.95833333333333,3.2688897049739447,0.1,0.008459329605102539,0.18561911582946777,0.04285031,0.026449902,618.5772751249735,-0.3100088299103738,6.196201881746208,98.95833333333333,9600,1.2503113746643066,0.02249248088868825,0.01369229659962753,628.4558110520072,100.0
327,1.2446503639221191,625.0284585087547,106.63561169407495,757.2128879879848,161.79624561327986,97.91666666666667,2.9256662402505698,0.1,0.008812665939331055,0.1846475601196289,0.04775055,0.030122861,619.2223934633516,-0.3118885816524811,6.237448394818647,97.91666666666667,9600,1.2589287757873535,0.01912116851577382,0.010874253033087512,634.6438198126172,87.5
328,1.1509969234466553,612.0775683915882,145.16708538651838,780.5115757685633,-9.981357697857446,97.91666666666667,3.3817983874896176,0.1,0.008424997329711914,0.1853780746459961,0.04182708,0.023048902,618.5079109561754,-0.3141604242647868,6.109208095377059,97.91666666666667,9600,1.2658095359802246,0.02340372532605371,0.0150002858319039,637.9453832488679,93.75
329,1.2046966552734375,612.0073338095862,124.10188359700756,755.3024955319823,108.59216703274157,100.0,3.3264173254903127,0.1,0.008792638778686523,0.19090509414672852,0.043389257,0.028631581,617.8578532415164,-0.31487358737071763,6.10767959120984,100.0,9600,1.278498649597168,0.023796038147161247,0.010673501296621606,634.3845478142167,87.5
330,1.194122552871704,625.8073322117397,114.64547885849113,767.9259382947891,-4.909908188038666,98.95833333333333,2.8216007157884855,0.1,0.0072290897369384766,0.16381239891052246,0.046327773,0.03057165,618.6528011385387,-0.30648626534859424,6.245152463078149,98.95833333333333,9600,1.2727899551391602,0.033168869226778454,0.013239566357482298,629.4860605931253,93.75
331,1.1914830207824707,635.8277025035942,102.61333855074986,776.38516918765,265.276512233087,100.0,2.765889431535207,0.1,0.01008462905883789,0.21607208251953125,0.046442214,0.037414305,620.3702912750443,-0.30452634932092076,6.344104699372778,100.0,9600,1.5689051151275635,0.013516438931561759,0.008780440666749309,641.1445632965394,87.5
332,1.1965551376342773,609.9981243568733,113.9364626381731,747.3787454418747,196.91566341460606,100.0,2.9816789032337883,0.1,0.00835871696472168,0.18250513076782227,0.046388667,0.031588703,619.3330745832272,-0.31816056276102644,6.0892718569036255,100.0,9600,1.2125635147094727,0.019981308155021266,0.013239137253859331,626.1693206980672,87.5
333,1.1958708763122559,607.375952193888,110.98255505923164,779.8875439888923,254.20288597107614,100.0,3.2919503465767064,0.1,0.008420705795288086,0.18498921394348145,0.044416673,0.025759447,618.1373623442934,-0.3179250410576739,6.061741085003807,100.0,9600,1.2469325065612793,0.024604625944479847,0.014829445638475904,613.6727477596223,75.0
334,1.1921796798706055,625.8266029702064,119.43207148689903,778.9209410180695,70.97806955827993,100.0,3.229524895326719,0.1,0.01002049446105957,0.21582984924316406,0.046275716,0.025268681,618.9062864068846,-0.30653285611483433,6.244462737313204,100.0,9600,1.5642883777618408,0.018896234141746595,0.01050987242016655,655.383620518572,93.75
335,1.3482704162597656,615.8163890518928,130.35531813705384,772.7403196900069,80.0301174961599,98.95833333333333,2.838105103379977,0.1,0.009902000427246094,0.21385478973388672,0.0471084,0.031961747,618.5972966713855,-0.3092562107765479,6.14615644364087,98.95833333333333,9600,1.5684311389923096,0.02226998503976088,0.01460817024451704,644.6369413976506,93.75
336,1.1723992824554443,610.8146966469047,117.08952661546834,775.592212640483,136.98968040031642,100.0,3.603716298478573,0.1,0.010087013244628906,0.2158045768737793,0.047686618,0.026109813,617.8190366689375,-0.31736000347432247,6.096178147977418,100.0,9600,1.593334674835205,0.03137129489308824,0.018639181685189122,636.9107346333284,87.5
