Iter | Sampling Pol | Evaluation Pol | Best (Sampled) 
   0 -188.98 -191.64 -100000000.00 
   1 -193.69 -216.61 -188.98 
   2 -201.56 -216.96 -188.98 
   3 -174.57 -182.90 -188.98 
   4 -195.45 -198.89 -174.57 
   5 -202.80 -248.35 -174.57 
   6 -170.59 -256.06 -174.57 
   7 -168.29 -251.55 -170.59 
   8 -190.04 -238.67 -168.29 
   9 -178.49 -233.81 -168.29 
  10 -170.06 -219.73 -168.29 
  11 -168.55 -208.58 -168.29 
  12 -169.15 -204.10 -168.29 
  13 -172.67 -184.02 -168.29 
  14 -164.26 -185.04 -168.29 
  15 -173.69 -194.52 -164.26 
  16 -166.73 -201.03 -164.26 
  17 -169.53 -209.28 -164.26 
  18 -166.82 -209.13 -164.26 
  19 -157.86 -186.29 -164.26 
  20 -154.24 -163.27 -157.86 
  21 -161.74 -130.89 -154.24 
  22 -156.07 -134.18 -154.24 
  23 -147.32 -94.90 -154.24 
  24 -148.59 -76.41 -147.32 
  25 -149.81 -90.89 -147.32 
  26 -144.30 -97.47 -147.32 
  27 -141.18 -91.83 -144.30 
  28 -148.09 -100.94 -141.18 
  29 -138.86 -115.01 -141.18 
  30 -137.76 -131.74 -138.86 
  31 -138.76 -88.37 -137.76 
  32 -147.19 -73.07 -137.76 
  33 -131.93 -77.40 -137.76 
  34 -140.11 -74.10 -131.93 
  35 -138.28 -92.82 -131.93 
  36 -142.82 -78.81 -131.93 
  37 -134.67 -119.25 -131.93 
  38 -141.90 -136.89 -131.93 
  39 -123.30 -169.92 -131.93 
  40 -118.20 -213.39 -123.30 
  41 -127.41 -207.63 -118.20 
  42 -120.94 -242.45 -118.20 
  43 -116.51 -258.74 -118.20 
  44 -118.45 -293.59 -116.51 
  45 -128.05 -285.85 -116.51 
  46 -117.38 -294.87 -116.51 
  47 -117.16 -288.46 -116.51 
  48 -114.70 -318.24 -116.51 
  49 -117.52 -317.48 -114.70 
  50 -112.01 -315.80 -114.70 
  51 -122.23 -262.39 -112.01 
  52 -110.86 -259.89 -112.01 
  53 -121.39 -284.39 -110.86 
  54 -116.36 -242.44 -110.86 
  55 -119.59 -263.12 -110.86 
  56 -112.33 -290.41 -110.86 
  57 -109.89 -286.29 -110.86 
  58 -111.65 -294.86 -109.89 
  59 -114.59 -298.17 -109.89 
  60 -113.91 -278.17 -109.89 
  61 -108.35 -291.04 -109.89 
  62 -111.38 -288.19 -108.35 
  63 -110.34 -283.23 -108.35 
  64 -109.16 -291.33 -108.35 
  65 -106.59 -276.23 -108.35 
  66 -109.46 -289.65 -106.59 
  67 -117.89 -294.82 -106.59 
  68 -107.99 -251.91 -106.59 
  69 -105.49 -281.62 -106.59 
  70 -113.69 -312.00 -105.49 
  71 -110.92 -307.89 -105.49 
  72 -108.24 -306.06 -105.49 
  73 -110.74 -306.10 -105.49 
  74 -105.52 -295.51 -105.49 
  75 -105.27 -292.24 -105.49 
  76 -108.04 -277.09 -105.27 
  77 -104.83 -298.20 -105.27 
  78 -102.75 -290.22 -104.83 
  79 -104.00 -281.47 -102.75 
  80 -102.26 -284.28 -102.75 
  81 -108.96 -202.67 -102.26 
  82 -100.45 -260.18 -102.26 
  83 -98.96 -282.94 -100.45 
  84 -103.09 -268.36 -98.96 
  85 -103.07 -249.30 -98.96 
  86 -103.72 -170.23 -98.96 
  87 -93.04 -150.38 -98.96 
  88 -98.92 -156.13 -93.04 
  89 -105.25 -189.20 -93.04 
  90 -96.89 -132.31 -93.04 
  91 -100.47 -149.03 -93.04 
  92 -97.72 -65.63 -93.04 
  93 -104.66 -76.80 -93.04 
  94 -94.55 -56.60 -93.04 
  95 -97.84 -79.72 -93.04 
  96 -100.38 -75.93 -93.04 
  97 -91.40 -95.83 -93.04 
  98 -99.95 -98.23 -91.40 
  99 -98.46 -97.68 -91.40 
 100 -93.75 -92.95 -91.40 
 101 -96.67 -105.07 -91.40 
 102 -92.89 -104.75 -91.40 
 103 -93.33 -105.82 -91.40 
 104 -90.37 -67.80 -91.40 
 105 -92.23 -60.60 -90.37 
 106 -90.75 -54.01 -90.37 
 107 -89.23 -44.44 -90.37 
 108 -92.05 -71.53 -89.23 
 109 -95.53 -58.15 -89.23 
 110 -92.65 -33.11 -89.23 
 111 -89.38 -45.41 -89.23 
 112 -93.83 -57.48 -89.23 
 113 -91.39 -44.25 -89.23 
 114 -89.52 -57.87 -89.23 
 115 -88.08 -89.47 -89.23 
 116 -88.65 -102.09 -88.08 
 117 -88.81 -118.73 -88.08 
 118 -92.05 -126.41 -88.08 
 119 -83.22 -139.10 -88.08 
 120 -85.62 -129.05 -83.22 
 121 -97.20 -119.69 -83.22 
 122 -89.30 -123.07 -83.22 
 123 -90.97 -127.38 -83.22 
 124 -94.06 -116.53 -83.22 
 125 -91.16 -133.11 -83.22 
 126 -87.97 -102.98 -83.22 
 127 -88.08 -110.99 -83.22 
 128 -86.65 -119.34 -83.22 
 129 -87.18 -128.32 -83.22 
 130 -94.85 -121.53 -83.22 
 131 -87.77 -132.41 -83.22 
 132 -82.28 -138.42 -83.22 
 133 -84.18 -146.00 -82.28 
 134 -86.75 -141.05 -82.28 
 135 -82.16 -140.87 -82.28 
 136 -81.28 -133.37 -82.16 
 137 -90.76 -152.01 -81.28 
 138 -82.28 -138.13 -81.28 
 139 -81.11 -147.66 -81.28 
 140 -81.24 -112.71 -81.11 
 141 -86.50 -95.48 -81.11 
 142 -83.99 -83.58 -81.11 
 143 -78.35 -56.76 -81.11 
 144 -74.94 -87.67 -78.35 
 145 -83.40 -34.48 -74.94 
 146 -80.09 -82.24 -74.94 
 147 -79.75 -107.56 -74.94 
 148 -68.56 -94.51 -74.94 
 149 -76.35 -111.84 -68.56 
 150 -80.74 -99.34 -68.56 
 151 -73.07 -117.19 -68.56 
 152 -76.66 -111.66 -68.56 
 153 -84.49 -78.67 -68.56 
 154 -78.44 -94.36 -68.56 
 155 -67.79 -80.09 -68.56 
 156 -75.15 -52.26 -67.79 
 157 -77.09 -52.73 -67.79 
 158 -78.51 -5.70 -67.79 
 159 -80.05 -40.87 -67.79 
 160 -76.21 -1.94 -67.79 
 161 -71.40 -5.89 -67.79 
 162 -76.21 -14.08 -67.79 
 163 -78.06 -56.23 -67.79 
 164 -74.21 -49.02 -67.79 
 165 -74.79 -13.51 -67.79 
 166 -81.07  0.42 -67.79 
 167 -80.26 -2.37 -67.79 
 168 -78.69 -7.23 -67.79 
 169 -75.57 -29.44 -67.79 
 170 -68.05 -6.54 -67.79 
 171 -66.09 -13.49 -67.79 
 172 -75.13 -55.05 -66.09 
 173 -63.53 -52.93 -66.09 
 174 -72.93 -11.38 -63.53 
 175 -69.44 -35.27 -63.53 
 176 -73.31 -63.47 -63.53 
 177 -74.00  7.07 -63.53 
 178 -71.43 -7.08 -63.53 
 179 -71.90 37.88 -63.53 
 180 -72.68 38.66 -63.53 
 181 -68.89 38.91 -63.53 
 182 -74.58  3.48 -63.53 
 183 -72.61 19.35 -63.53 
 184 -69.51  7.61 -63.53 
 185 -63.73 -21.81 -63.53 
 186 -72.51 -57.18 -63.53 
 187 -64.67 -14.77 -63.53 
 188 -67.50 -10.15 -63.53 
 189 -64.72 -16.89 -63.53 
 190 -64.21 -47.06 -63.53 
 191 -69.17 -102.37 -63.53 
 192 -63.45 -102.68 -63.53 
 193 -71.02 -61.48 -63.45 
 194 -67.37 -73.63 -63.45 
 195 -66.93 -55.47 -63.45 
 196 -64.83 -50.55 -63.45 
 197 -66.68 -120.05 -63.45 
 198 -65.91 -145.72 -63.45 
 199 -70.58 -174.33 -63.45 
 200 -68.34 -154.45 -63.45 
 201 -67.61 -199.40 -63.45 
 202 -69.04 -206.88 -63.45 
 203 -64.31 -157.06 -63.45 
 204 -59.45 -196.44 -63.45 
 205 -62.98 -169.71 -59.45 
 206 -63.52 -197.20 -59.45 
 207 -70.40 -97.53 -59.45 
 208 -55.10 -89.52 -59.45 
 209 -69.50 -111.79 -55.10 
 210 -62.46 -161.21 -55.10 
 211 -59.23 -158.01 -55.10 
 212 -64.99 -135.37 -55.10 
 213 -61.53 -90.76 -55.10 
 214 -66.27 -93.81 -55.10 
 215 -56.33 -82.33 -55.10 
 216 -56.13 -139.32 -55.10 
 217 -57.90 -147.85 -55.10 
 218 -57.79 -159.27 -55.10 
 219 -57.81 -144.79 -55.10 
 220 -54.23 -148.84 -55.10 
 221 -53.22 -176.09 -54.23 
 222 -47.96 -204.39 -53.22 
 223 -62.02 -200.00 -47.96 
 224 -63.14 -195.99 -47.96 
 225 -53.95 -191.44 -47.96 
 226 -45.81 -189.64 -47.96 
 227 -49.98 -201.68 -45.81 
 228 -48.14 -217.37 -45.81 
 229 -51.45 -226.81 -45.81 
 230 -49.08 -231.05 -45.81 
 231 -50.97 -225.91 -45.81 
 232 -42.22 -212.67 -45.81 
 233 -46.02 -209.95 -42.22 
 234 -54.44 -208.69 -42.22 
 235 -50.65 -227.77 -42.22 
 236 -61.76 -231.72 -42.22 
 237 -47.69 -231.17 -42.22 
 238 -54.29 -200.38 -42.22 
 239 -40.91 -208.86 -42.22 
 240 -36.79 -210.31 -40.91 
 241 -56.01 -206.62 -36.79 
 242 -61.90 -193.18 -36.79 
 243 -46.97 -191.56 -36.79 
 244 -55.25 -200.82 -36.79 
 245 -46.51 -205.23 -36.79 
 246 -46.88 -197.11 -36.79 
 247 -41.68 -194.45 -36.79 
 248 -40.28 -191.62 -36.79 
 249 -48.51 -204.52 -36.79 
 250 -42.06 -191.41 -36.79 
 251 -44.25 -199.85 -36.79 
 252 -48.52 -203.51 -36.79 
 253 -30.33 -208.65 -36.79 
 254 -48.30 -206.65 -30.33 
 255 -45.13 -214.23 -30.33 
 256 -34.81 -189.06 -30.33 
 257 -47.04 -175.51 -30.33 
 258 -30.53 -209.49 -30.33 
 259 -40.90 -220.40 -30.33 
 260 -26.71 -232.38 -30.33 
 261 -25.44 -231.12 -26.71 
 262 -37.93 -225.52 -25.44 
 263 -29.65 -231.45 -25.44 
 264 -41.04 -239.74 -25.44 
 265 -36.38 -251.78 -25.44 
 266 -31.00 -243.63 -25.44 
 267 -27.71 -240.53 -25.44 
 268 -31.52 -228.42 -25.44 
 269 -31.50 -233.01 -25.44 
 270 -28.69 -236.83 -25.44 
 271 -32.18 -240.93 -25.44 
 272 -26.17 -238.62 -25.44 
 273 -33.15 -242.89 -25.44 
 274 -40.10 -221.40 -25.44 
 275 -42.57 -211.59 -25.44 
 276 -32.57 -222.68 -25.44 
 277 -22.31 -215.49 -25.44 
 278 -20.22 -226.70 -22.31 
 279 -31.35 -240.02 -20.22 
 280 -15.88 -237.36 -20.22 
 281 -20.53 -231.48 -15.88 
 282 -22.39 -226.12 -15.88 
 283 -11.14 -212.51 -15.88 
 284 -19.38 -217.40 -11.14 
 285 -30.05 -233.65 -11.14 
 286 -26.80 -238.73 -11.14 
 287 -16.82 -229.21 -11.14 
 288 -16.21 -202.48 -11.14 
 289 -35.30 -235.73 -11.14 
 290 -21.81 -248.03 -11.14 
 291 -28.16 -247.20 -11.14 
 292 -15.93 -272.86 -11.14 
 293 -8.74 -288.77 -11.14 
 294 -5.92 -296.72 -8.74 
 295 -7.28 -321.28 -5.92 
 296 -21.52 -324.50 -5.92 
 297 -14.87 -310.75 -5.92 
 298 -6.16 -316.35 -5.92 
 299 -11.95 -327.07 -5.92 
 300 -24.72 -312.45 -5.92 
 301  8.49 -316.24 -5.92 
 302 -1.97 -315.07  8.49 
 303  3.88 -331.30  8.49 
 304 -1.98 -324.06  8.49 
 305 10.86 -314.64  8.49 
 306 11.11 -324.96 10.86 
 307 -2.61 -331.50 11.11 
 308  9.80 -317.19 11.11 
 309 11.18 -319.92 11.11 
 310  8.79 -327.56 11.18 
 311 -1.24 -327.93 11.18 
 312 25.66 -343.54 11.18 
 313  2.43 -331.91 25.66 
 314 17.68 -333.91 25.66 
 315  5.32 -334.81 25.66 
 316  7.11 -335.66 25.66 
 317 26.53 -330.52 25.66 
 318  5.29 -322.97 26.53 
 319 -1.52 -318.54 26.53 
 320  0.59 -324.75 26.53 
 321 -7.98 -306.33 26.53 
 322 25.24 -296.56 26.53 
 323 24.69 -300.95 26.53 
 324 33.79 -311.29 26.53 
 325 22.88 -318.57 33.79 
 326 -1.70 -289.06 33.79 
 327 24.41 -297.98 33.79 
 328  2.52 -301.37 33.79 
 329 15.12 -298.90 33.79 
 330 30.60 -294.62 33.79 
 331 35.92 -277.79 33.79 
 332 24.31 -273.83 35.92 
 333 37.72 -281.61 35.92 
 334 43.65 -282.37 37.72 
 335 -1.96 -276.53 43.65 
 336 40.57 -280.21 43.65 
 337 30.55 -284.54 43.65 
 338 36.78 -288.92 43.65 
 339 47.02 -273.05 43.65 
 340 26.36 -260.93 47.02 
 341 16.77 -189.06 47.02 
 342 47.29 -235.90 47.02 
 343 43.47 -252.86 47.29 
 344 45.57 -237.80 47.29 
 345 44.63 -190.65 47.29 
 346 43.36 -147.75 47.29 
 347 43.08 -185.67 47.29 
 348 44.25 -193.70 47.29 
 349 31.91 -141.78 47.29 
 350 46.43 -146.00 47.29 
 351 48.78 -133.14 47.29 
 352 61.30 -130.87 48.78 
 353 66.62 -129.88 61.30 
 354 56.03 -137.46 66.62 
 355 52.18 -124.89 66.62 
 356 65.24 -141.03 66.62 
 357 34.88 -144.70 66.62 
 358 32.29 -129.63 66.62 
 359 51.66 -91.79 66.62 
 360 21.68 -115.45 66.62 
 361 49.25 -140.47 66.62 
 362 20.44 -108.25 66.62 
 363 49.76 -128.46 66.62 
 364 71.75 -101.02 66.62 
 365 57.78 -106.75 71.75 
 366 67.74 -123.82 71.75 
 367 60.69 -103.20 71.75 
 368 53.11 -90.68 71.75 
 369 70.67 -83.26 71.75 
 370 50.57 -143.93 71.75 
 371 43.59 -157.40 71.75 
 372 58.11 -236.39 71.75 
 373 58.02 -209.36 71.75 
 374 80.45 -242.42 71.75 
 375 78.85 -223.23 80.45 
 376 58.87 -212.01 80.45 
 377 73.69 -223.48 80.45 
 378 36.94 -238.65 80.45 
 379 48.50 -237.32 80.45 
 380 58.42 -230.36 80.45 
 381 62.44 -208.72 80.45 
 382 61.04 -218.55 80.45 
 383 71.44 -213.70 80.45 
 384 60.96 -206.84 80.45 
 385 81.25 -193.27 80.45 
 386 76.85 -180.11 81.25 
 387 88.77 -197.66 81.25 
 388 54.34 -199.63 88.77 
 389 93.24 -194.29 88.77 
 390 83.24 -169.59 93.24 
 391 85.05 -182.36 93.24 
 392 97.09 -177.35 93.24 
 393 65.78 -165.60 97.09 
 394 98.87 -165.43 97.09 
 395 79.44 -151.41 98.87 
 396 78.76 -156.29 98.87 
 397 73.29 -165.15 98.87 
 398 78.07 -161.10 98.87 
 399 110.85 -139.44 98.87 
 400 63.38 -131.31 110.85 
 401 67.10 -129.87 110.85 
 402 90.85 -138.38 110.85 
 403 79.22 -141.55 110.85 
 404 92.80 -136.22 110.85 
 405 83.65 -114.67 110.85 
 406 98.78 -41.94 110.85 
 407 88.72 -20.52 110.85 
 408 83.60 -96.36 110.85 
 409 102.81 -106.91 110.85 
 410 90.06 -109.08 110.85 
 411 78.19 -119.10 110.85 
 412 100.56 -117.40 110.85 
 413 77.04 -116.14 110.85 
 414 99.74 -36.89 110.85 
 415 106.58 -56.66 110.85 
 416 83.89 -84.85 110.85 
 417 75.89 -80.61 110.85 
 418 102.04 -109.34 110.85 
 419 89.57 -128.57 110.85 
 420 86.77 -55.22 110.85 
 421 77.03 -117.75 110.85 
 422 98.09 -93.34 110.85 
 423 87.14 -158.21 110.85 
 424 106.02 -147.60 110.85 
 425 100.34 -48.97 110.85 
 426 96.89 -56.89 110.85 
 427 95.03 -120.22 110.85 
 428 100.27 -111.53 110.85 
 429 77.41 -128.97 110.85 
 430 84.38 -127.41 110.85 
 431 95.12 -126.77 110.85 
 432 107.10 -100.80 110.85 
 433 96.58 -84.91 110.85 
 434 116.26 -83.32 110.85 
 435 88.36 -56.82 116.26 
 436 93.48 -35.72 116.26 
 437 107.40 -25.89 116.26 
 438 99.92 38.83 116.26 
 439 92.35 53.84 116.26 
 440 99.05 115.58 116.26 
 441 110.78 80.00 116.26 
 442 89.09 79.06 116.26 
 443 117.15 24.51 116.26 
 444 104.78 22.19 117.15 
 445 133.06 17.81 117.15 
 446 104.22 12.98 133.06 
 447 105.78  7.67 133.06 
 448 116.84 -2.71 133.06 
 449 106.99 -24.64 133.06 
 450 110.07 -44.64 133.06 
 451 101.08 -78.01 133.06 
 452 93.68 -95.00 133.06 
 453 97.79 -94.97 133.06 
 454 126.16 -76.78 133.06 
 455 95.91 -97.62 133.06 
 456 98.77 -86.73 133.06 
 457 109.57 -71.43 133.06 
 458 128.58 -42.83 133.06 
 459 113.29 -72.57 133.06 
 460 104.38 -74.52 133.06 
 461 120.42 -72.52 133.06 
 462 116.46 -69.41 133.06 
 463 115.34 -47.52 133.06 
 464 108.04 -51.16 133.06 
 465 112.34 -46.77 133.06 
 466 114.24 -30.49 133.06 
 467 117.50 -39.80 133.06 
 468 101.65 -17.65 133.06 
 469 122.43 -2.55 133.06 
 470 111.35 11.91 133.06 
 471 119.68 44.41 133.06 
 472 113.94 33.63 133.06 
 473 97.31 35.10 133.06 
 474 117.05 36.83 133.06 
 475 142.97 26.72 133.06 
 476 108.46 15.15 142.97 
 477 120.91 20.20 142.97 
 478 107.15 -1.78 142.97 
 479 115.02 -7.20 142.97 
 480 114.53 -4.07 142.97 
 481 113.04 -3.14 142.97 
 482 104.16 -9.06 142.97 
 483 110.92 14.16 142.97 
 484 136.17 52.38 142.97 
 485 96.23 30.35 142.97 
 486 114.74 39.96 142.97 
 487 120.93 56.59 142.97 
 488 127.01 54.72 142.97 
 489 142.03 44.72 142.97 
 490 106.07 38.63 142.97 
 491 124.37 53.02 142.97 
 492 114.11 31.33 142.97 
 493 102.93 51.97 142.97 
 494 137.40 71.85 142.97 
 495 125.22 56.13 142.97 
 496 137.19 54.99 142.97 
 497 123.71 52.37 142.97 
 498 130.27 25.32 142.97 
 499 118.42 16.24 142.97 
 500 108.63 26.14 142.97 
 501 103.82 18.06 142.97 
 502 124.31 29.16 142.97 
 503 104.46 28.07 142.97 
 504 135.91 22.18 142.97 
 505 136.27  8.57 142.97 
 506 139.56  1.87 142.97 
 507 130.13 13.20 142.97 
 508 135.44 15.93 142.97 
 509 146.43 19.36 142.97 
 510 123.51 12.43 146.43 
 511 118.00 12.79 146.43 
 512 140.04 -9.41 146.43 
 513 118.05 20.25 146.43 
 514 119.32 16.93 146.43 
 515 125.01 12.38 146.43 
 516 113.44 18.85 146.43 
 517 146.43 24.50 146.43 
 518 146.24 27.62 146.43 
 519 140.77 36.51 146.43 
 520 134.09 46.67 146.43 
 521 130.74 37.90 146.43 
 522 134.22 44.39 146.43 
 523 144.11 50.02 146.43 
 524 124.19 50.32 146.43 
 525 149.74 46.36 146.43 
 526 129.52 42.75 149.74 
 527 124.60 43.38 149.74 
 528 122.48 41.56 149.74 
 529 163.84 54.91 149.74 
 530 146.24 48.87 163.84 
 531 145.48 55.56 163.84 
 532 147.03 44.08 163.84 
 533 138.27 49.74 163.84 
 534 141.09 49.75 163.84 
 535 140.04 48.28 163.84 
 536 141.68 54.54 163.84 
 537 140.19 57.01 163.84 
 538 125.49 65.68 163.84 
 539 155.67 61.81 163.84 
 540 134.22 54.29 163.84 
 541 135.43 60.88 163.84 
 542 138.96 73.30 163.84 
 543 134.85 84.30 163.84 
 544 122.12 77.98 163.84 
 545 154.54 68.38 163.84 
 546 133.14 61.69 163.84 
 547 142.99 66.61 163.84 
 548 129.20 71.53 163.84 
 549 137.24 76.67 163.84 
 550 140.25 82.46 163.84 
 551 139.66 83.38 163.84 
 552 143.93 87.38 163.84 
 553 144.66 89.79 163.84 
 554 147.91 83.00 163.84 
 555 138.44 82.53 163.84 
 556 145.13 85.63 163.84 
 557 135.15 82.97 163.84 
 558 147.33 79.41 163.84 
 559 147.26 83.31 163.84 
 560 152.60 69.31 163.84 
 561 165.99 86.01 163.84 
 562 123.03 90.10 165.99 
 563 137.78 95.81 165.99 
 564 149.42 90.39 165.99 
 565 145.25 104.24 165.99 
 566 135.11 97.50 165.99 
 567 155.37 98.17 165.99 
 568 149.91 100.34 165.99 
 569 158.95 96.10 165.99 
 570 162.70 107.21 165.99 
 571 136.38 103.60 165.99 
 572 144.68 105.45 165.99 
 573 168.28 125.40 165.99 
 574 146.36 128.26 168.28 
 575 146.99 130.61 168.28 
 576 163.49 116.60 168.28 
 577 157.40 118.50 168.28 
 578 163.63 131.51 168.28 
 579 157.76 124.61 168.28 
 580 160.34 112.12 168.28 
 581 169.66 110.06 168.28 
 582 164.73 113.62 169.66 
 583 165.13 97.20 169.66 
 584 144.11 84.21 169.66 
 585 137.53 83.65 169.66 
 586 159.21 89.93 169.66 
 587 159.00 89.46 169.66 
 588 151.36 87.21 169.66 
 589 147.54 86.08 169.66 
 590 183.71 88.26 169.66 
 591 135.52 87.94 183.71 
 592 176.12 94.64 183.71 
 593 147.50 101.33 183.71 
 594 150.11 102.57 183.71 
 595 157.27 95.08 183.71 
 596 175.03 99.11 183.71 
 597 173.33 105.77 183.71 
 598 165.27 87.39 183.71 
 599 155.10 82.36 183.71 
 600 167.54 89.72 183.71 
 601 162.71 92.53 183.71 
 602 166.95 91.93 183.71 
 603 156.59 98.62 183.71 
 604 153.32 116.94 183.71 
 605 167.01 91.69 183.71 
 606 159.30 111.07 183.71 
 607 167.50 113.80 183.71 
 608 160.73 110.77 183.71 
 609 155.99 108.21 183.71 
 610 162.32 102.78 183.71 
 611 174.76 98.14 183.71 
 612 165.81 93.80 183.71 
 613 163.13 82.17 183.71 
 614 178.50 93.27 183.71 
 615 166.36 80.59 183.71 
 616 161.44 83.42 183.71 
 617 152.19 88.67 183.71 
 618 161.95 96.78 183.71 
 619 148.81 94.08 183.71 
 620 157.89 107.85 183.71 
 621 183.11 90.87 183.71 
 622 151.72 83.21 183.71 
 623 178.99 89.24 183.71 
 624 164.06 111.76 183.71 
 625 176.53 108.45 183.71 
 626 170.39 123.81 183.71 
 627 168.26 126.23 183.71 
 628 185.96 129.47 183.71 
 629 167.19 146.82 185.96 
 630 173.36 132.41 185.96 
 631 172.88 152.45 185.96 
 632 165.94 144.29 185.96 
 633 161.47 126.08 185.96 
 634 170.97 117.11 185.96 
 635 168.63 103.52 185.96 
 636 160.16 111.25 185.96 
 637 172.69 116.33 185.96 
 638 181.58 105.17 185.96 
 639 188.55 101.19 185.96 
 640 164.99 146.38 188.55 
 641 176.08 148.21 188.55 
 642 170.67 135.17 188.55 
 643 177.11 140.91 188.55 
 644 180.03 141.59 188.55 
 645 174.02 152.87 188.55 
 646 182.69 146.52 188.55 
 647 162.47 149.81 188.55 
 648 190.66 147.25 188.55 
 649 180.28 149.85 190.66 
 650 182.43 147.79 190.66 
 651 177.82 150.63 190.66 
 652 183.19 156.52 190.66 
 653 186.35 157.19 190.66 
 654 182.75 163.94 190.66 
 655 189.10 170.96 190.66 
 656 202.37 174.28 190.66 
 657 180.76 178.00 202.37 
 658 176.43 170.45 202.37 
 659 183.05 164.67 202.37 
 660 183.27 174.11 202.37 
 661 193.53 177.66 202.37 
 662 184.90 172.20 202.37 
 663 169.23 176.45 202.37 
 664 181.98 169.47 202.37 
 665 187.63 166.58 202.37 
 666 181.83 166.40 202.37 
 667 186.95 167.66 202.37 
 668 186.25 164.41 202.37 
 669 190.66 162.93 202.37 
 670 172.85 165.44 202.37 
 671 198.61 172.98 202.37 
 672 193.45 173.16 202.37 
 673 165.40 172.42 202.37 
 674 178.33 167.00 202.37 
 675 169.21 162.67 202.37 
 676 193.24 160.71 202.37 
 677 193.86 162.86 202.37 
 678 194.20 165.97 202.37 
 679 184.50 169.07 202.37 
 680 198.29 164.90 202.37 
 681 193.81 165.16 202.37 
 682 188.35 174.12 202.37 
 683 202.17 172.52 202.37 
 684 194.03 170.53 202.37 
 685 185.33 173.77 202.37 
 686 196.72 174.38 202.37 
 687 194.93 175.43 202.37 
 688 194.35 179.96 202.37 
 689 173.62 198.26 202.37 
 690 195.82 191.25 202.37 
 691 184.08 189.71 202.37 
 692 196.93 192.29 202.37 
 693 204.15 195.96 202.37 
 694 181.36 196.52 204.15 
 695 181.95 197.18 204.15 
 696 196.01 192.25 204.15 
 697 199.75 184.20 204.15 
 698 182.42 183.09 204.15 
 699 210.19 180.32 204.15 
 700 192.41 179.69 210.19 
 701 192.87 171.37 210.19 
 702 194.02 171.46 210.19 
 703 188.17 172.93 210.19 
 704 195.82 172.71 210.19 
 705 194.63 174.07 210.19 
 706 183.22 172.52 210.19 
 707 190.45 174.48 210.19 
 708 199.96 170.88 210.19 
 709 188.59 169.72 210.19 
 710 182.15 166.69 210.19 
 711 192.96 165.70 210.19 
 712 201.60 165.11 210.19 
 713 210.01 163.18 210.19 
 714 196.22 167.72 210.19 
 715 193.85 163.71 210.19 
 716 194.91 166.67 210.19 
 717 207.63 167.95 210.19 
 718 189.25 164.16 210.19 
 719 198.25 156.42 210.19 
 720 196.91 141.88 210.19 
 721 184.22 140.87 210.19 
 722 193.89 132.71 210.19 
 723 199.20 136.71 210.19 
 724 180.65 131.24 210.19 
 725 177.18 133.74 210.19 
 726 191.11 128.45 210.19 
 727 187.19 125.67 210.19 
 728 199.93 128.89 210.19 
 729 200.49 133.12 210.19 
 730 191.12 127.48 210.19 
 731 198.05 143.15 210.19 
 732 201.82 139.25 210.19 
 733 190.91 147.44 210.19 
 734 188.73 152.85 210.19 
 735 193.33 153.70 210.19 
 736 191.51 152.35 210.19 
 737 195.52 145.22 210.19 
 738 185.96 147.71 210.19 
 739 199.90 147.02 210.19 
 740 200.14 151.02 210.19 
 741 190.34 142.89 210.19 
 742 214.01 147.11 210.19 
 743 198.80 154.96 214.01 
 744 187.78 145.21 214.01 
 745 197.14 143.19 214.01 
 746 168.77 143.41 214.01 
 747 187.62 150.16 214.01 
 748 201.07 141.05 214.01 
 749 193.07 133.70 214.01 
 750 186.96 138.15 214.01 
 751 204.14 149.55 214.01 
 752 194.80 149.39 214.01 
 753 193.69 144.48 214.01 
 754 196.28 140.78 214.01 
 755 182.54 149.86 214.01 
 756 200.02 159.11 214.01 
 757 199.16 154.24 214.01 
 758 199.42 153.17 214.01 
 759 193.98 158.34 214.01 
 760 180.36 160.31 214.01 
 761 201.36 161.39 214.01 
 762 203.18 157.72 214.01 
 763 192.99 162.14 214.01 
 764 187.54 162.16 214.01 
 765 199.43 164.03 214.01 
 766 193.18 166.11 214.01 
 767 195.34 163.38 214.01 
 768 203.04 157.93 214.01 
 769 216.52 150.97 214.01 
 770 188.37 115.06 216.52 
 771 209.02 143.41 216.52 
 772 205.41 157.26 216.52 
 773 198.75 160.91 216.52 
 774 201.19 157.59 216.52 
 775 188.59 158.23 216.52 
 776 204.75 156.47 216.52 
 777 210.23 152.88 216.52 
 778 206.00 156.73 216.52 
 779 214.28 154.60 216.52 
 780 210.24 153.80 216.52 
 781 204.89 149.66 216.52 
 782 209.55 152.84 216.52 
 783 207.62 155.57 216.52 
 784 199.01 156.40 216.52 
 785 201.82 151.91 216.52 
 786 205.57 151.50 216.52 
 787 196.94 154.09 216.52 
 788 199.84 154.07 216.52 
 789 210.49 158.98 216.52 
 790 194.29 162.49 216.52 
 791 217.60 162.14 216.52 
 792 199.59 157.60 217.60 
 793 205.84 164.19 217.60 
 794 183.70 161.77 217.60 
 795 207.54 164.26 217.60 
 796 183.43 175.33 217.60 
 797 192.33 176.98 217.60 
 798 190.70 176.84 217.60 
 799 204.80 181.31 217.60 
 800 202.25 178.24 217.60 
 801 207.35 181.10 217.60 
 802 188.80 184.07 217.60 
 803 206.81 186.94 217.60 
 804 204.17 190.79 217.60 
 805 200.84 194.22 217.60 
 806 177.15 197.92 217.60 
 807 191.44 198.45 217.60 
 808 200.81 205.18 217.60 
 809 210.86 204.50 217.60 
 810 180.42 202.67 217.60 
 811 215.56 205.35 217.60 
 812 190.18 202.57 217.60 
 813 198.65 198.98 217.60 
 814 202.98 202.98 217.60 
 815 197.84 198.33 217.60 
 816 203.20 199.75 217.60 
 817 206.80 188.50 217.60 
 818 201.41 192.02 217.60 
 819 197.41 191.51 217.60 
 820 198.63 189.01 217.60 
 821 190.47 189.94 217.60 
 822 196.00 190.19 217.60 
 823 201.28 184.89 217.60 
 824 201.49 181.27 217.60 
 825 204.11 179.92 217.60 
 826 191.77 182.36 217.60 
 827 194.84 174.06 217.60 
 828 195.74 172.88 217.60 
 829 197.01 184.69 217.60 
 830 192.71 185.01 217.60 
 831 194.40 189.71 217.60 
 832 200.23 190.02 217.60 
 833 203.59 190.27 217.60 
 834 200.99 189.37 217.60 
 835 179.80 188.50 217.60 
 836 196.91 187.94 217.60 
 837 208.30 186.54 217.60 
 838 213.47 185.51 217.60 
 839 212.37 177.56 217.60 
 840 206.57 185.20 217.60 
 841 211.48 184.26 217.60 
 842 203.43 180.61 217.60 
 843 206.06 175.86 217.60 
 844 197.08 172.85 217.60 
 845 200.68 168.49 217.60 
 846 193.43 157.95 217.60 
 847 195.98 172.84 217.60 
 848 211.32 166.22 217.60 
 849 206.61 169.47 217.60 
 850 196.73 174.69 217.60 
 851 193.73 173.43 217.60 
 852 192.73 171.31 217.60 
 853 195.92 170.59 217.60 
 854 206.50 172.57 217.60 
 855 189.58 170.21 217.60 
 856 186.45 170.75 217.60 
 857 211.29 163.21 217.60 
 858 202.21 152.51 217.60 
 859 186.72 149.49 217.60 
 860 204.90 156.59 217.60 
 861 199.85 155.17 217.60 
 862 189.64 155.82 217.60 
 863 203.68 161.49 217.60 
 864 204.61 149.13 217.60 
 865 188.76 157.72 217.60 
 866 210.18 163.40 217.60 
 867 204.29 162.17 217.60 
 868 200.58 164.77 217.60 
 869 204.53 166.01 217.60 
 870 200.42 173.67 217.60 
 871 211.91 171.53 217.60 
 872 198.49 175.23 217.60 
 873 193.24 178.06 217.60 
 874 203.18 177.65 217.60 
 875 208.49 173.67 217.60 
 876 216.63 175.31 217.60 
 877 213.23 176.56 217.60 
 878 220.02 182.78 217.60 
 879 215.38 187.43 220.02 
 880 204.73 187.79 220.02 
 881 218.69 185.13 220.02 
 882 210.95 189.26 220.02 
 883 184.18 196.25 220.02 
 884 209.35 196.32 220.02 
 885 197.05 197.36 220.02 
 886 201.92 191.50 220.02 
 887 213.60 190.02 220.02 
 888 198.96 193.26 220.02 
 889 197.19 190.93 220.02 
 890 194.95 191.80 220.02 
 891 204.01 188.59 220.02 
 892 212.88 187.30 220.02 
 893 201.95 184.57 220.02 
 894 209.64 186.81 220.02 
 895 192.46 190.39 220.02 
 896 208.48 188.10 220.02 
 897 187.04 183.73 220.02 
 898 203.74 185.13 220.02 
 899 214.22 188.05 220.02 
 900 202.55 188.71 220.02 
 901 199.56 188.58 220.02 
 902 209.71 189.13 220.02 
 903 215.85 188.99 220.02 
 904 220.73 191.18 220.02 
 905 210.88 196.07 220.73 
 906 189.49 199.11 220.73 
 907 204.68 199.02 220.73 
 908 224.38 197.28 220.73 
 909 216.42 195.25 224.38 
 910 212.86 200.04 224.38 
 911 207.06 198.17 224.38 
 912 219.19 202.23 224.38 
 913 205.19 203.12 224.38 
 914 212.55 197.76 224.38 
 915 208.37 194.97 224.38 
 916 197.66 190.07 224.38 
 917 203.32 194.84 224.38 
 918 193.46 193.88 224.38 
 919 196.04 197.61 224.38 
 920 204.94 198.52 224.38 
 921 202.49 193.50 224.38 
 922 197.74 195.18 224.38 
 923 215.85 195.95 224.38 
 924 203.94 200.94 224.38 
 925 190.44 200.83 224.38 
 926 206.11 203.50 224.38 
 927 205.92 205.31 224.38 
 928 198.24 209.27 224.38 
 929 197.73 208.76 224.38 
 930 201.25 205.03 224.38 
 931 200.90 206.83 224.38 
 932 200.07 203.38 224.38 
 933 212.69 200.58 224.38 
 934 214.71 205.26 224.38 
 935 195.01 198.43 224.38 
 936 200.20 208.97 224.38 
 937 214.86 195.93 224.38 
 938 211.26 188.96 224.38 
 939 204.30 186.53 224.38 
 940 194.13 186.05 224.38 
 941 203.36 195.18 224.38 
 942 181.61 189.28 224.38 
 943 206.54 195.92 224.38 
 944 204.93 195.20 224.38 
 945 200.95 196.19 224.38 
 946 202.30 192.81 224.38 
 947 209.87 183.12 224.38 
 948 210.65 180.16 224.38 
 949 198.52 173.99 224.38 
 950 212.56 175.52 224.38 
 951 221.49 173.16 224.38 
 952 210.20 172.66 224.38 
 953 213.32 166.59 224.38 
 954 201.26 171.62 224.38 
 955 205.11 163.67 224.38 
 956 209.90 167.64 224.38 
 957 199.83 169.77 224.38 
 958 203.88 161.66 224.38 
 959 216.14 165.31 224.38 
 960 204.62 172.41 224.38 
 961 196.45 160.53 224.38 
 962 209.02 163.29 224.38 
 963 202.38 161.61 224.38 
 964 206.42 169.97 224.38 
 965 192.52 168.58 224.38 
 966 206.45 177.03 224.38 
 967 205.71 175.69 224.38 
 968 194.51 171.98 224.38 
 969 209.90 168.60 224.38 
 970 213.46 166.87 224.38 
 971 209.92 168.06 224.38 
 972 218.15 171.54 224.38 
 973 209.20 170.34 224.38 
 974 195.98 170.59 224.38 
 975 204.36 165.50 224.38 
 976 205.54 166.55 224.38 
 977 205.84 166.37 224.38 
 978 213.40 157.69 224.38 
 979 212.44 153.90 224.38 
 980 204.43 151.89 224.38 
 981 211.05 155.55 224.38 
 982 214.95 157.34 224.38 
 983 214.27 170.35 224.38 
 984 214.82 174.87 224.38 
 985 207.52 178.22 224.38 
 986 197.99 176.66 224.38 
 987 208.44 174.28 224.38 
 988 216.08 175.08 224.38 
 989 204.48 157.84 224.38 
 990 205.30 171.67 224.38 
 991 216.61 158.48 224.38 
 992 210.91 155.49 224.38 
 993 215.75 163.78 224.38 
 994 206.86 156.88 224.38 
 995 201.83 148.84 224.38 
 996 199.22 145.50 224.38 
 997 200.92 149.88 224.38 
 998 203.56 153.35 224.38 
 999 225.25 159.47 224.38 
1000 219.28 163.23 225.25 
1001 205.41 164.25 225.25 
1002 204.46 164.64 225.25 
1003 202.55 153.37 225.25 
1004 220.06 156.18 225.25 
1005 203.22 149.79 225.25 
1006 204.73 153.35 225.25 
1007 211.02 152.28 225.25 
1008 224.36 157.26 225.25 
1009 210.65 156.73 225.25 
1010 216.01 160.47 225.25 
1011 215.96 173.87 225.25 
1012 208.51 165.35 225.25 
1013 203.88 165.24 225.25 
1014 229.24 171.28 225.25 
1015 204.38 177.89 229.24 
1016 202.24 175.73 229.24 
1017 207.47 172.24 229.24 
1018 203.05 175.56 229.24 
1019 206.92 172.39 229.24 
1020 208.53 168.81 229.24 
1021 213.06 179.40 229.24 
1022 200.82 180.26 229.24 
1023 189.40 181.41 229.24 
1024 206.62 183.29 229.24 
1025 217.31 179.18 229.24 
1026 206.13 178.06 229.24 
1027 208.48 166.80 229.24 
1028 206.31 174.33 229.24 
1029 199.64 180.96 229.24 
1030 198.20 168.84 229.24 
1031 208.90 173.89 229.24 
1032 207.93 168.51 229.24 
1033 197.44 184.37 229.24 
1034 218.76 175.88 229.24 
1035 194.85 174.00 229.24 
1036 201.86 178.90 229.24 
1037 201.70 183.81 229.24 
1038 222.67 180.24 229.24 
1039 221.53 190.24 229.24 
1040 211.94 194.05 229.24 
1041 188.04 194.82 229.24 
1042 212.52 197.24 229.24 
1043 213.99 194.55 229.24 
1044 210.09 197.26 229.24 
1045 189.94 202.73 229.24 
1046 215.88 193.27 229.24 
1047 210.83 192.70 229.24 
1048 211.23 184.12 229.24 
1049 215.34 189.33 229.24 
1050 206.25 189.28 229.24 
1051 214.00 187.51 229.24 
1052 221.31 186.95 229.24 
1053 217.07 185.01 229.24 
1054 200.74 177.68 229.24 
1055 197.01 173.97 229.24 
1056 209.62 174.58 229.24 
1057 203.92 177.60 229.24 
1058 204.87 180.86 229.24 
1059 211.57 179.28 229.24 
1060 206.03 170.30 229.24 
1061 215.66 174.26 229.24 
1062 210.45 177.77 229.24 
1063 204.24 167.60 229.24 
1064 207.00 169.09 229.24 
1065 217.80 165.12 229.24 
1066 205.95 159.56 229.24 
1067 217.92 171.99 229.24 
1068 217.31 168.15 229.24 
1069 197.76 167.17 229.24 
1070 214.88 160.28 229.24 
1071 206.39 155.84 229.24 
1072 201.62 158.53 229.24 
1073 210.78 164.74 229.24 
1074 203.90 160.21 229.24 
1075 212.43 160.23 229.24 
1076 201.40 174.61 229.24 
1077 209.19 183.64 229.24 
1078 229.39 183.87 229.24 
1079 215.50 174.80 229.39 
1080 220.49 170.10 229.39 
1081 212.21 170.21 229.39 
1082 202.14 181.25 229.39 
1083 214.02 191.37 229.39 
1084 201.83 197.69 229.39 
1085 205.44 196.21 229.39 
1086 203.71 191.09 229.39 
1087 195.59 188.98 229.39 
1088 188.79 189.95 229.39 
1089 222.65 192.68 229.39 
1090 211.87 192.92 229.39 
1091 219.27 200.87 229.39 
1092 212.86 203.30 229.39 
1093 218.82 196.97 229.39 
1094 216.51 191.12 229.39 
1095 200.37 185.34 229.39 
1096 212.65 180.91 229.39 
1097 221.18 180.47 229.39 
1098 207.41 172.03 229.39 
1099 224.82 162.75 229.39 
1100 221.06 169.12 229.39 
1101 227.91 168.36 229.39 
1102 216.80 162.87 229.39 
1103 193.21 167.11 229.39 
1104 220.99 156.50 229.39 
1105 208.88 156.17 229.39 
1106 204.69 159.84 229.39 
1107 218.24 158.03 229.39 
1108 217.01 157.73 229.39 
1109 210.87 157.32 229.39 
1110 206.02 164.07 229.39 
1111 220.01 151.32 229.39 
1112 214.68 145.90 229.39 
1113 214.60 150.49 229.39 
1114 225.62 149.98 229.39 
1115 192.33 158.83 229.39 
1116 211.86 158.86 229.39 
1117 225.14 149.38 229.39 
1118 220.66 151.98 229.39 
1119 215.45 163.07 229.39 
1120 210.65 160.13 229.39 
1121 199.58 158.20 229.39 
1122 209.41 175.47 229.39 
1123 209.23 177.08 229.39 
1124 216.53 171.03 229.39 
1125 214.60 176.81 229.39 
1126 201.32 175.61 229.39 
1127 208.37 168.20 229.39 
1128 205.36 188.33 229.39 
1129 223.44 189.26 229.39 
1130 214.63 195.83 229.39 
1131 196.28 195.19 229.39 
1132 211.83 196.43 229.39 
1133 206.24 202.71 229.39 
1134 199.64 200.17 229.39 
1135 207.46 197.59 229.39 
1136 204.49 193.62 229.39 
1137 209.79 198.92 229.39 
1138 218.53 203.74 229.39 
1139 220.37 204.38 229.39 
1140 205.94 196.01 229.39 
1141 232.32 190.36 229.39 
1142 227.06 201.05 232.32 
1143 205.34 197.75 232.32 
1144 215.30 203.27 232.32 
1145 209.27 205.11 232.32 
1146 209.55 199.43 232.32 
1147 230.24 196.90 232.32 
1148 218.26 202.43 232.32 
1149 220.82 197.97 232.32 
1150 222.81 203.44 232.32 
1151 212.94 202.78 232.32 
1152 198.36 205.62 232.32 
1153 230.12 209.88 232.32 
1154 201.41 212.68 232.32 
1155 211.16 209.32 232.32 
1156 217.10 211.93 232.32 
1157 200.81 215.13 232.32 
1158 218.17 218.46 232.32 
1159 216.55 218.37 232.32 
1160 225.08 219.57 232.32 
1161 224.66 226.23 232.32 
1162 221.16 226.21 232.32 
1163 218.52 224.73 232.32 
1164 217.89 224.65 232.32 
1165 222.82 223.44 232.32 
1166 224.57 222.06 232.32 
1167 207.32 222.89 232.32 
1168 226.00 220.45 232.32 
1169 225.14 220.01 232.32 
1170 210.70 213.58 232.32 
1171 198.07 215.29 232.32 
1172 220.02 216.64 232.32 
1173 201.85 219.04 232.32 
1174 219.48 216.63 232.32 
1175 225.42 215.14 232.32 
1176 206.01 217.52 232.32 
1177 205.34 212.28 232.32 
1178 212.40 208.06 232.32 
1179 212.59 205.75 232.32 
1180 213.26 204.30 232.32 
1181 228.46 201.34 232.32 
1182 213.87 198.33 232.32 
1183 233.05 204.91 232.32 
1184 222.68 205.57 233.05 
1185 230.22 207.87 233.05 
1186 226.03 205.95 233.05 
1187 217.22 206.81 233.05 
1188 223.90 205.90 233.05 
1189 237.02 208.36 233.05 
1190 230.55 209.50 237.02 
1191 226.99 212.15 237.02 
1192 211.95 205.73 237.02 
1193 206.89 206.43 237.02 
1194 222.92 207.43 237.02 
1195 227.69 205.58 237.02 
1196 218.33 204.76 237.02 
1197 226.83 199.06 237.02 
1198 216.99 200.01 237.02 
1199 222.09 199.40 237.02 
1200 230.58 192.01 237.02 
1201 219.36 193.11 237.02 
1202 213.27 192.74 237.02 
1203 214.71 199.00 237.02 
1204 219.02 195.56 237.02 
1205 225.11 196.54 237.02 
1206 211.89 193.82 237.02 
1207 222.10 198.61 237.02 
1208 225.60 195.34 237.02 
1209 208.09 191.66 237.02 
1210 217.27 188.31 237.02 
1211 214.06 193.20 237.02 
1212 217.98 190.06 237.02 
1213 222.74 194.69 237.02 
1214 220.31 206.42 237.02 
1215 218.14 207.83 237.02 
1216 222.72 200.47 237.02 
1217 224.01 195.26 237.02 
1218 214.18 191.77 237.02 
1219 217.76 190.72 237.02 
1220 227.52 195.14 237.02 
1221 216.36 201.43 237.02 
1222 216.56 203.95 237.02 
1223 217.15 200.28 237.02 
1224 219.36 195.38 237.02 
1225 225.92 204.48 237.02 
1226 214.38 201.45 237.02 
1227 220.36 210.51 237.02 
1228 222.27 203.45 237.02 
1229 204.79 210.82 237.02 
1230 206.25 212.90 237.02 
1231 220.71 219.77 237.02 
1232 211.61 213.85 237.02 
1233 220.19 215.55 237.02 
1234 203.90 217.43 237.02 
1235 208.65 214.74 237.02 
1236 230.01 212.25 237.02 
1237 205.62 220.25 237.02 
1238 218.95 224.54 237.02 
1239 225.41 232.71 237.02 
1240 230.10 232.21 237.02 
1241 226.57 233.56 237.02 
1242 233.13 227.69 237.02 
1243 231.48 231.88 237.02 
1244 228.87 223.42 237.02 
1245 226.38 215.42 237.02 
1246 237.83 214.79 237.02 
1247 215.98 215.72 237.83 
1248 205.50 219.26 237.83 
1249 211.45 216.93 237.83 
1250 219.04 226.49 237.83 
1251 212.60 228.26 237.83 
1252 224.15 221.94 237.83 
1253 232.74 226.31 237.83 
1254 209.54 227.91 237.83 
1255 203.33 205.97 237.83 
1256 231.21 208.27 237.83 
1257 228.29 222.52 237.83 
1258 222.88 231.18 237.83 
1259 220.68 230.01 237.83 
1260 214.69 234.32 237.83 
1261 197.02 245.24 237.83 
1262 218.39 238.14 237.83 
1263 222.69 234.93 237.83 
1264 225.19 236.78 237.83 
1265 221.40 232.73 237.83 
1266 225.81 226.17 237.83 
1267 228.77 226.73 237.83 
1268 217.14 218.72 237.83 
1269 228.84 211.42 237.83 
1270 223.59 211.02 237.83 
1271 210.87 205.92 237.83 
1272 219.22 198.01 237.83 
1273 226.21 210.38 237.83 
1274 230.09 212.46 237.83 
1275 226.64 209.73 237.83 
1276 215.44 206.43 237.83 
1277 211.63 206.57 237.83 
1278 220.05 193.59 237.83 
1279 212.90 199.63 237.83 
1280 229.72 206.03 237.83 
1281 221.36 199.16 237.83 
1282 202.76 214.26 237.83 
1283 215.48 210.69 237.83 
1284 219.76 208.07 237.83 
1285 217.22 206.28 237.83 
1286 225.37 208.48 237.83 
1287 221.08 213.58 237.83 
1288 215.46 215.73 237.83 
1289 229.79 216.68 237.83 
1290 229.73 218.21 237.83 
1291 227.43 198.61 237.83 
1292 227.88 192.04 237.83 
1293 241.96 190.33 237.83 
1294 224.61 206.68 241.96 
1295 218.53 217.64 241.96 
1296 221.47 215.31 241.96 
1297 221.98 215.67 241.96 
1298 230.44 214.89 241.96 
1299 216.37 217.96 241.96 
1300 228.46 216.71 241.96 
1301 222.65 214.99 241.96 
1302 219.67 205.47 241.96 
1303 212.69 211.35 241.96 
1304 218.70 214.24 241.96 
1305 223.05 217.69 241.96 
1306 221.87 209.39 241.96 
1307 219.24 222.56 241.96 
1308 230.46 219.26 241.96 
1309 222.02 199.60 241.96 
1310 227.81 204.02 241.96 
1311 229.16 205.56 241.96 
1312 231.84 189.19 241.96 
1313 225.50 190.32 241.96 
1314 227.71 200.71 241.96 
1315 220.76 223.54 241.96 
1316 225.24 225.20 241.96 
1317 226.04 229.57 241.96 
1318 227.82 228.34 241.96 
1319 228.23 231.16 241.96 
1320 211.37 235.70 241.96 
1321 203.83 233.83 241.96 
1322 214.34 223.97 241.96 
1323 221.91 230.66 241.96 
1324 231.89 231.97 241.96 
1325 216.16 227.41 241.96 
1326 213.27 220.45 241.96 
1327 226.12 230.94 241.96 
1328 233.00 235.86 241.96 
1329 228.15 234.32 241.96 
1330 211.88 233.26 241.96 
1331 213.45 238.34 241.96 
1332 214.66 239.37 241.96 
1333 214.10 240.66 241.96 
1334 201.74 240.69 241.96 
1335 215.61 239.10 241.96 
1336 212.70 240.26 241.96 
1337 218.97 241.89 241.96 
1338 231.31 242.03 241.96 
1339 237.80 241.13 241.96 
1340 218.65 241.37 241.96 
1341 217.87 237.82 241.96 
1342 230.54 235.52 241.96 
1343 218.62 235.61 241.96 
1344 226.14 233.42 241.96 
1345 228.48 230.85 241.96 
1346 240.48 230.65 241.96 
1347 220.89 235.22 241.96 
1348 218.32 233.20 241.96 
1349 221.64 242.18 241.96 
1350 228.78 241.64 241.96 
1351 225.04 242.68 241.96 
1352 235.07 236.52 241.96 
1353 218.39 233.26 241.96 
1354 216.36 230.76 241.96 
1355 206.58 232.45 241.96 
1356 228.58 228.23 241.96 
1357 223.55 226.30 241.96 
1358 220.90 230.83 241.96 
1359 221.37 229.00 241.96 
1360 224.92 228.48 241.96 
1361 223.30 225.43 241.96 
1362 238.65 225.17 241.96 
1363 223.74 225.34 241.96 
1364 231.01 227.03 241.96 
1365 236.98 227.04 241.96 
1366 226.46 224.66 241.96 
1367 215.71 226.56 241.96 
1368 220.59 227.88 241.96 
1369 241.58 220.55 241.96 
1370 233.28 215.21 241.96 
1371 210.35 222.12 241.96 
1372 217.35 211.87 241.96 
1373 225.72 209.74 241.96 
1374 215.34 217.23 241.96 
1375 246.19 221.05 241.96 
1376 228.39 225.94 246.19 
1377 247.99 233.40 246.19 
1378 228.25 215.86 247.99 
1379 210.86 236.63 247.99 
1380 231.85 238.34 247.99 
1381 215.84 237.13 247.99 
1382 215.29 239.38 247.99 
1383 232.04 238.26 247.99 
1384 231.67 234.28 247.99 
1385 221.51 236.11 247.99 
1386 231.63 236.21 247.99 
1387 233.91 238.31 247.99 
1388 232.30 229.27 247.99 
1389 221.00 224.87 247.99 
1390 226.21 220.93 247.99 
1391 227.41 207.68 247.99 
1392 221.02 206.48 247.99 
1393 228.08 209.56 247.99 
1394 231.45 229.89 247.99 
1395 225.05 226.16 247.99 
1396 237.05 223.43 247.99 
1397 221.46 214.16 247.99 
1398 228.52 211.56 247.99 
1399 229.89 215.26 247.99 
1400 216.31 211.31 247.99 
1401 226.60 212.21 247.99 
1402 235.67 231.68 247.99 
1403 228.72 224.92 247.99 
1404 231.34 210.05 247.99 
1405 228.69 204.51 247.99 
1406 226.17 217.24 247.99 
1407 225.74 203.03 247.99 
1408 220.55 199.36 247.99 
1409 217.19 198.48 247.99 
1410 215.51 195.95 247.99 
1411 229.90 195.14 247.99 
1412 213.28 192.64 247.99 
1413 210.62 190.42 247.99 
1414 226.24 206.57 247.99 
1415 228.10 204.70 247.99 
1416 230.43 204.57 247.99 
1417 225.21 198.92 247.99 
1418 236.76 203.21 247.99 
1419 232.53 202.00 247.99 
1420 231.31 197.32 247.99 
1421 235.74 201.98 247.99 
1422 220.55 184.90 247.99 
1423 230.03 188.89 247.99 
1424 239.93 194.34 247.99 
1425 227.61 199.97 247.99 
1426 221.56 203.00 247.99 
1427 223.19 197.34 247.99 
1428 224.60 196.59 247.99 
1429 215.44 197.12 247.99 
1430 231.49 199.05 247.99 
1431 230.90 188.40 247.99 
1432 237.19 190.07 247.99 
1433 222.36 205.04 247.99 
1434 221.92 213.65 247.99 
1435 222.42 218.09 247.99 
1436 240.44 204.96 247.99 
1437 231.07 206.59 247.99 
1438 232.00 190.22 247.99 
1439 235.23 188.18 247.99 
1440 222.57 185.43 247.99 
1441 235.21 207.42 247.99 
1442 222.03 204.85 247.99 
1443 231.76 197.34 247.99 
1444 226.77 213.55 247.99 
1445 234.07 223.80 247.99 
1446 232.79 219.82 247.99 
1447 223.43 226.26 247.99 
1448 236.11 231.50 247.99 
1449 231.67 229.24 247.99 
1450 221.06 231.27 247.99 
1451 220.98 225.53 247.99 
1452 241.74 225.59 247.99 
1453 214.76 220.93 247.99 
1454 232.72 220.92 247.99 
1455 225.58 222.17 247.99 
1456 232.55 223.99 247.99 
1457 218.39 225.91 247.99 
1458 234.43 226.54 247.99 
1459 226.90 225.59 247.99 
1460 215.87 224.43 247.99 
1461 226.07 224.74 247.99 
1462 237.74 221.64 247.99 
1463 237.16 216.50 247.99 
1464 227.60 211.13 247.99 
1465 221.87 208.32 247.99 
1466 241.10 207.90 247.99 
1467 247.30 208.70 247.99 
1468 240.33 229.20 247.99 
1469 214.02 228.94 247.99 
1470 232.06 243.20 247.99 
1471 232.45 235.39 247.99 
1472 231.99 242.85 247.99 
1473 231.48 238.39 247.99 
1474 230.14 233.79 247.99 
1475 215.98 231.56 247.99 
1476 224.00 231.80 247.99 
1477 233.48 237.87 247.99 
1478 229.54 248.00 247.99 
1479 222.15 244.48 247.99 
1480 232.50 244.88 247.99 
1481 228.19 252.47 247.99 
1482 225.02 246.44 247.99 
1483 229.71 234.65 247.99 
1484 236.61 220.10 247.99 
1485 231.55 199.89 247.99 
1486 223.56 210.93 247.99 
1487 216.76 223.61 247.99 
1488 223.47 233.36 247.99 
1489 233.80 240.28 247.99 
1490 232.90 236.05 247.99 
1491 227.46 235.14 247.99 
1492 243.01 233.89 247.99 
1493 216.99 231.57 247.99 
1494 227.10 221.36 247.99 
1495 230.66 208.23 247.99 
1496 242.25 204.06 247.99 
1497 223.93 204.01 247.99 
1498 230.40 209.27 247.99 
1499 233.79 224.34 247.99 
1500 224.58 229.32 247.99 
1501 229.48 221.37 247.99 
1502 236.95 210.87 247.99 
1503 234.39 210.43 247.99 
1504 228.85 216.09 247.99 
1505 229.74 210.01 247.99 
1506 230.00 219.87 247.99 
1507 235.14 234.85 247.99 
1508 231.84 234.10 247.99 
1509 219.71 222.17 247.99 
1510 217.53 212.51 247.99 
1511 223.28 222.35 247.99 
1512 233.69 235.22 247.99 
1513 227.74 232.59 247.99 
1514 228.61 233.23 247.99 
1515 232.48 234.96 247.99 
1516 238.59 234.60 247.99 
1517 244.43 221.12 247.99 
1518 239.11 223.15 247.99 
1519 236.57 213.69 247.99 
1520 240.73 215.87 247.99 
1521 236.92 208.73 247.99 
1522 214.18 209.69 247.99 
1523 238.08 199.34 247.99 
1524 236.34 203.47 247.99 
1525 235.21 214.11 247.99 
1526 228.26 207.03 247.99 
1527 231.01 200.78 247.99 
1528 242.83 208.50 247.99 
1529 236.91 202.41 247.99 
1530 229.90 203.48 247.99 
1531 220.32 207.32 247.99 
1532 230.12 212.61 247.99 
1533 229.25 223.72 247.99 
1534 218.75 228.25 247.99 
1535 230.26 225.92 247.99 
1536 236.46 215.02 247.99 
1537 220.63 213.81 247.99 
1538 223.80 211.43 247.99 
1539 222.85 225.83 247.99 
1540 232.90 237.92 247.99 
1541 232.00 238.37 247.99 
1542 226.40 243.72 247.99 
1543 233.93 238.41 247.99 
1544 230.40 240.31 247.99 
1545 240.78 233.17 247.99 
1546 233.96 224.23 247.99 
1547 239.24 236.12 247.99 
1548 243.39 243.12 247.99 
1549 224.21 248.98 247.99 
1550 221.79 247.40 247.99 
1551 238.73 248.51 247.99 
1552 231.15 248.84 247.99 
1553 229.17 247.13 247.99 
1554 225.50 248.14 247.99 
1555 231.36 252.63 247.99 
1556 229.67 249.58 247.99 
1557 226.47 248.26 247.99 
1558 240.56 241.13 247.99 
1559 231.82 241.28 247.99 
1560 235.73 244.22 247.99 
1561 231.93 248.78 247.99 
1562 224.35 246.98 247.99 
1563 221.88 245.75 247.99 
1564 238.78 248.01 247.99 
1565 229.66 254.74 247.99 
1566 214.04 251.87 247.99 
1567 218.72 247.77 247.99 
1568 239.64 249.00 247.99 
1569 233.25 250.86 247.99 
1570 234.72 249.75 247.99 
1571 223.00 239.92 247.99 
1572 234.97 240.71 247.99 
1573 235.17 239.78 247.99 
1574 244.19 236.14 247.99 
1575 233.78 236.49 247.99 
1576 231.50 236.16 247.99 
1577 225.77 242.14 247.99 
1578 236.87 238.27 247.99 
1579 244.38 244.06 247.99 
1580 219.96 246.63 247.99 
1581 233.23 244.90 247.99 
1582 232.22 248.61 247.99 
1583 215.31 246.98 247.99 
1584 238.47 249.59 247.99 
1585 239.17 249.90 247.99 
1586 229.62 239.72 247.99 
1587 219.11 242.51 247.99 
1588 236.08 243.66 247.99 
1589 222.70 248.59 247.99 
1590 225.70 247.12 247.99 
1591 240.14 244.38 247.99 
1592 230.85 245.16 247.99 
1593 233.91 245.25 247.99 
1594 229.03 242.15 247.99 
1595 239.36 241.45 247.99 
1596 227.62 237.17 247.99 
1597 237.55 243.40 247.99 
1598 229.29 243.87 247.99 
1599 224.73 240.97 247.99 
1600 242.79 249.22 247.99 
1601 226.64 248.12 247.99 
1602 239.54 254.05 247.99 
1603 229.43 256.52 247.99 
1604 239.83 260.06 247.99 
1605 237.40 256.84 247.99 
1606 240.91 255.87 247.99 
1607 231.84 257.51 247.99 
1608 233.57 258.89 247.99 
1609 222.90 255.95 247.99 
1610 234.46 252.79 247.99 
1611 230.90 252.53 247.99 
1612 238.16 252.72 247.99 
1613 236.50 251.46 247.99 
1614 241.84 254.27 247.99 
1615 229.42 251.73 247.99 
1616 235.90 254.56 247.99 
1617 234.32 254.21 247.99 
1618 240.95 252.85 247.99 
1619 239.07 252.65 247.99 
1620 237.46 254.04 247.99 
1621 250.68 251.34 247.99 
1622 247.52 252.72 250.68 
1623 227.84 253.45 250.68 
1624 244.52 252.05 250.68 
1625 235.78 252.14 250.68 
1626 217.56 243.19 250.68 
1627 209.38 243.73 250.68 
1628 234.76 245.54 250.68 
1629 249.58 246.52 250.68 
1630 230.73 256.09 250.68 
1631 232.33 262.86 250.68 
1632 238.20 260.30 250.68 
1633 237.01 255.56 250.68 
1634 231.51 251.18 250.68 
1635 229.47 257.32 250.68 
1636 232.38 253.30 250.68 
1637 244.83 254.30 250.68 
1638 239.61 252.07 250.68 
1639 233.58 249.48 250.68 
1640 246.33 248.27 250.68 
1641 231.61 249.53 250.68 
1642 235.59 248.94 250.68 
1643 240.95 249.02 250.68 
1644 234.68 253.36 250.68 
1645 228.51 255.37 250.68 
1646 241.71 254.43 250.68 
1647 240.32 251.39 250.68 
1648 239.69 251.71 250.68 
1649 230.06 252.88 250.68 
1650 232.72 254.15 250.68 
1651 229.31 252.31 250.68 
1652 240.87 252.80 250.68 
1653 235.17 254.05 250.68 
1654 239.83 252.80 250.68 
1655 242.61 253.97 250.68 
1656 222.01 255.11 250.68 
1657 236.23 252.44 250.68 
1658 228.28 252.23 250.68 
1659 239.73 254.80 250.68 
1660 226.03 254.43 250.68 
1661 243.42 251.46 250.68 
1662 230.59 251.98 250.68 
1663 240.11 253.87 250.68 
1664 237.88 257.40 250.68 
1665 238.55 257.71 250.68 
1666 244.05 252.44 250.68 
1667 256.71 253.25 250.68 
1668 229.67 252.64 256.71 
1669 230.44 252.70 256.71 
1670 229.20 252.77 256.71 
1671 245.37 253.02 256.71 
1672 226.97 247.42 256.71 
1673 234.23 243.61 256.71 
1674 252.46 246.23 256.71 
1675 235.97 245.00 256.71 
1676 226.08 238.62 256.71 
1677 248.33 246.04 256.71 
1678 231.35 243.02 256.71 
1679 226.87 239.19 256.71 
1680 235.51 242.78 256.71 
1681 231.85 242.36 256.71 
1682 244.55 239.92 256.71 
1683 249.26 237.36 256.71 
1684 244.47 239.83 256.71 
1685 243.27 244.09 256.71 
1686 232.12 243.29 256.71 
1687 240.17 240.83 256.71 
1688 240.77 243.29 256.71 
1689 242.24 248.17 256.71 
1690 243.07 250.64 256.71 
1691 242.77 251.46 256.71 
1692 234.19 251.79 256.71 
1693 231.57 252.45 256.71 
1694 223.98 253.88 256.71 
1695 234.65 252.05 256.71 
1696 254.83 251.60 256.71 
1697 237.43 251.09 256.71 
1698 237.75 253.19 256.71 
1699 230.18 255.47 256.71 
1700 245.88 253.92 256.71 
1701 242.23 250.79 256.71 
1702 238.95 250.22 256.71 
1703 231.59 250.39 256.71 
1704 229.78 248.12 256.71 
1705 237.28 249.59 256.71 
1706 232.22 249.75 256.71 
1707 238.80 249.77 256.71 
1708 239.33 246.38 256.71 
1709 248.23 248.48 256.71 
1710 224.72 249.74 256.71 
1711 238.45 251.70 256.71 
1712 233.34 249.31 256.71 
1713 241.28 248.27 256.71 
1714 237.21 249.93 256.71 
1715 227.39 249.32 256.71 
1716 238.67 246.58 256.71 
1717 244.29 238.29 256.71 
1718 243.49 240.06 256.71 
1719 231.63 242.04 256.71 
1720 243.23 239.27 256.71 
1721 243.76 238.07 256.71 
1722 239.94 235.14 256.71 
1723 246.52 237.31 256.71 
1724 238.91 245.54 256.71 
1725 240.81 248.22 256.71 
1726 241.59 245.37 256.71 
1727 244.97 249.93 256.71 
1728 234.34 248.44 256.71 
1729 239.72 244.77 256.71 
1730 244.21 243.40 256.71 
1731 257.55 241.20 256.71 
1732 239.59 237.19 257.55 
1733 236.87 241.36 257.55 
1734 234.29 245.91 257.55 
1735 237.02 248.70 257.55 
1736 248.97 246.54 257.55 
1737 236.54 243.04 257.55 
1738 242.45 236.87 257.55 
1739 236.40 238.50 257.55 
1740 234.40 236.35 257.55 
1741 232.18 240.84 257.55 
1742 239.32 243.53 257.55 
1743 233.69 237.68 257.55 
1744 240.23 238.04 257.55 
1745 233.10 244.72 257.55 
1746 237.46 240.03 257.55 
1747 244.10 242.92 257.55 
1748 253.71 238.17 257.55 
1749 245.97 242.27 257.55 
1750 245.89 235.59 257.55 
1751 234.82 243.92 257.55 
1752 245.39 232.98 257.55 
1753 241.35 228.68 257.55 
1754 236.81 225.77 257.55 
1755 237.90 228.11 257.55 
1756 243.30 238.35 257.55 
1757 241.14 245.48 257.55 
1758 226.94 235.87 257.55 
1759 237.61 239.29 257.55 
1760 246.63 238.45 257.55 
1761 238.94 229.58 257.55 
1762 243.99 238.81 257.55 
1763 243.73 240.75 257.55 
1764 231.06 240.90 257.55 
1765 237.52 246.24 257.55 
1766 232.36 242.88 257.55 
1767 231.21 251.88 257.55 
1768 245.99 252.53 257.55 
1769 241.74 244.66 257.55 
1770 231.59 251.13 257.55 
1771 236.34 249.14 257.55 
1772 234.94 231.28 257.55 
1773 232.47 232.23 257.55 
1774 239.09 242.53 257.55 
1775 238.85 239.92 257.55 
1776 222.15 235.13 257.55 
1777 244.02 231.94 257.55 
1778 239.11 231.61 257.55 
1779 238.58 229.52 257.55 
1780 256.81 226.32 257.55 
1781 242.50 230.37 257.55 
1782 233.79 233.22 257.55 
1783 232.30 230.29 257.55 
1784 226.03 231.51 257.55 
1785 244.63 228.55 257.55 
1786 241.18 231.79 257.55 
1787 243.68 229.24 257.55 
1788 237.59 227.94 257.55 
1789 228.90 217.96 257.55 
1790 252.23 222.31 257.55 
1791 232.00 235.75 257.55 
1792 238.92 219.24 257.55 
1793 249.24 222.32 257.55 
1794 237.49 211.16 257.55 
1795 227.94 206.69 257.55 
1796 231.96 229.42 257.55 
1797 244.04 235.66 257.55 
1798 247.26 237.03 257.55 
1799 238.07 247.06 257.55 
1800 243.93 247.89 257.55 
1801 237.42 249.32 257.55 
1802 253.88 247.82 257.55 
1803 233.59 249.16 257.55 
1804 237.87 249.06 257.55 
1805 250.10 249.98 257.55 
1806 245.90 246.05 257.55 
1807 238.94 248.17 257.55 
1808 247.62 244.13 257.55 
1809 245.32 243.87 257.55 
1810 242.14 246.56 257.55 
1811 242.08 245.99 257.55 
1812 244.48 247.19 257.55 
1813 235.97 244.82 257.55 
1814 239.08 251.88 257.55 
1815 251.01 249.92 257.55 
1816 238.27 244.38 257.55 
1817 249.18 251.82 257.55 
1818 237.09 250.86 257.55 
1819 250.56 253.39 257.55 
1820 252.33 253.86 257.55 
1821 240.53 255.59 257.55 
1822 234.97 254.58 257.55 
1823 226.72 254.67 257.55 
1824 242.29 255.62 257.55 
1825 241.37 252.65 257.55 
1826 256.07 256.67 257.55 
1827 230.23 256.40 257.55 
1828 252.48 253.23 257.55 
1829 229.07 255.54 257.55 
1830 240.94 254.41 257.55 
1831 220.92 253.83 257.55 
1832 241.86 255.15 257.55 
1833 230.51 253.53 257.55 
1834 239.05 251.59 257.55 
1835 244.96 249.82 257.55 
1836 234.84 250.19 257.55 
1837 254.99 246.39 257.55 
1838 226.96 248.74 257.55 
1839 237.66 249.90 257.55 
1840 233.26 242.83 257.55 
1841 242.88 244.93 257.55 
1842 240.78 243.25 257.55 
1843 228.75 252.67 257.55 
1844 223.49 252.12 257.55 
1845 246.90 248.52 257.55 
1846 237.27 251.02 257.55 
1847 238.94 251.58 257.55 
1848 234.89 250.93 257.55 
1849 232.95 253.02 257.55 
1850 236.01 252.14 257.55 
1851 234.34 250.96 257.55 
1852 236.19 252.83 257.55 
1853 239.77 253.74 257.55 
1854 233.89 249.53 257.55 
1855 245.61 246.80 257.55 
1856 238.28 246.05 257.55 
1857 232.53 241.76 257.55 
1858 233.99 238.17 257.55 
1859 241.84 240.31 257.55 
1860 232.32 240.17 257.55 
1861 245.66 244.41 257.55 
1862 239.57 247.71 257.55 
1863 240.96 245.83 257.55 
1864 233.05 246.00 257.55 
1865 245.75 250.58 257.55 
1866 237.14 248.67 257.55 
1867 246.72 246.59 257.55 
1868 239.96 249.49 257.55 
1869 246.15 244.65 257.55 
1870 237.77 248.75 257.55 
1871 237.38 248.99 257.55 
1872 238.67 247.55 257.55 
1873 249.39 246.17 257.55 
1874 243.60 247.53 257.55 
1875 243.84 251.48 257.55 
1876 230.86 252.11 257.55 
1877 252.21 248.46 257.55 
1878 248.47 249.76 257.55 
1879 238.11 247.67 257.55 
1880 242.26 243.05 257.55 
1881 246.77 252.15 257.55 
1882 241.16 250.18 257.55 
1883 242.82 249.57 257.55 
1884 246.47 247.26 257.55 
1885 240.08 243.97 257.55 
1886 239.18 245.89 257.55 
1887 254.50 242.53 257.55 
1888 236.30 243.91 257.55 
1889 253.53 248.37 257.55 
1890 247.38 244.50 257.55 
1891 245.20 246.33 257.55 
1892 249.25 250.32 257.55 
1893 248.74 252.71 257.55 
1894 250.06 257.33 257.55 
1895 241.88 254.55 257.55 
1896 250.08 257.95 257.55 
1897 243.58 257.12 257.55 
1898 241.13 258.74 257.55 
1899 234.73 255.30 257.55 
1900 236.71 252.86 257.55 
1901 250.23 247.34 257.55 
1902 244.23 246.82 257.55 
1903 242.13 247.89 257.55 
1904 240.02 251.10 257.55 
1905 244.04 252.28 257.55 
1906 241.65 252.07 257.55 
1907 234.51 251.81 257.55 
1908 243.03 244.81 257.55 
1909 241.98 245.03 257.55 
1910 245.26 245.96 257.55 
1911 236.92 243.94 257.55 
1912 243.49 242.92 257.55 
1913 249.97 244.62 257.55 
1914 246.31 241.42 257.55 
1915 242.69 239.61 257.55 
1916 246.24 242.31 257.55 
1917 248.00 237.76 257.55 
1918 239.68 242.21 257.55 
1919 246.93 242.67 257.55 
1920 237.00 248.06 257.55 
1921 236.05 251.21 257.55 
1922 246.32 250.35 257.55 
1923 248.54 248.63 257.55 
1924 251.87 251.00 257.55 
1925 238.34 253.06 257.55 
1926 234.19 252.64 257.55 
1927 247.74 251.91 257.55 
1928 251.11 252.69 257.55 
1929 243.41 254.40 257.55 
1930 245.80 252.25 257.55 
1931 241.01 255.02 257.55 
1932 237.91 253.90 257.55 
1933 244.36 252.83 257.55 
1934 248.84 253.91 257.55 
1935 238.66 252.57 257.55 
1936 226.77 250.70 257.55 
1937 248.22 249.27 257.55 
1938 251.19 250.69 257.55 
1939 257.55 253.96 257.55 
1940 242.80 249.30 257.55 
1941 235.64 249.64 257.55 
1942 252.42 251.92 257.55 
1943 252.39 251.31 257.55 
1944 245.89 254.55 257.55 
1945 233.80 257.02 257.55 
1946 233.69 254.71 257.55 
1947 244.56 251.15 257.55 
1948 240.37 253.24 257.55 
1949 238.91 251.51 257.55 
1950 243.91 252.43 257.55 
1951 236.01 252.85 257.55 
1952 234.32 251.48 257.55 
1953 244.89 252.36 257.55 
1954 247.83 252.56 257.55 
1955 239.18 252.16 257.55 
1956 232.45 254.37 257.55 
1957 249.32 256.32 257.55 
1958 241.69 256.56 257.55 
1959 239.84 254.41 257.55 
1960 249.48 256.28 257.55 
1961 247.20 255.02 257.55 
1962 244.51 255.96 257.55 
1963 238.54 255.33 257.55 
1964 245.61 259.80 257.55 
1965 239.78 254.98 257.55 
1966 241.44 256.71 257.55 
1967 245.41 256.33 257.55 
1968 245.05 261.97 257.55 
1969 245.77 256.15 257.55 
1970 245.87 253.54 257.55 
1971 249.10 252.31 257.55 
1972 245.52 254.90 257.55 
1973 234.13 251.36 257.55 
1974 248.88 250.70 257.55 
1975 248.43 251.34 257.55 
1976 240.36 252.71 257.55 
1977 245.82 248.86 257.55 
1978 236.88 252.01 257.55 
1979 246.92 249.88 257.55 
1980 236.40 251.46 257.55 
1981 241.81 250.59 257.55 
1982 239.41 248.08 257.55 
1983 245.79 249.72 257.55 
1984 255.34 252.75 257.55 
1985 241.55 251.66 257.55 
1986 237.11 251.90 257.55 
1987 235.99 250.10 257.55 
1988 243.82 248.70 257.55 
1989 238.52 232.44 257.55 
1990 253.91 241.25 257.55 
1991 243.63 247.66 257.55 
1992 250.93 251.55 257.55 
1993 236.11 251.53 257.55 
1994 246.34 249.93 257.55 
1995 258.17 250.64 257.55 
1996 249.43 253.26 258.17 
1997 255.88 251.81 258.17 
1998 243.32 247.84 258.17 
1999 250.44 252.97 258.17 
2000 249.69 249.95 258.17 
2001 254.32 249.37 258.17 
2002 253.66 248.84 258.17 
2003 250.16 238.67 258.17 
2004 249.00 231.11 258.17 
2005 242.49 236.78 258.17 
2006 242.38 242.91 258.17 
2007 259.62 243.59 258.17 
2008 242.19 245.45 259.62 
2009 249.26 238.19 259.62 
2010 248.01 237.16 259.62 
2011 248.81 239.00 259.62 
2012 248.60 237.13 259.62 
2013 237.27 233.11 259.62 
2014 253.85 234.91 259.62 
2015 246.07 232.55 259.62 
2016 248.75 231.31 259.62 
2017 248.61 231.97 259.62 
2018 247.06 233.11 259.62 
2019 239.57 238.76 259.62 
2020 245.85 243.39 259.62 
2021 227.91 238.76 259.62 
2022 234.54 235.57 259.62 
2023 245.94 239.50 259.62 
2024 249.36 241.37 259.62 
2025 233.89 240.99 259.62 
2026 243.53 251.93 259.62 
2027 247.64 253.27 259.62 
2028 229.53 251.62 259.62 
2029 236.70 254.11 259.62 
2030 238.87 249.77 259.62 
2031 240.25 253.41 259.62 
2032 239.91 252.24 259.62 
2033 246.42 252.28 259.62 
2034 250.22 254.09 259.62 
2035 248.67 254.16 259.62 
2036 238.16 254.69 259.62 
2037 245.09 256.20 259.62 
2038 232.67 256.32 259.62 
2039 244.58 251.39 259.62 
2040 241.88 255.42 259.62 
2041 239.77 255.20 259.62 
2042 246.14 259.08 259.62 
2043 248.12 256.92 259.62 
2044 250.29 255.44 259.62 
2045 245.90 256.65 259.62 
2046 238.23 256.67 259.62 
2047 257.39 250.92 259.62 
2048 239.45 256.31 259.62 
2049 232.62 256.58 259.62 
2050 229.49 254.97 259.62 
2051 252.50 252.70 259.62 
2052 247.19 255.11 259.62 
2053 234.02 252.57 259.62 
2054 251.78 254.22 259.62 
2055 243.34 250.97 259.62 
2056 242.93 250.92 259.62 
2057 239.72 247.56 259.62 
2058 247.80 252.38 259.62 
2059 250.75 253.97 259.62 
2060 248.52 253.73 259.62 
2061 235.07 250.54 259.62 
2062 243.65 246.21 259.62 
2063 250.95 247.74 259.62 
2064 234.28 249.56 259.62 
2065 234.46 251.90 259.62 
2066 243.10 255.55 259.62 
2067 242.59 256.02 259.62 
2068 244.65 255.95 259.62 
2069 240.33 252.01 259.62 
2070 253.42 251.98 259.62 
2071 234.75 252.07 259.62 
2072 247.99 246.58 259.62 
2073 243.77 245.35 259.62 
2074 240.97 235.54 259.62 
2075 246.81 243.74 259.62 
2076 244.98 252.01 259.62 
2077 244.45 255.17 259.62 
2078 252.32 253.88 259.62 
2079 241.52 254.63 259.62 
2080 238.59 254.70 259.62 
2081 251.22 256.57 259.62 
2082 232.47 254.38 259.62 
2083 243.72 250.22 259.62 
2084 245.74 246.68 259.62 
2085 234.21 247.28 259.62 
2086 246.10 242.99 259.62 
2087 262.10 240.18 259.62 
2088 250.10 238.59 262.10 
2089 251.56 236.97 262.10 
2090 250.65 234.05 262.10 
2091 266.12 228.70 262.10 
2092 248.93 228.85 266.12 
2093 246.62 228.47 266.12 
2094 256.92 232.76 266.12 
2095 238.24 236.06 266.12 
2096 248.61 237.06 266.12 
2097 250.90 236.60 266.12 
2098 230.63 239.87 266.12 
2099 249.49 238.13 266.12 
2100 239.40 237.69 266.12 
2101 252.45 235.65 266.12 
2102 243.80 238.44 266.12 
2103 237.29 236.34 266.12 
2104 246.71 235.87 266.12 
2105 232.70 237.44 266.12 
2106 238.30 238.77 266.12 
2107 244.23 239.97 266.12 
2108 247.44 237.93 266.12 
2109 259.01 236.87 266.12 
2110 254.47 240.17 266.12 
2111 258.74 244.58 266.12 
2112 240.39 241.79 266.12 
2113 242.85 236.30 266.12 
2114 245.01 236.91 266.12 
2115 244.17 236.36 266.12 
2116 245.51 238.70 266.12 
2117 236.97 242.43 266.12 
2118 241.00 245.11 266.12 
2119 252.57 250.24 266.12 
2120 245.56 250.58 266.12 
2121 253.05 249.24 266.12 
2122 242.74 245.30 266.12 
2123 248.99 244.71 266.12 
2124 260.33 241.06 266.12 
2125 261.13 242.30 266.12 
2126 242.17 245.32 266.12 
2127 252.44 247.68 266.12 
2128 237.69 246.83 266.12 
2129 247.49 244.69 266.12 
2130 249.42 244.54 266.12 
2131 251.02 242.69 266.12 
2132 252.02 240.78 266.12 
2133 243.12 240.49 266.12 
2134 233.14 243.13 266.12 
2135 245.33 244.24 266.12 
2136 234.55 243.06 266.12 
2137 246.08 238.70 266.12 
2138 244.05 241.96 266.12 
2139 256.57 242.30 266.12 
2140 235.21 242.46 266.12 
2141 246.89 239.96 266.12 
2142 236.17 240.43 266.12 
2143 239.33 240.19 266.12 
2144 247.98 242.39 266.12 
2145 257.83 239.53 266.12 
2146 250.67 237.72 266.12 
2147 244.98 242.30 266.12 
2148 249.00 242.70 266.12 
2149 255.98 244.66 266.12 
2150 229.31 244.99 266.12 
2151 242.91 243.17 266.12 
2152 250.91 243.16 266.12 
2153 253.51 241.67 266.12 
2154 238.48 242.59 266.12 
2155 261.61 242.15 266.12 
2156 248.41 242.72 266.12 
2157 253.45 244.04 266.12 
2158 257.46 241.18 266.12 
2159 251.91 243.83 266.12 
2160 248.78 245.59 266.12 
2161 231.65 244.95 266.12 
2162 231.97 243.30 266.12 
2163 232.19 246.03 266.12 
2164 244.16 246.66 266.12 
2165 250.23 246.03 266.12 
2166 239.96 245.81 266.12 
2167 239.48 243.99 266.12 
2168 252.52 243.61 266.12 
2169 244.78 243.31 266.12 
2170 248.10 241.03 266.12 
2171 243.14 242.87 266.12 
2172 246.21 244.86 266.12 
2173 257.25 245.52 266.12 
2174 236.18 246.28 266.12 
2175 243.55 248.45 266.12 
2176 251.22 247.18 266.12 
2177 246.16 248.79 266.12 
2178 240.68 247.32 266.12 
2179 247.31 248.42 266.12 
2180 260.91 245.31 266.12 
2181 247.62 243.43 266.12 
2182 236.89 241.89 266.12 
2183 243.15 241.47 266.12 
2184 258.72 242.89 266.12 
2185 252.87 245.82 266.12 
2186 247.79 245.89 266.12 
2187 247.05 243.86 266.12 
2188 251.74 241.51 266.12 
2189 247.14 241.58 266.12 
2190 245.83 245.61 266.12 
2191 252.75 244.65 266.12 
2192 257.21 246.81 266.12 
2193 250.72 245.68 266.12 
2194 241.86 246.98 266.12 
2195 245.31 244.63 266.12 
2196 239.71 246.83 266.12 
2197 258.83 246.55 266.12 
2198 247.77 248.13 266.12 
2199 250.56 247.81 266.12 
2200 243.54 247.47 266.12 
2201 253.78 243.08 266.12 
2202 236.74 246.38 266.12 
2203 242.18 247.51 266.12 
2204 248.92 247.14 266.12 
2205 240.80 241.04 266.12 
2206 235.29 242.03 266.12 
2207 249.80 238.08 266.12 
2208 258.92 241.77 266.12 
2209 238.16 244.90 266.12 
2210 251.69 243.82 266.12 
2211 238.79 242.96 266.12 
2212 250.83 244.42 266.12 
2213 245.36 242.47 266.12 
2214 248.52 242.55 266.12 
2215 256.01 241.81 266.12 
2216 253.10 239.48 266.12 
2217 248.94 240.76 266.12 
2218 248.30 241.72 266.12 
2219 242.48 239.53 266.12 
2220 241.66 239.89 266.12 
2221 243.12 242.24 266.12 
2222 242.46 243.79 266.12 
2223 241.12 246.37 266.12 
2224 242.94 247.12 266.12 
2225 242.87 247.63 266.12 
2226 233.64 246.69 266.12 
2227 242.16 244.47 266.12 
2228 239.88 242.04 266.12 
2229 259.55 235.34 266.12 
2230 242.69 238.79 266.12 
2231 230.48 239.24 266.12 
2232 237.12 235.19 266.12 
2233 251.82 237.33 266.12 
2234 251.01 240.73 266.12 
2235 242.51 236.16 266.12 
2236 231.67 232.65 266.12 
2237 243.17 230.25 266.12 
2238 252.36 233.11 266.12 
2239 253.42 235.09 266.12 
2240 241.76 228.03 266.12 
2241 253.93 224.51 266.12 
2242 246.43 227.49 266.12 
2243 240.72 217.55 266.12 
2244 244.57 215.48 266.12 
2245 250.96 218.61 266.12 
2246 250.58 222.23 266.12 
2247 247.60 218.46 266.12 
2248 247.74 217.13 266.12 
2249 244.70 229.60 266.12 
2250 248.30 221.56 266.12 
2251 234.90 226.54 266.12 
2252 247.44 228.67 266.12 
2253 255.73 217.67 266.12 
2254 256.16 215.66 266.12 
2255 244.89 218.07 266.12 
2256 246.22 220.00 266.12 
2257 244.12 223.96 266.12 
2258 243.12 227.16 266.12 
2259 249.75 231.36 266.12 
2260 243.92 233.95 266.12 
2261 256.78 227.59 266.12 
2262 245.08 224.00 266.12 
2263 239.89 224.38 266.12 
2264 249.22 212.94 266.12 
2265 248.86 205.98 266.12 
2266 249.29 201.74 266.12 
2267 259.11 215.54 266.12 
2268 245.03 221.87 266.12 
2269 257.08 224.19 266.12 
2270 244.03 229.66 266.12 
2271 246.47 229.92 266.12 
2272 246.68 223.35 266.12 
2273 242.28 210.83 266.12 
2274 242.73 211.52 266.12 
2275 242.61 207.68 266.12 
2276 252.96 204.18 266.12 
2277 242.74 204.86 266.12 
2278 250.72 210.37 266.12 
2279 254.23 219.84 266.12 
2280 257.53 217.49 266.12 
2281 250.62 220.97 266.12 
2282 252.14 214.88 266.12 
2283 249.03 221.10 266.12 
2284 252.93 221.07 266.12 
2285 250.33 221.01 266.12 
2286 248.20 222.96 266.12 
2287 250.09 227.07 266.12 
2288 261.88 230.72 266.12 
2289 234.76 230.54 266.12 
2290 238.05 230.51 266.12 
2291 243.77 237.02 266.12 
2292 250.91 239.34 266.12 
2293 252.04 243.78 266.12 
2294 242.40 244.20 266.12 
2295 260.62 243.81 266.12 
2296 245.41 245.17 266.12 
2297 252.12 247.47 266.12 
2298 243.17 246.12 266.12 
2299 247.75 246.99 266.12 
2300 249.87 249.10 266.12 
2301 245.15 248.98 266.12 
2302 251.16 249.92 266.12 
2303 253.91 250.35 266.12 
2304 250.07 248.08 266.12 
2305 249.19 249.69 266.12 
2306 252.19 250.89 266.12 
2307 262.57 250.85 266.12 
2308 262.30 254.66 266.12 
2309 238.89 251.53 266.12 
2310 251.63 252.42 266.12 
2311 233.93 246.21 266.12 
2312 240.30 248.54 266.12 
2313 250.41 248.10 266.12 
2314 246.38 244.75 266.12 
2315 250.79 245.12 266.12 
2316 234.14 245.59 266.12 
2317 260.24 243.31 266.12 
2318 250.95 241.18 266.12 
2319 250.05 243.44 266.12 
2320 233.69 247.04 266.12 
2321 240.30 247.74 266.12 
2322 252.38 248.25 266.12 
2323 252.03 246.35 266.12 
2324 238.99 248.89 266.12 
2325 251.27 249.70 266.12 
2326 254.55 251.73 266.12 
2327 262.73 247.77 266.12 
2328 254.85 250.79 266.12 
2329 243.29 250.60 266.12 
2330 244.48 249.42 266.12 
2331 251.97 251.38 266.12 
2332 249.99 250.62 266.12 
2333 239.26 250.54 266.12 
2334 253.81 251.35 266.12 
2335 240.32 252.20 266.12 
2336 247.79 251.07 266.12 
2337 249.26 248.08 266.12 
2338 257.22 251.51 266.12 
2339 246.63 252.09 266.12 
2340 257.51 252.44 266.12 
2341 248.45 253.74 266.12 
2342 250.84 252.01 266.12 
2343 245.81 253.65 266.12 
2344 248.57 255.17 266.12 
2345 251.23 253.56 266.12 
2346 236.08 252.70 266.12 
2347 246.71 250.40 266.12 
2348 253.40 248.54 266.12 
2349 230.78 250.22 266.12 
2350 252.66 252.59 266.12 
2351 244.17 250.74 266.12 
2352 255.76 244.38 266.12 
2353 252.94 247.68 266.12 
2354 264.14 249.94 266.12 
2355 251.68 242.21 266.12 
2356 242.97 243.64 266.12 
2357 259.46 241.27 266.12 
2358 242.01 240.95 266.12 
2359 246.72 240.50 266.12 
2360 258.36 243.22 266.12 
2361 253.71 242.48 266.12 
2362 258.05 240.75 266.12 
2363 249.18 239.99 266.12 
2364 246.54 237.15 266.12 
2365 253.33 235.88 266.12 
2366 260.73 226.60 266.12 
2367 256.50 223.97 266.12 
2368 246.77 222.30 266.12 
2369 259.19 223.04 266.12 
2370 255.37 222.68 266.12 
2371 239.40 222.58 266.12 
2372 254.21 210.50 266.12 
2373 250.56 203.25 266.12 
2374 257.94 212.74 266.12 
2375 250.34 211.11 266.12 
2376 250.18 222.16 266.12 
2377 244.27 224.58 266.12 
2378 263.00 223.34 266.12 
2379 258.92 227.09 266.12 
2380 249.29 228.79 266.12 
2381 257.70 227.36 266.12 
2382 260.91 228.77 266.12 
2383 240.11 230.90 266.12 
2384 246.80 230.25 266.12 
2385 241.70 230.99 266.12 
2386 255.74 228.11 266.12 
2387 254.29 234.58 266.12 
2388 255.53 234.52 266.12 
2389 252.51 236.53 266.12 
2390 241.91 237.41 266.12 
2391 240.04 237.65 266.12 
2392 257.80 232.92 266.12 
2393 255.75 235.32 266.12 
2394 254.75 238.82 266.12 
2395 252.96 244.35 266.12 
2396 254.74 241.54 266.12 
2397 252.03 241.08 266.12 
2398 251.04 236.62 266.12 
2399 234.43 240.22 266.12 
2400 257.22 238.13 266.12 
2401 248.41 236.63 266.12 
2402 261.50 235.24 266.12 
2403 244.54 233.21 266.12 
2404 258.22 228.95 266.12 
2405 256.73 225.13 266.12 
2406 259.00 230.13 266.12 
2407 251.83 225.36 266.12 
2408 249.91 236.00 266.12 
2409 247.49 238.87 266.12 
2410 244.72 241.75 266.12 
2411 244.58 243.19 266.12 
2412 251.51 243.80 266.12 
2413 247.65 242.55 266.12 
2414 248.88 242.91 266.12 
2415 242.16 245.03 266.12 
2416 263.78 243.18 266.12 
2417 256.23 243.05 266.12 
2418 257.20 240.97 266.12 
2419 259.91 244.47 266.12 
2420 255.58 244.89 266.12 
2421 252.50 238.50 266.12 
2422 256.96 231.77 266.12 
2423 254.29 230.40 266.12 
2424 248.50 225.28 266.12 
2425 254.47 227.28 266.12 
2426 257.89 223.64 266.12 
2427 250.05 215.31 266.12 
2428 243.66 208.69 266.12 
2429 249.77 211.49 266.12 
2430 255.74 204.30 266.12 
2431 258.23 204.82 266.12 
2432 253.70 202.26 266.12 
2433 256.86 203.21 266.12 
2434 253.24 202.03 266.12 
2435 252.76 201.58 266.12 
2436 244.97 207.05 266.12 
2437 252.51 204.97 266.12 
2438 255.80 210.28 266.12 
2439 254.26 210.78 266.12 
2440 253.33 204.27 266.12 
2441 263.95 210.93 266.12 
2442 261.33 213.78 266.12 
2443 264.95 217.79 266.12 
2444 261.14 219.57 266.12 
2445 255.77 216.55 266.12 
2446 247.30 210.99 266.12 
2447 248.27 212.30 266.12 
2448 241.89 215.18 266.12 
2449 243.52 212.66 266.12 
2450 246.74 219.39 266.12 
2451 250.74 214.71 266.12 
2452 240.09 213.16 266.12 
2453 254.73 219.18 266.12 
2454 244.99 223.70 266.12 
2455 255.67 222.57 266.12 
2456 257.92 221.90 266.12 
2457 256.42 220.98 266.12 
2458 258.38 227.51 266.12 
2459 249.26 225.61 266.12 
2460 252.07 223.53 266.12 
2461 262.62 218.63 266.12 
2462 247.74 210.59 266.12 
2463 256.44 210.90 266.12 
2464 243.71 211.28 266.12 
2465 245.84 209.28 266.12 
2466 254.91 211.87 266.12 
2467 242.26 220.06 266.12 
2468 248.52 231.22 266.12 
2469 245.65 228.61 266.12 
2470 236.36 225.77 266.12 
2471 247.00 226.54 266.12 
2472 256.38 229.71 266.12 
2473 248.36 235.50 266.12 
2474 256.24 234.31 266.12 
2475 263.09 234.39 266.12 
2476 261.23 239.46 266.12 
2477 250.97 244.91 266.12 
2478 240.20 241.82 266.12 
2479 256.04 235.41 266.12 
2480 255.28 239.68 266.12 
2481 250.48 241.32 266.12 
2482 254.79 240.84 266.12 
2483 248.58 243.12 266.12 
2484 251.88 247.78 266.12 
2485 251.95 244.57 266.12 
2486 248.07 246.08 266.12 
2487 251.84 245.27 266.12 
2488 249.63 244.37 266.12 
2489 248.25 243.93 266.12 
2490 253.18 244.95 266.12 
2491 252.27 245.34 266.12 
2492 261.53 247.57 266.12 
2493 254.45 248.01 266.12 
2494 255.60 249.19 266.12 
2495 246.71 249.60 266.12 
2496 258.69 250.04 266.12 
2497 244.50 251.07 266.12 
2498 264.30 244.65 266.12 
2499 253.51 249.16 266.12 
2500 265.64 246.13 266.12 
2501 261.90 246.27 266.12 
2502 251.45 246.89 266.12 
2503 262.01 249.33 266.12 
2504 251.29 248.52 266.12 
2505 261.77 251.15 266.12 
2506 262.96 251.41 266.12 
2507 267.12 248.89 266.12 
2508 259.59 247.43 267.12 
2509 259.96 247.16 267.12 
2510 251.58 248.73 267.12 
2511 261.27 250.47 267.12 
2512 255.72 249.18 267.12 
2513 255.37 253.91 267.12 
2514 254.91 252.95 267.12 
2515 253.79 251.98 267.12 
2516 267.70 248.90 267.12 
2517 256.16 248.22 267.70 
2518 256.62 251.04 267.70 
2519 247.62 249.00 267.70 
2520 242.45 248.39 267.70 
2521 258.33 248.99 267.70 
2522 261.02 244.29 267.70 
2523 263.82 245.91 267.70 
2524 258.49 248.18 267.70 
2525 245.27 247.06 267.70 
2526 253.13 247.68 267.70 
2527 247.85 245.51 267.70 
2528 245.23 247.55 267.70 
2529 252.51 244.04 267.70 
2530 257.86 244.34 267.70 
2531 250.66 248.34 267.70 
2532 257.43 248.16 267.70 
2533 259.08 251.55 267.70 
2534 253.37 252.95 267.70 
2535 240.72 255.00 267.70 
2536 252.05 255.99 267.70 
2537 241.88 254.03 267.70 
2538 254.45 253.23 267.70 
2539 256.50 256.35 267.70 
2540 251.19 256.82 267.70 
2541 257.33 257.60 267.70 
2542 244.29 257.59 267.70 
2543 252.00 257.89 267.70 
2544 250.34 258.64 267.70 
2545 251.79 257.80 267.70 
2546 251.88 256.25 267.70 
2547 253.06 257.18 267.70 
2548 246.77 258.27 267.70 
2549 253.28 257.80 267.70 
2550 250.56 261.65 267.70 
2551 255.37 262.38 267.70 
2552 255.18 258.40 267.70 
2553 256.65 261.90 267.70 
2554 243.33 261.09 267.70 
2555 245.65 260.06 267.70 
2556 251.21 261.02 267.70 
2557 250.22 261.06 267.70 
2558 254.28 261.32 267.70 
2559 249.82 261.37 267.70 
2560 248.33 259.78 267.70 
2561 237.44 258.33 267.70 
2562 245.50 256.12 267.70 
2563 252.37 253.19 267.70 
2564 250.59 249.10 267.70 
2565 240.64 247.84 267.70 
2566 245.07 246.01 267.70 
2567 245.29 246.17 267.70 
2568 252.47 246.79 267.70 
2569 253.06 249.93 267.70 
2570 252.88 251.40 267.70 
2571 259.94 250.20 267.70 
2572 246.23 242.93 267.70 
2573 253.82 243.78 267.70 
2574 247.56 246.36 267.70 
2575 244.47 244.12 267.70 
2576 253.60 243.53 267.70 
2577 251.88 237.20 267.70 
2578 254.81 239.55 267.70 
2579 246.56 243.32 267.70 
2580 258.39 244.81 267.70 
2581 255.62 247.42 267.70 
2582 253.66 248.72 267.70 
2583 252.48 251.41 267.70 
2584 250.23 251.69 267.70 
2585 257.66 252.15 267.70 
2586 253.55 251.07 267.70 
2587 237.03 252.23 267.70 
2588 252.14 250.84 267.70 
2589 253.88 251.01 267.70 
2590 263.25 248.90 267.70 
2591 237.65 248.87 267.70 
2592 254.72 246.81 267.70 
2593 256.30 247.77 267.70 
2594 251.05 248.01 267.70 
2595 254.22 243.45 267.70 
2596 256.21 242.20 267.70 
2597 257.49 245.55 267.70 
2598 257.98 246.11 267.70 
2599 265.65 240.81 267.70 
2600 246.44 233.49 267.70 
2601 252.90 235.39 267.70 
2602 259.36 247.03 267.70 
2603 255.98 244.50 267.70 
2604 249.78 244.74 267.70 
2605 250.73 246.23 267.70 
2606 257.13 243.35 267.70 
2607 245.08 239.04 267.70 
2608 255.96 238.12 267.70 
2609 260.38 240.29 267.70 
2610 262.50 237.26 267.70 
2611 254.97 249.05 267.70 
2612 259.36 251.23 267.70 
2613 254.93 254.11 267.70 
2614 254.67 249.69 267.70 
2615 253.11 248.75 267.70 
2616 248.86 249.63 267.70 
2617 263.84 249.64 267.70 
2618 248.72 250.49 267.70 
2619 257.87 248.94 267.70 
2620 239.91 243.98 267.70 
2621 262.69 245.08 267.70 
2622 256.11 250.64 267.70 
2623 242.92 250.56 267.70 
2624 250.33 246.44 267.70 
2625 244.03 249.56 267.70 
2626 261.27 247.97 267.70 
2627 251.20 248.41 267.70 
2628 257.34 249.21 267.70 
2629 248.56 248.68 267.70 
2630 249.55 245.47 267.70 
2631 250.24 245.82 267.70 
2632 237.50 244.34 267.70 
2633 252.07 242.72 267.70 
2634 241.01 242.36 267.70 
2635 261.38 242.37 267.70 
2636 250.70 240.44 267.70 
2637 254.96 240.43 267.70 
2638 261.11 241.45 267.70 
2639 250.23 243.78 267.70 
2640 250.26 242.35 267.70 
2641 264.37 244.29 267.70 
2642 258.46 244.32 267.70 
2643 248.00 246.05 267.70 
2644 255.59 246.58 267.70 
2645 255.88 242.97 267.70 
2646 249.87 240.57 267.70 
2647 244.19 240.19 267.70 
2648 262.48 237.05 267.70 
2649 259.64 234.12 267.70 
2650 244.75 231.46 267.70 
2651 246.76 234.42 267.70 
2652 252.65 231.91 267.70 
2653 249.58 234.11 267.70 
2654 257.57 225.28 267.70 
2655 260.21 226.29 267.70 
2656 261.39 231.37 267.70 
2657 257.83 227.79 267.70 
2658 243.44 229.18 267.70 
2659 260.54 228.25 267.70 
2660 258.96 228.77 267.70 
2661 257.40 234.06 267.70 
2662 258.62 234.23 267.70 
2663 259.35 232.13 267.70 
2664 262.06 232.01 267.70 
2665 246.68 229.22 267.70 
2666 257.64 233.06 267.70 
2667 259.87 233.93 267.70 
2668 258.12 231.79 267.70 
2669 246.25 232.07 267.70 
2670 254.89 234.39 267.70 
2671 257.41 232.94 267.70 
2672 255.58 232.87 267.70 
2673 242.10 235.75 267.70 
2674 255.60 234.94 267.70 
2675 238.82 234.29 267.70 
2676 243.83 231.54 267.70 
2677 255.33 227.34 267.70 
2678 267.19 231.72 267.70 
2679 258.70 229.39 267.70 
2680 256.50 224.27 267.70 
2681 251.63 219.96 267.70 
2682 247.48 221.74 267.70 
2683 251.21 224.14 267.70 
2684 250.68 224.99 267.70 
2685 249.38 217.26 267.70 
2686 260.32 220.39 267.70 
2687 261.14 227.05 267.70 
2688 248.75 221.54 267.70 
2689 248.68 224.46 267.70 
2690 255.74 225.12 267.70 
2691 260.28 228.63 267.70 
2692 265.17 228.63 267.70 
2693 260.92 231.87 267.70 
2694 262.73 233.70 267.70 
2695 255.45 234.63 267.70 
2696 252.59 231.77 267.70 
2697 259.27 229.96 267.70 
2698 241.91 223.27 267.70 
2699 261.72 226.67 267.70 
2700 243.11 225.29 267.70 
2701 260.30 219.75 267.70 
2702 253.85 222.25 267.70 
2703 248.73 220.14 267.70 
2704 265.73 221.38 267.70 
2705 250.74 217.21 267.70 
2706 258.99 225.41 267.70 
2707 252.28 227.20 267.70 
2708 262.96 226.54 267.70 
2709 249.88 230.99 267.70 
2710 261.99 223.65 267.70 
2711 249.00 225.62 267.70 
2712 238.44 233.32 267.70 
2713 243.57 237.62 267.70 
2714 258.64 235.67 267.70 
2715 255.43 237.39 267.70 
2716 259.49 242.01 267.70 
2717 261.66 237.96 267.70 
2718 262.95 239.20 267.70 
2719 255.43 241.16 267.70 
2720 249.18 239.10 267.70 
2721 252.86 237.84 267.70 
2722 260.17 237.92 267.70 
2723 251.21 239.20 267.70 
2724 253.14 234.91 267.70 
2725 247.05 229.86 267.70 
2726 242.01 223.01 267.70 
2727 250.73 209.11 267.70 
2728 261.48 213.98 267.70 
2729 250.00 215.82 267.70 
2730 256.89 203.23 267.70 
2731 252.63 217.20 267.70 
2732 257.51 220.59 267.70 
2733 248.61 219.94 267.70 
2734 246.67 220.09 267.70 
2735 261.65 225.64 267.70 
2736 257.03 224.74 267.70 
2737 235.79 224.88 267.70 
2738 256.95 225.82 267.70 
2739 249.40 226.80 267.70 
2740 254.27 227.49 267.70 
2741 229.38 227.08 267.70 
2742 254.90 226.92 267.70 
2743 247.28 226.81 267.70 
2744 248.08 230.81 267.70 
2745 246.32 222.73 267.70 
2746 251.51 227.35 267.70 
2747 260.87 220.80 267.70 
2748 246.68 224.14 267.70 
2749 250.06 219.90 267.70 
2750 248.42 220.90 267.70 
2751 246.34 229.57 267.70 
2752 250.35 225.66 267.70 
2753 254.17 222.87 267.70 
2754 252.13 225.75 267.70 
2755 236.49 220.34 267.70 
2756 244.50 228.96 267.70 
2757 249.98 227.41 267.70 
2758 243.18 230.90 267.70 
2759 244.14 229.11 267.70 
2760 258.12 228.04 267.70 
2761 265.43 234.22 267.70 
2762 262.41 237.99 267.70 
2763 265.60 243.54 267.70 
2764 246.79 241.40 267.70 
2765 263.35 245.81 267.70 
2766 250.33 247.31 267.70 
2767 252.84 240.77 267.70 
2768 257.23 239.19 267.70 
2769 263.55 244.51 267.70 
2770 262.44 237.30 267.70 
2771 258.71 240.89 267.70 
2772 265.19 246.26 267.70 
2773 257.92 241.09 267.70 
2774 259.89 245.98 267.70 
2775 241.00 240.37 267.70 
2776 248.31 238.79 267.70 
2777 260.70 240.66 267.70 
2778 259.52 238.57 267.70 
2779 254.00 237.27 267.70 
2780 254.57 240.38 267.70 
2781 270.90 246.71 267.70 
2782 252.52 245.16 270.90 
2783 252.64 241.25 270.90 
2784 265.79 236.80 270.90 
2785 253.56 242.99 270.90 
2786 254.59 238.86 270.90 
2787 249.97 240.77 270.90 
2788 265.69 240.06 270.90 
2789 245.36 239.06 270.90 
2790 249.43 242.58 270.90 
2791 263.41 236.71 270.90 
2792 258.04 235.96 270.90 
2793 261.20 236.15 270.90 
2794 245.50 235.21 270.90 
2795 260.41 237.45 270.90 
2796 257.81 236.00 270.90 
2797 251.41 237.78 270.90 
2798 250.37 241.64 270.90 
2799 252.61 248.31 270.90 
2800 251.51 250.04 270.90 
2801 254.73 252.77 270.90 
2802 248.41 249.44 270.90 
2803 266.15 252.85 270.90 
2804 253.92 253.91 270.90 
2805 251.96 250.31 270.90 
2806 253.30 249.52 270.90 
2807 256.64 251.23 270.90 
2808 252.07 251.59 270.90 
2809 257.55 254.47 270.90 
2810 253.22 256.30 270.90 
2811 251.48 250.94 270.90 
2812 247.19 248.86 270.90 
2813 257.62 249.90 270.90 
2814 247.88 248.97 270.90 
2815 259.96 247.73 270.90 
2816 255.43 244.15 270.90 
2817 264.12 239.33 270.90 
2818 250.63 239.10 270.90 
2819 265.72 244.36 270.90 
2820 253.17 239.45 270.90 
2821 257.24 235.95 270.90 
2822 250.30 234.23 270.90 
2823 259.75 232.77 270.90 
2824 258.43 235.95 270.90 
2825 241.17 228.06 270.90 
2826 254.65 230.24 270.90 
2827 257.56 232.23 270.90 
2828 266.11 231.07 270.90 
2829 252.15 235.70 270.90 
2830 251.73 232.79 270.90 
2831 250.95 235.77 270.90 
2832 253.09 235.09 270.90 
2833 262.02 241.77 270.90 
2834 264.07 244.20 270.90 
2835 256.28 246.00 270.90 
2836 259.37 245.69 270.90 
2837 264.17 243.16 270.90 
2838 264.09 235.15 270.90 
2839 250.00 237.73 270.90 
2840 267.87 251.33 270.90 
2841 266.59 255.06 270.90 
2842 257.96 251.58 270.90 
2843 254.86 256.49 270.90 
2844 252.81 255.48 270.90 
2845 260.46 255.66 270.90 
2846 245.22 256.71 270.90 
2847 255.18 257.86 270.90 
2848 256.49 252.68 270.90 
2849 246.06 254.96 270.90 
2850 260.90 255.52 270.90 
2851 246.23 259.28 270.90 
2852 265.38 259.17 270.90 
2853 256.19 266.88 270.90 
2854 246.06 267.42 270.90 
2855 259.43 260.37 270.90 
2856 262.44 259.15 270.90 
2857 248.48 258.61 270.90 
2858 248.57 264.38 270.90 
2859 244.05 256.97 270.90 
2860 259.54 258.83 270.90 
2861 245.69 260.38 270.90 
2862 263.15 261.14 270.90 
2863 254.87 261.10 270.90 
2864 257.94 260.75 270.90 
2865 268.82 261.07 270.90 
2866 252.92 260.41 270.90 
2867 265.02 260.70 270.90 
2868 272.85 255.65 270.90 
2869 244.59 254.32 272.85 
2870 257.08 257.99 272.85 
2871 267.32 254.19 272.85 
2872 264.59 248.32 272.85 
2873 251.79 250.16 272.85 
2874 267.54 247.15 272.85 
2875 262.57 249.88 272.85 
2876 251.70 252.05 272.85 
2877 252.68 243.57 272.85 
2878 259.70 242.02 272.85 
2879 253.84 238.45 272.85 
2880 265.40 230.84 272.85 
2881 258.11 234.08 272.85 
2882 265.65 239.82 272.85 
2883 252.11 245.31 272.85 
2884 262.36 248.39 272.85 
2885 251.84 239.30 272.85 
2886 264.71 234.20 272.85 
2887 258.14 235.82 272.85 
2888 258.93 240.12 272.85 
2889 256.51 239.64 272.85 
2890 269.17 239.65 272.85 
2891 257.24 242.40 272.85 
2892 262.59 241.50 272.85 
2893 262.96 237.55 272.85 
2894 255.29 241.32 272.85 
2895 264.53 239.29 272.85 
2896 271.95 244.13 272.85 
2897 261.99 243.93 272.85 
2898 250.84 245.43 272.85 
2899 246.41 242.72 272.85 
2900 264.18 244.54 272.85 
2901 265.48 248.15 272.85 
2902 263.16 239.93 272.85 
2903 270.00 248.48 272.85 
2904 255.72 246.62 272.85 
2905 252.09 250.20 272.85 
2906 262.85 244.09 272.85 
2907 247.47 243.08 272.85 
2908 258.74 238.43 272.85 
2909 256.26 249.45 272.85 
2910 266.86 247.39 272.85 
2911 255.92 250.97 272.85 
2912 256.47 245.37 272.85 
2913 256.59 248.85 272.85 
2914 246.96 249.34 272.85 
2915 257.75 250.27 272.85 
2916 258.53 253.36 272.85 
2917 261.56 251.08 272.85 
2918 252.27 249.76 272.85 
2919 255.78 250.48 272.85 
2920 257.42 251.98 272.85 
2921 254.83 250.55 272.85 
2922 259.10 250.30 272.85 
2923 266.17 251.68 272.85 
2924 257.45 255.25 272.85 
2925 258.96 254.78 272.85 
2926 260.17 251.99 272.85 
2927 248.13 258.02 272.85 
2928 258.72 259.29 272.85 
2929 263.55 259.37 272.85 
2930 254.63 257.79 272.85 
2931 268.18 257.26 272.85 
2932 250.51 255.85 272.85 
2933 251.35 258.55 272.85 
2934 260.01 262.22 272.85 
2935 263.23 263.20 272.85 
2936 252.80 262.24 272.85 
2937 260.77 260.64 272.85 
2938 263.74 261.64 272.85 
2939 260.04 260.26 272.85 
2940 260.86 260.69 272.85 
2941 259.78 258.96 272.85 
2942 256.27 253.55 272.85 
2943 261.74 256.92 272.85 
2944 265.77 256.70 272.85 
2945 256.11 256.76 272.85 
2946 256.90 252.77 272.85 
2947 253.35 255.49 272.85 
2948 261.70 254.53 272.85 
2949 262.84 252.48 272.85 
2950 253.70 250.46 272.85 
2951 258.41 251.55 272.85 
2952 260.07 242.79 272.85 
2953 261.59 233.38 272.85 
2954 256.12 231.14 272.85 
2955 258.08 231.21 272.85 
2956 257.52 230.11 272.85 
2957 260.93 231.19 272.85 
2958 265.97 235.49 272.85 
2959 256.83 241.11 272.85 
2960 255.46 234.83 272.85 
2961 262.30 233.54 272.85 
2962 265.47 235.83 272.85 
2963 260.06 242.56 272.85 
2964 270.67 247.91 272.85 
2965 246.20 253.39 272.85 
2966 261.48 245.96 272.85 
2967 258.67 250.97 272.85 
2968 251.60 251.56 272.85 
2969 261.94 252.73 272.85 
2970 255.09 252.60 272.85 
2971 258.04 252.39 272.85 
2972 265.55 256.47 272.85 
2973 270.39 258.33 272.85 
2974 269.31 259.58 272.85 
2975 266.27 257.29 272.85 
2976 266.48 253.42 272.85 
2977 253.59 255.70 272.85 
2978 256.85 255.50 272.85 
2979 249.67 249.90 272.85 
2980 259.21 248.68 272.85 
2981 259.84 247.38 272.85 
2982 263.76 242.93 272.85 
2983 265.29 247.18 272.85 
2984 260.44 243.99 272.85 
2985 244.12 255.67 272.85 
2986 260.39 247.62 272.85 
2987 260.90 262.71 272.85 
2988 260.87 261.34 272.85 
2989 256.77 262.92 272.85 
2990 252.71 253.15 272.85 
2991 247.11 255.42 272.85 
2992 263.61 257.08 272.85 
2993 264.71 257.87 272.85 
2994 254.76 252.38 272.85 
2995 262.60 253.73 272.85 
2996 260.10 257.82 272.85 
2997 252.24 256.45 272.85 
2998 255.47 253.61 272.85 
2999 250.63 256.26 272.85 
3000 262.89 260.09 272.85 
3001 267.31 261.32 272.85 
3002 256.04 269.14 272.85 
3003 260.54 271.22 272.85 
3004 262.76 270.38 272.85 
3005 260.69 269.82 272.85 
3006 265.44 269.41 272.85 
3007 262.75 271.21 272.85 
3008 258.35 267.33 272.85 
3009 258.81 264.74 272.85 
3010 252.30 268.74 272.85 
3011 257.30 265.10 272.85 
3012 262.58 263.55 272.85 
3013 261.46 258.18 272.85 
3014 266.86 258.53 272.85 
3015 254.79 259.27 272.85 
3016 260.04 260.05 272.85 
3017 254.17 259.12 272.85 
3018 264.36 260.91 272.85 
3019 258.76 258.96 272.85 
3020 263.59 256.60 272.85 
3021 266.95 264.97 272.85 
3022 263.26 257.55 272.85 
3023 251.16 257.64 272.85 
3024 266.26 259.82 272.85 
3025 263.34 259.73 272.85 
3026 258.23 256.59 272.85 
3027 259.21 259.32 272.85 
3028 257.50 264.56 272.85 
3029 266.38 261.56 272.85 
3030 260.28 258.64 272.85 
3031 265.64 260.68 272.85 
3032 263.96 260.37 272.85 
3033 255.45 258.97 272.85 
3034 253.40 259.10 272.85 
3035 257.00 258.11 272.85 
3036 258.71 256.73 272.85 
3037 254.39 254.43 272.85 
3038 264.57 259.94 272.85 
3039 256.64 255.72 272.85 
3040 257.84 253.74 272.85 
3041 262.57 254.43 272.85 
3042 248.56 255.07 272.85 
3043 271.91 259.86 272.85 
3044 263.32 258.53 272.85 
3045 254.83 261.68 272.85 
3046 261.93 263.09 272.85 
3047 246.64 259.94 272.85 
3048 256.77 262.37 272.85 
3049 258.13 260.59 272.85 
3050 245.82 260.29 272.85 
3051 257.28 261.13 272.85 
3052 270.41 260.95 272.85 
3053 274.16 258.45 272.85 
3054 257.38 256.08 274.16 
3055 245.74 256.97 274.16 
3056 257.45 257.36 274.16 
3057 267.46 257.31 274.16 
3058 268.61 256.84 274.16 
3059 263.14 257.74 274.16 
3060 255.83 259.42 274.16 
3061 265.74 262.58 274.16 
3062 263.92 261.09 274.16 
3063 277.01 266.85 274.16 
3064 250.35 265.40 277.01 
3065 264.47 261.35 277.01 
3066 269.54 263.08 277.01 
3067 255.09 260.52 277.01 
3068 255.74 261.69 277.01 
3069 263.77 261.36 277.01 
3070 262.64 261.91 277.01 
3071 261.99 263.44 277.01 
3072 261.11 265.72 277.01 
3073 258.59 266.79 277.01 
3074 249.48 264.54 277.01 
3075 259.94 262.29 277.01 
3076 266.42 259.24 277.01 
3077 266.61 260.27 277.01 
3078 263.83 261.15 277.01 
3079 257.83 261.43 277.01 
3080 266.04 257.16 277.01 
3081 247.37 258.11 277.01 
3082 267.09 255.98 277.01 
3083 250.43 253.14 277.01 
3084 265.82 253.16 277.01 
3085 258.48 256.50 277.01 
3086 254.36 253.97 277.01 
3087 257.78 253.56 277.01 
3088 256.70 253.87 277.01 
3089 256.71 252.72 277.01 
3090 260.00 259.79 277.01 
3091 257.90 260.10 277.01 
3092 266.80 259.43 277.01 
3093 258.66 258.68 277.01 
3094 257.99 261.40 277.01 
3095 267.23 260.86 277.01 
3096 256.83 261.05 277.01 
3097 264.35 262.46 277.01 
3098 254.33 263.09 277.01 
3099 261.30 261.42 277.01 
3100 256.16 259.48 277.01 
3101 253.27 258.93 277.01 
3102 262.30 256.79 277.01 
3103 260.48 256.46 277.01 
3104 261.79 259.24 277.01 
3105 255.89 259.62 277.01 
3106 255.98 259.64 277.01 
3107 255.82 259.45 277.01 
3108 259.74 259.74 277.01 
3109 261.42 262.88 277.01 
3110 268.21 263.30 277.01 
3111 251.85 259.57 277.01 
3112 266.97 261.46 277.01 
3113 256.67 260.20 277.01 
3114 263.27 261.45 277.01 
3115 246.16 258.04 277.01 
3116 261.55 263.21 277.01 
3117 267.29 260.85 277.01 
3118 266.04 259.99 277.01 
3119 255.03 258.54 277.01 
3120 264.98 259.61 277.01 
3121 262.46 253.71 277.01 
3122 254.02 255.01 277.01 
3123 257.75 259.73 277.01 
3124 264.16 252.44 277.01 
3125 258.83 255.22 277.01 
3126 265.28 251.40 277.01 
3127 246.82 252.47 277.01 
3128 261.15 263.32 277.01 
3129 260.09 262.50 277.01 
3130 267.56 263.80 277.01 
3131 259.54 261.34 277.01 
3132 261.64 255.59 277.01 
3133 262.68 265.96 277.01 
3134 261.62 265.15 277.01 
3135 256.93 254.97 277.01 
3136 263.77 265.49 277.01 
3137 253.65 260.58 277.01 
3138 260.62 259.47 277.01 
3139 265.41 257.70 277.01 
3140 250.74 260.75 277.01 
3141 266.23 259.96 277.01 
3142 259.27 260.34 277.01 
3143 260.76 256.86 277.01 
3144 260.35 253.18 277.01 
3145 257.12 253.29 277.01 
3146 255.19 251.00 277.01 
3147 257.46 250.48 277.01 
3148 261.52 254.24 277.01 
3149 254.53 251.27 277.01 
3150 263.95 250.48 277.01 
3151 269.12 248.40 277.01 
3152 254.66 249.50 277.01 
3153 259.61 249.08 277.01 
3154 253.99 249.56 277.01 
3155 251.73 250.27 277.01 
3156 253.32 248.62 277.01 
3157 258.40 247.95 277.01 
3158 248.78 247.04 277.01 
3159 255.42 246.39 277.01 
3160 261.80 248.38 277.01 
3161 260.29 245.66 277.01 
3162 264.39 245.59 277.01 
3163 257.47 247.40 277.01 
3164 248.11 245.59 277.01 
3165 262.67 248.18 277.01 
3166 254.75 238.52 277.01 
3167 261.02 251.56 277.01 
3168 266.44 253.43 277.01 
3169 258.97 254.63 277.01 
3170 256.38 249.32 277.01 
3171 254.34 249.55 277.01 
3172 269.40 250.44 277.01 
3173 252.34 250.31 277.01 
3174 261.57 251.36 277.01 
3175 263.65 250.07 277.01 
3176 250.16 251.05 277.01 
3177 264.91 246.73 277.01 
3178 268.41 248.04 277.01 
3179 273.10 246.82 277.01 
3180 260.16 250.21 277.01 
3181 262.26 247.68 277.01 
3182 263.53 242.03 277.01 
3183 258.55 243.15 277.01 
3184 260.15 242.85 277.01 
3185 265.64 240.07 277.01 
3186 262.63 230.74 277.01 
3187 259.28 237.97 277.01 
3188 267.64 244.18 277.01 
3189 266.99 243.79 277.01 
3190 258.74 244.03 277.01 
3191 266.01 245.97 277.01 
3192 263.13 246.84 277.01 
3193 258.67 242.43 277.01 
3194 258.21 240.07 277.01 
3195 259.56 244.12 277.01 
3196 265.89 245.25 277.01 
3197 261.13 243.55 277.01 
3198 263.82 239.51 277.01 
3199 259.48 232.67 277.01 
3200 266.12 240.15 277.01 
3201 268.88 240.99 277.01 
3202 263.43 240.41 277.01 
3203 271.01 240.24 277.01 
3204 262.96 241.93 277.01 
3205 259.45 245.38 277.01 
3206 256.13 245.90 277.01 
3207 266.37 245.72 277.01 
3208 259.55 248.68 277.01 
3209 257.33 247.84 277.01 
3210 269.22 250.87 277.01 
3211 259.12 254.43 277.01 
3212 258.42 254.24 277.01 
3213 262.36 254.85 277.01 
3214 264.95 254.13 277.01 
3215 264.13 253.88 277.01 
3216 266.63 253.93 277.01 
3217 255.31 251.07 277.01 
3218 241.96 251.55 277.01 
3219 266.07 251.33 277.01 
3220 263.04 253.10 277.01 
3221 270.33 251.33 277.01 
3222 264.53 250.60 277.01 
3223 265.15 250.87 277.01 
3224 273.77 252.97 277.01 
3225 256.41 251.89 277.01 
3226 259.54 250.83 277.01 
3227 262.32 245.19 277.01 
3228 268.03 246.51 277.01 
3229 257.00 245.01 277.01 
3230 253.14 248.65 277.01 
3231 255.20 248.75 277.01 
3232 255.72 254.39 277.01 
3233 255.60 256.09 277.01 
3234 264.53 254.51 277.01 
3235 271.92 252.38 277.01 
3236 266.79 253.22 277.01 
3237 271.48 250.78 277.01 
3238 272.27 252.88 277.01 
3239 258.00 251.36 277.01 
3240 263.23 250.36 277.01 
3241 257.29 251.32 277.01 
3242 263.27 254.51 277.01 
3243 270.47 253.19 277.01 
3244 255.20 253.37 277.01 
3245 271.35 253.16 277.01 
3246 264.79 251.47 277.01 
3247 271.98 249.54 277.01 
3248 263.73 252.78 277.01 
3249 265.11 253.67 277.01 
3250 260.69 255.14 277.01 
3251 266.60 255.68 277.01 
3252 258.83 257.09 277.01 
3253 263.63 257.38 277.01 
3254 264.90 257.63 277.01 
3255 265.21 256.35 277.01 
3256 265.59 259.40 277.01 
3257 261.42 255.38 277.01 
3258 269.25 255.97 277.01 
3259 258.13 254.72 277.01 
3260 266.40 255.70 277.01 
3261 267.79 254.62 277.01 
3262 262.60 252.94 277.01 
3263 272.97 255.81 277.01 
3264 254.85 253.28 277.01 
3265 261.91 256.04 277.01 
3266 262.71 255.17 277.01 
3267 272.96 256.87 277.01 
3268 267.00 255.40 277.01 
3269 263.74 254.92 277.01 
3270 253.45 251.89 277.01 
3271 264.41 252.22 277.01 
3272 261.70 251.37 277.01 
3273 268.99 251.81 277.01 
3274 268.96 251.62 277.01 
3275 267.35 254.95 277.01 
3276 266.12 255.21 277.01 
3277 269.79 252.62 277.01 
3278 260.21 254.13 277.01 
3279 262.89 255.04 277.01 
3280 262.91 258.91 277.01 
3281 266.86 253.60 277.01 
3282 268.45 252.90 277.01 
3283 255.05 254.16 277.01 
3284 272.04 258.60 277.01 
3285 265.37 258.43 277.01 
3286 260.77 259.33 277.01 
3287 261.50 259.17 277.01 
3288 261.02 259.74 277.01 
3289 273.30 258.77 277.01 
3290 278.74 254.84 277.01 
3291 259.63 255.92 278.74 
3292 271.25 257.80 278.74 
3293 264.08 257.84 278.74 
3294 259.10 258.49 278.74 
3295 260.51 258.45 278.74 
3296 270.82 261.89 278.74 
3297 274.88 262.96 278.74 
3298 264.05 258.68 278.74 
3299 270.06 255.66 278.74 
3300 263.51 254.42 278.74 
3301 269.93 251.93 278.74 
3302 259.54 253.10 278.74 
3303 263.13 252.34 278.74 
3304 267.70 254.44 278.74 
3305 256.61 251.64 278.74 
3306 258.29 252.22 278.74 
3307 266.52 251.01 278.74 
3308 268.10 251.08 278.74 
3309 265.61 251.19 278.74 
3310 267.05 253.45 278.74 
3311 265.59 252.13 278.74 
3312 264.19 253.33 278.74 
3313 257.65 250.56 278.74 
3314 269.88 252.41 278.74 
3315 260.55 254.12 278.74 
3316 267.12 255.89 278.74 
3317 276.78 255.53 278.74 
3318 265.30 255.40 278.74 
3319 257.24 253.25 278.74 
3320 257.60 253.43 278.74 
3321 261.49 254.20 278.74 
3322 271.52 254.43 278.74 
3323 261.47 252.45 278.74 
3324 271.01 253.03 278.74 
3325 263.17 254.09 278.74 
3326 262.09 253.11 278.74 
3327 267.92 252.96 278.74 
3328 262.48 254.37 278.74 
3329 269.56 252.30 278.74 
3330 263.11 252.84 278.74 
3331 270.41 252.18 278.74 
3332 267.30 252.49 278.74 
3333 266.97 255.36 278.74 
3334 257.04 254.12 278.74 
3335 262.73 255.82 278.74 
3336 253.54 255.09 278.74 
3337 264.93 254.29 278.74 
3338 248.28 252.34 278.74 
3339 268.07 256.54 278.74 
3340 264.34 258.35 278.74 
3341 264.75 252.10 278.74 
3342 263.69 256.60 278.74 
3343 264.37 253.74 278.74 
3344 261.53 254.14 278.74 
3345 259.04 255.41 278.74 
3346 266.10 254.62 278.74 
3347 270.39 253.67 278.74 
3348 256.85 257.01 278.74 
3349 260.05 256.49 278.74 
3350 252.28 261.95 278.74 
3351 270.80 260.58 278.74 
3352 268.41 262.91 278.74 
3353 279.95 262.15 278.74 
3354 264.39 260.31 279.95 
3355 260.04 259.39 279.95 
3356 259.21 256.82 279.95 
3357 266.74 255.55 279.95 
3358 259.78 258.24 279.95 
3359 255.88 259.69 279.95 
3360 272.29 261.45 279.95 
3361 266.96 262.43 279.95 
3362 271.29 264.13 279.95 
3363 265.70 264.75 279.95 
3364 262.24 264.80 279.95 
3365 267.43 264.17 279.95 
3366 259.25 262.25 279.95 
3367 273.84 261.14 279.95 
3368 263.61 262.72 279.95 
3369 265.12 262.66 279.95 
3370 262.48 263.99 279.95 
3371 253.40 266.04 279.95 
3372 267.14 270.87 279.95 
3373 261.87 269.15 279.95 
3374 259.31 269.03 279.95 
3375 270.07 267.66 279.95 
3376 265.65 268.53 279.95 
3377 267.68 269.63 279.95 
3378 271.41 271.99 279.95 
3379 260.40 270.32 279.95 
3380 265.83 268.64 279.95 
3381 263.03 267.95 279.95 
3382 264.68 269.42 279.95 
3383 264.77 269.17 279.95 
3384 256.89 269.56 279.95 
3385 266.92 269.75 279.95 
3386 261.25 270.59 279.95 
3387 261.34 270.82 279.95 
3388 261.30 270.11 279.95 
3389 263.37 268.85 279.95 
3390 267.13 268.18 279.95 
3391 262.11 270.08 279.95 
3392 263.52 270.94 279.95 
3393 268.83 270.33 279.95 
3394 275.76 267.69 279.95 
3395 266.45 267.88 279.95 
3396 256.47 271.02 279.95 
3397 267.01 271.72 279.95 
3398 270.00 271.26 279.95 
3399 259.83 271.09 279.95 
3400 265.83 268.61 279.95 
3401 261.66 267.56 279.95 
3402 269.49 264.07 279.95 
3403 276.13 265.87 279.95 
3404 265.28 260.52 279.95 
3405 268.94 264.92 279.95 
3406 256.24 265.24 279.95 
3407 259.72 267.57 279.95 
3408 255.16 267.45 279.95 
3409 259.81 267.47 279.95 
3410 264.28 266.87 279.95 
3411 266.66 267.34 279.95 
3412 270.13 268.11 279.95 
3413 274.53 269.34 279.95 
3414 267.77 271.12 279.95 
3415 269.02 269.78 279.95 
3416 263.69 268.28 279.95 
3417 267.22 267.16 279.95 
3418 265.74 268.19 279.95 
3419 259.08 267.72 279.95 
3420 268.40 266.42 279.95 
3421 261.50 264.67 279.95 
3422 262.68 263.91 279.95 
3423 270.19 265.06 279.95 
3424 264.62 259.15 279.95 
3425 274.49 261.68 279.95 
3426 258.56 262.37 279.95 
3427 263.33 262.83 279.95 
3428 269.73 259.21 279.95 
3429 265.53 263.28 279.95 
3430 261.62 265.07 279.95 
3431 264.91 265.04 279.95 
3432 263.44 266.00 279.95 
3433 260.10 263.86 279.95 
3434 268.24 263.57 279.95 
3435 260.99 265.51 279.95 
3436 258.41 267.20 279.95 
3437 264.91 266.21 279.95 
3438 265.44 265.86 279.95 
3439 259.56 269.90 279.95 
3440 267.09 266.98 279.95 
3441 264.58 272.20 279.95 
3442 267.98 273.67 279.95 
3443 263.79 274.97 279.95 
3444 261.62 275.33 279.95 
3445 257.37 274.13 279.95 
3446 264.18 274.55 279.95 
3447 257.97 270.19 279.95 
3448 263.49 268.56 279.95 
3449 263.00 268.69 279.95 
3450 258.75 270.58 279.95 
3451 260.74 269.52 279.95 
3452 265.59 270.49 279.95 
3453 264.00 270.80 279.95 
3454 269.52 269.54 279.95 
3455 264.33 270.66 279.95 
3456 273.55 268.48 279.95 
3457 265.45 265.62 279.95 
3458 262.78 262.22 279.95 
3459 254.27 262.78 279.95 
3460 278.29 263.45 279.95 
3461 259.71 262.12 279.95 
3462 258.97 260.43 279.95 
3463 267.06 262.17 279.95 
3464 257.07 260.51 279.95 
3465 264.41 260.81 279.95 
3466 264.97 258.32 279.95 
3467 266.12 255.86 279.95 
3468 266.18 253.36 279.95 
3469 265.41 253.98 279.95 
3470 273.00 252.24 279.95 
3471 261.85 253.37 279.95 
3472 267.16 255.46 279.95 
3473 255.56 255.70 279.95 
3474 258.67 253.77 279.95 
3475 260.10 256.49 279.95 
3476 265.95 256.87 279.95 
3477 259.04 253.82 279.95 
3478 254.03 255.78 279.95 
3479 267.96 255.91 279.95 
3480 265.31 259.74 279.95 
3481 265.25 261.18 279.95 
3482 269.82 260.16 279.95 
3483 263.11 260.97 279.95 
3484 263.36 260.35 279.95 
3485 256.74 263.57 279.95 
3486 265.02 267.37 279.95 
3487 271.76 265.56 279.95 
3488 265.43 263.01 279.95 
3489 259.87 261.92 279.95 
3490 264.30 264.95 279.95 
3491 267.87 264.17 279.95 
3492 261.32 262.29 279.95 
3493 266.16 261.53 279.95 
3494 267.67 257.75 279.95 
3495 263.86 260.55 279.95 
3496 263.34 263.84 279.95 
3497 270.77 262.01 279.95 
3498 253.19 264.19 279.95 
3499 270.72 265.78 279.95 
3500 260.35 267.30 279.95 
3501 259.29 264.23 279.95 
3502 258.64 266.74 279.95 
3503 266.15 269.19 279.95 
3504 271.48 268.86 279.95 
3505 261.23 269.44 279.95 
3506 269.65 269.52 279.95 
3507 251.91 270.89 279.95 
3508 255.71 269.97 279.95 
3509 275.19 269.93 279.95 
3510 272.10 272.36 279.95 
3511 260.41 271.31 279.95 
3512 253.94 270.31 279.95 
3513 268.46 271.23 279.95 
3514 264.28 274.79 279.95 
3515 255.88 274.55 279.95 
3516 269.55 272.73 279.95 
3517 266.46 273.41 279.95 
3518 261.28 270.53 279.95 
3519 261.18 272.51 279.95 
3520 264.85 272.12 279.95 
3521 263.61 272.26 279.95 
3522 274.32 269.94 279.95 
3523 277.50 266.15 279.95 
3524 271.44 268.32 279.95 
3525 270.63 268.40 279.95 
3526 260.97 265.61 279.95 
3527 272.20 266.22 279.95 
3528 264.65 265.68 279.95 
3529 266.16 265.04 279.95 
3530 274.90 265.65 279.95 
3531 263.71 267.11 279.95 
3532 268.32 265.19 279.95 
3533 256.41 267.04 279.95 
3534 256.20 266.77 279.95 
3535 252.94 271.20 279.95 
3536 262.68 268.63 279.95 
3537 266.82 268.89 279.95 
3538 248.27 266.39 279.95 
3539 261.97 265.82 279.95 
3540 265.81 266.52 279.95 
3541 272.10 268.25 279.95 
3542 265.90 269.30 279.95 
3543 262.65 268.90 279.95 
3544 253.50 267.78 279.95 
3545 270.84 267.37 279.95 
3546 254.86 266.56 279.95 
3547 266.50 268.43 279.95 
3548 260.96 270.75 279.95 
3549 259.69 273.39 279.95 
3550 271.28 271.49 279.95 
3551 266.34 271.94 279.95 
3552 269.55 270.67 279.95 
3553 260.54 272.64 279.95 
3554 272.94 272.77 279.95 
3555 271.27 272.48 279.95 
3556 253.92 271.67 279.95 
3557 268.06 271.56 279.95 
3558 269.16 272.86 279.95 
3559 262.53 273.04 279.95 
3560 263.09 274.70 279.95 
3561 260.98 271.81 279.95 
3562 268.53 272.91 279.95 
3563 256.89 271.99 279.95 
3564 276.87 272.14 279.95 
3565 269.15 270.76 279.95 
3566 263.43 271.32 279.95 
3567 262.95 272.34 279.95 
3568 259.42 271.59 279.95 
3569 267.37 271.28 279.95 
3570 272.59 270.46 279.95 
3571 276.66 271.23 279.95 
3572 264.36 271.43 279.95 
3573 261.57 271.20 279.95 
3574 261.92 276.25 279.95 
3575 269.10 275.84 279.95 
3576 258.96 276.23 279.95 
3577 258.00 272.39 279.95 
3578 257.14 277.37 279.95 
3579 270.69 277.61 279.95 
3580 262.30 278.31 279.95 
3581 264.46 277.67 279.95 
3582 279.03 278.71 279.95 
3583 261.24 278.80 279.95 
3584 262.27 279.11 279.95 
3585 264.79 279.94 279.95 
3586 270.34 280.16 279.95 
3587 272.47 280.28 279.95 
3588 257.09 279.27 279.95 
3589 260.66 280.72 279.95 
3590 259.51 279.98 279.95 
3591 265.65 279.60 279.95 
3592 249.41 280.13 279.95 
3593 267.61 279.88 279.95 
3594 262.33 279.74 279.95 
3595 278.05 279.19 279.95 
3596 255.63 279.87 279.95 
3597 271.44 280.64 279.95 
3598 260.85 280.73 279.95 
3599 259.87 280.63 279.95 
3600 266.29 279.81 279.95 
3601 265.69 279.40 279.95 
3602 267.61 279.56 279.95 
3603 275.32 279.25 279.95 
3604 267.55 274.23 279.95 
3605 274.60 278.96 279.95 
3606 256.68 279.03 279.95 
3607 274.33 280.08 279.95 
3608 268.91 277.70 279.95 
3609 269.11 273.84 279.95 
3610 271.71 272.15 279.95 
3611 254.53 277.41 279.95 
3612 262.90 272.60 279.95 
3613 258.50 273.86 279.95 
3614 261.46 272.46 279.95 
3615 261.97 272.49 279.95 
3616 270.48 273.25 279.95 
3617 274.41 273.94 279.95 
3618 268.42 274.75 279.95 
3619 264.22 278.00 279.95 
3620 275.05 280.41 279.95 
3621 263.32 279.67 279.95 
3622 276.87 281.22 279.95 
3623 267.60 280.17 279.95 
3624 265.30 281.34 279.95 
3625 279.48 279.04 279.95 
3626 264.52 278.61 279.95 
3627 277.23 276.88 279.95 
3628 265.21 277.22 279.95 
3629 271.31 276.68 279.95 
3630 263.09 277.51 279.95 
3631 259.68 276.93 279.95 
3632 273.74 276.14 279.95 
3633 268.33 275.28 279.95 
3634 258.76 274.35 279.95 
3635 276.06 278.75 279.95 
3636 269.72 274.13 279.95 
3637 271.75 275.68 279.95 
3638 270.62 273.79 279.95 
3639 273.01 273.83 279.95 
3640 260.04 280.12 279.95 
3641 273.81 279.01 279.95 
3642 278.74 278.31 279.95 
3643 281.42 278.42 279.95 
3644 262.56 278.42 281.42 
3645 257.53 279.02 281.42 
3646 265.73 280.67 281.42 
3647 273.24 278.20 281.42 
3648 267.72 278.54 281.42 
3649 270.25 276.34 281.42 
3650 266.80 272.40 281.42 
3651 274.07 270.11 281.42 
3652 280.05 270.32 281.42 
3653 270.67 276.89 281.42 
3654 264.28 273.76 281.42 
3655 268.73 272.49 281.42 
3656 263.77 273.21 281.42 
3657 275.86 268.84 281.42 
3658 279.50 266.49 281.42 
3659 265.95 272.15 281.42 
3660 271.90 274.47 281.42 
3661 267.59 274.29 281.42 
3662 265.93 275.20 281.42 
3663 272.51 276.12 281.42 
3664 275.27 269.79 281.42 
3665 269.81 271.72 281.42 
3666 263.09 271.01 281.42 
3667 275.78 268.80 281.42 
3668 267.26 271.20 281.42 
3669 268.73 269.05 281.42 
3670 269.47 265.98 281.42 
3671 275.59 269.52 281.42 
3672 260.76 269.41 281.42 
3673 264.06 266.86 281.42 
3674 269.64 269.53 281.42 
3675 264.43 268.79 281.42 
3676 277.38 270.50 281.42 
3677 266.53 265.26 281.42 
3678 270.13 264.14 281.42 
3679 258.08 261.84 281.42 
3680 260.25 261.85 281.42 
3681 272.26 262.18 281.42 
3682 264.85 261.72 281.42 
3683 261.74 263.05 281.42 
3684 277.05 268.53 281.42 
3685 266.48 267.62 281.42 
3686 281.28 262.59 281.42 
3687 273.66 261.46 281.42 
3688 264.40 261.93 281.42 
3689 262.52 264.34 281.42 
3690 273.95 267.51 281.42 
3691 260.07 269.03 281.42 
3692 268.21 267.46 281.42 
3693 264.65 259.12 281.42 
3694 263.78 261.43 281.42 
3695 269.64 256.14 281.42 
3696 267.89 260.70 281.42 
3697 268.71 258.33 281.42 
3698 275.32 251.83 281.42 
3699 269.56 252.14 281.42 
3700 266.77 254.24 281.42 
3701 272.45 251.69 281.42 
3702 274.50 254.89 281.42 
3703 273.04 256.00 281.42 
3704 271.19 255.52 281.42 
3705 267.40 255.52 281.42 
3706 271.27 258.63 281.42 
3707 265.33 253.94 281.42 
3708 273.72 257.16 281.42 
3709 268.69 259.12 281.42 
3710 274.61 264.07 281.42 
3711 263.58 266.35 281.42 
3712 275.56 266.64 281.42 
3713 270.12 267.95 281.42 
3714 264.10 265.59 281.42 
3715 257.20 267.84 281.42 
3716 272.56 268.21 281.42 
3717 265.71 266.68 281.42 
3718 273.76 272.99 281.42 
3719 266.55 274.63 281.42 
3720 266.50 276.15 281.42 
3721 271.94 274.76 281.42 
3722 272.72 273.88 281.42 
3723 275.38 271.95 281.42 
3724 264.30 273.59 281.42 
3725 267.93 275.06 281.42 
3726 273.61 276.41 281.42 
3727 253.79 278.02 281.42 
3728 268.56 279.23 281.42 
3729 271.64 279.43 281.42 
3730 268.16 278.73 281.42 
3731 268.69 277.21 281.42 
3732 268.00 274.76 281.42 
3733 274.37 275.69 281.42 
3734 272.16 276.41 281.42 
3735 284.28 277.98 281.42 
3736 271.99 278.21 284.28 
3737 256.02 276.71 284.28 
3738 257.50 276.57 284.28 
3739 273.01 277.28 284.28 
3740 270.27 277.34 284.28 
3741 263.78 275.91 284.28 
3742 269.34 274.64 284.28 
3743 265.78 275.46 284.28 
3744 265.73 275.83 284.28 
3745 263.77 275.44 284.28 
3746 265.30 275.94 284.28 
3747 270.77 275.65 284.28 
3748 272.29 274.53 284.28 
3749 270.47 273.39 284.28 
3750 268.48 274.11 284.28 
3751 271.46 274.12 284.28 
3752 267.70 273.99 284.28 
3753 269.47 274.88 284.28 
3754 269.88 274.03 284.28 
3755 266.21 273.39 284.28 
3756 257.54 272.81 284.28 
3757 268.83 274.32 284.28 
3758 263.80 272.64 284.28 
3759 268.18 273.20 284.28 
3760 271.44 275.43 284.28 
3761 273.44 275.49 284.28 
3762 261.47 273.23 284.28 
3763 274.67 271.23 284.28 
3764 270.15 269.63 284.28 
3765 267.22 267.38 284.28 
3766 270.58 265.84 284.28 
3767 256.85 267.96 284.28 
3768 270.33 269.07 284.28 
3769 261.55 271.44 284.28 
3770 276.60 270.46 284.28 
3771 271.86 274.04 284.28 
3772 266.49 271.40 284.28 
3773 267.09 274.47 284.28 
3774 260.77 275.57 284.28 
3775 263.97 275.00 284.28 
3776 267.74 275.42 284.28 
3777 267.06 274.68 284.28 
3778 264.38 274.24 284.28 
3779 277.16 274.95 284.28 
3780 265.45 274.31 284.28 
3781 260.38 273.74 284.28 
3782 274.30 267.60 284.28 
3783 268.13 264.06 284.28 
3784 267.70 265.01 284.28 
3785 269.56 269.89 284.28 
3786 269.40 264.15 284.28 
3787 266.62 266.15 284.28 
3788 267.15 274.37 284.28 
3789 264.15 274.93 284.28 
3790 274.46 276.98 284.28 
3791 270.01 278.17 284.28 
3792 276.72 278.68 284.28 
3793 269.23 277.58 284.28 
3794 268.02 278.68 284.28 
3795 274.40 280.03 284.28 
3796 274.35 280.97 284.28 
3797 270.74 280.27 284.28 
3798 276.49 282.01 284.28 
3799 269.48 281.46 284.28 
3800 274.50 282.80 284.28 
3801 269.48 282.66 284.28 
3802 271.51 282.85 284.28 
3803 261.30 282.70 284.28 
3804 271.28 281.74 284.28 
3805 269.20 282.22 284.28 
3806 270.71 280.40 284.28 
3807 275.51 277.27 284.28 
3808 266.17 278.16 284.28 
3809 255.60 277.54 284.28 
3810 268.89 276.95 284.28 
3811 269.75 276.06 284.28 
3812 261.30 276.37 284.28 
3813 267.80 277.06 284.28 
3814 278.45 276.49 284.28 
3815 275.29 276.84 284.28 
3816 273.37 278.05 284.28 
3817 282.57 279.68 284.28 
3818 273.36 276.91 284.28 
3819 278.35 277.45 284.28 
3820 275.78 277.65 284.28 
3821 277.30 277.02 284.28 
3822 266.76 277.57 284.28 
3823 269.49 275.51 284.28 
3824 268.00 276.37 284.28 
3825 266.73 275.92 284.28 
3826 273.16 275.72 284.28 
3827 264.96 274.62 284.28 
3828 268.44 272.40 284.28 
3829 279.14 273.74 284.28 
3830 276.43 274.66 284.28 
3831 271.39 275.36 284.28 
3832 281.73 273.78 284.28 
3833 280.80 272.76 284.28 
3834 270.38 274.85 284.28 
3835 270.37 273.25 284.28 
3836 268.18 271.39 284.28 
3837 269.64 270.42 284.28 
3838 277.79 271.06 284.28 
3839 270.39 272.13 284.28 
3840 276.36 274.15 284.28 
3841 269.50 274.88 284.28 
3842 266.19 273.14 284.28 
3843 270.69 273.52 284.28 
3844 275.84 272.84 284.28 
3845 274.28 274.01 284.28 
3846 268.20 276.15 284.28 
3847 262.93 277.25 284.28 
3848 257.04 277.12 284.28 
3849 271.05 273.73 284.28 
3850 267.85 275.63 284.28 
3851 263.69 274.49 284.28 
3852 265.18 274.93 284.28 
3853 276.85 275.68 284.28 
3854 277.16 276.98 284.28 
3855 268.51 277.28 284.28 
3856 274.81 276.74 284.28 
3857 272.19 277.08 284.28 
3858 269.11 277.53 284.28 
3859 272.96 278.96 284.28 
3860 268.57 277.38 284.28 
3861 278.94 277.31 284.28 
3862 268.72 278.12 284.28 
3863 278.72 278.56 284.28 
3864 272.88 278.31 284.28 
3865 263.41 278.33 284.28 
3866 272.40 277.47 284.28 
3867 275.87 275.40 284.28 
3868 275.86 275.16 284.28 
3869 273.24 275.14 284.28 
3870 268.60 275.86 284.28 
3871 270.25 275.20 284.28 
3872 266.79 273.94 284.28 
3873 272.64 267.14 284.28 
3874 280.86 269.12 284.28 
3875 269.49 274.43 284.28 
3876 273.03 273.53 284.28 
3877 269.46 273.94 284.28 
3878 272.71 273.79 284.28 
3879 275.40 273.18 284.28 
3880 260.94 273.38 284.28 
3881 274.16 273.98 284.28 
3882 277.39 271.62 284.28 
3883 268.33 273.33 284.28 
3884 270.30 274.92 284.28 
3885 267.43 274.28 284.28 
3886 270.14 273.92 284.28 
3887 269.85 275.58 284.28 
3888 264.63 275.54 284.28 
3889 283.11 275.49 284.28 
3890 279.53 275.00 284.28 
3891 261.68 275.08 284.28 
3892 268.05 275.80 284.28 
3893 270.61 275.94 284.28 
3894 275.67 277.14 284.28 
3895 275.12 277.13 284.28 
3896 276.61 277.34 284.28 
3897 271.01 276.39 284.28 
3898 272.61 277.16 284.28 
3899 265.18 278.01 284.28 
3900 279.47 278.46 284.28 
3901 274.35 278.44 284.28 
3902 279.76 278.12 284.28 
3903 279.02 279.68 284.28 
3904 274.40 279.64 284.28 
3905 278.05 278.74 284.28 
3906 277.12 279.00 284.28 
3907 278.45 280.89 284.28 
3908 272.39 282.58 284.28 
3909 277.65 280.77 284.28 
3910 271.38 279.25 284.28 
3911 266.21 277.97 284.28 
3912 271.18 279.35 284.28 
3913 282.05 280.81 284.28 
3914 271.41 281.94 284.28 
3915 265.95 282.69 284.28 
3916 267.64 282.61 284.28 
3917 266.93 282.11 284.28 
3918 276.24 283.06 284.28 
3919 277.60 283.34 284.28 
3920 278.09 282.41 284.28 
3921 282.69 281.91 284.28 
3922 275.03 281.48 284.28 
3923 275.71 281.94 284.28 
3924 269.25 280.86 284.28 
3925 277.37 280.96 284.28 
3926 269.46 281.22 284.28 
3927 268.51 280.59 284.28 
3928 258.45 279.70 284.28 
3929 272.60 280.50 284.28 
3930 274.55 279.11 284.28 
3931 281.83 280.28 284.28 
3932 281.98 281.80 284.28 
3933 270.68 283.65 284.28 
3934 272.99 281.52 284.28 
3935 281.56 282.24 284.28 
3936 266.96 282.46 284.28 
3937 277.67 281.21 284.28 
3938 278.56 279.47 284.28 
3939 279.35 281.14 284.28 
3940 274.51 282.92 284.28 
3941 279.58 282.45 284.28 
3942 273.10 281.01 284.28 
3943 276.65 283.97 284.28 
3944 271.81 282.61 284.28 
3945 268.89 282.55 284.28 
3946 285.04 282.90 284.28 
3947 281.96 283.59 285.04 
3948 273.35 282.56 285.04 
3949 270.34 284.26 285.04 
3950 272.07 284.19 285.04 
3951 271.05 284.52 285.04 
3952 268.65 284.88 285.04 
3953 268.77 284.54 285.04 
3954 269.18 286.25 285.04 
3955 268.45 284.76 285.04 
3956 271.07 285.40 285.04 
3957 266.56 286.09 285.04 
3958 268.30 283.63 285.04 
3959 264.28 281.95 285.04 
3960 272.73 281.94 285.04 
3961 278.95 280.25 285.04 
3962 273.20 281.09 285.04 
3963 271.44 280.79 285.04 
3964 271.06 281.14 285.04 
3965 271.73 281.36 285.04 
3966 270.84 281.44 285.04 
3967 275.94 281.88 285.04 
3968 279.83 280.45 285.04 
3969 283.27 280.92 285.04 
3970 272.23 281.83 285.04 
3971 271.36 278.70 285.04 
3972 273.95 279.96 285.04 
3973 269.30 282.27 285.04 
3974 263.63 281.20 285.04 
3975 272.44 280.59 285.04 
3976 265.61 279.84 285.04 
3977 263.71 280.07 285.04 
3978 272.21 279.12 285.04 
3979 271.64 278.89 285.04 
3980 279.76 278.51 285.04 
3981 275.33 279.30 285.04 
3982 274.82 278.72 285.04 
3983 280.75 279.94 285.04 
3984 270.83 278.86 285.04 
3985 273.43 279.65 285.04 
3986 272.20 279.33 285.04 
3987 272.30 278.63 285.04 
3988 271.88 275.29 285.04 
3989 277.60 274.29 285.04 
3990 272.78 273.99 285.04 
3991 277.91 272.47 285.04 
3992 272.50 274.97 285.04 
3993 273.05 272.60 285.04 
3994 275.14 271.74 285.04 
3995 270.81 269.47 285.04 
3996 278.64 270.83 285.04 
3997 289.22 268.08 285.04 
3998 278.15 267.25 289.22 
3999 272.81 272.92 289.22 
4000 266.32 272.57 289.22 
4001 273.85 271.02 289.22 
4002 278.46 269.43 289.22 
4003 267.59 272.08 289.22 
4004 263.68 271.91 289.22 
4005 271.24 272.09 289.22 
4006 264.22 273.82 289.22 
4007 276.66 273.87 289.22 
4008 278.59 272.02 289.22 
4009 275.41 271.55 289.22 
4010 272.09 271.10 289.22 
4011 270.11 271.57 289.22 
4012 273.54 272.29 289.22 
4013 271.95 273.66 289.22 
4014 271.71 274.39 289.22 
4015 284.75 274.09 289.22 
4016 270.14 276.09 289.22 
4017 276.58 274.74 289.22 
4018 266.81 276.23 289.22 
4019 275.63 274.64 289.22 
4020 269.88 273.85 289.22 
4021 279.56 273.95 289.22 
4022 264.30 273.43 289.22 
4023 271.48 274.46 289.22 
4024 272.44 273.51 289.22 
4025 272.08 273.18 289.22 
4026 265.70 273.55 289.22 
4027 276.19 274.92 289.22 
4028 278.82 277.08 289.22 
4029 266.83 277.64 289.22 
4030 273.88 276.67 289.22 
4031 281.10 276.73 289.22 
4032 276.45 275.84 289.22 
4033 273.57 272.67 289.22 
4034 278.50 275.33 289.22 
4035 275.93 275.81 289.22 
4036 274.00 277.78 289.22 
4037 277.74 275.50 289.22 
4038 276.75 275.21 289.22 
4039 270.09 276.82 289.22 
4040 269.16 276.11 289.22 
4041 278.64 275.48 289.22 
4042 275.29 276.20 289.22 
4043 283.48 275.19 289.22 
4044 270.70 274.07 289.22 
4045 268.88 274.39 289.22 
4046 267.83 274.13 289.22 
4047 275.16 275.49 289.22 
4048 277.12 276.05 289.22 
4049 282.18 276.46 289.22 
4050 282.02 275.54 289.22 
4051 274.96 273.79 289.22 
4052 276.79 272.51 289.22 
4053 278.11 272.71 289.22 
4054 274.28 273.22 289.22 
4055 274.01 277.35 289.22 
4056 267.44 277.77 289.22 
4057 277.49 278.93 289.22 
4058 267.91 278.86 289.22 
4059 277.68 276.54 289.22 
4060 270.62 277.11 289.22 
4061 271.60 278.58 289.22 
4062 274.92 279.34 289.22 
4063 276.95 281.60 289.22 
4064 273.12 282.22 289.22 
4065 279.91 280.72 289.22 
4066 277.18 279.07 289.22 
4067 274.47 278.40 289.22 
4068 276.77 278.69 289.22 
4069 270.62 280.50 289.22 
4070 280.59 279.53 289.22 
4071 271.44 279.82 289.22 
4072 272.75 279.86 289.22 
4073 270.28 278.37 289.22 
4074 268.82 278.35 289.22 
4075 280.77 281.77 289.22 
4076 273.35 280.16 289.22 
4077 263.60 278.82 289.22 
4078 269.77 276.88 289.22 
4079 281.93 273.45 289.22 
4080 285.73 273.85 289.22 
4081 270.23 273.85 289.22 
4082 268.86 272.65 289.22 
4083 266.77 272.61 289.22 
4084 276.58 271.12 289.22 
4085 276.60 272.22 289.22 
4086 284.40 271.70 289.22 
4087 273.03 274.43 289.22 
4088 265.29 276.89 289.22 
4089 272.57 274.18 289.22 
4090 277.43 274.05 289.22 
4091 267.64 274.01 289.22 
4092 276.23 272.00 289.22 
4093 263.06 274.07 289.22 
4094 278.35 276.54 289.22 
4095 279.26 280.08 289.22 
4096 277.92 280.61 289.22 
4097 278.74 278.80 289.22 
4098 285.18 277.67 289.22 
4099 273.07 275.25 289.22 
4100 269.01 275.04 289.22 
4101 270.82 276.10 289.22 
4102 283.62 277.19 289.22 
4103 272.63 281.03 289.22 
4104 274.94 284.83 289.22 
4105 263.27 285.90 289.22 
4106 271.17 282.74 289.22 
4107 268.11 279.10 289.22 
4108 260.96 279.39 289.22 
4109 269.10 281.17 289.22 
4110 268.40 283.97 289.22 
4111 274.31 283.26 289.22 
4112 276.75 281.20 289.22 
4113 264.21 284.47 289.22 
4114 274.25 278.55 289.22 
4115 277.14 277.29 289.22 
4116 275.74 280.21 289.22 
4117 278.68 281.12 289.22 
4118 275.03 287.04 289.22 
4119 272.02 288.34 289.22 
4120 280.15 287.15 289.22 
4121 268.54 286.35 289.22 
4122 274.11 286.47 289.22 
4123 271.96 287.28 289.22 
4124 275.23 281.38 289.22 
4125 270.54 280.45 289.22 
4126 270.85 278.13 289.22 
4127 275.86 279.45 289.22 
4128 278.33 280.46 289.22 
4129 270.32 280.51 289.22 
4130 277.61 278.23 289.22 
4131 268.56 278.26 289.22 
4132 275.28 277.89 289.22 
4133 274.01 278.71 289.22 
4134 276.56 277.75 289.22 
4135 284.53 276.16 289.22 
4136 276.14 278.24 289.22 
4137 270.82 276.27 289.22 
4138 271.07 276.33 289.22 
4139 270.91 274.15 289.22 
4140 279.77 274.54 289.22 
4141 272.45 276.52 289.22 
4142 273.34 274.51 289.22 
4143 275.50 272.93 289.22 
4144 273.22 271.10 289.22 
4145 277.75 269.44 289.22 
4146 268.51 271.76 289.22 
4147 269.52 269.91 289.22 
4148 274.22 270.10 289.22 
4149 280.54 271.06 289.22 
4150 270.95 272.00 289.22 
4151 268.82 271.50 289.22 
4152 279.12 273.71 289.22 
4153 273.30 273.39 289.22 
4154 276.12 270.98 289.22 
4155 272.36 269.63 289.22 
4156 278.40 269.03 289.22 
4157 264.34 269.52 289.22 
4158 268.05 271.52 289.22 
4159 263.67 267.16 289.22 
4160 272.99 266.93 289.22 
4161 287.43 266.68 289.22 
4162 271.15 272.38 289.22 
4163 281.45 271.18 289.22 
4164 274.54 270.68 289.22 
4165 277.37 270.83 289.22 
4166 272.41 270.96 289.22 
4167 286.79 272.86 289.22 
4168 278.59 273.66 289.22 
4169 275.73 275.11 289.22 
4170 266.80 275.45 289.22 
4171 281.49 277.11 289.22 
4172 277.01 276.86 289.22 
4173 282.98 274.12 289.22 
4174 288.27 275.28 289.22 
4175 278.49 272.46 289.22 
4176 265.30 272.20 289.22 
4177 255.28 272.74 289.22 
4178 276.09 272.85 289.22 
4179 265.30 273.64 289.22 
4180 277.70 271.41 289.22 
4181 281.30 272.72 289.22 
4182 279.37 273.72 289.22 
4183 273.44 276.00 289.22 
4184 276.06 276.97 289.22 
4185 271.82 278.80 289.22 
4186 285.16 280.82 289.22 
4187 276.76 282.82 289.22 
4188 283.03 282.96 289.22 
4189 272.93 281.96 289.22 
4190 280.26 280.64 289.22 
4191 271.82 281.99 289.22 
4192 276.60 279.84 289.22 
4193 284.17 282.18 289.22 
4194 271.84 282.80 289.22 
4195 268.95 283.14 289.22 
4196 283.54 284.69 289.22 
4197 274.70 282.12 289.22 
4198 279.64 282.12 289.22 
4199 276.11 282.37 289.22 
4200 280.93 284.10 289.22 
4201 271.65 286.87 289.22 
4202 278.27 288.24 289.22 
4203 259.74 288.98 289.22 
4204 267.08 286.28 289.22 
4205 274.76 286.02 289.22 
4206 283.51 284.13 289.22 
4207 285.61 283.43 289.22 
4208 278.83 280.17 289.22 
4209 276.93 280.65 289.22 
4210 270.37 281.74 289.22 
4211 270.79 282.37 289.22 
4212 275.54 282.27 289.22 
4213 268.49 279.39 289.22 
4214 271.72 279.57 289.22 
4215 268.74 278.14 289.22 
4216 273.40 275.98 289.22 
4217 278.78 277.43 289.22 
4218 276.88 278.35 289.22 
4219 289.03 279.65 289.22 
4220 278.27 281.66 289.22 
4221 271.23 281.88 289.22 
4222 273.19 285.53 289.22 
4223 279.80 287.56 289.22 
4224 274.90 286.81 289.22 
4225 277.15 287.15 289.22 
4226 275.30 288.05 289.22 
4227 280.00 287.82 289.22 
4228 279.02 287.70 289.22 
4229 282.43 287.00 289.22 
4230 285.27 286.74 289.22 
4231 276.29 286.26 289.22 
4232 275.37 285.02 289.22 
4233 280.19 283.29 289.22 
4234 269.84 283.05 289.22 
4235 279.03 280.32 289.22 
4236 280.16 282.38 289.22 
4237 279.49 284.04 289.22 
4238 274.94 285.38 289.22 
4239 271.49 286.98 289.22 
4240 282.88 286.20 289.22 
4241 281.24 284.56 289.22 
4242 272.26 282.54 289.22 
4243 282.69 276.53 289.22 
4244 275.72 272.36 289.22 
4245 276.38 270.39 289.22 
4246 283.22 267.99 289.22 
4247 275.97 269.15 289.22 
4248 274.51 268.27 289.22 
4249 276.85 270.01 289.22 
4250 281.93 266.40 289.22 
4251 282.04 266.31 289.22 
4252 281.11 272.86 289.22 
4253 266.68 273.83 289.22 
4254 272.94 275.48 289.22 
4255 275.95 276.30 289.22 
4256 286.35 278.63 289.22 
4257 273.52 277.95 289.22 
4258 268.95 277.70 289.22 
4259 283.70 280.81 289.22 
4260 276.94 279.28 289.22 
4261 281.99 280.07 289.22 
4262 286.89 281.60 289.22 
4263 273.99 279.81 289.22 
4264 279.79 279.02 289.22 
4265 274.82 275.83 289.22 
4266 270.89 275.18 289.22 
4267 276.29 275.65 289.22 
4268 283.19 275.71 289.22 
4269 281.94 277.22 289.22 
4270 280.72 272.31 289.22 
4271 280.27 272.67 289.22 
4272 282.41 273.92 289.22 
4273 277.04 271.74 289.22 
4274 281.54 273.14 289.22 
4275 276.67 267.79 289.22 
4276 282.48 267.71 289.22 
4277 271.84 268.51 289.22 
4278 272.13 269.13 289.22 
4279 271.70 269.86 289.22 
4280 281.62 270.24 289.22 
4281 281.80 271.62 289.22 
4282 280.59 268.29 289.22 
4283 277.41 264.96 289.22 
4284 285.11 265.16 289.22 
4285 280.84 265.85 289.22 
4286 286.11 268.58 289.22 
4287 271.03 267.48 289.22 
4288 273.91 268.38 289.22 
4289 274.53 269.53 289.22 
4290 282.22 267.56 289.22 
4291 274.45 268.00 289.22 
4292 281.56 268.12 289.22 
4293 278.47 268.25 289.22 
4294 266.46 268.06 289.22 
4295 277.14 270.56 289.22 
4296 272.02 274.57 289.22 
4297 275.06 274.69 289.22 
4298 275.66 275.24 289.22 
4299 272.55 273.54 289.22 
4300 278.29 273.41 289.22 
4301 278.16 270.98 289.22 
4302 281.12 268.88 289.22 
4303 285.17 269.53 289.22 
4304 269.64 272.46 289.22 
4305 279.94 271.81 289.22 
4306 281.43 274.68 289.22 
4307 281.32 271.45 289.22 
4308 277.78 270.86 289.22 
4309 271.84 271.12 289.22 
4310 274.81 272.24 289.22 
4311 279.39 272.29 289.22 
4312 282.80 274.37 289.22 
4313 282.32 275.19 289.22 
4314 279.91 275.27 289.22 
4315 280.90 273.51 289.22 
4316 285.95 275.59 289.22 
4317 279.05 274.52 289.22 
4318 273.95 275.35 289.22 
4319 280.67 276.68 289.22 
4320 280.27 274.72 289.22 
4321 286.51 278.80 289.22 
4322 273.89 279.86 289.22 
4323 276.59 277.24 289.22 
4324 282.07 275.93 289.22 
4325 269.10 273.46 289.22 
4326 290.42 274.74 289.22 
4327 282.73 275.37 290.42 
4328 269.10 273.69 290.42 
4329 282.13 275.91 290.42 
4330 269.35 275.52 290.42 
4331 279.95 276.71 290.42 
4332 279.07 277.41 290.42 
4333 284.93 278.67 290.42 
4334 276.37 279.96 290.42 
4335 273.24 279.78 290.42 
4336 280.75 280.76 290.42 
4337 277.89 277.28 290.42 
4338 281.50 275.52 290.42 
4339 279.84 277.35 290.42 
4340 283.96 276.17 290.42 
4341 286.71 277.78 290.42 
4342 285.82 277.94 290.42 
4343 272.24 276.27 290.42 
4344 281.76 276.68 290.42 
4345 279.35 275.83 290.42 
4346 273.19 274.76 290.42 
4347 286.62 276.30 290.42 
4348 280.14 275.70 290.42 
4349 270.00 278.18 290.42 
4350 281.05 277.18 290.42 
4351 271.61 274.24 290.42 
4352 282.98 271.84 290.42 
4353 277.41 274.66 290.42 
4354 279.92 276.77 290.42 
4355 282.89 276.74 290.42 
4356 283.02 278.96 290.42 
4357 278.24 278.60 290.42 
4358 270.83 281.86 290.42 
4359 275.30 281.16 290.42 
4360 285.55 282.91 290.42 
4361 279.98 282.41 290.42 
4362 283.69 285.75 290.42 
4363 281.18 285.95 290.42 
4364 279.05 285.59 290.42 
4365 282.80 286.99 290.42 
4366 274.27 287.97 290.42 
4367 281.35 286.81 290.42 
4368 281.30 287.69 290.42 
4369 272.36 288.46 290.42 
4370 282.38 288.38 290.42 
4371 274.90 288.19 290.42 
4372 279.73 286.94 290.42 
4373 271.30 285.40 290.42 
4374 278.92 285.50 290.42 
4375 279.38 286.11 290.42 
4376 274.76 284.83 290.42 
4377 275.56 285.98 290.42 
4378 283.25 284.41 290.42 
4379 281.36 284.70 290.42 
4380 277.52 288.04 290.42 
4381 271.02 284.60 290.42 
4382 271.99 288.12 290.42 
4383 275.83 288.13 290.42 
4384 277.99 287.01 290.42 
4385 268.79 286.67 290.42 
4386 285.50 284.80 290.42 
4387 271.33 281.90 290.42 
4388 275.61 279.19 290.42 
4389 276.29 280.29 290.42 
4390 279.88 280.47 290.42 
4391 282.32 280.36 290.42 
4392 274.03 278.25 290.42 
4393 284.48 277.49 290.42 
4394 274.08 279.28 290.42 
4395 279.01 278.53 290.42 
4396 280.28 278.22 290.42 
4397 275.45 280.23 290.42 
4398 280.92 280.20 290.42 
4399 279.71 280.65 290.42 
4400 287.40 283.85 290.42 
4401 275.27 281.52 290.42 
4402 282.73 282.15 290.42 
4403 284.88 282.67 290.42 
4404 286.26 283.45 290.42 
4405 279.58 285.24 290.42 
4406 278.29 286.53 290.42 
4407 280.14 287.28 290.42 
4408 274.38 288.75 290.42 
4409 282.97 287.37 290.42 
4410 281.86 283.61 290.42 
4411 279.04 283.91 290.42 
4412 284.65 284.24 290.42 
4413 270.44 279.56 290.42 
4414 276.27 282.12 290.42 
4415 270.60 279.43 290.42 
4416 284.82 282.07 290.42 
4417 280.59 286.46 290.42 
4418 280.90 282.26 290.42 
4419 279.00 285.19 290.42 
4420 279.06 286.40 290.42 
4421 276.99 284.64 290.42 
4422 284.32 289.18 290.42 
4423 270.88 290.32 290.42 
4424 282.57 290.59 290.42 
4425 272.42 289.68 290.42 
4426 279.65 289.96 290.42 
4427 281.32 290.47 290.42 
4428 276.58 288.92 290.42 
4429 282.91 289.16 290.42 
4430 286.41 289.50 290.42 
4431 282.42 287.64 290.42 
4432 281.33 287.98 290.42 
4433 274.42 288.19 290.42 
4434 286.50 289.28 290.42 
4435 276.55 285.59 290.42 
4436 282.29 284.42 290.42 
4437 281.53 287.25 290.42 
