iteration,time_sampling,stoc_pol_mean,stoc_pol_std,stoc_pol_max,stoc_pol_min,rollout_success,alpha,delta,time_vpg,time_npg,kl_dist,surr_improvement,running_score,rwd_sparse,rwd_dense,success_percentage,num_samples,time_VF,VF_error_before,VF_error_after,eval_score,eval_success
0,2.124467134475708,-219.45343639559496,0.8821659529218765,-217.14967825913274,-221.62698379651079,0.0,7.9999173892419595,0.1,0.06621289253234863,0.3601078987121582,0.13127483,0.0042563486,-219.45343639559496,-1.097072395499648,-1.097072395499648,0.0,19200,1.8976166248321533,1.000317541753994,0.006769485513935492,-220.4972048260333,0.0
1,1.5274600982666016,-219.6861379642024,0.8417037687345919,-217.8199376506058,-221.76177550131013,0.0,5.610928263026144,0.1,0.012264490127563477,0.31656479835510254,0.05217717,0.01549091,-219.4767065524557,-1.0982405159473705,-1.0982405159473705,0.0,19200,1.867724895477295,0.008360171183262037,0.004308948095318943,-218.77661503229223,0.0
2,1.7711286544799805,-218.63128880306567,1.1921560939368216,-216.1242062322765,-221.90265700183463,0.0,7.4044844821758495,0.1,0.011250972747802734,0.2535364627838135,0.04908721,0.012787305,-219.3921647775167,-1.0930224470326289,-1.0930224470326289,0.0,19200,2.2762465476989746,0.01291707590055239,0.001428778663321247,-219.2682775736814,0.0
3,1.8132355213165283,-218.38340678251248,1.0008345744911784,-214.7107536878228,-220.58338232800247,0.0,5.231361254517913,0.1,0.012197732925415039,0.2965226173400879,0.053912137,0.018728329,-219.2912889780163,-1.0917891796905017,-1.0917891796905017,0.0,19200,2.7537975311279297,0.005337742378722207,0.0003152254731581059,-218.97798073614376,0.0
4,1.8207497596740723,-218.6372342150611,0.7967829535742342,-216.90904591294643,-220.91149637009357,0.0,6.961038299694923,0.1,0.013109207153320312,0.38547682762145996,0.04804534,0.014710894,-219.22588350172077,-1.0930753020277175,-1.0930753020277175,0.0,19200,2.729623556137085,0.0014883126387046012,0.00015994297866279674,-219.69526653537156,0.0
5,1.8454465866088867,-218.88826788656198,0.7679013018971297,-217.20625032486143,-220.74863708522304,0.0,9.493603585552883,0.1,0.01204371452331543,0.3279871940612793,0.056209125,0.009875107,-219.19212194020488,-1.094329466782327,-1.094329466782327,0.0,19200,2.7921268939971924,0.00014778712485951587,6.167800933714609e-05,-218.5325573953541,0.0
6,1.777007818222046,-218.62995977880817,0.7737084991680105,-216.82437968886208,-220.85844155024955,0.0,13.362493163420275,0.1,0.011006832122802734,0.2754998207092285,0.053105343,0.0073080435,-219.13590572406522,-1.0930595435978678,-1.0930595435978678,0.0,19200,2.7419540882110596,0.00016674324522307743,3.6727977749630875e-05,-219.01851214347136,0.0
7,1.7642290592193604,-218.8252047266543,0.7015872384725421,-216.7245396802603,-220.3847204321662,0.0,6.301145526059175,0.1,0.011533737182617188,0.32091593742370605,0.048469555,0.01526003,-219.10483562432415,-1.0940355227767466,-1.0940355227767466,0.0,19200,2.755727529525757,3.467289212843932e-05,2.614698257571634e-05,-217.23855728588183,0.0
8,2.096973419189453,-217.82844746060655,0.6129518820336884,-216.6244071638846,-219.37170943569132,0.0,8.089863044909366,0.1,0.014345407485961914,0.26711297035217285,0.048374914,0.011603473,-218.9771968079524,-1.0890695360037983,-1.0890695360037983,0.0,19200,2.8505401611328125,6.394227212997772e-05,2.0958862623748394e-05,-216.90172405092736,0.0
9,1.7426958084106445,-217.19941420596774,0.5928937472755395,-215.67410139016212,-218.5703831660856,0.0,7.582608893287996,0.1,0.011822223663330078,0.27381372451782227,0.051545534,0.012392403,-218.79941854775393,-1.085934353202516,-1.085934353202516,0.0,19200,2.7282979488372803,2.8305337409797917e-05,1.7820992693621412e-05,-215.7507317279435,0.0
10,1.5945014953613281,-216.09748167599605,0.5652924417685792,-214.83307043569388,-217.9304325862795,0.0,5.4351444912207185,0.1,0.011350393295288086,0.31354260444641113,0.054167565,0.016520154,-218.52922486057815,-1.0804380930937152,-1.0804380930937152,0.0,19200,2.732145309448242,3.961663095861582e-05,1.7976796813063463e-05,-214.48778901147824,0.0
11,1.7301712036132812,-215.0663539161341,0.3685893425412313,-213.94509703717605,-216.04770944570947,0.0,6.330765139552149,0.1,0.011702537536621094,0.35004186630249023,0.053641308,0.014741619,-218.18293776613373,-1.0752937734293213,-1.0752937734293213,0.0,19200,2.772979736328125,2.259703535869192e-05,1.0090555800902986e-05,-214.1091080504371,0.0
12,1.7907347679138184,-214.4917926597989,0.32219972156876836,-213.743758067841,-215.2599985962403,0.0,7.3326945386986235,0.1,0.013722896575927734,0.30669093132019043,0.050627574,0.011216554,-217.81382325550027,-1.0724276370460137,-1.0724276370460137,0.0,19200,2.787795066833496,1.7721428391483554e-05,1.90372379941402e-05,-213.52165105515988,0.0
13,1.6940581798553467,-213.7391118200503,0.3279737985378754,-212.86719367597217,-214.60160112619874,0.0,5.663994948095748,0.1,0.01103353500366211,0.2615022659301758,0.051333092,0.016549556,-217.40635211195527,-1.0686679701040027,-1.0686679701040027,0.0,19200,2.8871803283691406,1.5552304485033022e-05,7.840515715039864e-06,-213.276177553305,0.0
14,1.692664623260498,-213.42598748809405,0.2834377465216411,-212.55893928163016,-213.99623292559144,0.0,5.176686131947048,0.1,0.011823654174804688,0.3214905261993408,0.05411015,0.017239986,-217.00831564956917,-1.0671035866641614,-1.0671035866641614,0.0,19200,2.8255481719970703,1.0043371088198671e-05,7.741016203838046e-06,-213.09764018788115,0.0
15,1.9756736755371094,-212.90283920062703,0.2098334335202681,-212.33697587224125,-213.26454243033257,0.0,8.556067817947357,0.1,0.011626720428466797,0.25876402854919434,0.054265626,0.011054008,-216.59776800467498,-1.0644891761188378,-1.0644891761188378,0.0,19200,2.826594829559326,1.04520357384091e-05,1.0520839639671202e-05,-213.0737961489889,0.0
16,1.865002155303955,-212.81331566302023,0.20238861444251957,-212.37648493650505,-213.477949455243,0.0,10.252678507754528,0.1,0.010992765426635742,0.26014184951782227,0.036343686,0.008029086,-216.2193227705095,-1.0640417962421016,-1.0640417962421016,0.0,19200,2.7084083557128906,1.008045930349565e-05,8.089944459011068e-06,-213.07962934523258,0.0
17,1.8096246719360352,-212.60119670356445,0.17969840049781916,-212.1019145407769,-213.1023691684271,0.0,10.499210629236613,0.1,0.011848211288452148,0.314089298248291,0.044463646,0.009457245,-215.857510163815,-1.0629814676921276,-1.0629814676921276,0.0,19200,2.764760732650757,8.994870221903888e-06,9.540967922364197e-06,-213.06724026684114,0.0
18,1.6919286251068115,-212.576629826239,0.1860208149901043,-212.09525547680374,-212.96914455508534,0.0,10.077648076729817,0.1,0.011684179306030273,0.27159714698791504,0.047999967,0.009767784,-215.5294221300574,-1.0628583701660772,-1.0628583701660772,0.0,19200,2.6734936237335205,8.939539476406015e-06,6.362793538217953e-06,-212.9799676629374,0.0
19,1.756174087524414,-212.37803225978678,0.22001357305346442,-211.784218845549,-213.13288716425637,0.0,8.0239143301835,0.1,0.01175999641418457,0.2657511234283447,0.044405103,0.010523168,-215.21428314303034,-1.061865503265037,-1.061865503265037,0.0,19200,2.651390314102173,8.112643017360298e-06,7.17814579666812e-06,-212.7143405663802,0.0
20,1.844496250152588,-212.04323191514933,0.23575475204321902,-211.41266695287564,-212.5198337805654,0.0,8.234313108619794,0.1,0.01094818115234375,0.3202369213104248,0.043034043,0.010773714,-214.89717802024225,-1.0601908610831685,-1.0601908610831685,0.0,19200,2.6994917392730713,7.591097451191422e-06,3.0053437048344803e-06,-212.0369087914056,0.0
21,1.8680176734924316,-211.45713351343775,0.2739062231592991,-210.75947290897392,-211.99875288436235,0.0,6.100866414587152,0.1,0.01110386848449707,0.2647135257720947,0.040059946,0.0129116075,-214.5531735695618,-1.0572601301628046,-1.0572601301628046,0.0,19200,2.6419076919555664,1.3647714291292091e-05,4.111736352378701e-06,-211.59548911422428,0.0
22,1.9602727890014648,-211.04273842509437,0.3267717933911705,-210.2551361386564,-211.72150463986995,0.0,5.472881133518325,0.1,0.012080669403076172,0.35321044921875,0.046568837,0.016666353,-214.20213005511505,-1.0551877164145502,-1.0551877164145502,0.0,19200,2.7982213497161865,6.566080451809498e-06,4.610874016140265e-06,-210.30757690585045,0.0
23,1.9302122592926025,-209.9838646689535,0.33235509262268065,-209.2706510783908,-210.78728037848825,0.0,7.124304876332738,0.1,0.011498451232910156,0.32401466369628906,0.03738779,0.010669832,-213.7803035164989,-1.049893254698289,-1.049893254698289,0.0,19200,2.689310073852539,3.2483751805581515e-05,9.0431759440801e-06,-209.07112010066623,0.0
24,1.805025339126587,-209.0046367233787,0.4167991808752305,-207.98571130658348,-210.15645162246827,0.0,4.637261012595587,0.1,0.011355161666870117,0.2738771438598633,0.04707503,0.02110952,-213.30273683718687,-1.0449971274488468,-1.0449971274488468,0.0,19200,2.7289958000183105,5.428022341536501e-05,7.736507417715081e-06,-207.4654268879201,0.0
25,1.7364599704742432,-207.93185138423777,0.457672688491343,-207.08908057322208,-208.95906706650595,0.0,7.757945299990204,0.1,0.011034250259399414,0.27809953689575195,0.04491067,0.011582024,-212.76564829189198,-1.0396330392040831,-1.0396330392040831,0.0,19200,2.6977899074554443,3.5512368802724045e-05,8.09331021802689e-06,-205.6218987239041,0.0
26,1.7092480659484863,-206.8305786880138,0.425320711703898,-205.55755142238698,-207.7345233950755,0.0,6.149959399317873,0.1,0.011076927185058594,0.2777292728424072,0.052480005,0.017089458,-212.17214133150415,-1.034126692610748,-1.034126692610748,0.0,19200,2.652539014816284,3.7551275699581824e-05,7.97403712408778e-06,-203.93274161885006,0.0
27,1.724210262298584,-205.84057531487613,0.3970270995294232,-204.89703170667374,-206.81843269997032,0.0,5.892946180816448,0.1,0.011786699295043945,0.3233776092529297,0.049052272,0.015861735,-211.53898472984136,-1.0291765464020963,-1.0291765464020963,0.0,19200,2.7045226097106934,3.169774351847067e-05,8.11099305256566e-06,-202.5634880827239,0.0
28,1.605346918106079,-204.954468511368,0.39069134483473417,-203.9828156052121,-205.83791729543927,0.0,5.92578214209268,0.1,0.011159658432006836,0.3305482864379883,0.052706063,0.01725431,-210.880533107994,-1.0247458917919892,-1.0247458917919892,0.0,19200,2.585963249206543,2.6109041669190163e-05,6.530556984148865e-06,-202.22480189412835,0.0
29,1.540367603302002,-203.94833023511242,0.3310741264933955,-202.89989244852993,-204.89511231844588,0.0,5.381344787699411,0.1,0.011493682861328125,0.32070374488830566,0.0585627,0.01585137,-210.18731282070584,-1.0197150925030738,-1.0197150925030738,0.0,19200,2.5215542316436768,3.304608408593015e-05,5.330451063804249e-06,-201.99281565837254,0.0
30,1.6391167640686035,-203.15091329485782,0.3302248051942549,-202.47613078387258,-204.0308740631587,0.0,5.567750541238728,0.1,0.011398792266845703,0.3184671401977539,0.054661356,0.017151307,-209.48367286812106,-1.0157279680365736,-1.0157279680365736,0.0,19200,2.4463438987731934,2.2329736620840526e-05,5.291882996361064e-06,-201.8382940199629,0.0
31,1.9692857265472412,-202.68270930700655,0.2085817410826317,-202.26343326061468,-203.33447146332009,0.0,8.49277116207369,0.1,0.011417627334594727,0.3357717990875244,0.05145477,0.011604423,-208.8035765120096,-1.0133869418567205,-1.0133869418567205,0.0,19200,2.4168779850006104,1.1664348882437382e-05,4.0094351246490306e-06,-201.7439811780962,0.0
32,1.7854633331298828,-202.5791763179426,0.17493607666518302,-202.20153620991022,-202.98510596361808,0.0,8.662360323368217,0.1,0.011754512786865234,0.33195996284484863,0.05084118,0.010052211,-208.18113649260292,-1.012869003494391,-1.012869003494391,0.0,19200,2.4217989444732666,3.779447167109582e-06,2.406051155295621e-06,-201.52700664348566,0.0
33,1.7158546447753906,-202.17096322943394,0.14081334533248274,-201.7890132529089,-202.62715010796907,0.0,8.128464628184377,0.1,0.011224746704101562,0.37558865547180176,0.047013115,0.011766744,-207.58011916628604,-1.010827896459061,-1.010827896459061,0.0,19200,2.2832958698272705,9.29299480767486e-06,3.263288824726466e-06,-201.4364159389981,0.0
34,2.0671114921569824,-201.96575950333502,0.13894241572259808,-201.69322095651788,-202.42143246950175,0.0,5.893676271877634,0.1,0.01348567008972168,0.2902367115020752,0.05277749,0.016774446,-207.01868319999096,-1.0098020238931726,-1.0098020238931726,0.0,19200,2.3039040565490723,3.3765949796066243e-06,4.443601359982647e-06,-201.2989855658442,0.0
35,1.6284399032592773,-201.76078277122255,0.12180222628558368,-201.4489283342861,-202.10282024470968,0.0,7.17930610859425,0.1,0.012463569641113281,0.354569673538208,0.051566657,0.013550158,-206.49289315711414,-1.0087770059340908,-1.0087770059340908,0.0,19200,2.3807008266448975,8.215160568317807e-06,2.271772096589821e-06,-201.28558578631885,0.0
36,1.5763983726501465,-201.659887038839,0.10315461484154474,-201.2459506085618,-201.88814937069856,0.0,7.077643729250645,0.1,0.011093854904174805,0.3159613609313965,0.05109915,0.013720693,-206.00959254528664,-1.0082722694155917,-1.0082722694155917,0.0,19200,2.200488328933716,3.0431216882174965e-06,2.6114931830651676e-06,-201.23628693214386,0.0
37,1.7638838291168213,-201.61110567429674,0.09829257077858779,-201.40890226111497,-201.93468829192537,0.0,8.592111464552284,0.1,0.012353897094726562,0.2761707305908203,0.04801173,0.01110645,-205.56974385818768,-1.0080282235113769,-1.0080282235113769,0.0,19200,2.2976009845733643,1.9781212289653436e-06,1.8725442521123984e-06,-201.21548597993876,0.0
38,1.7138078212738037,-201.64686686509245,0.098169209738849,-201.41140226894052,-201.91321979940366,0.0,5.524997025010054,0.1,0.012542009353637695,0.3236565589904785,0.04941139,0.016558671,-205.17745615887816,-1.0082070644358323,-1.0082070644358323,0.0,19200,2.320218324661255,1.7738756073741533e-06,2.399159780682032e-06,-201.21506037803806,0.0
39,1.961843729019165,-201.51220451577805,0.08826340936294316,-201.26035294615374,-201.70850066036888,0.0,7.197342413265441,0.1,0.011478662490844727,0.27538275718688965,0.034511283,0.008987283,-204.81093099456817,-1.007533680744105,-1.007533680744105,0.0,19200,2.124361753463745,2.3601983164490567e-06,1.5654452849154461e-06,-201.2019219729978,0.0
40,1.7285206317901611,-201.4526807631008,0.0860167012458496,-201.13244789214377,-201.64999888866038,0.0,10.056699991369571,0.1,0.010998964309692383,0.29645204544067383,0.04293111,0.007894221,-204.47510597142144,-1.0072360025050187,-1.0072360025050187,0.0,19200,2.1590211391448975,1.811601927896163e-06,2.4481697335110712e-06,-201.19388305124855,0.0
41,1.7378737926483154,-201.41512290732092,0.08516828573535727,-201.12915286511492,-201.60477546790827,0.0,11.231783740696391,0.1,0.011201620101928711,0.2829406261444092,0.05381583,0.008307848,-204.1691076650114,-1.0070481776956746,-1.0070481776956746,0.0,19200,2.126267194747925,2.039479895305195e-06,1.5037908063676612e-06,-201.18201974916536,0.0
42,1.5794177055358887,-201.3554207083258,0.08042953800595092,-201.15847247147036,-201.61771383308428,0.0,8.385007100051824,0.1,0.010907411575317383,0.32458996772766113,0.048791934,0.010559463,-203.88773896934285,-1.006749567541011,-1.006749567541011,0.0,19200,2.230813503265381,1.476013623640508e-06,2.217155484471435e-06,-201.1728028608878,0.0
43,1.7562475204467773,-201.3022604776845,0.06504633636737595,-201.1492194043856,-201.47228152426706,0.0,9.049744801590766,0.1,0.012131214141845703,0.3351621627807617,0.05221689,0.010163248,-203.629191120177,-1.006483765096036,-1.006483765096036,0.0,19200,2.135362148284912,1.8481885103735061e-06,2.6003672417344006e-06,-201.14236318123147,0.0
44,1.5796928405761719,-201.27476483674832,0.06609800327429852,-201.0515987954759,-201.41360180694284,0.0,8.697323440005976,0.1,0.012095212936401367,0.31304240226745605,0.04798842,0.010317298,-203.39374849183415,-1.0063461922832813,-1.0063461922832813,0.0,19200,2.202357530593872,2.608627834179218e-06,2.3415599028222964e-06,-201.1498431327903,0.0
45,1.5194549560546875,-201.28916821358598,0.06003896925656219,-201.13911436123897,-201.43193120817355,0.0,10.043005849572642,0.1,0.027123212814331055,0.36145615577697754,0.05151778,0.009632295,-203.18329046400936,-1.0064180646151468,-1.0064180646151468,0.0,19200,2.263360023498535,2.7150058598712628e-06,3.962355451346514e-06,-201.1191826044049,0.0
46,1.74129056930542,-201.20445116840742,0.07521780410768288,-200.98496052624722,-201.3929783182606,0.0,7.8550998478030225,0.1,0.011008739471435547,0.28699827194213867,0.054893766,0.011662418,-202.98540653444917,-1.005994639869562,-1.005994639869562,0.0,19200,2.205230474472046,5.988798841253966e-06,2.455982821302849e-06,-201.1037943428874,0.0
47,1.9879493713378906,-201.2195263784729,0.06353603862524236,-201.04512753338682,-201.40090537375275,0.0,9.230608394402793,0.1,0.011296510696411133,0.27904844284057617,0.051564544,0.008443527,-202.80881851885155,-1.006069968155191,-1.006069968155191,0.0,19200,2.266920566558838,2.6803822357050717e-06,2.288453814768359e-06,-201.0889404525701,0.0
48,1.814568281173706,-201.16451791107093,0.05060524537649315,-201.0142226539053,-201.29500478159764,0.0,8.479118089572866,0.1,0.011023521423339844,0.2578084468841553,0.048633758,0.011442694,-202.6443884580735,-1.0057948739470026,-1.0057948739470026,0.0,19200,2.20500111579895,2.4713805454951473e-06,2.948589097881615e-06,-201.09309738651487,0.0
49,1.8780508041381836,-201.1569610909224,0.045026036205318726,-201.04489819636763,-201.25589725467728,0.0,13.071048417877275,0.1,0.011553525924682617,0.31676340103149414,0.050699685,0.00646215,-202.49564572135841,-1.005756959531779,-1.005756959531779,0.0,19200,2.15665340423584,2.781482704498636e-06,2.429377055842004e-06,-201.0977794774172,0.0
50,1.829622745513916,-201.1954433174498,0.0460436140372429,-201.06920551405574,-201.29450564248387,0.0,7.727159183344293,0.1,0.012431621551513672,0.3854637145996094,0.04661446,0.013575426,-202.36562548096757,-1.0059493314842778,-1.0059493314842778,0.0,19200,2.1460185050964355,2.9673248644717765e-06,1.749385319137865e-06,-201.08289265587894,0.0
51,1.5756165981292725,-201.1818143358643,0.043849174144977916,-201.07168103065837,-201.3011962278575,0.0,7.824910671764787,0.1,0.011391639709472656,0.335313081741333,0.0492406,0.010981108,-202.24724436645727,-1.00588115974333,-1.00588115974333,0.0,19200,2.088101625442505,1.7520600506627383e-06,1.1534978337924674e-06,-201.078444218842,0.0
52,1.7472333908081055,-201.15967451633355,0.03895286109888922,-201.07708475279742,-201.27094454973792,0.0,10.198922253703955,0.1,0.011353731155395508,0.31878185272216797,0.049289506,0.0095386235,-202.13848738144492,-1.0057704277081374,-1.0057704277081374,0.0,19200,2.1038436889648438,1.151696644479582e-06,1.51052440067336e-06,-201.07199097321183,0.0
53,1.8379971981048584,-201.18268311879373,0.04081270501040734,-201.06208599451662,-201.2816061602738,0.0,6.492264508744009,0.1,0.01174616813659668,0.35692286491394043,0.0472403,0.014404281,-202.0429069551798,-1.0058854159019495,-1.0058854159019495,0.0,19200,2.182171583175659,1.5541969924288318e-06,1.2628986071285075e-06,-201.06708744545142,0.0
54,1.867997646331787,-201.17221966464717,0.046175345836973886,-201.04239042020927,-201.2854768823787,0.0,9.36484658549206,0.1,0.011201620101928711,0.31723833084106445,0.050082855,0.011474402,-201.95583822612653,-1.0058330321224036,-1.0058330321224036,0.0,19200,2.111828088760376,1.3739034421500649e-06,1.3577116755150037e-06,-201.05497158746832,0.0
55,1.7212615013122559,-201.15629954385622,0.0431320263588705,-201.04383399369874,-201.24863556479892,0.0,7.857428097924627,0.1,0.011136770248413086,0.315258264541626,0.049324013,0.013728578,-201.8758843578995,-1.0057534573029454,-1.0057534573029454,0.0,19200,2.120225191116333,1.277991499392314e-06,1.1284531694384994e-06,-201.06414052715064,0.0
56,1.7831947803497314,-201.17874274854657,0.03804154931559339,-201.08674749765706,-201.28216261908267,0.0,9.332078670732413,0.1,0.011813163757324219,0.32532620429992676,0.04861081,0.008115982,-201.80617019696422,-1.0058656471519276,-1.0058656471519276,0.0,19200,2.06230092048645,1.1822277473016768e-06,3.915703232620523e-06,-201.0628735013342,0.0
57,1.6240906715393066,-201.1420364106855,0.038002389643026296,-200.96865390341938,-201.22333116293694,0.0,11.580548782250986,0.1,0.011576652526855469,0.3482954502105713,0.046744216,0.007866555,-201.73975681833633,-1.0056821370580342,-1.0056821370580342,0.0,19200,2.1145997047424316,3.3517172047682146e-06,1.6916315496827876e-06,-201.0481354390926,0.0
58,1.814636468887329,-201.13024638329628,0.04262327753093136,-201.00704460202635,-201.23482161633257,0.0,6.5459137186285705,0.1,0.011015176773071289,0.3192939758300781,0.049404893,0.015744887,-201.6788057748323,-1.0056232185041536,-1.0056232185041536,0.0,19200,2.068406343460083,1.965113540990271e-06,1.7129733722368625e-06,-201.04096144996532,0.0
59,1.833566665649414,-201.1312875822251,0.03958461737080541,-201.0400573376341,-201.24808605086628,0.0,8.831236695160525,0.1,0.010929584503173828,0.31507253646850586,0.047409575,0.010532008,-201.62405395557158,-1.005628459424672,-1.005628459424672,0.0,19200,2.0266098976135254,1.57428976767663e-06,1.1750662745538988e-06,-201.02712515502537,0.0
60,1.765653133392334,-201.09386253070988,0.03438438537464384,-200.99874681253758,-201.1682764737383,0.0,7.14998887209826,0.1,0.011168241500854492,0.34275317192077637,0.04784837,0.012868544,-201.57103481308542,-1.0054413448068258,-1.0054413448068258,0.0,19200,2.1032021045684814,1.1241380004480592e-06,1.9860830461444242e-06,-201.04127200441675,0.0
61,1.4828407764434814,-201.09481380329862,0.03701066094210621,-200.98995404820622,-201.17285571557213,0.0,11.163295664145794,0.1,0.011228084564208984,0.3221313953399658,0.052677315,0.00928483,-201.52341271210676,-1.0054461195142679,-1.0054461195142679,0.0,19200,2.091594934463501,2.157389428136134e-06,1.4245427664023476e-06,-201.02374098309176,0.0
62,1.839411973953247,-201.0560103136235,0.03758796620676497,-200.93904120386435,-201.13879702640327,0.0,10.108283202004106,0.1,0.0206911563873291,0.3293473720550537,0.04761686,0.00919394,-201.47667247225843,-1.0052521723509502,-1.0052521723509502,0.0,19200,2.0862348079681396,1.7140544355308686e-06,1.4258474476025613e-06,-201.01440804332609,0.0
63,1.7340877056121826,-201.06541142006049,0.03409283680409327,-200.96796255911966,-201.14310534004375,0.0,8.626152029628805,0.1,0.0113372802734375,0.28551506996154785,0.05017481,0.008863036,-201.43554636703865,-1.0052991245429537,-1.0052991245429537,0.0,19200,2.032423734664917,1.5032522949637293e-06,1.4407940775844716e-06,-201.00791028794305,0.0
64,1.8256983757019043,-201.0738446749646,0.036059073615704935,-201.00129169853275,-201.15848163323022,0.0,7.686303063511698,0.1,0.011278390884399414,0.2960965633392334,0.048190076,0.011799042,-201.39937619783126,-1.0053412724192539,-1.0053412724192539,0.0,19200,2.1117804050445557,1.4241086782451813e-06,2.569364412477918e-06,-201.0086339372499,0.0
65,1.8202905654907227,-201.03527418558886,0.03623366542746881,-200.89322360740366,-201.1071491619718,0.0,6.453907788705836,0.1,0.011112213134765625,0.2593097686767578,0.047566224,0.014949517,-201.36296599660702,-1.0051484519607345,-1.0051484519607345,0.0,19200,2.0829529762268066,3.170542217228309e-06,3.6089242278032763e-06,-200.99871158073236,0.0
66,1.6837573051452637,-201.03097669759515,0.034469105442902534,-200.94613367253987,-201.10608054099694,0.0,10.827430423143559,0.1,0.010819196701049805,0.2580432891845703,0.04635709,0.009797511,-201.3297670667058,-1.0051270020981053,-1.0051270020981053,0.0,19200,2.049266815185547,3.4893966675354594e-06,1.3787795172287476e-06,-200.98977234026174,0.0
67,1.7738165855407715,-201.01451780375405,0.037485939956503185,-200.92778230795938,-201.08429316410673,0.0,8.52431120358458,0.1,0.01189279556274414,0.345623254776001,0.049199194,0.013002281,-201.29824214041065,-1.0050447736604744,-1.0050447736604744,0.0,19200,2.0103423595428467,1.447445032966393e-06,1.854382191937619e-06,-200.9870929050262,0.0
68,1.6640453338623047,-200.99085743350372,0.03757342006188265,-200.88804497514292,-201.07043172334977,0.0,10.330729561030171,0.1,0.011684179306030273,0.4115438461303711,0.04548392,0.008431519,-201.26750366971996,-1.0049263471791312,-1.0049263471791312,0.0,19200,2.124342441558838,1.6507626193503042e-06,1.6068911711283683e-06,-200.99236853083315,0.0
69,1.7374026775360107,-201.01418438285705,0.039897609304562945,-200.89452706488754,-201.1234504607436,0.0,8.312408410284462,0.1,0.011495113372802734,0.359755277633667,0.045757137,0.009594067,-201.24217174103364,-1.0050429741159903,-1.0050429741159903,0.0,19200,2.2127957344055176,2.1272178176601956e-06,1.2857444975075332e-06,-200.99092069814515,0.0
70,2.0084657669067383,-201.00377999088087,0.038670347710989435,-200.88303524516235,-201.08407974540697,0.0,8.265103996473963,0.1,0.01148676872253418,0.3261733055114746,0.04987118,0.010515341,-201.21833256601838,-1.004990862394817,-1.004990862394817,0.0,19200,1.946563720703125,1.2620952839499234e-06,1.5991527956842134e-06,-200.9871061860327,0.0
71,1.7545661926269531,-201.00212757561886,0.03722071092445427,-200.91203710434544,-201.095109690679,0.0,9.957510433362389,0.1,0.012716531753540039,0.36267948150634766,0.04946894,0.0109309,-201.19671206697842,-1.0049825769951188,-1.0049825769951188,0.0,19200,2.017071485519409,1.6526105208826055e-06,1.1898082228611244e-06,-200.98181375654787,0.0
72,1.7306530475616455,-200.96608811677865,0.04751422689036718,-200.77845935802446,-201.05528924029164,0.0,8.493654490430513,0.1,0.012037038803100586,0.2643313407897949,0.05055651,0.0109548,-201.17364967195846,-1.0048023655685892,-1.0048023655685892,0.0,19200,2.054819345474243,1.4119165117180754e-06,1.9700513957783517e-06,-200.96045955013383,0.0
73,1.8423521518707275,-200.93824653810574,0.04270570442136426,-200.83959584848964,-201.02792395231148,0.0,7.317992292649878,0.1,0.011369943618774414,0.26012253761291504,0.05024703,0.013517637,-201.1501093585732,-1.0046632534207782,-1.0046632534207782,0.0,19200,2.0960946083068848,2.3817804765414287e-06,3.2071331844820925e-06,-200.96450723012165,0.0
74,1.8102991580963135,-200.94881507562482,0.04510170591344052,-200.82083838826998,-201.06211226533304,0.0,9.992520909982522,0.1,0.012978315353393555,0.2789604663848877,0.048682403,0.009323899,-201.12997993027835,-1.004716101556342,-1.004716101556342,0.0,19200,2.205918312072754,2.9410520763707674e-06,2.5977612726812458e-06,-200.9597154727137,0.0
75,1.8843274116516113,-200.94682989848806,0.0422050713539251,-200.8455222512001,-201.01922697618954,0.0,8.738628924742411,0.1,0.012072086334228516,0.33963680267333984,0.050299276,0.009898152,-201.11166492709935,-1.0047061766064538,-1.0047061766064538,0.0,19200,2.215144634246826,2.3919959836053847e-06,1.7338054531125298e-06,-200.94810894823496,0.0
76,1.5018985271453857,-200.90960102736287,0.052447116469141006,-200.76180451773698,-201.00586263065705,0.0,8.825320432679698,0.1,0.011611223220825195,0.30080747604370117,0.047563434,0.007816631,-201.0914585371257,-1.0045201321387174,-1.0045201321387174,0.0,19200,2.313544988632202,2.494872808255678e-06,4.034439987606876e-06,-200.94612803906912,0.0
77,1.6629953384399414,-200.90807006964033,0.055293180111032854,-200.7711748350756,-201.0038552867927,0.0,9.56287169039772,0.1,0.011267662048339844,0.3116035461425781,0.03931367,0.0069467067,-201.07311969037718,-1.0045124033755544,-1.0045124033755544,0.0,19200,2.2441883087158203,3.875629140661636e-06,1.7801010339131438e-06,-200.9522615932319,0.0
78,1.9012141227722168,-200.8969491383839,0.06252893006418077,-200.70296296331762,-201.00341076093332,0.0,8.552347070039541,0.1,0.01137089729309082,0.32873058319091797,0.045561627,0.010014765,-201.05550263517787,-1.0044567357944143,-1.0044567357944143,0.0,19200,2.2664272785186768,2.3520967501842925e-06,1.8426181917534216e-06,-200.9388923455153,0.0
79,2.008152961730957,-200.87222465421192,0.06522358232576478,-200.6344644971071,-200.97738115943758,0.0,8.027822424495785,0.1,0.011710405349731445,0.3336660861968994,0.041833717,0.009179803,-201.0371748370813,-1.0043332068392734,-1.0043332068392734,0.0,19200,2.2384347915649414,1.754581220360991e-06,3.770547803306403e-06,-200.93283410726136,0.0
80,1.5710327625274658,-200.9177876160877,0.0410644164307409,-200.7849703492193,-200.99546870114392,0.0,10.435832519119066,0.1,0.011379241943359375,0.3234562873840332,0.04848136,0.009217163,-201.02523611498194,-1.0045609480218956,-1.0045609480218956,0.0,19200,2.2689380645751953,5.43254276584537e-06,2.1351398246580812e-06,-200.9284926172544,0.0
81,1.6033153533935547,-200.90854610978576,0.044278918011720424,-200.7615931787541,-200.99645841930166,0.0,8.334873774889827,0.1,0.011622905731201172,0.3305208683013916,0.046954077,0.013607103,-201.01356711446232,-1.0045147821180365,-1.0045147821180365,0.0,19200,2.3709897994995117,2.328146935343739e-06,1.5749449488223326e-06,-200.92530548927735,0.0
82,1.7854392528533936,-200.88783969901394,0.0485744364532202,-200.70268103447555,-200.9756463148801,0.0,9.186778749860144,0.1,0.0116424560546875,0.4431025981903076,0.049172893,0.009190472,-201.0009943729175,-1.0044113434665245,-1.0044113434665245,0.0,19200,2.0088961124420166,1.5044915872128393e-06,3.916770098591647e-06,-200.91696954792377,0.0
83,1.5737898349761963,-200.86578017783185,0.04747173356688854,-200.68238566350664,-200.9757338400926,0.0,7.890141013899324,0.1,0.011461973190307617,0.31773948669433594,0.05095268,0.012551693,-200.98747295340894,-1.0043010527590688,-1.0043010527590688,0.0,19200,1.9564309120178223,3.3724917347117633e-06,1.5781228165720074e-06,-200.91646683879608,0.0
84,1.5943429470062256,-200.8383582409102,0.05881949000553539,-200.6135986100107,-200.97517357283598,0.0,11.624961935063599,0.1,0.010690689086914062,0.334186315536499,0.049403712,0.0075617405,-200.97256148215905,-1.0041639749947213,-1.0041639749947213,0.0,19200,1.9857683181762695,1.936800725043105e-06,2.135035642858941e-06,-200.91429181406644,0.0
85,1.5615386962890625,-200.84421542338382,0.05828177808344797,-200.68034050178557,-200.9681535123826,0.0,7.780416445721155,0.1,0.01101994514465332,0.31780552864074707,0.050338805,0.011633421,-200.95972687628154,-1.004193192428553,-1.004193192428553,0.0,19200,2.1053080558776855,2.3367890570011154e-06,1.8372070808461823e-06,-200.9078036222155,0.0
86,1.684628963470459,-200.87453273074448,0.04668081048172774,-200.71206290380698,-200.95737928938794,0.0,8.663786660784911,0.1,0.010628938674926758,0.32278990745544434,0.049883723,0.011303064,-200.95120746172785,-1.004344763423654,-1.004344763423654,0.0,19200,2.079998016357422,2.0677079178386176e-06,1.5548081497825193e-06,-200.9134896982631,0.0
87,1.7302618026733398,-200.8942547071041,0.04121492816578742,-200.7550281264831,-200.9759391292844,0.0,10.463712328743966,0.1,0.01121377944946289,0.2621018886566162,0.053050984,0.009944103,-200.9455121862655,-1.0044432174677362,-1.0044432174677362,0.0,19200,2.069013833999634,1.3820596354141028e-06,2.2315051470508684e-06,-200.90124640714293,0.0
88,1.548720359802246,-200.87645351087076,0.04692444837158626,-200.68326305475063,-200.96175147142486,0.0,10.751347800987439,0.1,0.01154017448425293,0.32218027114868164,0.043122582,0.007959022,-200.93860631872602,-1.0043543111648965,-1.0043543111648965,0.0,19200,2.251237392425537,2.5935653514626763e-06,2.4551987414755753e-06,-200.91052269395533,0.0
89,1.5568687915802002,-200.8850938120697,0.04973555075911435,-200.73861379613976,-200.98697318048912,0.0,11.624562345800575,0.1,0.011308670043945312,0.31922435760498047,0.043726664,0.008249719,-200.9332550680604,-1.0043974037423504,-1.0043974037423504,0.0,19200,2.1547794342041016,2.602887053168434e-06,1.756931338942499e-06,-200.91273105510925,0.0
90,1.7303085327148438,-200.89962330607406,0.03912079499618995,-200.80800036210792,-200.98241312083093,0.0,8.16557829901151,0.1,0.011502742767333984,0.353100061416626,0.05389426,0.012232183,-200.92989189186176,-1.0044700246037659,-1.0044700246037659,0.0,19200,2.2477972507476807,1.5360842819066177e-06,1.5131053036855982e-06,-200.90195909406089,0.0
91,1.5530540943145752,-200.8886790194612,0.04472168989784333,-200.77324212426706,-200.96400846141685,0.0,9.141693070669726,0.1,0.014309406280517578,0.4045844078063965,0.044290513,0.0116760675,-200.9257706046217,-1.0044153553581148,-1.0044153553581148,0.0,19200,2.249047040939331,1.6379066395549382e-06,4.849663444573626e-06,-200.9061610259034,0.0
92,1.4878029823303223,-200.88833649333893,0.04351078230978818,-200.6469840170465,-200.97564989518364,0.0,9.382634588051587,0.1,0.011109590530395508,0.31439876556396484,0.050301015,0.00995508,-200.92202719349342,-1.0044136123928138,-1.0044136123928138,0.0,19200,2.3654592037200928,5.438767882940003e-06,1.4559470937394224e-06,-200.91259087559848,0.0
93,1.838937520980835,-200.9079921536094,0.034145306293202664,-200.78509648239503,-200.97242846182064,0.0,7.826699188333313,0.1,0.011343717575073242,0.3368535041809082,0.048174344,0.0123483315,-200.92062368950502,-1.0045118728881608,-1.0045118728881608,0.0,19200,2.424631118774414,1.7549213713442145e-06,1.8089265604301334e-06,-200.91422299537524,0.0
94,1.9737811088562012,-200.89465442290407,0.03697517219820408,-200.80026520869998,-200.9731692896413,0.0,8.825630528696534,0.1,0.012206792831420898,0.33085083961486816,0.048382595,0.012094142,-200.91802676284493,-1.0044450167175694,-1.0044450167175694,0.0,19200,2.335089683532715,1.6495487577144448e-06,3.095291315743993e-06,-200.91251140847768,0.0
95,1.9159693717956543,-200.88989828901677,0.04833759795556078,-200.7113806809113,-200.98518445681512,0.0,9.272206665071705,0.1,0.013191938400268555,0.37163496017456055,0.05234676,0.010212612,-200.91521391546212,-1.0044212776432915,-1.0044212776432915,0.0,19200,2.3829753398895264,2.7687552615014e-06,1.6184659811712156e-06,-200.91867367386308,0.0
96,1.7966246604919434,-200.89003666676203,0.04864825906993391,-200.76745588464598,-200.98935877543406,0.0,7.572779067911341,0.1,0.011225700378417969,0.3334980010986328,0.051809605,0.013315264,-200.91269619059213,-1.004421809536418,-1.004421809536418,0.0,19200,2.243434190750122,1.618149075620977e-06,3.215166108546745e-06,-200.9144823858064,0.0
97,1.662600040435791,-200.89887094901042,0.042110504794933126,-200.7593343414863,-201.0158358008751,0.0,8.22035130328671,0.1,0.011410236358642578,0.2675929069519043,0.04770988,0.011323435,-200.91131366643395,-1.0044659310034774,-1.0044659310034774,0.0,19200,2.1370275020599365,3.7954373455236484e-06,1.924716674184364e-06,-200.90779063903864,0.0
98,1.598405361175537,-200.8895411125692,0.04752184862795163,-200.74237144422233,-200.99128256948293,0.0,9.025925313664118,0.1,0.01656031608581543,0.28133177757263184,0.04876138,0.010278247,-200.90913641104748,-1.0044193688370147,-1.0044193688370147,0.0,19200,2.0255544185638428,1.8360670695776404e-06,2.271734583774509e-06,-200.90044850117033,0.0
99,1.5809683799743652,-200.89411191394552,0.04152291890502004,-200.78925373478478,-200.9689815297133,0.0,10.95504559484732,0.1,0.010944843292236328,0.3229334354400635,0.049464326,0.008820841,-200.9076339613373,-1.0044423042996222,-1.0044423042996222,0.0,19200,2.1122348308563232,2.5152294718954683e-06,1.7255600950915927e-06,-200.89966744963598,0.0
100,1.508058786392212,-200.86905495031957,0.04890982454732042,-200.72849796375826,-200.96076303850262,0.0,8.29877041523704,0.1,0.012324333190917969,0.32585906982421875,0.04703847,0.012996744,-200.90377606023554,-1.004317018908762,-1.004317018908762,0.0,19200,2.113879919052124,2.1130747656629727e-06,3.312062351684363e-06,-200.89270836465545,0.0
101,1.940166711807251,-200.861539419407,0.05924605568307082,-200.64146385575532,-201.00637179515735,0.0,9.170634458298823,0.1,0.012763023376464844,0.28042149543762207,0.05133259,0.012142482,-200.8995523961527,-1.0042794112942925,-1.0042794112942925,0.0,19200,2.3083903789520264,3.856356254446998e-06,3.2432481640418506e-06,-200.88984786119033,0.0
102,1.7349929809570312,-200.85309295849433,0.062220042260894254,-200.63790249487215,-200.97571019156814,0.0,9.805320524975805,0.1,0.010836362838745117,0.3202219009399414,0.051358126,0.011583902,-200.89490645238686,-1.0042372148923449,-1.0042372148923449,0.0,19200,2.1930880546569824,3.7510065195768326e-06,2.4604472291572405e-06,-200.8959939665644,0.0
103,1.723930835723877,-200.85009082881302,0.05105732498206942,-200.69306448880386,-200.97048430296476,0.0,10.720385956001298,0.1,0.011001110076904297,0.25529932975769043,0.053116605,0.009611842,-200.8904248900295,-1.0042222459458772,-1.0042222459458772,0.0,19200,2.1374268531799316,2.379450358750568e-06,1.6577195011121691e-06,-200.89234981724013,0.0
104,1.7456495761871338,-200.8659603424292,0.04493174097228993,-200.71443201233186,-200.94567204400167,0.0,6.70141520958913,0.1,0.013865470886230469,0.3617582321166992,0.049580958,0.012851137,-200.88797843526947,-1.0043015444052512,-1.0043015444052512,0.0,19200,2.1225697994232178,1.5754062309422578e-06,1.670801750047851e-06,-200.89086870817752,0.0
105,1.7802093029022217,-200.8766202860702,0.04565126501598849,-200.7682903746039,-200.9495214804056,0.0,8.477035593168708,0.1,0.011319160461425781,0.340925931930542,0.050460357,0.012018889,-200.88684262034954,-1.0043549528241555,-1.0043549528241555,0.0,19200,2.296921491622925,1.8738694970697309e-06,1.4599626500863013e-06,-200.88891258040647,0.0
106,1.8171534538269043,-200.8609468518401,0.04259885061892275,-200.73814687515835,-200.9400996822663,0.0,11.883706686013108,0.1,0.011106729507446289,0.3054027557373047,0.0481429,0.009408064,-200.8842530434986,-1.0042765849838193,-1.0042765849838193,0.0,19200,2.3477227687835693,1.4079587518504138e-06,1.3616567398707072e-06,-200.8932569301316,0.0
107,1.8056461811065674,-200.85227389292834,0.04571400644785803,-200.71336088456707,-200.95131891575306,0.0,7.074684591542594,0.1,0.01249551773071289,0.3103814125061035,0.048979066,0.014872373,-200.88105512844157,-1.0042332301773627,-1.0042332301773627,0.0,19200,2.464034080505371,1.4064646339106067e-06,2.1183643791333247e-06,-200.89696099128813,0.0
108,1.8028364181518555,-200.888401642271,0.041616225726343804,-200.7447739985066,-200.98922119868448,0.0,7.976863232654863,0.1,0.013685941696166992,0.36170506477355957,0.049618542,0.01256431,-200.88178977982452,-1.0044136463601434,-1.0044136463601434,0.0,19200,2.14795184135437,3.0716620789126653e-06,1.3645528459786174e-06,-200.88985067803245,0.0
109,1.7817676067352295,-200.8773355952827,0.03858609021272481,-200.7638215675161,-200.94656967564023,0.0,9.679525613447929,0.1,0.011463403701782227,0.3228888511657715,0.050132114,0.011266856,-200.88134436137034,-1.0043584341862932,-1.0043584341862932,0.0,19200,2.117335557937622,1.3395969447745866e-06,5.166900837981367e-06,-200.88649218531214,0.0
110,1.8849985599517822,-200.88088680377447,0.036494729707122635,-200.7705926639305,-200.950221083367,0.0,7.331100535794777,0.1,0.012192249298095703,0.372056245803833,0.048462603,0.014672644,-200.88129860561074,-1.0043762576757993,-1.0043762576757993,0.0,19200,2.185429573059082,4.8404755817130805e-06,1.6606257416667845e-06,-200.87895456375958,0.0
111,1.8114492893218994,-200.87034562291737,0.03614645908430183,-200.77285541035178,-200.92690698021818,0.0,9.331490713949233,0.1,0.012316226959228516,0.31844472885131836,0.050733052,0.010301041,-200.8802033073414,-1.0043236057661828,-1.0043236057661828,0.0,19200,2.270249128341675,1.5650931832027784e-06,1.3032659261303265e-06,-200.87881431669012,0.0
112,1.8807165622711182,-200.85680189254003,0.04171427764061303,-200.68641872558882,-200.92612445794776,0.0,9.196601786315496,0.1,0.012551307678222656,0.33196473121643066,0.047844466,0.011755431,-200.87786316586124,-1.0042558916636095,-1.0042558916636095,0.0,19200,2.324014186859131,1.3361826006741395e-06,3.24979187896726e-06,-200.87747912293744,0.0
113,1.5614562034606934,-200.8615140783074,0.03375169712571601,-200.72746498973265,-200.92553263910364,0.0,9.370621146828325,0.1,0.011264801025390625,0.2878410816192627,0.042629078,0.0085743675,-200.87622825710588,-1.004279294700435,-1.004279294700435,0.0,19200,2.2147059440612793,2.9249618154589547e-06,2.8191289602234382e-06,-200.8763898107057,0.0
114,1.6160283088684082,-200.8441645060857,0.04722039178921796,-200.69171382844402,-200.9380082721102,0.0,7.8402531152464485,0.1,0.011347532272338867,0.2604961395263672,0.05310288,0.013106255,-200.87302188200385,-1.0041927023838408,-1.0041927023838408,0.0,19200,2.136758804321289,3.830432874229713e-06,1.4239121893348697e-06,-200.87952918443312,0.0
115,1.5557470321655273,-200.8548070981627,0.040908291605422094,-200.68032452234215,-200.92510674721055,0.0,9.29732512372702,0.1,0.018309354782104492,0.3870551586151123,0.048023578,0.0104205115,-200.87120040361975,-1.00424586739553,-1.00424586739553,0.0,19200,2.0933244228363037,1.3382880264436775e-06,1.6631830935640765e-06,-200.8816335380899,0.0
116,1.5803918838500977,-200.8501891083059,0.04692336882397218,-200.71412786816776,-200.94436929984337,0.0,8.990631574917378,0.1,0.011145830154418945,0.3142979145050049,0.0481977,0.010013476,-200.86909927408837,-1.0042227117849636,-1.0042227117849636,0.0,19200,2.245054006576538,1.6700046513216124e-06,2.914042097815582e-06,-200.88090275295906,0.0
117,1.5338702201843262,-200.84670413059303,0.04037398963378157,-200.6973995465274,-200.92094293186818,0.0,10.928866762508644,0.1,0.011344671249389648,0.31389355659484863,0.04842852,0.009763527,-200.86685975973884,-1.0042051516726787,-1.0042051516726787,0.0,19200,2.2932586669921875,2.76632190367796e-06,1.6097025872483647e-06,-200.88235015827527,0.0
118,1.6243417263031006,-200.86275596124895,0.0500969306197462,-200.70988016067147,-200.94781692454941,0.0,11.858070410262057,0.1,0.013605594635009766,0.35738492012023926,0.04589188,0.008062628,-200.86644937988984,-1.0042852625720613,-1.0042852625720613,0.0,19200,2.195464611053467,2.0409267792962443e-06,2.459094266283263e-06,-200.88032417040336,0.0
119,1.5705647468566895,-200.8484092448499,0.0567471517533742,-200.68865691999974,-200.94089117734785,0.0,10.83064770173408,0.1,0.011783123016357422,0.33112502098083496,0.03834591,0.0066641364,-200.86464536638584,-1.0042136255051082,-1.0042136255051082,0.0,19200,2.1314752101898193,3.243579195943331e-06,2.919621088210838e-06,-200.87639132710774,0.0
120,1.5892243385314941,-200.89271107123375,0.03735974186639518,-200.7403931162519,-200.9618072379153,0.0,7.898536803435769,0.1,0.011934757232666016,0.3364295959472656,0.050057378,0.014566646,-200.86745193687065,-1.0044351319002007,-1.0044351319002007,0.0,19200,2.103104591369629,2.0083690005895683e-06,1.3107402276695858e-06,-200.88072582068625,0.0
121,1.8058578968048096,-200.90388788660286,0.03918055577719708,-200.71624809402914,-200.9813694805117,0.0,8.93158994883592,0.1,0.011555671691894531,0.33780956268310547,0.05062603,0.012618902,-200.87109553184388,-1.0044908325059347,-1.0044908325059347,0.0,19200,2.2191295623779297,1.3298655039701978e-06,1.3494193285397158e-06,-200.87841477620984,0.0
122,1.487375259399414,-200.90714336784166,0.035794413707285616,-200.8082988735501,-200.97961964138892,0.0,9.150566030637561,0.1,0.010596513748168945,0.29726409912109375,0.048228417,0.0074162036,-200.87470031544368,-1.0045072843552738,-1.0045072843552738,0.0,19200,2.121767044067383,1.3107458323371062e-06,3.637200867252465e-06,-200.88153087986393,0.0
123,1.719451665878296,-200.9041486462684,0.029446580410781284,-200.8403819355497,-200.97081014431603,0.0,7.8540361859345715,0.1,0.014040231704711914,0.323413610458374,0.05176595,0.01400991,-200.87764514852614,-1.0044921901817965,-1.0044921901817965,0.0,19200,2.0572493076324463,3.389231107792783e-06,3.657732536753759e-06,-200.88032447661166,0.0
124,1.5854618549346924,-200.9119310809538,0.03587781407572462,-200.77809379981733,-200.97829255106362,0.0,6.8333245420510895,0.1,0.012399673461914062,0.29169321060180664,0.050965004,0.013452547,-200.88107374176892,-1.0045312197716054,-1.0045312197716054,0.0,19200,2.1287269592285156,3.62627726892558e-06,1.9023410270211456e-06,-200.8895721003288,0.0
125,1.5886809825897217,-200.92595523329274,0.03205996678271156,-200.86062508459025,-201.00731595422104,0.0,7.525663555645873,0.1,0.01128387451171875,0.3235194683074951,0.05251056,0.0151086645,-200.88556189092128,-1.0046010229903086,-1.0046010229903086,0.0,19200,2.2472846508026123,2.2468262404694635e-06,3.921144009111919e-06,-200.89931377245563,0.0
126,1.9704818725585938,-200.94620312997503,0.03512590190369701,-200.8172860119182,-201.0167709994955,0.0,10.431262571224089,0.1,0.01126551628112793,0.33966827392578125,0.05016624,0.010268964,-200.89162601482667,-1.004701927272183,-1.004701927272183,0.0,19200,2.2930197715759277,4.469562973240128e-06,6.873018713692241e-06,-200.9027012359075,0.0
127,1.8651888370513916,-200.9666903844461,0.02952818961600068,-200.89401153822263,-201.05746718550787,0.0,6.562240941908765,0.1,0.011723995208740234,0.335590124130249,0.048263334,0.015186479,-200.89913245178863,-1.0048042015733598,-1.0048042015733598,0.0,19200,2.277916669845581,7.846164777102188e-06,1.8235748461938702e-06,-200.90878853882185,0.0
128,1.7337310314178467,-200.96659933675073,0.03033478247466778,-200.8567495981039,-201.04725947720175,0.0,11.838347485100346,0.1,0.011143684387207031,0.3169066905975342,0.042297628,0.0072694267,-200.90587914028487,-1.0048035149619998,-1.0048035149619998,0.0,19200,2.253213882446289,1.861007845368056e-06,2.210994016827841e-06,-200.91561325657617,0.0
129,1.7602598667144775,-200.9642841861729,0.02959896145528317,-200.88187771716431,-201.03285757904615,0.0,9.131809815814261,0.1,0.012164831161499023,0.3234376907348633,0.043691035,0.008656587,-200.9117196448737,-1.0047917560365314,-1.0047917560365314,0.0,19200,2.249159812927246,2.1321269787480187e-06,1.5744336174427719e-06,-200.91160449467688,0.0
130,1.5738506317138672,-200.95519357061593,0.025021103443187538,-200.89328178813577,-201.01368886978045,0.0,7.671063843547023,0.1,0.015069723129272461,0.36248350143432617,0.04646428,0.012453562,-200.91606703744793,-1.0047464994255413,-1.0047464994255413,0.0,19200,2.379288673400879,1.5849705774366857e-06,1.190142175652407e-06,-200.9119181830871,0.0
131,1.4835631847381592,-200.95487744353872,0.027312008314324426,-200.8780671674676,-201.02595056711738,0.0,9.428461376810157,0.1,0.011320352554321289,0.2566392421722412,0.04871152,0.012103256,-200.91994807805702,-1.0047449492624454,-1.0047449492624454,0.0,19200,2.2180328369140625,1.1691604001884044e-06,1.187877433090897e-06,-200.91178634257773,0.0
132,1.607602834701538,-200.96917189599594,0.025225624609902828,-200.90179350869633,-201.03474181162963,0.0,9.876804059622343,0.1,0.011390209197998047,0.3270142078399658,0.052909322,0.011828906,-200.92487045985092,-1.0048163293519465,-1.0048163293519465,0.0,19200,2.2158501148223877,1.224147101267606e-06,2.3961439799015423e-06,-200.90791667111324,0.0
133,1.5575480461120605,-200.95078993910883,0.02162644746854052,-200.901686211771,-201.0020308964947,0.0,13.339709817750961,0.1,0.011190652847290039,0.26142311096191406,0.048136815,0.0061956467,-200.92746240777672,-1.004724658198121,-1.004724658198121,0.0,19200,2.185380220413208,2.0151481660512574e-06,1.6640491482729395e-06,-200.90686452039645,0.0
134,1.6848642826080322,-200.9531821400644,0.023232316997269076,-200.8988160111744,-201.01672074086062,0.0,8.417969709668958,0.1,0.011084556579589844,0.3009958267211914,0.04877271,0.011874593,-200.9300343810055,-1.0047366581971418,-1.0047366581971418,0.0,19200,2.192038059234619,1.6886468780018535e-06,3.192300134923526e-06,-200.90276032909685,0.0
135,1.9034662246704102,-200.94592372391443,0.01903950958728037,-200.90530588683376,-200.99070135596932,0.0,10.073645294025953,0.1,0.01384878158569336,0.2689783573150635,0.051451236,0.009848348,-200.9316233152964,-1.004700392237204,-1.004700392237204,0.0,19200,2.0845160484313965,3.238383637645601e-06,1.1673584866617873e-06,-200.90897167873584,0.0
136,1.4681179523468018,-200.94699669689655,0.019891781398306656,-200.8987261929716,-201.00511995307363,0.0,11.653258904535928,0.1,0.011152267456054688,0.33069515228271484,0.04848023,0.009150992,-200.9331606534564,-1.0047057475758125,-1.0047057475758125,0.0,19200,2.1464014053344727,1.1889110461906574e-06,1.920493704530476e-06,-200.90946034054772,0.0
137,1.4746336936950684,-200.93747421602052,0.016188264954345066,-200.88357646957928,-200.97484853046126,0.0,8.10182036191414,0.1,0.010985612869262695,0.3220953941345215,0.048310734,0.0118288165,-200.9335920097128,-1.0046580206287024,-1.0046580206287024,0.0,19200,2.0764505863189697,1.7827464413195469e-06,2.286661701341664e-06,-200.92538223832221,0.0
138,1.5261387825012207,-200.96019142257333,0.01802452003325517,-200.89052218981746,-201.01855504955077,0.0,6.378266120376886,0.1,0.011283397674560547,0.3198537826538086,0.051140457,0.01465196,-200.9362519509989,-1.0047711268918202,-1.0047711268918202,0.0,19200,2.140272855758667,2.856648751869495e-06,1.3731867935012981e-06,-200.9209762105836,0.0
139,1.473074197769165,-200.95516884976203,0.021014784081966283,-200.87478093693957,-201.00432916095517,0.0,8.252350001767025,0.1,0.011150836944580078,0.31763291358947754,0.04989766,0.014106593,-200.9381436408752,-1.0047461679529295,-1.0047461679529295,0.0,19200,2.1582396030426025,1.5555116483996548e-06,1.5237579095692612e-06,-200.9164903703093,0.0
140,1.4791433811187744,-200.94758217538242,0.023093053681016818,-200.88999319836745,-201.00247373451296,0.0,11.094538335958376,0.1,0.011162996292114258,0.3198237419128418,0.038924,0.006396015,-200.93908749432595,-1.0047084212889426,-1.0047084212889426,0.0,19200,2.0835556983947754,2.0180421741393927e-06,1.7118383715593643e-06,-200.92088280509194,0.0
141,1.631051778793335,-200.9505132925357,0.0251584550780807,-200.89717802038555,-201.04672157927934,0.0,8.943438293280204,0.1,0.010624885559082031,0.27249813079833984,0.049637806,0.010455032,-200.94023007414694,-1.0047230533201728,-1.0047230533201728,0.0,19200,2.085829973220825,1.813956618019114e-06,5.112830251732964e-06,-200.93002613769949,0.0
142,1.6630935668945312,-200.95332589593934,0.020773495821437653,-200.89843422589138,-201.01316299607504,0.0,8.070278706835866,0.1,0.010647296905517578,0.2514512538909912,0.04945698,0.01134305,-200.9415396563262,-1.0047368438861355,-1.0047368438861355,0.0,19200,2.1645560264587402,5.538920575042236e-06,2.6234279328583983e-06,-200.94060315294263,0.0
143,1.515251636505127,-200.9749384644797,0.025493933947531813,-200.8891637384479,-201.0298499975732,0.0,7.520573885352921,0.1,0.010879755020141602,0.3390357494354248,0.046595637,0.012099391,-200.94487953714156,-1.0048444568333992,-1.0048444568333992,0.0,19200,2.205125570297241,3.133347876917983e-06,1.2893330120742543e-06,-200.94125080188218,0.0
144,1.4493582248687744,-200.9673031137447,0.02378365659120685,-200.8802132507419,-201.05484278587045,0.0,12.569768055027358,0.1,0.011020421981811523,0.3256552219390869,0.028320214,0.0044528437,-200.94712189480188,-1.004806217362442,-1.004806217362442,0.0,19200,2.288996696472168,1.2812042609886955e-06,1.806188995501842e-06,-200.93607997958145,0.0
145,1.5229356288909912,-200.9671809852455,0.022871019148256396,-200.9092824929973,-201.03385348632656,0.0,7.5124181868951165,0.1,0.010854482650756836,0.31746888160705566,0.05204803,0.012964477,-200.94912780384624,-1.004805523143412,-1.004805523143412,0.0,19200,2.262993812561035,1.8969593438793543e-06,3.9710653001339725e-06,-200.9474410614602,0.0
146,1.4818205833435059,-200.9727854070445,0.01753475004078218,-200.9143232783301,-201.01768858170857,0.0,8.070380283051936,0.1,0.010998725891113281,0.2821640968322754,0.047465503,0.011413015,-200.95149356416607,-1.0048334090378737,-1.0048334090378737,0.0,19200,2.154996156692505,4.258542276288958e-06,7.646654319376446e-06,-200.94511698509598,0.0
147,1.4597539901733398,-200.98261005136416,0.02401481578610098,-200.92500787995377,-201.08081570689822,0.0,8.666422450682935,0.1,0.011293649673461914,0.32853031158447266,0.05209789,0.0108980145,-200.95460521288587,-1.0048824659026225,-1.0048824659026225,0.0,19200,2.3026862144470215,7.969626121011564e-06,2.610051134316101e-06,-200.93643310188543,0.0
148,1.4579284191131592,-200.9725130049611,0.02005700237563383,-200.93008366864458,-201.02417048852172,0.0,10.424645891258594,0.1,0.010912895202636719,0.3265807628631592,0.04384961,0.0071776705,-200.9563959920934,-1.0048325510568537,-1.0048325510568537,0.0,19200,2.3082892894744873,2.990467916009616e-06,1.441442387382998e-06,-200.94194824879492,0.0
149,1.449639081954956,-200.98131732272418,0.027730108918838217,-200.91325412644457,-201.04831518259357,0.0,10.361786837879938,0.1,0.01201629638671875,0.3248429298400879,0.049982954,0.008994645,-200.95888812515648,-1.0048763586586733,-1.0048763586586733,0.0,19200,2.2241523265838623,1.456730527054548e-06,2.637963358919236e-06,-200.9417188115527,0.0
150,1.6271741390228271,-200.97305817958804,0.021778355828559397,-200.91766024359313,-201.019654857659,0.0,12.994451590192545,0.1,0.011190176010131836,0.26259875297546387,0.04612673,0.009304231,-200.96030513059964,-1.004835023347997,-1.004835023347997,0.0,19200,2.1162760257720947,2.5995356316939428e-06,2.8154659289598654e-06,-200.94570092824563,0.0
151,1.5183863639831543,-200.98763790611687,0.02540461687855954,-200.91433102789918,-201.06096707377094,0.0,6.585449174083968,0.1,0.011423110961914062,0.3282783031463623,0.04853826,0.013334778,-200.96303840815136,-1.0049079616582228,-1.0049079616582228,0.0,19200,2.0636403560638428,2.8018689844895354e-06,1.2194823957567438e-06,-200.9589217597641,0.0
152,1.465005874633789,-201.0074995800653,0.02972732106172449,-200.94980141861396,-201.08501835866582,0.0,7.908499340320188,0.1,0.010846376419067383,0.28316712379455566,0.04790097,0.0114697805,-200.96748452534277,-1.0050068112434722,-1.0050068112434722,0.0,19200,2.1420915126800537,1.2025178864095894e-06,1.6293089485492143e-06,-200.96859465131925,0.0
153,1.4842028617858887,-201.01998849341848,0.02213601446215995,-200.95625315036648,-201.09985767858498,0.0,11.115642357240448,0.1,0.011453390121459961,0.3275628089904785,0.044587962,0.010987127,-200.97273492215032,-1.0050689961637607,-1.0050689961637607,0.0,19200,2.049931287765503,1.4104799350300693e-06,1.16207493826052e-06,-200.97769072151226,0.0
154,1.4913036823272705,-201.02364831675422,0.02589006267263058,-200.9699173350985,-201.09500406476096,0.0,5.6509952168697115,0.1,0.010851621627807617,0.3173046112060547,0.05116583,0.017130475,-200.97782626161072,-1.005087173446844,-1.005087173446844,0.0,19200,2.063835859298706,1.2449816358673722e-06,1.7854632209940362e-06,-200.98372280439372,0.0
155,1.4607651233673096,-201.02320605460105,0.030541034270723192,-200.91769127883057,-201.0822905349896,0.0,10.532005873193711,0.1,0.011107921600341797,0.31856203079223633,0.053349666,0.0077224383,-200.98236424090976,-1.005084841891837,-1.005084841891837,0.0,19200,2.1891074180603027,1.9865814967471436e-06,2.397488620724224e-06,-200.98223546040708,0.0
156,1.4752962589263916,-201.03427137164553,0.026284416284431844,-200.9644192298896,-201.10325332881962,0.0,7.8292276880205485,0.1,0.01102304458618164,0.3242638111114502,0.049719505,0.011284481,-200.98755495398333,-1.0051400917801632,-1.0051400917801632,0.0,19200,2.2134246826171875,2.250364443478624e-06,2.511290300271683e-06,-200.99843209836052,0.0
157,1.4550220966339111,-201.06615986271888,0.02837295315409839,-200.98562689823527,-201.16909212882547,0.0,10.933971707753381,0.1,0.011310338973999023,0.32338953018188477,0.048384592,0.011206142,-200.9954154448569,-1.0052990418588197,-1.0052990418588197,0.0,19200,2.1750752925872803,1.897275291355796e-06,1.5358845180157296e-06,-201.022116187587,0.0
158,1.6252880096435547,-201.10380106127022,0.035847529561444755,-201.03686562222364,-201.21836769800288,0.0,10.162873324687636,0.1,0.01209878921508789,0.31343626976013184,0.04600414,0.010156822,-201.00625400649824,-1.0054868563928672,-1.0054868563928672,0.0,19200,2.200913190841675,1.7528564399405494e-06,2.0515318166799307e-06,-201.03708528316943,0.0
159,1.461744785308838,-201.12002796197643,0.029020504730362273,-201.05964606448416,-201.19574888025443,0.0,9.017755836288298,0.1,0.010945320129394531,0.31835007667541504,0.048136905,0.0090136975,-201.01763140204605,-1.0055673547937005,-1.0055673547937005,0.0,19200,2.1732449531555176,1.4871576643026162e-06,3.082115333247405e-06,-201.05210139342012,0.0
160,1.5310590267181396,-201.13891283389592,0.03513270507155249,-201.04290864758028,-201.24495739285564,0.0,7.5860434317254475,0.1,0.01160883903503418,0.26721787452697754,0.046629705,0.011293555,-201.02975954523103,-1.0056613788286812,-1.0056613788286812,0.0,19200,2.162432909011841,3.981534441031156e-06,1.3151309772520602e-06,-201.03751549238763,0.0
161,1.4846360683441162,-201.12802725747306,0.031229343647680104,-201.04368916695702,-201.2296444129719,0.0,9.449108261477672,0.1,0.011307477951049805,0.32955098152160645,0.04818237,0.009825466,-201.03958631645526,-1.0056071871493852,-1.0056071871493852,0.0,19200,2.198260545730591,1.3334455598538761e-06,1.5552312125626762e-06,-201.05435155131815,0.0
162,1.454676866531372,-201.13890398922976,0.037507987998878056,-201.051749947372,-201.26158031974617,0.0,8.850407416244558,0.1,0.010771036148071289,0.3216390609741211,0.05301021,0.010820786,-201.04951808373272,-1.0056613697706183,-1.0056613697706183,0.0,19200,2.1135659217834473,1.7437396556970364e-06,1.615190031676292e-06,-201.06582828259948,0.0
163,1.4499309062957764,-201.14582031297687,0.03579404796120703,-201.05150408373228,-201.24267810770812,0.0,9.837446689002475,0.1,0.010698080062866211,0.32065486907958984,0.047396097,0.0072007086,-201.05914830665714,-1.0056958436826042,-1.0056958436826042,0.0,19200,2.107849597930908,1.6977354981982818e-06,1.3192747984680038e-06,-201.06851991225273,0.0
164,1.469191312789917,-201.15547457059992,0.0381451888283381,-201.04865413378337,-201.2603995685619,0.0,7.923694482327945,0.1,0.011393547058105469,0.3117833137512207,0.047746208,0.013228545,-201.0687809330514,-1.0057439546735625,-1.0057439546735625,0.0,19200,2.138676643371582,1.2515437928132544e-06,2.6940866511005243e-06,-201.08306613312817,0.0
165,1.452291488647461,-201.16489000791375,0.034487808837634,-201.08198985495298,-201.24507425184572,0.0,9.754800057559374,0.1,0.011362552642822266,0.32430052757263184,0.047222804,0.01061169,-201.07839184053765,-1.0057907456470512,-1.0057907456470512,0.0,19200,2.2690703868865967,2.933380571941626e-06,2.1122488751378604e-06,-201.08087638685083,0.0
166,1.4826226234436035,-201.16279240538825,0.0358928502842711,-201.07642849174496,-201.2584349213755,0.0,8.34526040760547,0.1,0.010868549346923828,0.3264195919036865,0.050862875,0.011468071,-201.0868318970227,-1.0057803432794727,-1.0057803432794727,0.0,19200,2.2820518016815186,2.104506752496264e-06,4.865466432246839e-06,-201.10093210355163,0.0
167,1.648618221282959,-201.1880296268446,0.03632832688812487,-201.10788669798515,-201.29108731368802,0.0,7.107479665604382,0.1,0.011243104934692383,0.318310022354126,0.047890607,0.015576872,-201.0969516700049,-1.0059062070656248,-1.0059062070656248,0.0,19200,2.306004285812378,4.5026672268862646e-06,2.947404139974596e-06,-201.09039358744002,0.0
168,1.4447286128997803,-201.16559375300776,0.035396567630123554,-201.04484628160066,-201.24123919863854,0.0,10.036136180927782,0.1,0.011157512664794922,0.32308340072631836,0.04964565,0.009657615,-201.10381587830517,-1.0057943620352685,-1.0057943620352685,0.0,19200,2.299166202545166,2.6418007663221553e-06,1.8984172679175168e-06,-201.09741644209853,0.0
169,1.4694290161132812,-201.15636572037658,0.032744174308205545,-201.07357342155862,-201.25169522554114,0.0,9.060331141918576,0.1,0.011233806610107422,0.32831692695617676,0.04729878,0.009414028,-201.1090708625123,-1.0057482997642342,-1.0057482997642342,0.0,19200,2.299969434738159,1.9903683890229373e-06,1.3221800929120834e-06,-201.08125881277726,0.0
170,1.4582312107086182,-201.14594743051933,0.03307297232343305,-201.0648433925076,-201.21987432160964,0.0,8.41711984873763,0.1,0.01227569580078125,0.3191249370574951,0.04907879,0.009511323,-201.11275851931302,-1.0056960949557208,-1.0056960949557208,0.0,19200,2.29502010345459,1.3767412409891564e-06,1.8892729716528305e-06,-201.12224017631863,0.0
171,1.4524497985839844,-201.1861709889333,0.035296854272468835,-201.04829032777403,-201.2638714512774,0.0,6.743087024318085,0.1,0.010695219039916992,0.3231174945831299,0.04965378,0.014447351,-201.12009976627505,-1.0058967142227881,-1.0058967142227881,0.0,19200,2.356815814971924,2.6678912305733376e-06,4.475277928071791e-06,-201.1538779083907,0.0
172,1.503661870956421,-201.223246792087,0.04239136004379148,-201.09484773564282,-201.3367944415653,0.0,11.094181049488917,0.1,0.010951995849609375,0.327897310256958,0.048281137,0.009211138,-201.13041446885626,-1.00608176576696,-1.00608176576696,0.0,19200,2.32627010345459,5.605079783856085e-06,1.7328018910112462e-06,-201.17626724285748,0.0
173,1.458448886871338,-201.24202402517062,0.03868485781692321,-201.1605757127824,-201.34477007707548,0.0,10.101422189630417,0.1,0.011015892028808594,0.3174126148223877,0.05135553,0.007791003,-201.14157542448768,-1.0061753731430627,-1.0061753731430627,0.0,19200,2.2868306636810303,2.1177846900379657e-06,1.5062188042724675e-06,-201.17659073957333,0.0
174,1.6094310283660889,-201.23846003713186,0.03862357427805349,-201.15827768262298,-201.32020773643112,0.0,10.952892720051263,0.1,0.012223482131958008,0.3193938732147217,0.046847593,0.0089258915,-201.15126388575212,-1.0061574315055402,-1.0061574315055402,0.0,19200,2.289508581161499,1.5369063052176127e-06,1.6052078650136e-06,-201.184314048072,0.0
175,1.4907846450805664,-201.2316398215061,0.042372604891457714,-201.0932252381603,-201.31389140493005,0.0,12.15028853926939,0.1,0.01155233383178711,0.2596263885498047,0.05175391,0.008061217,-201.1593014793275,-1.0061234400268788,-1.0061234400268788,0.0,19200,2.1991617679595947,1.6480921328563694e-06,1.7441867510685818e-06,-201.21760901546804,0.0
176,1.4780874252319336,-201.26688545942235,0.04515367062112235,-201.15114783610602,-201.36919329107585,0.0,8.333259164181746,0.1,0.011478185653686523,0.3173258304595947,0.05389162,0.01091743,-201.170059877337,-1.0062993323094591,-1.0062993323094591,0.0,19200,2.110591411590576,2.0445135997174034e-06,2.4402886980455005e-06,-201.22721789845588,0.0
177,1.5143258571624756,-201.25706790358603,0.04464580080283366,-201.16464460187922,-201.37691191386853,0.0,9.896529540063817,0.1,0.010715961456298828,0.28444361686706543,0.04945714,0.0103480285,-201.1787606799619,-1.0062506639896924,-1.0062506639896924,0.0,19200,2.1743781566619873,2.38315999830276e-06,1.6447423600555806e-06,-201.26193801667466,0.0
178,1.4885756969451904,-201.28815122518324,0.043069876877286,-201.17819384209184,-201.38789125591768,0.0,11.096333239001417,0.1,0.011389732360839844,0.32372522354125977,0.048082054,0.00877,-201.18969973448404,-1.0064054152811959,-1.0064054152811959,0.0,19200,2.2163634300231934,2.0661313223684957e-06,2.4872820163764997e-06,-201.29516053781796,0.0
179,1.517219066619873,-201.31321325795872,0.05062784197342337,-201.16029367747737,-201.41799411411154,0.0,9.250138395843322,0.1,0.011159658432006836,0.32181715965270996,0.05262515,0.011978617,-201.20205108683152,-1.0065301753791485,-1.0065301753791485,0.0,19200,2.220473051071167,3.0351020847774487e-06,2.979728735509336e-06,-201.25180766605786,0.0
180,1.4881672859191895,-201.2639954214698,0.04884493726632895,-201.1322209291908,-201.3831850011452,0.0,11.660449009122033,0.1,0.011310338973999023,0.317333459854126,0.049359918,0.008407301,-201.20824552029535,-1.0062845292525442,-1.0062845292525442,0.0,19200,2.306457996368408,4.147620963871648e-06,2.589661656204432e-06,-201.23701507519567,0.0
181,1.4814262390136719,-201.25539250422707,0.04407557574653174,-201.15724972002675,-201.36504813946718,0.0,7.238287472090595,0.1,0.011473417282104492,0.31801605224609375,0.05416776,0.009015894,-201.21296021868855,-1.0062414406233355,-1.0062414406233355,0.0,19200,2.4015989303588867,2.4945404222770877e-06,1.7625619393892275e-06,-201.25530960145426,0.0
182,1.6544108390808105,-201.27678757871692,0.03779265477339001,-201.18466816961467,-201.376794093016,0.0,8.478221906600632,0.1,0.010749578475952148,0.27724623680114746,0.048878074,0.010919111,-201.2193429546914,-1.0063482765611733,-1.0063482765611733,0.0,19200,2.276143789291382,1.8369143749122399e-06,1.3785934311188049e-06,-201.27364761359047,0.0
183,1.5106432437896729,-201.2909620955394,0.04570185781213724,-201.1732119376125,-201.408884584811,0.0,11.026133139105863,0.1,0.011454105377197266,0.3267371654510498,0.044054706,0.0065343045,-201.2265048687762,-1.0064185937102195,-1.0064185937102195,0.0,19200,2.178166151046753,1.416526367908361e-06,1.4778119967486676e-06,-201.29585469718427,0.0
184,1.4633917808532715,-201.3034316126148,0.04673429039247033,-201.14222481992402,-201.4103973584268,0.0,10.201334480211047,0.1,0.011385917663574219,0.31389498710632324,0.050851807,0.009096775,-201.23419754316006,-1.006480672836416,-1.006480672836416,0.0,19200,2.310657501220703,1.3458731445368299e-06,4.005164563053176e-06,-201.29137631590285,0.0
185,1.5180275440216064,-201.3062704975749,0.04155944127849562,-201.19185295518898,-201.4140039294536,0.0,10.7159846355408,0.1,0.011601924896240234,0.3233370780944824,0.049896006,0.00949603,-201.24140483860157,-1.0064950809749,-1.0064950809749,0.0,19200,2.274820327758789,3.879589676149617e-06,3.817170475864073e-06,-201.34449043844182,0.0
186,1.478769302368164,-201.34856416290242,0.04531915515344532,-201.23736663723292,-201.47840933262174,0.0,9.034024762507206,0.1,0.010870218276977539,0.32423949241638184,0.052402988,0.008105646,-201.25212077103166,-1.0067058597319851,-1.0067058597319851,0.0,19200,2.212221145629883,5.431073682152621e-06,2.194438471984296e-06,-201.3446099414183,0.0
187,1.4973628520965576,-201.33220455290078,0.04526214320617627,-201.15605008211892,-201.4386855111342,0.0,9.34738897608642,0.1,0.011713266372680664,0.3286271095275879,0.049425717,0.0096745975,-201.26012914921859,-1.006624399070921,-1.006624399070921,0.0,19200,2.24910306930542,2.3937974367473015e-06,2.4499121632109864e-06,-201.37634220824853,0.0
188,1.4685988426208496,-201.33968547580744,0.04476564019155516,-201.22099807076336,-201.4199791565515,0.0,6.458304565834476,0.1,0.011250734329223633,0.32333874702453613,0.04710177,0.014648825,-201.26808478187746,-1.0066612529989392,-1.0066612529989392,0.0,19200,2.285067558288574,2.4088144051207765e-06,1.6797516265373582e-06,-201.39104317373358,0.0
189,1.486407995223999,-201.35205387805544,0.04895908175717687,-201.2068643922243,-201.4538957412613,0.0,10.039148428693775,0.1,0.011390447616577148,0.31871581077575684,0.045995604,0.008419349,-201.27648169149526,-1.0067228169053435,-1.0067228169053435,0.0,19200,2.314638137817383,1.8475894879632122e-06,3.3548250240875745e-06,-201.35680598668176,0.0
190,1.5299289226531982,-201.32197757969956,0.05462202235994714,-201.16679290807878,-201.4320939233924,0.0,8.423978494658165,0.1,0.011123180389404297,0.31954264640808105,0.049960162,0.012986313,-201.2810312803157,-1.0065726294600161,-1.0065726294600161,0.0,19200,2.32124400138855,2.6267961307699357e-06,1.9166936142882734e-06,-201.40456511076167,0.0
191,1.4585316181182861,-201.34251516675317,0.054126804837806415,-201.11110519507218,-201.46461134192657,0.0,10.7932233836483,0.1,0.011420249938964844,0.28882718086242676,0.04633252,0.007211317,-201.28717966895942,-1.0066747916028096,-1.0066747916028096,0.0,19200,2.3833484649658203,2.204370698042783e-06,2.262626072273792e-06,-201.4590636301429,0.0
192,1.4633915424346924,-201.40530995376523,0.057435477980449574,-201.26604492389208,-201.52394784445832,0.0,13.320394676788514,0.1,0.011443138122558594,0.33003830909729004,0.048604514,0.0075973165,-201.29899269743999,-1.006988407651554,-1.006988407651554,0.0,19200,2.3512136936187744,1.56515727773029e-06,1.998977041087712e-06,-201.414925362961,0.0
193,1.4590954780578613,-201.33338919967127,0.06130697050118272,-201.1456479705911,-201.48289929304846,0.0,11.73693756591685,0.1,0.010977506637573242,0.27648115158081055,0.050534464,0.008324959,-201.3024323476631,-1.0066290439470336,-1.0066290439470336,0.0,19200,2.3315017223358154,3.4106408785377857e-06,6.381856173269536e-06,-201.46800319490225,0.0
194,1.4571011066436768,-201.35949530454218,0.06450560995332023,-201.13994992909142,-201.48704979837458,0.0,9.762640613917654,0.1,0.011295318603515625,0.32733631134033203,0.04975446,0.010648253,-201.30813864335101,-1.006759229196718,-1.006759229196718,0.0,19200,2.3369052410125732,7.624318981204827e-06,1.7219660344041618e-06,-201.44370728589652,0.0
195,1.4612064361572266,-201.3696984167095,0.061847041187256264,-201.1468760929103,-201.49053343260672,0.0,8.243691577220341,0.1,0.010833501815795898,0.3277854919433594,0.0480107,0.010240647,-201.31429462068687,-1.0068101792509312,-1.0068101792509312,0.0,19200,2.298579216003418,1.6116969153208585e-06,1.5632814974539974e-06,-201.47660827823518,0.0
196,1.4522771835327148,-201.413486709598,0.0673164158729874,-201.1901283324485,-201.5426091932371,0.0,5.976624745351527,0.1,0.011037826538085938,0.3217732906341553,0.04869026,0.013862643,-201.32421382957796,-1.0070287586624032,-1.0070287586624032,0.0,19200,2.291188955307007,1.758640861424053e-06,2.6958611801106726e-06,-201.44974977058064,0.0
197,1.5140604972839355,-201.37270028484113,0.05982414055330638,-201.18925048883872,-201.50348798604804,0.0,10.165463358254192,0.1,0.011137962341308594,0.3100135326385498,0.047782026,0.009094706,-201.32906247510428,-1.006825073582345,-1.006825073582345,0.0,19200,2.1871604919433594,3.6508181208350075e-06,3.2715535857548938e-06,-201.4970941913172,0.0
198,1.5889475345611572,-201.38318616541255,0.07285981070742455,-201.11800869197236,-201.52326425180215,0.0,8.724001814749705,0.1,0.010731220245361328,0.3162710666656494,0.047499236,0.01223866,-201.33447484413512,-1.0068770350338776,-1.0068770350338776,0.0,19200,2.0809645652770996,3.152619367595916e-06,2.6665516087348585e-06,-201.4646927486857,0.0
199,1.6261143684387207,-201.36553290572684,0.06819619444382859,-201.18073584813766,-201.4982270661666,0.0,14.021439397095286,0.1,0.01073455810546875,0.3074073791503906,0.05087021,0.006519531,-201.3375806502943,-1.00678918170435,-1.00678918170435,0.0,19200,2.1404576301574707,2.9377707202701075e-06,2.1093925149071137e-06,-201.43484922590142,0.0
200,1.492764949798584,-201.35542373355213,0.06513621885971783,-201.09939967971013,-201.48293434008573,0.0,7.762898369673386,0.1,0.01109170913696289,0.27802276611328125,0.05261056,0.01146407,-201.33936495862008,-1.0067390842401773,-1.0067390842401773,0.0,19200,2.2743496894836426,2.285858027686395e-06,1.6947972265422162e-06,-201.4550247500527,0.0
201,1.5081801414489746,-201.380865056159,0.05643305094075438,-201.2318236350644,-201.50713871510183,0.0,6.736458219025678,0.1,0.010651111602783203,0.32343387603759766,0.04868134,0.01455202,-201.343514968374,-1.0068658376559152,-1.0068658376559152,0.0,19200,2.2004404067993164,1.7930805880731063e-06,2.44701942833677e-06,-201.48125445945033,0.0
202,1.4753382205963135,-201.40529824997725,0.06638025242262616,-201.2424720141854,-201.54656801751216,0.0,11.094085672954053,0.1,0.011262893676757812,0.31960248947143555,0.04947261,0.0084092105,-201.34969329653433,-1.0069876636031985,-1.0069876636031985,0.0,19200,2.1009762287139893,2.2534156661057527e-06,1.6432666307776631e-06,-201.48692995484174,0.0
203,1.4956932067871094,-201.44173908474008,0.06043908822422696,-201.2553142150269,-201.5611934120116,0.0,13.703128126752278,0.1,0.010672569274902344,0.32940196990966797,0.048253275,0.00692657,-201.35889787535493,-1.0071693852845962,-1.0071693852845962,0.0,19200,2.162966728210449,1.460426232407046e-06,1.7335503002974137e-06,-201.5528261674886,0.0
204,1.4899654388427734,-201.5119995710347,0.04986070284377626,-201.353857818086,-201.60401633967766,0.0,11.88844928748009,0.1,0.011068105697631836,0.3153862953186035,0.04698596,0.007935516,-201.3742080449229,-1.0075201683927455,-1.0075201683927455,0.0,19200,2.208953380584717,2.5140974880356444e-06,1.385096061430045e-06,-201.5891181615999,0.0
205,1.586479663848877,-201.56327535224614,0.052635231527744554,-201.38339023308177,-201.65273184509778,0.0,11.549604194664418,0.1,0.01088857650756836,0.2550487518310547,0.0496588,0.008564424,-201.39311477565525,-1.0077760738734913,-1.0077760738734913,0.0,19200,2.2614922523498535,1.4807889915081948e-06,1.4501030227773743e-06,-201.54695991796433,0.0
206,1.6342718601226807,-201.5152918950338,0.053426828566347215,-201.39062436152713,-201.64262687658803,0.0,16.10462865083853,0.1,0.011045217514038086,0.31713414192199707,0.049411908,0.006905904,-201.4053324875931,-1.0075366112698507,-1.0075366112698507,0.0,19200,2.2758402824401855,1.379737477253279e-06,3.5500988969967057e-06,-201.55699882386094,0.0
207,1.488962173461914,-201.53322610953902,0.050369003441926546,-201.3980229547517,-201.64075988674608,0.0,8.90619026511647,0.1,0.011153221130371094,0.3175957202911377,0.04722814,0.011568781,-201.4181218497877,-1.0076262022439624,-1.0076262022439624,0.0,19200,2.321620464324951,4.079241208018467e-06,1.3465768121354953e-06,-201.58879426057268,0.0
208,1.4866256713867188,-201.57513174802878,0.048968558815335704,-201.4102236058809,-201.6873289673388,0.0,8.878769305361491,0.1,0.011187553405761719,0.3200526237487793,0.045062616,0.00831818,-201.43382283961182,-1.007835286358346,-1.007835286358346,0.0,19200,2.372361421585083,1.7390244583695274e-06,1.9228891204517093e-06,-201.62211608514218,0.0
209,1.502934455871582,-201.5972439893881,0.04527472194053057,-201.4614743943739,-201.72292531229735,0.0,10.135482247924827,0.1,0.011183500289916992,0.3224623203277588,0.049396526,0.011000237,-201.45016495458944,-1.0079457956256441,-1.0079457956256441,0.0,19200,2.2946488857269287,1.548482985291926e-06,1.1598551308320663e-06,-201.5917121530597,0.0
210,1.4824557304382324,-201.56614553117,0.042972591402330375,-201.4478030011919,-201.6700022800445,0.0,11.33563821737809,0.1,0.011097908020019531,0.3174457550048828,0.04705677,0.009190414,-201.4617630122475,-1.007790327009361,-1.007790327009361,0.0,19200,2.223734140396118,1.2566140988731142e-06,1.197187430981595e-06,-201.62392623786724,0.0
211,1.4757676124572754,-201.5794448540722,0.05413540376189375,-201.434756176114,-201.70020400903047,0.0,10.64679457118252,0.1,0.011110544204711914,0.31920313835144043,0.04857342,0.0076497244,-201.47353119642997,-1.0078566571707817,-1.0078566571707817,0.0,19200,2.277825117111206,1.414923769168783e-06,4.068350223671761e-06,-201.67738976422368,0.0
212,1.4791600704193115,-201.61476885267425,0.057491072084017505,-201.4746540071695,-201.76382980055735,0.0,10.558986819340983,0.1,0.010933637619018555,0.3237180709838867,0.04974099,0.008257984,-201.48765496205442,-1.008032992635328,-1.008032992635328,0.0,19200,2.282335042953491,5.168530331005916e-06,1.6078464917092356e-06,-201.7518811353528,0.0
213,1.4568538665771484,-201.67161353292354,0.06317314331620898,-201.4962831076659,-201.79807087201735,0.0,8.711631432957367,0.1,0.010979652404785156,0.32460832595825195,0.052498575,0.0105357915,-201.50605081914134,-1.0083164566995981,-1.0083164566995981,0.0,19200,2.3368618488311768,2.2021616173193787e-06,3.0361816188479273e-06,-201.7820174638719,0.0
214,1.5993802547454834,-201.68560528181243,0.07122473059914658,-201.45638688822848,-201.81831769751483,0.0,9.249598955103252,0.1,0.010683298110961914,0.32524657249450684,0.05026551,0.007815555,-201.52400626540845,-1.0083864017030857,-1.0083864017030857,0.0,19200,2.3530681133270264,3.4369357315016097e-06,3.7658718906220006e-06,-201.80381048982747,0.0
215,1.745917797088623,-201.6985899391215,0.07942356916813068,-201.46772867580282,-201.87296740376135,0.0,7.946130824326835,0.1,0.011048078536987305,0.348560094833374,0.04415178,0.015071001,-201.54146463277976,-1.0084509882723511,-1.0084509882723511,0.0,19200,2.1793222427368164,3.718250443563426e-06,1.5460666965769033e-06,-201.8187744064179,0.0
216,1.5308582782745361,-201.6869049336816,0.07983263112390263,-201.5017720263601,-201.84230059286813,0.0,8.279305710799312,0.1,0.011267423629760742,0.33060765266418457,0.046746794,0.01077835,-201.55600866286994,-1.0083925295969032,-1.0083925295969032,0.0,19200,2.257417678833008,1.5292801439846705e-06,5.938015905604897e-06,-201.84126746285637,0.0
217,1.4819741249084473,-201.71506285654166,0.08397761300374174,-201.44681673032795,-201.9155219325726,0.0,12.347011182200703,0.1,0.011178731918334961,0.33017611503601074,0.0500421,0.009074685,-201.57191408223713,-1.008532960173764,-1.008532960173764,0.0,19200,2.3058793544769287,4.908254566953044e-06,2.046329188266882e-06,-201.88037692230924,0.0
218,1.4992761611938477,-201.7129944454242,0.07967636516876822,-201.47261502328107,-201.87620705929217,0.0,6.747557408875929,0.1,0.011158227920532227,0.3325374126434326,0.04593161,0.013097741,-201.58602211855586,-1.0085227326657962,-1.0085227326657962,0.0,19200,2.263178825378418,1.9917915008943556e-06,1.759587831950136e-06,-201.92143959827942,0.0
219,1.4730181694030762,-201.75571784788198,0.08878047841293536,-201.51100542962104,-201.9218153258873,0.0,12.522803182827067,0.1,0.010764122009277344,0.26840949058532715,0.049610406,0.006664844,-201.60299169148846,-1.0087354903784043,-1.0087354903784043,0.0,19200,2.270284652709961,2.544987299649339e-06,4.564071018160077e-06,-201.99092468506367,0.0
220,1.468291997909546,-201.81159748996683,0.09061434778936966,-201.54536345403588,-202.01396982338127,0.0,7.62007464382134,0.1,0.01121068000793457,0.3299853801727295,0.0517637,0.013189017,-201.62385227133632,-1.0090144618666392,-1.0090144618666392,0.0,19200,2.3507750034332275,3.0137473375075317e-06,5.806849238427895e-06,-201.9714320893609,0.0
221,1.511284589767456,-201.6708453774244,0.1049745866560771,-201.31528590233316,-201.93362097156654,0.0,9.7200406446935,0.1,0.01099848747253418,0.32813358306884766,0.047619876,0.0114058135,-201.62855158194515,-1.0083110373285842,-1.0083110373285842,0.0,19200,2.2787606716156006,2.713529542082515e-06,2.181951508737416e-06,-201.93207212674972,0.0
222,1.6498665809631348,-201.57249498960468,0.14081926762273483,-201.21583455671558,-201.8585412022395,0.0,11.18516014703663,0.1,0.010827302932739258,0.32077860832214355,0.04856411,0.009926025,-201.6229459227111,-1.007819877091858,-1.007819877091858,0.0,19200,2.2546238899230957,4.7413732661215325e-06,2.552760210414315e-06,-201.8855722472601,0.0
223,1.4519233703613281,-201.34769994026533,0.1478715475021952,-200.94541514211258,-201.73015050051495,0.0,9.20800156091454,0.1,0.011096954345703125,0.32391786575317383,0.046837363,0.008648431,-201.5954213244665,-1.006696808407133,-1.006696808407133,0.0,19200,2.3191821575164795,6.1308967487403895e-06,4.37617076635608e-06,-201.9378694750195,0.0
224,1.4456591606140137,-201.35875268543214,0.1493794974753087,-200.9337905884977,-201.73316606375332,0.0,8.300086794416941,0.1,0.011171102523803711,0.3260462284088135,0.048941024,0.011487345,-201.57175446056306,-1.0067515630777721,-1.0067515630777721,0.0,19200,2.394395589828491,4.774077427222421e-06,8.673280219999153e-06,-201.90709992035187,0.0
225,1.4566473960876465,-201.07943808649057,0.1769960483764748,-200.54979743815065,-201.5805839642187,0.0,10.2043093411281,0.1,0.010858535766601562,0.33203983306884766,0.05194315,0.007543235,-201.5225228231558,-1.0053562775819802,-1.0053562775819802,0.0,19200,2.435913562774658,3.7758724393091003e-06,4.557354842812656e-06,-201.90521969628014,0.0
226,1.4571020603179932,-200.8668100520412,0.23365250033199603,-200.35599254829404,-201.42772203985763,0.0,8.863360283370401,0.1,0.010895729064941406,0.2575392723083496,0.051349916,0.0109536275,-201.45695154604437,-1.0042931513229616,-1.0042931513229616,0.0,19200,2.4243834018707275,6.140706201492105e-06,5.3326539241847175e-06,-201.2876524119473,0.0
227,1.475438117980957,-200.3054854518666,0.2686304360803743,-199.53747595812115,-200.9500738136309,0.0,9.211614209584944,0.1,0.010785341262817383,0.3150596618652344,0.055272713,0.010290962,-201.3418049366266,-1.0014876391393919,-1.0014876391393919,0.0,19200,2.41916823387146,3.9395862969181444e-05,5.873028054173499e-06,-200.65054481801144,0.0
228,1.475904941558838,-199.73819295748004,0.357319765940456,-198.94132133335174,-200.56484477960595,0.0,8.641389724305318,0.1,0.011313676834106445,0.3251807689666748,0.04978838,0.014328045,-201.18144373871195,-0.9986526266469644,-0.9986526266469644,0.0,19200,2.4135076999664307,3.5328693205583225e-05,1.0914724229819373e-05,-199.6590312252876,0.0
229,1.4901890754699707,-198.8597010692101,0.3956365512274573,-197.65260318876548,-199.6118845663197,0.0,9.48348098338391,0.1,0.01067805290222168,0.3201615810394287,0.04903187,0.010762945,-200.94926947176177,-0.9942616293497112,-0.9942616293497112,0.0,19200,2.368783950805664,4.293733935534724e-05,9.443504560852805e-06,-198.4436698586743,0.0
230,1.4463474750518799,-197.83379233166897,0.48879362898439704,-196.65706353644583,-198.8873212107832,0.0,4.470858313841163,0.1,0.011158466339111328,0.3359208106994629,0.05144758,0.023450712,-200.6377217577525,-0.9891407380815661,-0.9891407380815661,0.0,19200,2.3666415214538574,7.416838958501328e-05,1.0298425965615339e-05,-196.79095746390885,0.0
231,1.6080925464630127,-196.3660931484685,0.5258174180793351,-194.88824575167249,-197.76060169841048,0.0,5.0351133963215995,0.1,0.010776281356811523,0.2560138702392578,0.05005586,0.020904917,-200.2105588968241,-0.98181513767117,-0.98181513767117,0.0,19200,2.3211166858673096,8.457018985089012e-05,2.0357032686601508e-05,-194.46320031115843,0.0
232,1.5358381271362305,-194.2768940570248,0.585903713133143,-192.80616385996328,-195.69018885242278,0.0,5.890143665930859,0.1,0.011393070220947266,0.2860887050628662,0.051809955,0.016180428,-199.6171924128442,-0.9713799544474343,-0.9713799544474343,0.0,19200,2.4105324745178223,0.0002340448432090213,4.4058057544385446e-05,-191.31388838684592,0.0
233,1.4996225833892822,-191.32504884955324,0.970601250799028,-188.62604405728553,-193.2782712705371,0.0,6.459875296475069,0.1,0.01147770881652832,0.32767653465270996,0.051055588,0.016715495,-198.7879780565151,-0.9566066744094336,-0.9566066744094336,0.0,19200,2.458777904510498,0.0005453150916003737,3.718080184671003e-05,-186.29201179570612,0.0
234,1.4651637077331543,-187.06378410298365,0.7905942256776493,-185.63667512980078,-189.5135419584561,0.0,7.184353730327787,0.1,0.011237859725952148,0.3265678882598877,0.04658022,0.013980267,-197.61555866116194,-0.9353622260577433,-0.9353622260577433,0.0,19200,2.330256462097168,0.0007428312294828481,2.5913742509432042e-05,-184.79084052400182,0.0
235,1.4860210418701172,-185.51737873997277,0.3589873585915617,-184.83361339883746,-186.5939569534931,0.0,4.610377980111005,0.1,0.011297941207885742,0.3249094486236572,0.05152774,0.021204624,-196.405740669043,-0.9276606481874782,-0.9276606481874782,0.0,19200,2.374824285507202,6.817398984228691e-05,9.104607344810938e-06,-184.34252990978146,0.0
236,1.5086617469787598,-184.86822942780637,0.1861216711978031,-184.41290929504012,-185.47434604097376,0.0,4.957108476464564,0.1,0.011450767517089844,0.32547664642333984,0.05561654,0.019186959,-195.25198954491935,-0.9244221114707791,-0.9244221114707791,0.0,19200,2.469928026199341,2.308453067939334e-05,4.233166317429282e-06,-184.68613218492794,0.0
237,1.4943857192993164,-184.8888586008653,0.19043892645616275,-184.45626998243176,-185.32696821847293,0.0,5.993253163504306,0.1,0.010991334915161133,0.32035279273986816,0.044785958,0.0138904145,-194.21567645051394,-0.9245237416976574,-0.9245237416976574,0.0,19200,2.4389591217041016,7.994910973779794e-06,4.70041673485046e-06,-184.98945065457124,0.0
238,1.6664462089538574,-185.06807427225525,0.21134237240937168,-184.61898412954042,-185.53236852594753,0.0,8.497571984958238,0.1,0.010987520217895508,0.31828904151916504,0.04551889,0.011940773,-193.30091623268805,-0.9254160969958486,-0.9254160969958486,0.0,19200,2.532757520675659,1.2548488350372193e-05,3.7254526004003876e-06,-185.17614554479167,0.0
239,1.512209415435791,-185.14057445496755,0.23358856401798478,-184.50761315050102,-185.75063986777963,0.0,8.857620347681364,0.1,0.011513710021972656,0.3185272216796875,0.05147069,0.01140477,-192.484882054916,-0.9257759942791858,-0.9257759942791858,0.0,19200,2.4546256065368652,5.366806125508162e-06,4.54222434249609e-06,-185.14126959917166,0.0
240,1.4920070171356201,-185.04907774837739,0.2415579824344604,-184.50841163860431,-185.58883539312535,0.0,7.284211200711893,0.1,0.011492252349853516,0.31433653831481934,0.055849846,0.014358769,-191.74130162426215,-0.925318807842242,-0.925318807842242,0.0,19200,2.3472533226013184,4.706010884234781e-06,5.071588778752065e-06,-184.83488562067066,0.0
241,1.4800801277160645,-184.788502778144,0.21798380164044492,-184.38978957704794,-185.35978497865187,0.0,8.484657237744885,0.1,0.01128244400024414,0.30835437774658203,0.049208697,0.01100226,-191.0460217396503,-0.9240178793353833,-0.9240178793353833,0.0,19200,2.2394580841064453,1.045364051326101e-05,4.257661484438547e-06,-184.5476554196476,0.0
242,1.5415654182434082,-184.52997065334003,0.17785339562829391,-184.1611665454392,-184.89422366927673,0.0,9.309079169819352,0.1,0.011474132537841797,0.30875468254089355,0.046511326,0.0106821405,-190.39441663101928,-0.9227281815714891,-0.9227281815714891,0.0,19200,2.202446460723877,3.805499208386065e-06,6.907087554320147e-06,-184.60645498941574,0.0
243,1.5209624767303467,-184.5185259819939,0.1740973255964135,-184.2030903612821,-184.9550244145238,0.0,7.982177684863079,0.1,0.011259794235229492,0.3196418285369873,0.04711595,0.012942126,-189.80682756611677,-0.9226704843475048,-0.9226704843475048,0.0,19200,2.251335382461548,6.986383973596717e-06,4.023433843454303e-06,-184.4496684233162,0.0
244,1.5289013385772705,-184.36560738752985,0.1758368772156075,-184.00233261422355,-184.85844355461205,0.0,8.631945252258928,0.1,0.011461257934570312,0.31513214111328125,0.05066563,0.012320906,-189.26270554825805,-0.9219074484099634,-0.9219074484099634,0.0,19200,2.2060751914978027,3.596451718702356e-06,2.8860414545546683e-06,-184.0970681054908,0.0
245,1.5113539695739746,-184.12885808066721,0.12329052169869019,-183.87336446634214,-184.45804407586155,0.0,10.44797887712922,0.1,0.011780738830566406,0.32180023193359375,0.052734826,0.008408853,-188.74932080149898,-0.9207265311247435,-0.9207265311247435,0.0,19200,2.1687309741973877,3.2450755094362068e-06,3.7970086280429473e-06,-183.9122169164289,0.0
246,1.6540346145629883,-183.95943349316295,0.1184536538003885,-183.71517992622037,-184.2541702826309,0.0,14.094422630047172,0.1,0.011765003204345703,0.32832932472229004,0.053417888,0.0057309745,-188.27033207066538,-0.9198812358235143,-0.9198812358235143,0.0,19200,2.1596312522888184,3.860633746250679e-06,2.1970195853258503e-06,-183.77117664760925,0.0
247,1.506657361984253,-183.88500703966017,0.1088799250033971,-183.6483552502064,-184.19692403591054,0.0,10.287364735635881,0.1,0.011453628540039062,0.3176445960998535,0.050669793,0.00870975,-187.83179956756487,-0.9195095079320382,-0.9195095079320382,0.0,19200,2.159168243408203,2.1607672063704964e-06,1.9376870561451155e-06,-183.718570536386,0.0
248,1.4915523529052734,-183.88057357919217,0.08133996967179788,-183.67737197218824,-184.06610183769945,0.0,11.883023914071321,0.1,0.011274099349975586,0.30799412727355957,0.045086958,0.008352134,-187.43667696872762,-0.9194889097792937,-0.9194889097792937,0.0,19200,2.110856056213379,1.7540480904317249e-06,6.152106377790944e-06,-183.76482011213625,0.0
249,1.4726476669311523,-183.873474786095,0.0877771008721041,-183.66157724102234,-184.1023266836519,0.0,7.654458355568795,0.1,0.012228727340698242,0.3207893371582031,0.037090994,0.010815499,-187.08035675046438,-0.9194524862282206,-0.9194524862282206,0.0,19200,2.180191993713379,5.885319784809193e-06,2.737965805129294e-06,-183.79927643948722,0.0
250,1.5255274772644043,-183.92286245002177,0.0701573023638213,-183.76338969312582,-184.07394307427649,0.0,10.166507265951607,0.1,0.010847330093383789,0.3310420513153076,0.045985144,0.010417662,-186.7646073204201,-0.9196984594613328,-0.9196984594613328,0.0,19200,2.212620496749878,3.1711776960649558e-06,1.6198345524982929e-06,-183.8992811997153,0.0
251,1.5143423080444336,-183.93330766242624,0.09449957354584412,-183.68822135314156,-184.15402619231165,0.0,7.754935981893257,0.1,0.011209726333618164,0.2782754898071289,0.032176293,0.009780762,-186.48147735462072,-0.9197500617543798,-0.9197500617543798,0.0,19200,2.123875141143799,1.8384823202791548e-06,1.7639366724131575e-06,-183.90831529371525,0.0
252,1.480595350265503,-183.88036475565437,0.09144508592957955,-183.69324854998334,-184.11533027420353,0.0,8.803317715952762,0.1,0.011168718338012695,0.26393842697143555,0.052386403,0.011127014,-186.2213660947241,-0.9194853178164859,-0.9194853178164859,0.0,19200,2.1694347858428955,2.1741870662959344e-06,1.7435546472748588e-06,-183.98544865859142,0.0
253,1.62855863571167,-183.93120939173446,0.10238173149923456,-183.72076651547187,-184.2375900727091,0.0,7.12736299134529,0.1,0.01173090934753418,0.3310811519622803,0.050002303,0.013707224,-185.99235042442515,-0.919739398808717,-0.919739398808717,0.0,19200,2.1525588035583496,2.1256661007861153e-06,1.7229115927250119e-06,-183.89264454218798,0.0
254,1.649336576461792,-183.9036451373985,0.08996560552886104,-183.74257993725078,-184.22240751228523,0.0,8.702581451157775,0.1,0.011300325393676758,0.25980544090270996,0.051862337,0.010886274,-185.7834798957225,-0.9196016545516684,-0.9196016545516684,0.0,19200,2.1147618293762207,1.62194904815412e-06,1.6137465868607802e-06,-183.6328814598408,0.0
255,1.5376417636871338,-183.77794169994672,0.0740761024324524,-183.6147418736106,-183.98373992379587,0.0,10.097372445889937,0.1,0.011099576950073242,0.32965946197509766,0.047802832,0.009277895,-185.58292607614493,-0.9189756453377441,-0.9189756453377441,0.0,19200,2.0928101539611816,2.5581678591523794e-06,2.0497352561458947e-06,-183.616527467904,0.0
256,1.526592493057251,-183.7741649702742,0.07667282611882126,-183.5476317879715,-183.99558504650605,0.0,10.100108517139775,0.1,0.011481761932373047,0.32431650161743164,0.04933335,0.0099040875,-185.40204996555786,-0.9189570807035676,-0.9189570807035676,0.0,19200,2.1370368003845215,2.088581636619123e-06,3.153965480634405e-06,-183.75644089346423,0.0
257,1.5473277568817139,-183.81938093114982,0.07047818377063371,-183.66082265568366,-183.97363476145443,0.0,8.049759370736107,0.1,0.011305093765258789,0.3216822147369385,0.049962252,0.013405063,-185.24378306211707,-0.9191823521467706,-0.9191823521467706,0.0,19200,2.1126766204833984,3.7857898100783585e-06,1.645874435091771e-06,-183.90592363617083,0.0
258,1.5257580280303955,-183.86310164300576,0.0862708883449286,-183.68116493165635,-184.0402937373252,0.0,9.019769109342105,0.1,0.011575937271118164,0.31407642364501953,0.04904502,0.012467664,-185.10571492020594,-0.9193987133913112,-0.9193987133913112,0.0,19200,2.106919765472412,2.319686845979632e-06,2.1220179343877876e-06,-183.8770221268765,0.0
259,1.5221095085144043,-183.87652746468652,0.09899686869838586,-183.6401973111496,-184.16911223487128,0.0,10.581130818730662,0.1,0.0112762451171875,0.3227534294128418,0.049958806,0.0094887735,-184.982796174654,-0.9194664740144008,-0.9194664740144008,0.0,19200,2.0703821182250977,2.167601830695206e-06,1.6263685429979942e-06,-183.7990779227069,0.0
260,1.5346016883850098,-183.84511874874954,0.09899845597322118,-183.58535539307752,-184.092100057549,0.0,9.698441324455663,0.1,0.011420488357543945,0.3276386260986328,0.053520735,0.011108579,-184.86902843206357,-0.9193097236598723,-0.9193097236598723,0.0,19200,2.0383124351501465,1.7384527742510089e-06,1.8508036132878324e-06,-183.97982210080647,0.0
261,1.491124153137207,-183.9684087933439,0.12477024851259877,-183.7260960680243,-184.25948205633532,0.0,11.619030396807394,0.1,0.011423110961914062,0.3260684013366699,0.052746903,0.0077906903,-184.77896646819158,-0.9199230731729813,-0.9199230731729813,0.0,19200,2.1305367946624756,3.6656619346154445e-06,2.3028285032637474e-06,-183.95814129257,0.0
262,1.6712143421173096,-183.92603852310216,0.12861002129918997,-183.66568532540398,-184.3056110285385,0.0,12.405208217233133,0.1,0.01096653938293457,0.3248167037963867,0.050242417,0.009124314,-184.69367367368267,-0.9197121632287363,-0.9197121632287363,0.0,19200,2.0896921157836914,2.827541700083481e-06,3.266047601427762e-06,-184.0155247568833,0.0
263,1.4737675189971924,-183.91787957320125,0.11215797162016299,-183.61532601829887,-184.21353536492953,0.0,9.674937829159433,0.1,0.011129617691040039,0.3217959403991699,0.051524702,0.009020874,-184.61609426363455,-0.9196704898529249,-0.9196704898529249,0.0,19200,2.171560764312744,3.254118116062697e-06,1.9923349747911766e-06,-183.90770658549718,0.0
264,1.464327335357666,-183.84110242446695,0.12185820726451012,-183.56528531729464,-184.10402031214042,0.0,9.458778217410899,0.1,0.011296749114990234,0.30619287490844727,0.052990522,0.011048948,-184.5385950797178,-0.919288442175984,-0.919288442175984,0.0,19200,2.204615831375122,2.3976314586843345e-06,2.4069997276325083e-06,-183.95574837134572,0.0
265,1.4778363704681396,-183.88537318165012,0.1244620624010897,-183.58329778135223,-184.14036231609785,0.0,9.123073902512626,0.1,0.010811805725097656,0.2580275535583496,0.04931835,0.011189205,-184.47327288991104,-0.9195087000699803,-0.9195087000699803,0.0,19200,2.3088836669921875,2.0928953340604927e-06,2.3472449074019333e-06,-183.88168979828438,0.0
266,1.51529860496521,-183.7956577869916,0.08899057461302139,-183.63264124030235,-184.06766902609053,0.0,8.785713616234538,0.1,0.011391639709472656,0.3266317844390869,0.050274678,0.010229855,-184.4055113796191,-0.9190611900218686,-0.9190611900218686,0.0,19200,2.363677501678467,1.8132543436110906e-06,2.758295250001832e-06,-183.82809790325234,0.0
267,1.4934933185577393,-183.73959447818746,0.09712383804765752,-183.52572673374175,-183.98762851547988,0.0,6.6637684936377015,0.1,0.011500835418701172,0.32778477668762207,0.05199855,0.012892211,-184.33891968947594,-0.9187812489822832,-0.9187812489822832,0.0,19200,2.289159059524536,2.248032320086947e-06,1.8281336641028783e-06,-183.86836635549565,0.0
268,1.518230676651001,-183.77573034909008,0.09088035145507747,-183.6033166135493,-184.0246652914637,0.0,7.496743697235226,0.1,0.013823747634887695,0.3101470470428467,0.05434449,0.011678595,-184.28260075543736,-0.9189620440741532,-0.9189620440741532,0.0,19200,2.34610652923584,2.104878711332244e-06,1.5858693866736788e-06,-183.81632856737178,0.0
269,1.519183874130249,-183.73471459531274,0.0838209696066059,-183.49840897321798,-183.93505752689282,0.0,12.39831508028627,0.1,0.011464357376098633,0.33121657371520996,0.052722376,0.0073935203,-184.22781213942488,-0.9187572082611882,-0.9187572082611882,0.0,19200,2.2421205043792725,1.6820041043734164e-06,2.6100406267029067e-06,-183.66723961187202,0.0
270,1.6525115966796875,-183.64983265122655,0.08699812582560901,-183.49033887347323,-183.89108252496266,0.0,8.669468721974834,0.1,0.011811971664428711,0.32891249656677246,0.049309418,0.0112412,-184.17001419060506,-0.9183342756914957,-0.9183342756914957,0.0,19200,2.196126699447632,4.168322925040174e-06,1.483793167253815e-06,-183.6361263795465,0.0
271,1.4744527339935303,-183.64454134797697,0.06490172081061334,-183.4615210059529,-183.8550899208349,0.0,7.935153509712902,0.1,0.013372421264648438,0.331784725189209,0.04999806,0.012051757,-184.11746690634226,-0.9183082190640306,-0.9183082190640306,0.0,19200,2.24768328666687,1.302117691917323e-06,1.5931982909467338e-06,-183.578146921941,0.0
272,1.5486114025115967,-183.60880275156345,0.07340678941971408,-183.4386475924211,-183.78541378707803,0.0,8.291737945412336,0.1,0.011369466781616211,0.2785923480987549,0.04679296,0.012371171,-184.06660049086437,-0.918129581812238,-0.918129581812238,0.0,19200,2.226302146911621,1.6264327590317059e-06,1.5004059247384592e-06,-183.6582882471857,0.0
273,1.5167226791381836,-183.62962290835412,0.0711785869763281,-183.4410620515305,-183.8347602864777,0.0,7.848005102608413,0.1,0.010924816131591797,0.26671457290649414,0.043235328,0.010181022,-184.02290273261335,-0.9182330502512444,-0.9182330502512444,0.0,19200,2.0960612297058105,1.4728669696378855e-06,8.437720464313706e-06,-183.71831903913858,0.0
274,1.4804067611694336,-183.65594933283296,0.0764774159872469,-183.41174023116372,-183.87043838066452,0.0,11.487659496585168,0.1,0.011256933212280273,0.2592775821685791,0.047120452,0.009109732,-183.9862073926353,-0.9183644161938135,-0.9183644161938135,0.0,19200,2.0770325660705566,7.533904670591785e-06,2.275024549675835e-06,-183.8512857045588,0.0
275,1.563725471496582,-183.76342036108338,0.08785277441822285,-183.57534029944213,-184.0124396601476,0.0,10.342355077070817,0.1,0.011695623397827148,0.2784287929534912,0.05137015,0.010226118,-183.9639286894801,-0.918900405466344,-0.918900405466344,0.0,19200,2.1244940757751465,1.7404483063908786e-06,4.147392155968293e-06,-183.84129055654245,0.0
276,1.5477409362792969,-183.75865128268092,0.08268250559532882,-183.5433774395574,-184.0010285563136,0.0,8.517421641009072,0.1,0.013249397277832031,0.2706608772277832,0.05378475,0.0111535825,-183.9434009488002,-0.9188770478777611,-0.9188770478777611,0.0,19200,2.0966005325317383,4.087790229743909e-06,2.8952907164208066e-06,-183.85125647789704,0.0
277,1.597700595855713,-183.7311030461327,0.07413258496769672,-183.57530680499607,-183.93341775630753,0.0,10.051634825724873,0.1,0.011214494705200195,0.2614569664001465,0.052302964,0.009969651,-183.92217115853344,-0.918738889924844,-0.918738889924844,0.0,19200,2.069706439971924,2.5609700734893096e-06,1.5206587369571459e-06,-183.87655500495325,0.0
278,1.6561973094940186,-183.77153182454592,0.0878559565183235,-183.5203088673577,-184.05312146596128,0.0,11.19179631759944,0.1,0.011337995529174805,0.259321928024292,0.048693884,0.008934314,-183.90710722513472,-0.9189405117568853,-0.9189405117568853,0.0,19200,2.1282474994659424,1.6577766988412208e-06,2.1247451124483675e-06,-183.7896334696605,0.0
279,1.511376142501831,-183.72885333955028,0.060745508612853445,-183.58065422148366,-183.8706306466066,0.0,10.608644251150855,0.1,0.011017322540283203,0.2599458694458008,0.048661314,0.0077637206,-183.8892818365763,-0.9187282681842163,-0.9187282681842163,0.0,19200,2.1273751258850098,1.557586933940173e-06,1.370387969908224e-06,-183.87935981018575,0.0
280,1.5284159183502197,-183.80710346239474,0.08309529698273685,-183.6243068544918,-184.0179895885085,0.0,8.597081721600546,0.1,0.011391401290893555,0.25961875915527344,0.048031263,0.009976027,-183.88106399915816,-0.9191184940854482,-0.9191184940854482,0.0,19200,2.1439101696014404,1.611595077370761e-06,4.41370162193235e-06,-183.83569358730142,0.0
281,1.5219478607177734,-183.77886258383555,0.0741863985074906,-183.57805744570103,-184.01775953875858,0.0,8.428967828267183,0.1,0.011581659317016602,0.2646634578704834,0.046664473,0.008662768,-183.8708438576259,-0.9189777002793275,-0.9189777002793275,0.0,19200,2.1469407081604004,5.136633605570937e-06,2.5737685894632636e-06,-183.90624916017222,0.0
282,1.5193555355072021,-183.82756339019252,0.07866499313910141,-183.62900983790934,-184.01527154158376,0.0,10.279485022933725,0.1,0.01949310302734375,0.38277721405029297,0.03946719,0.006462996,-183.86651581088256,-0.9192203807863283,-0.9192203807863283,0.0,19200,2.0746164321899414,3.44291104237888e-06,1.5414288099517901e-06,-183.97239160164574,0.0
283,1.6189000606536865,-183.84616982533007,0.08161939563850486,-183.60263884142893,-184.04872818197504,0.0,8.214970171783051,0.1,0.011214256286621094,0.2666656970977783,0.05202764,0.013897589,-183.86448121232732,-0.9193129472470588,-0.9193129472470588,0.0,19200,2.087050199508667,1.5519078144658758e-06,1.4761228121271044e-06,-184.02296553631905,0.0
284,1.6850926876068115,-183.88610510322073,0.07331456205706785,-183.70054949930488,-184.07586176056896,0.0,8.218283393368763,0.1,0.011281728744506836,0.27797818183898926,0.05001401,0.01357945,-183.86664360141668,-0.9195116676743517,-0.9195116676743517,0.0,19200,2.1586506366729736,1.4434526421326013e-06,1.8042430334379293e-06,-184.0669609213983,0.0
285,1.5984067916870117,-183.93017968961894,0.08671830195112186,-183.74877903936158,-184.1482659198425,0.0,7.332686735922388,0.1,0.011700153350830078,0.26442432403564453,0.04803431,0.014497793,-183.87299721023692,-0.9197315563392552,-0.9197315563392552,0.0,19200,2.201197862625122,2.457039786642873e-06,1.8522400519585588e-06,-184.17714108737187,0.0
286,1.7727751731872559,-183.9773996264034,0.08985256889981935,-183.7534839073922,-184.2164518924132,0.0,9.154193183698107,0.1,0.011182546615600586,0.2603013515472412,0.050764125,0.0099879885,-183.88343745185358,-0.9199670135005106,-0.9199670135005106,0.0,19200,2.1401259899139404,1.7180511464295793e-06,1.9456980642579453e-06,-184.1770124753644,0.0
287,1.5611913204193115,-183.9930909022818,0.08337644575343708,-183.80222765185343,-184.2278614096705,0.0,12.540393644187406,0.1,0.012235879898071289,0.2808527946472168,0.05301097,0.008762668,-183.8944027968964,-0.9200453242795129,-0.9200453242795129,0.0,19200,2.1366121768951416,1.737347108781278e-06,1.7243219527442554e-06,-184.19918050905528,0.0
288,1.8499212265014648,-183.99605387599976,0.09229983368871321,-183.81515559719622,-184.2734188798622,0.0,9.465747188491063,0.1,0.012005805969238281,0.27638792991638184,0.05107357,0.0104091,-183.90456790480675,-0.9200595712655346,-0.9200595712655346,0.0,19200,2.2095329761505127,1.7514874233038933e-06,1.6223164585772626e-06,-184.24362006966953,0.0
289,1.5661802291870117,-183.98523299621493,0.09328216218401765,-183.79668030610875,-184.21456496277253,0.0,10.785451647215453,0.1,0.01134943962097168,0.2674131393432617,0.049144194,0.008352211,-183.9126344139476,-0.9200056833788198,-0.9200056833788198,0.0,19200,2.1863200664520264,1.642145289719584e-06,1.6185609263526408e-06,-184.37588853942498,0.0
290,1.582888126373291,-184.06360511692347,0.08986840287574309,-183.89417973354804,-184.36512436002013,0.0,9.499059448396652,0.1,0.011259078979492188,0.26793360710144043,0.053518917,0.0097002685,-183.9277314842452,-0.9203968006447245,-0.9203968006447245,0.0,19200,2.211047649383545,2.057352137430294e-06,1.6334548818917483e-06,-184.42763091068738,0.0
291,1.568272590637207,-184.1357758315689,0.10383930001148636,-183.83301724405644,-184.3688375651157,0.0,9.272874450848944,0.1,0.011268854141235352,0.2698986530303955,0.051632322,0.010402427,-183.94853591897757,-0.9207568186940723,-0.9207568186940723,0.0,19200,2.1918888092041016,2.2150440082141053e-06,6.7111669740209785e-06,-184.31556469900124,0.0
292,1.5803189277648926,-184.01689115164834,0.10012248037869785,-183.71420538556237,-184.22983242719363,0.0,7.9639714944628475,0.1,0.011347532272338867,0.2652769088745117,0.04457074,0.0132933585,-183.95537144224465,-0.9201638156097784,-0.9201638156097784,0.0,19200,2.1950008869171143,4.2838347035365045e-06,2.7347036170606494e-06,-184.28989434004717,0.0
293,1.572657585144043,-184.03982201526523,0.10353900380295857,-183.79993404814272,-184.34303265570117,0.0,11.43063831708856,0.1,0.01147150993347168,0.2660853862762451,0.04280969,0.008153432,-183.96381649954674,-0.9202788022005407,-0.9202788022005407,0.0,19200,2.1749625205993652,2.955221860315736e-06,3.0248060353124186e-06,-184.22214642092683,0.0
294,1.7232184410095215,-183.97910612523268,0.10142953586998435,-183.73417773581892,-184.236794795289,0.0,9.144773234648607,0.1,0.01100921630859375,0.25985240936279297,0.046341196,0.010054712,-183.96534546211535,-0.919975951297091,-0.919975951297091,0.0,19200,2.1475396156311035,4.197308798241706e-06,5.066433251291812e-06,-184.33340232750783,0.0
295,1.712308645248413,-184.02378119102843,0.10570027493568951,-183.82055166196307,-184.26111211688777,0.0,9.297755991509627,0.1,0.01141357421875,0.2591366767883301,0.040684756,0.009327508,-183.97118903500666,-0.9201986210642842,-0.9201986210642842,0.0,19200,2.1196906566619873,4.289211294942988e-06,1.9864472480791794e-06,-184.30963087170448,0.0
296,1.5647754669189453,-184.0392514294791,0.10507218462415602,-183.78528492006905,-184.25081103240916,0.0,10.372436268442458,0.1,0.011295557022094727,0.2608773708343506,0.04896155,0.010853688,-183.97799527445392,-0.9202762856618564,-0.9202762856618564,0.0,19200,2.1395366191864014,2.1468085677913255e-06,1.952865868244476e-06,-184.24271062700615,0.0
297,1.6267435550689697,-184.00197755136864,0.10100035214037463,-183.79358249299622,-184.27812483720513,0.0,10.009307923390143,0.1,0.011313915252685547,0.26254796981811523,0.043259766,0.00900055,-183.9803935021454,-0.9200898455731111,-0.9200898455731111,0.0,19200,2.19997239112854,1.6993826287671097e-06,2.1378317776958304e-06,-184.25088714401926,0.0
298,1.5558016300201416,-183.96408672369216,0.10581016212390851,-183.72943532094283,-184.30854123481495,0.0,10.037562790037253,0.1,0.01125335693359375,0.2588338851928711,0.04280384,0.0071335984,-183.97876282430008,-0.9199011722095843,-0.9199011722095843,0.0,19200,2.2885501384735107,2.075327639024594e-06,1.8076240989123326e-06,-184.17618576296525,0.0
299,1.6100449562072754,-183.8895665826653,0.1135936142700737,-183.6459543962567,-184.18325606978905,0.0,7.408946083988949,0.1,0.011349678039550781,0.25709104537963867,0.053085145,0.013608604,-183.9698432001366,-0.9195297375582854,-0.9195297375582854,0.0,19200,2.217378854751587,2.0632371251734197e-06,1.8679753772413566e-06,-184.1243621987307,0.0
300,1.6203100681304932,-183.8872286421612,0.09096913818572888,-183.6812576638247,-184.16248655281524,0.0,11.482113100990523,0.1,0.011209726333618164,0.26503634452819824,0.045950208,0.0062094037,-183.96158174433907,-0.9195172962550077,-0.9195172962550077,0.0,19200,2.17549204826355,1.6719649203535946e-06,3.523773230163294e-06,-184.064500534818,0.0
301,1.942065954208374,-183.8351210187649,0.10297238599467001,-183.60708287775043,-184.14457226034614,0.0,9.495839127775248,0.1,0.011429786682128906,0.26511192321777344,0.04926397,0.0106079895,-183.94893567178167,-0.9192578769498198,-0.9192578769498198,0.0,19200,2.2970709800720215,3.0216050986081977e-06,1.6457434679630049e-06,-183.96423923483573,0.0
302,1.6913366317749023,-183.74977507323965,0.08279250855866783,-183.5262799203324,-183.94153619027804,0.0,9.969971191472697,0.1,0.011114120483398438,0.2682926654815674,0.047777012,0.009937105,-183.92901961192746,-0.9188320410500467,-0.9188320410500467,0.0,19200,2.111135244369507,1.897082321217569e-06,2.0107242080752777e-06,-184.12863074676724,0.0
303,1.5684752464294434,-183.8083303279669,0.10175993405879309,-183.58049832746207,-184.02200309385782,0.0,10.586741802260791,0.1,0.011403322219848633,0.268726110458374,0.043793455,0.00887358,-183.9169506835314,-0.9191237143713874,-0.9191237143713874,0.0,19200,2.204212188720703,1.8772517109131508e-06,3.485501615054108e-06,-184.16009961730367,0.0
304,1.5589444637298584,-183.8154387261236,0.09910296274350393,-183.63161731632172,-184.06801004801827,0.0,9.795486577899732,0.1,0.011108875274658203,0.27609753608703613,0.03734584,0.009252971,-183.90679948779064,-0.919158479935318,-0.919158479935318,0.0,19200,2.176642656326294,3.3795923755552248e-06,1.6432457557348537e-06,-184.1272794436639,0.0
305,1.532036304473877,-183.7711750727323,0.08656296423754123,-183.58757429166613,-183.96246669873648,0.0,11.069309346696215,0.1,0.011433124542236328,0.2882239818572998,0.051657017,0.008512565,-183.8932370462848,-0.9189379450469889,-0.9189379450469889,0.0,19200,2.21476411819458,1.6176564415658392e-06,2.3835847047418593e-06,-184.13846233171284,0.0
306,1.565507411956787,-183.79021155187147,0.08786384120924395,-183.60605079645742,-183.9930663257849,0.0,11.424104284604184,0.1,0.011177778244018555,0.2637465000152588,0.04797553,0.009336625,-183.88293449684346,-0.9190325010041854,-0.9190325010041854,0.0,19200,2.1933956146240234,2.6127845011097363e-06,2.7220246899633526e-06,-184.12329559456225,0.0
307,1.5941944122314453,-183.7293348808349,0.09846550650305047,-183.50063940073053,-184.00132148143663,0.0,7.914765448605736,0.1,0.011131048202514648,0.2578754425048828,0.050064914,0.012147287,-183.86757453524262,-0.9187282255279294,-0.9187282255279294,0.0,19200,2.144662857055664,3.8838549012758735e-06,2.362563039729561e-06,-184.1522067022315,0.0
308,1.9951860904693604,-183.76912962016536,0.1015381378704991,-183.49670872085122,-184.0096843645039,0.0,13.118344832538645,0.1,0.011706113815307617,0.26489734649658203,0.05165439,0.008172457,-183.8577300437349,-0.9189274193239388,-0.9189274193239388,0.0,19200,2.155447006225586,2.8516187516951073e-06,2.634724254705619e-06,-184.1793371038843,0.0
309,1.7408981323242188,-183.74948432908982,0.09997907308674636,-183.53448171057528,-183.9598386269538,0.0,6.876763128546548,0.1,0.011348485946655273,0.26029205322265625,0.05066973,0.014791338,-183.8469054722704,-0.9188296189657068,-0.9188296189657068,0.0,19200,2.13688063621521,2.6469972009754167e-06,1.7126620036804189e-06,-184.15015342143482,0.0
310,1.4892151355743408,-183.71585645996095,0.09468416807180335,-183.51450632794362,-183.94802863862307,0.0,9.106430351290605,0.1,0.011949777603149414,0.26240992546081543,0.044677515,0.010335999,-183.8338005710395,-0.9186616379150049,-0.9186616379150049,0.0,19200,2.1792242527008057,1.7275022103761444e-06,2.3644024531364914e-06,-184.11186008028636,0.0
311,1.6002271175384521,-183.72873874186806,0.1008954115473603,-183.51938687102646,-184.0438220063896,0.0,9.42119420702161,0.1,0.011015653610229492,0.26214599609375,0.044005796,0.008307616,-183.82329438812235,-0.9187257887022552,-0.9187257887022552,0.0,19200,2.1474239826202393,2.5908988379906672e-06,2.66491795652568e-06,-184.21616974451854,0.0
312,1.6360828876495361,-183.81110118721418,0.10905303137125892,-183.5958943942815,-184.19405556791375,0.0,9.892525625378347,0.1,0.011155366897583008,0.26000189781188965,0.04532463,0.00994288,-183.82207506803152,-0.9191366318616638,-0.9191366318616638,0.0,19200,2.1596763134002686,1.931479120080959e-06,3.271002558370821e-06,-184.10539958045604,0.0
313,1.8343191146850586,-183.71341347225186,0.09709861255326159,-183.52791249324858,-183.95235053548825,0.0,8.696880788762384,0.1,0.011261224746704102,0.2647876739501953,0.045445487,0.0118517475,-183.81120890845355,-0.9186487563331694,-0.9186487563331694,0.0,19200,2.1931381225585938,2.4284919504746937e-06,1.7835193220307178e-06,-184.11753128339728,0.0
314,1.5727434158325195,-183.707242521466,0.0816348870121444,-183.54192196845665,-183.98114428576847,0.0,11.606206555027505,0.1,0.011231184005737305,0.25869250297546387,0.049063545,0.008734646,-183.8008122697548,-0.9186190954311094,-0.9186190954311094,0.0,19200,2.182948589324951,1.6574331314589117e-06,1.898266322847305e-06,-184.2252732148828,0.0
315,1.6148185729980469,-183.7827823974532,0.08847592668979735,-183.6075376074008,-183.9753319554384,0.0,9.912899551767733,0.1,0.011568307876586914,0.2634000778198242,0.046848707,0.008718713,-183.79900928252465,-0.9189954498644411,-0.9189954498644411,0.0,19200,2.12137508392334,2.7061062408337447e-06,1.8627696217719238e-06,-184.25977577085015,0.0
316,1.657221794128418,-183.82520986049659,0.10983945594422073,-183.53266464022317,-184.0828508468237,0.0,8.80513747636319,0.1,0.010966777801513672,0.2622389793395996,0.043856554,0.011680025,-183.80162934032185,-0.9192077987566144,-0.9192077987566144,0.0,19200,2.2072255611419678,1.8799247030725873e-06,4.134377450929894e-06,-184.19236499576022,0.0
317,1.7117631435394287,-183.7102246758735,0.1086173738810112,-183.47656750956193,-184.0144130363231,0.0,10.104356708920049,0.1,0.011248350143432617,0.2610740661621094,0.04767088,0.0083646765,-183.79248887387703,-0.9186343332471903,-0.9186343332471903,0.0,19200,2.164402723312378,7.596474471008404e-06,4.434544541847332e-06,-184.4953631627485,0.0
318,1.5616052150726318,-183.89709673554714,0.12321585186688722,-183.60990674630614,-184.17557410433534,0.0,10.132705830391318,0.1,0.013105154037475586,0.2760326862335205,0.039327964,0.007619303,-183.80294966004405,-0.9195654417031207,-0.9195654417031207,0.0,19200,2.3224780559539795,1.0567562447264733e-05,3.882781670697248e-06,-184.38040034759797,0.0
319,1.625166416168213,-183.86104639304668,0.11821754346929848,-183.53922744661872,-184.15421736111713,0.0,10.997190690917803,0.1,0.011425256729125977,0.2620978355407715,0.03978816,0.007440239,-183.8087593333443,-0.9193864346017486,-0.9193864346017486,0.0,19200,2.283414840698242,3.2224426836952736e-06,2.826524023721523e-06,-184.53276584906,0.0
320,1.6203744411468506,-183.95574407054036,0.12811045239699367,-183.63002468045465,-184.26578406551442,0.0,9.237830797192846,0.1,0.011219501495361328,0.2604506015777588,0.04813465,0.011531965,-183.8234578070639,-0.9198591749846701,-0.9198591749846701,0.0,19200,2.097287893295288,2.217450150030124e-06,3.03142278252165e-06,-184.6819425737789,0.0
321,1.5645065307617188,-184.0421429845418,0.1518189138935323,-183.77973213417343,-184.44229178887753,0.0,8.591524472160303,0.1,0.011375904083251953,0.26072192192077637,0.036979068,0.007924388,-183.8453263248117,-0.9202906861363744,-0.9202906861363744,0.0,19200,2.1156105995178223,2.6249627457994823e-06,4.653731918159366e-06,-184.42296408712085,0.0
322,1.5541343688964844,-183.89785718121263,0.14645289788968108,-183.57070319286805,-184.44268051454603,0.0,9.783587765842498,0.1,0.011189937591552734,0.2710864543914795,0.05028828,0.010494857,-183.85057941045181,-0.9195715443367524,-0.9195715443367524,0.0,19200,2.0988059043884277,7.74342227677982e-06,2.16700098859659e-06,-184.1678250290818,0.0
323,1.556520938873291,-183.79105974654814,0.10114453971694337,-183.54787731745773,-184.06594863924548,0.0,11.567690965499638,0.1,0.011434078216552734,0.2910757064819336,0.048464384,0.00775438,-183.84462744406144,-0.9190386099388581,-0.9190386099388581,0.0,19200,2.0778465270996094,1.988582187670743e-06,5.082438137487255e-06,-184.14936416416694,0.0
324,1.5548994541168213,-183.7315284446936,0.09974856914169743,-183.5287910427937,-183.95288246599193,0.0,9.047245391183901,0.1,0.011262655258178711,0.26317429542541504,0.048209563,0.01153522,-183.83331754412467,-0.9187410753596449,-0.9187410753596449,0.0,19200,2.0991103649139404,6.622003967963342e-06,2.075140619991849e-06,-184.20415885047166,0.0
325,1.706221342086792,-183.72954000892832,0.11701135469449915,-183.49701132142002,-184.09476292079444,0.0,12.479429957662559,0.1,0.01114797592163086,0.26114320755004883,0.046803273,0.009833053,-183.82293979060503,-0.918731703280448,-0.918731703280448,0.0,19200,2.060837507247925,2.2477998751693714e-06,1.8131076708967867e-06,-184.09709080365548,0.0
326,1.7764084339141846,-183.70236053088198,0.09673033820943071,-183.4726680297148,-183.9590648969044,0.0,9.020281716511663,0.1,0.011412858963012695,0.26427197456359863,0.040109567,0.008202494,-183.81088186463273,-0.9185963141499535,-0.9185963141499535,0.0,19200,2.0659584999084473,1.591582099769697e-06,2.1441781625283583e-06,-184.0394761372017,0.0
327,1.8220858573913574,-183.67647847239232,0.11419967227419482,-183.3838023897609,-183.92318396667497,0.0,9.899290735192865,0.1,0.011456489562988281,0.262803316116333,0.051750477,0.009480222,-183.7974415254087,-0.9184674176691413,-0.9184674176691413,0.0,19200,2.1210215091705322,2.162204519766569e-06,2.223665824949143e-06,-183.82554808329087,0.0
328,1.8440849781036377,-183.6014056819448,0.08129453389440891,-183.41909332186378,-183.8062892271281,0.0,9.49233132218212,0.1,0.011285781860351562,0.2623779773712158,0.052361578,0.009672937,-183.7778379410623,-0.9180932974510067,-0.9180932974510067,0.0,19200,2.1608378887176514,2.639161247108905e-06,1.519537985397354e-06,-183.94345901334847,0.0
329,1.6202142238616943,-183.67618574374762,0.10590612981665223,-183.40709118324148,-183.94107595131447,0.0,9.462109882831,0.1,0.011672496795654297,0.35808491706848145,0.052776232,0.010996397,-183.76767272133085,-0.9184658999779636,-0.9184658999779636,0.0,19200,2.303760051727295,2.303900627330775e-06,3.856602965186546e-06,-183.96917880510637,0.0
330,1.7620296478271484,-183.65379215512328,0.10383978063643219,-183.43200274837093,-183.95924876435342,0.0,8.307709869136104,0.1,0.011543035507202148,0.3337740898132324,0.041497875,0.010988825,-183.75628466471008,-0.9183525119535512,-0.9183525119535512,0.0,19200,2.1153459548950195,3.743147286839258e-06,1.8054235200041772e-06,-183.91064572767246,0.0
331,1.5566442012786865,-183.63538538863267,0.08939466903566722,-183.43853100001866,-183.89302274736878,0.0,10.711991875650334,0.1,0.011584281921386719,0.3274879455566406,0.04704288,0.011355892,-183.74419473710236,-0.9182596858620075,-0.9182596858620075,0.0,19200,2.14915132522583,1.7680959212824001e-06,1.8577492800841731e-06,-183.841354740533,0.0
332,1.567474603652954,-183.6354521384196,0.09869244036967342,-183.40471191297803,-183.92700500579934,0.0,10.478797684854923,0.1,0.011628866195678711,0.3241894245147705,0.04698893,0.011375315,-183.7333204772341,-0.9182620059882142,-0.9182620059882142,0.0,19200,2.1002326011657715,1.9032758880447992e-06,1.8069176451120031e-06,-183.8461492777539,0.0
333,1.611311674118042,-183.63201419706695,0.08690516439263149,-183.40763498810196,-183.88011697080162,0.0,8.373068201603777,0.1,0.011854887008666992,0.31856536865234375,0.050717406,0.013124941,-183.72318984921736,-0.9182439064848159,-0.9182439064848159,0.0,19200,2.1395981311798096,1.7798748135584297e-06,3.0452820299782725e-06,-183.8386892189368,0.0
334,1.687112808227539,-183.61255527026438,0.0855667873344934,-183.4046545056655,-183.81468991979324,0.0,10.200359808787761,0.1,0.011354684829711914,0.36547136306762695,0.050447408,0.010434184,-183.71212639132207,-0.9181478265065408,-0.9181478265065408,0.0,19200,2.2032299041748047,2.764041289180605e-06,2.1605808092374304e-06,-183.76338149099456,0.0
335,1.6451194286346436,-183.61108128105772,0.09199628252148917,-183.41580700123683,-183.88510639315962,0.0,12.716980497417737,0.1,0.011636972427368164,0.3465280532836914,0.049993474,0.007332018,-183.70202188029563,-0.918140782727793,-0.918140782727793,0.0,19200,2.1594018936157227,2.1380705004748035e-06,2.2245867587325923e-06,-183.73561108345194,0.0
336,1.7496159076690674,-183.58708888852962,0.1011918753998353,-183.41435972479957,-183.8818166106691,0.0,8.759820294525795,0.1,0.011610984802246094,0.344249963760376,0.05019189,0.009800818,-183.69052858111903,-0.9180221649166155,-0.9180221649166155,0.0,19200,2.0849967002868652,2.1174037464594464e-06,1.9135527561220222e-06,-183.85642117641578,0.0
337,1.5386533737182617,-183.66269814279232,0.09680081546024023,-183.46708532654577,-183.9931932905849,0.0,12.295700492431147,0.1,0.013301610946655273,0.33309483528137207,0.05467327,0.007861608,-183.68774553728636,-0.9183987894039017,-0.9183987894039017,0.0,19200,2.118575096130371,2.529164147627404e-06,1.7470845217068378e-06,-184.02614544498348,0.0
338,1.757930040359497,-183.68017566070793,0.11201987443386703,-183.48171829381593,-183.9598713195006,0.0,9.857465340454862,0.1,0.011289119720458984,0.3297100067138672,0.05186402,0.011100855,-183.68698854962852,-0.918485083150602,-0.918485083150602,0.0,19200,2.0779924392700195,2.1318975291757785e-06,2.262276644518121e-06,-184.1151409838481,0.0
339,1.5763750076293945,-183.69117911867113,0.1063677687868835,-183.43604573559605,-184.02642320087824,0.0,7.147880471996858,0.1,0.011178731918334961,0.31412720680236816,0.043265134,0.011435986,-183.6874076065328,-0.9185393472474104,-0.9185393472474104,0.0,19200,2.1133103370666504,2.359012931506027e-06,2.494046443165465e-06,-184.14168026491816,0.0
340,1.736982822418213,-183.73358975558844,0.10391205304792714,-183.51394900823618,-184.01755897417374,0.0,10.523251848524716,0.1,0.011201620101928711,0.31435585021972656,0.048248406,0.007319277,-183.69202582143834,-0.9187511504934532,-0.9187511504934532,0.0,19200,2.105729818344116,3.1311618512256635e-06,2.253210332062933e-06,-184.15445238338617,0.0
341,1.7530219554901123,-183.76406834207387,0.10459126425993608,-183.46116282064526,-183.9938702395246,0.0,8.746620896214079,0.1,0.011742830276489258,0.3306117057800293,0.050676312,0.011914233,-183.6992300735019,-0.9189031253616292,-0.9189031253616292,0.0,19200,2.4197444915771484,2.113902233954342e-06,2.757854004156525e-06,-184.1569816116131,0.0
342,1.708280086517334,-183.7845211305549,0.11151350946556127,-183.53158016745508,-184.201524223391,0.0,8.001923777959416,0.1,0.011393308639526367,0.3301517963409424,0.042862795,0.012168437,-183.7077591792072,-0.9190040127156998,-0.9190040127156998,0.0,19200,2.085869789123535,2.7418299661008183e-06,2.1049430851933157e-06,-184.07561521748573,0.0
