iteration,time_sampling,stoc_pol_mean,stoc_pol_std,stoc_pol_max,stoc_pol_min,rollout_success,alpha,delta,time_vpg,time_npg,kl_dist,surr_improvement,running_score,rwd_sparse,rwd_dense,success_percentage,effort,num_samples,time_VF,VF_error_before,VF_error_after,eval_score,eval_success
0,2.0567243099212646,-10.559666917220019,2.6310216665227824,-5.3835366340893245,-18.86955684085759,0.026041666666666668,0.3999260916562022,0.1,0.11548614501953125,0.48911237716674805,0.052246556,0.28626692,-10.559666917220019,-0.1266100810587075,-0.05209367520375688,0.026041666666666668,0.05358486012589047,1580,0.1510460376739502,0.9911659408973676,0.30311843062453436,-16.04911911307292,0.03125
1,2.0165083408355713,-10.398689479122988,2.580824831027078,-4.79229692068022,-19.349619592656794,0.015625,0.5606364913715222,0.1,0.007094621658325195,0.1755979061126709,0.05641655,0.19967544,-10.543569173410315,-0.12635276853639954,-0.05138512487021971,0.015625,0.05374818198337985,1569,0.16444873809814453,0.29783324082498086,0.1494100940888244,-16.324814444593045,0.03125
2,2.29628849029541,-9.965560591723255,2.4433717080763246,-5.144493921168284,-18.316278660189667,0.020833333333333336,0.5589941205512637,0.1,0.04408836364746094,0.19003891944885254,0.05130175,0.19237408,-10.485768315241609,-0.1248171457301029,-0.04925517974615242,0.020833333333333336,0.053825553345178447,1531,0.1402873992919922,0.142732081442456,0.10118711052210312,-16.465499451312,0.03125
3,2.2259933948516846,-9.53195719169862,2.2853838889041254,-5.553914733167929,-15.06970581901735,0.052083333333333336,0.5369776624577591,0.1,0.023569583892822266,0.34505319595336914,0.057610992,0.22200494,-10.390387202887311,-0.12111616240053462,-0.04694667820562239,0.052083333333333336,0.053431402488518916,1495,0.17782115936279297,0.10091634121192147,0.06899964940401915,-16.117344427109074,0.03125
4,2.2181365489959717,-9.834477016846355,2.402274623746564,-5.3472765336684205,-17.40119360474186,0.03125,0.5493897556712292,0.1,0.018771886825561523,0.22749638557434082,0.05048896,0.1742047,-10.334796184283215,-0.12435253653561722,-0.04865676308889854,0.03125,0.05400015804893388,1509,0.14306282997131348,0.08487520299207353,0.08008722589437896,-15.485943469121537,0.03125
5,2.226323127746582,-9.763806518928883,2.374393339336741,-5.1861425822016445,-18.039189974611162,0.04166666666666667,0.5629419208206584,0.1,0.016672134399414062,0.13628578186035156,0.051741533,0.18378961,-10.277697217747782,-0.12436672027129973,-0.048161924738567556,0.04166666666666667,0.05384034218856193,1496,0.14179706573486328,0.07316222394872635,0.07109949581545912,-13.933285183125454,0.03125
6,2.2620849609375,-9.87419456385781,2.574001111438464,-4.7028967596344655,-20.33803180370123,0.052083333333333336,0.5832585240292115,0.1,0.006634235382080078,0.14014124870300293,0.049841404,0.16747893,-10.237346952358786,-0.12372765994708064,-0.04871612985880359,0.052083333333333336,0.05427310818291858,1513,0.13954758644104004,0.07975836259572901,0.07643206647448468,-13.79367826052151,0.03125
7,2.2425568103790283,-9.26756733664115,2.2603544074891193,-5.114091836140143,-17.859950332545747,0.052083333333333336,0.5863066342753225,0.1,0.006214618682861328,0.1344470977783203,0.05216943,0.17348735,-10.140368990787023,-0.11915434028311872,-0.045747262680319346,0.052083333333333336,0.054957488050433066,1482,0.13283300399780273,0.06857286979770234,0.06366020554806409,-13.73508143915567,0.03125
8,2.0706796646118164,-9.40432293852492,2.481089646734811,-4.183581130171014,-17.383374990019632,0.046875,0.5872127451222848,0.1,0.006814002990722656,0.1432046890258789,0.049877487,0.1592294,-10.066764385560813,-0.12093756342106841,-0.04647058096336678,0.046875,0.05465877583546445,1483,0.1383223533630371,0.07883377317152047,0.07713753254207228,-13.970594193941935,0.0
9,2.2573583126068115,-9.301549576148028,2.040548403363754,-4.230827296888072,-15.553700698683581,0.052083333333333336,0.5622880463141331,0.1,0.00612330436706543,0.1357269287109375,0.050151568,0.18237521,-9.990242904619535,-0.11985671578376562,-0.046006868490097295,0.052083333333333336,0.05428306349142329,1480,0.13774847984313965,0.05861938310820151,0.05744303640939216,-13.66716442856126,0.03125
10,2.0463972091674805,-9.440631514057804,2.2975790661038764,-4.6950111340132175,-16.744504572092836,0.04166666666666667,0.637315693767876,0.1,0.0061566829681396484,0.15572190284729004,0.050011516,0.15904862,-9.935281765563362,-0.12137281976623997,-0.04662285679124454,0.04166666666666667,0.05471445609459861,1479,0.14107298851013184,0.06372630962113275,0.06395094468627249,-13.321820644055114,0.03125
11,2.3013932704925537,-9.33950697217517,2.0285803704163925,-4.071998003448358,-14.611224548048847,0.0625,0.5975496879519497,0.1,0.029571056365966797,0.2764933109283447,0.051082984,0.17485167,-9.875704286224543,-0.11687704187085396,-0.0462194097738019,0.0625,0.05494254384262618,1523,0.292255163192749,0.05221981391005894,0.04853363742871597,-13.281672946994343,0.03125
12,2.2504539489746094,-9.389136614065139,2.0662876013534524,-5.079311785779181,-15.00644961418014,0.020833333333333336,0.5919874423050957,0.1,0.01755380630493164,0.18806767463684082,0.051859513,0.16605814,-9.827047519008602,-0.12169484935182769,-0.04649000168788305,0.020833333333333336,0.05491780744592271,1470,0.18499994277954102,0.05655684724397234,0.05479701188496114,-14.259347897273667,0.03125
13,2.2337989807128906,-9.286249006811387,2.3152279151682023,-3.697355150843861,-14.200426680582229,0.0625,0.6042844061105949,0.1,0.007313966751098633,0.16188549995422363,0.05106928,0.1634389,-9.77296766778888,-0.1211375523854316,-0.04583377975493186,0.0625,0.054788984647191265,1449,0.16604018211364746,0.06533660642737174,0.06430450404572297,-13.737572211960156,0.03125
14,2.2723772525787354,-9.198572310446108,2.3608780289020763,-4.922166538037743,-17.54831716441064,0.046875,0.5956051435985428,0.1,0.04876375198364258,0.2755589485168457,0.05005429,0.15724045,-9.715528132054603,-0.11718765836894181,-0.04546576662848422,0.046875,0.05466567121617733,1491,0.12911224365234375,0.08125827877846956,0.08129936554389006,-13.449529110363185,0.03125
15,2.2806665897369385,-9.288113441926672,2.044166942357761,-4.93617260681215,-15.14213698778656,0.052083333333333336,0.5914262217774922,0.1,0.007412433624267578,0.22415876388549805,0.05149043,0.16786008,-9.67278666304181,-0.11872456746857372,-0.04589860950844976,0.052083333333333336,0.05507300869479262,1488,0.22397613525390625,0.06041580427826003,0.057035855710876125,-13.278332876650085,0.03125
16,2.2699100971221924,-9.250540316602452,2.5687190971897147,-4.51934954395217,-16.069764125399818,0.036458333333333336,0.5751373718256395,0.1,0.016387224197387695,0.15699052810668945,0.051113732,0.17236035,-9.630562028397875,-0.11717625333412711,-0.04567883083553298,0.036458333333333336,0.054833991381473435,1490,0.1324000358581543,0.08390257523363547,0.08226150000496374,-13.358837178867068,0.03125
17,2.0569183826446533,-8.96049591335766,2.273989335543826,-4.740766609361601,-16.84111326144304,0.05729166666666668,0.6234024736772383,0.1,0.005682945251464844,0.15015912055969238,0.05035941,0.15523165,-9.563555416893854,-0.11481385515413238,-0.044320016770437,0.05729166666666668,0.054263696323107645,1492,0.14384698867797852,0.07116224748536565,0.069375501332343,-12.683990284078302,0.0
18,2.2488794326782227,-9.115042060734657,2.249002452443212,-4.410732321172848,-14.892620630566913,0.057291666666666664,0.6303467095335151,0.1,0.02647256851196289,0.20622563362121582,0.049610242,0.15051123,-9.518704081277935,-0.11666306109439807,-0.04500857500668289,0.057291666666666664,0.05500158093291843,1487,0.1426708698272705,0.06074864790318284,0.058438685729787894,-13.122355409942912,0.03125
19,2.2446436882019043,-9.112567211115028,2.08266749881859,-4.156900286610567,-14.423864391107186,0.046875,0.6232393948505994,0.1,0.011237144470214844,0.23560690879821777,0.04873122,0.15459614,-9.478090394261645,-0.11753047387223114,-0.04503693860898262,0.046875,0.05509939376315772,1489,0.3150136470794678,0.061098479673820504,0.05907204546551039,-12.64799605728248,0.0
20,2.285120725631714,-9.129764310549195,2.485497770953223,-4.703367142728974,-16.091306706950597,0.052083333333333336,0.6947302704926119,0.1,0.0071032047271728516,0.1665968894958496,0.050495934,0.13791208,-9.4432577858904,-0.11540982053803901,-0.04518638890884099,0.052083333333333336,0.0553045559161735,1504,0.13869380950927734,0.07619020991769279,0.07454359160529146,-12.12204342053673,0.0
21,2.231438636779785,-8.784291312428868,1.8196258048137217,-4.509107242976171,-13.067554582539175,0.052083333333333336,0.5935497628254971,0.1,0.0059261322021484375,0.13517284393310547,0.050678764,0.16278802,-9.377361138544249,-0.11710770697928578,-0.04345808659134894,0.052083333333333336,0.05583201454908362,1436,0.12405204772949219,0.04958572274821694,0.047481776563150474,-12.065416377460952,0.0
22,2.0451409816741943,-9.052725553345683,1.987157995095014,-4.368214588701552,-13.790748886847648,0.07291666666666667,0.6045868746906399,0.1,0.0060160160064697266,0.13665175437927246,0.04903756,0.1614182,-9.344897580024393,-0.11635347589969854,-0.0447098296988224,0.07291666666666667,0.05513876248095462,1479,0.1307368278503418,0.056860974925462396,0.05533925475051676,-11.77117976546819,0.0
23,2.092507839202881,-9.107655773323065,2.4349146696528545,-4.15273437738241,-16.313911795012913,0.046875,0.6366079788849373,0.1,0.006376743316650391,0.14095425605773926,0.05019134,0.15750271,-9.32117339935426,-0.1169740434591117,-0.04492343999456091,0.046875,0.05534927639462687,1474,0.13656187057495117,0.08107352680129598,0.07936650022617182,-12.070097209402661,0.0
24,2.2752463817596436,-9.135694933481888,2.2329119314142223,-5.11063062749194,-15.914895719448063,0.04166666666666667,0.6046131218832685,0.1,0.006058216094970703,0.1440715789794922,0.05003608,0.15951969,-9.302625552767022,-0.11610742936444995,-0.04516204706309198,0.04166666666666667,0.055648670910935276,1494,0.15589237213134766,0.06479622409551523,0.06366510351909496,-12.252671399269671,0.0
25,2.3110191822052,-8.985664833169162,2.1547941009720786,-4.589405011786246,-16.48563068913539,0.03125,0.6074802910739854,0.1,0.006146669387817383,0.1382436752319336,0.050666425,0.16145758,-9.270929480807236,-0.11337340921205365,-0.044323413178237396,0.03125,0.055473521742781744,1505,0.13826227188110352,0.07362067962318003,0.0718048520511823,-11.792071873974816,0.0
26,2.23358416557312,-9.33976386402981,2.4180641661669506,-4.330949534511633,-18.77423253221182,0.04166666666666667,0.6339655344482586,0.1,0.0066111087799072266,0.1512155532836914,0.050674934,0.14314558,-9.277812919129495,-0.11502954942015449,-0.04609351198684233,0.04166666666666667,0.05559188557166884,1543,0.13107919692993164,0.0843813167925184,0.0806265417701409,-11.666962146532226,0.0
27,2.031846284866333,-8.82487325305032,2.1492584120817027,-4.530082403692756,-15.373937893322895,0.026041666666666668,0.6216202316388602,0.1,0.007126331329345703,0.20038771629333496,0.049063914,0.15675242,-9.232518952521579,-0.11460807942861333,-0.04348483430407094,0.026041666666666668,0.05536741430300083,1457,0.13770699501037598,0.0653686137295526,0.06103435231992619,-11.802658998570736,0.0
28,2.3260910511016846,-8.963937235209164,2.382201631785439,-4.488913958262545,-21.20051557541609,0.052083333333333336,0.6111841772017345,0.1,0.0073871612548828125,0.1710059642791748,0.04985059,0.15018356,-9.205660780790337,-0.1126931963639395,-0.04423964683408565,0.052083333333333336,0.05585622564568577,1516,0.27202296257019043,0.08143887721812591,0.08027856501397339,-12.096950109673934,0.0
29,1.7453393936157227,-9.422575222697201,2.1139402784577785,-4.795538119593312,-17.094336572860293,0.04166666666666667,0.6187519435400358,0.1,0.007139682769775391,0.1684858798980713,0.050092697,0.15957528,-9.227352224981024,-0.11831982807108732,-0.046587048148236776,0.04166666666666667,0.055754572521758895,1513,0.17954468727111816,0.056238285763575764,0.05458071822562481,-11.660733497077155,0.0
30,2.1335628032684326,-8.884827193559369,1.9859130403154237,-4.8171375467098665,-15.039620664461452,0.052083333333333336,0.6036237293158125,0.1,0.006124973297119141,0.13192319869995117,0.051583346,0.1646769,-9.193099721838857,-0.11741569133763656,-0.043901227082446315,0.052083333333333336,0.05546291522470412,1444,0.1406095027923584,0.05674623951129233,0.052333180249724505,-11.487022253346497,0.0
31,2.0163090229034424,-9.334790802601736,2.554614973112037,-3.8672072204873036,-15.088853118343527,0.015625,0.614353725548369,0.1,0.007637977600097656,0.16808342933654785,0.050045386,0.16163689,-9.207268829915146,-0.120942715897143,-0.046131427399857615,0.015625,0.055705215027168055,1459,0.1386725902557373,0.08664534026616645,0.07973736974608218,-11.24076349142685,0.0
32,2.2568674087524414,-8.724982999882121,2.299091117732175,-4.635129970962164,-15.243726797242338,0.04166666666666667,0.6408316573222003,0.1,0.01108098030090332,0.17512011528015137,0.049048074,0.1535228,-9.159040246911843,-0.11216433052622767,-0.04323418859884618,0.04166666666666667,0.05496915735022806,1488,0.2142653465270996,0.07786874430852954,0.06995130296349227,-11.172922724894928,0.0
33,2.266122817993164,-8.642524230106817,2.3060095733720614,-4.9177841170428644,-15.263030775276967,0.052083333333333336,0.6436897110963073,0.1,0.007069826126098633,0.21412062644958496,0.04768985,0.14472654,-9.10738864523134,-0.11275327488768054,-0.042665280753424524,0.052083333333333336,0.055238277501239746,1454,0.3162112236022949,0.07735812402743877,0.07511932542021106,-10.987745056896703,0.0
34,2.225740671157837,-8.842010674783763,2.21260092845438,-4.011424486441119,-15.381065755308668,0.04687500000000001,0.6209244444102492,0.1,0.017002582550048828,0.27979421615600586,0.05092713,0.15948728,-9.080850848186582,-0.11736727469011492,-0.043663950781240975,0.04687500000000001,0.055488464504220146,1428,0.17973732948303223,0.06598609691592922,0.06522339141251117,-10.332066846582794,0.0
35,2.2402408123016357,-9.018975241224735,2.14545787100885,-4.798397808520734,-14.51587118767888,0.0625,0.601049696679062,0.1,0.020998001098632812,0.24044394493103027,0.04994043,0.16163076,-9.074663287490397,-0.1166777850907617,-0.04448039302014872,0.0625,0.05577082457530585,1462,0.1801013946533203,0.0692158706071693,0.06348639490598632,-10.63455071102507,0.0
36,2.113982677459717,-8.462974518847952,1.972925618350714,-4.309197369420572,-12.45582164145224,0.05729166666666668,0.5865089792528309,0.1,0.005837202072143555,0.1433727741241455,0.050021756,0.17037651,-9.013494410626151,-0.11710690449477724,-0.0416645277310879,0.05729166666666668,0.05599863948841518,1372,0.17882132530212402,0.05576587191499835,0.04909308809346565,-9.872716787545045,0.0
37,2.1435763835906982,-8.814085475991154,1.8257337715010606,-4.263824829190673,-13.702684757090399,0.036458333333333336,0.6039188389657981,0.1,0.010480880737304688,0.14112162590026855,0.051250137,0.16887392,-8.99355351716265,-0.11751478868035047,-0.043543636445395995,0.036458333333333336,0.05646232439605745,1428,0.19384217262268066,0.05234253652347277,0.04842481005352881,-10.18218103480746,0.0
38,1.9611694812774658,-8.433857817352079,2.1780560333076964,-4.322485720769922,-14.036052722658825,0.052083333333333336,0.5949226661463469,0.1,0.01867818832397461,0.13820886611938477,0.050690114,0.16672377,-8.937583947181594,-0.11524877214640909,-0.041677056187079474,0.052083333333333336,0.0560979583659692,1386,0.17893743515014648,0.06435226507738714,0.06240207630388619,-10.14467725424545,0.0
39,2.195439100265503,-8.553659372711351,2.18050176364253,-4.424845474510389,-15.796960681693633,0.052083333333333336,0.6317649196360067,0.1,0.007245540618896484,0.16471552848815918,0.050054457,0.15409338,-8.89919148973457,-0.11577647269733589,-0.04229304699053662,0.052083333333333336,0.05586102121317229,1406,0.23351025581359863,0.07892305347775236,0.07445145916738297,-10.213284656035265,0.0
40,2.1833267211914062,-8.411254700400285,1.91017916877376,-3.850695076134105,-13.494651394155564,0.026041666666666668,0.598655709211423,0.1,0.020552873611450195,0.13411974906921387,0.049322918,0.1700127,-8.850397810801141,-0.11490046788057744,-0.041495676632982446,0.026041666666666668,0.056013889990892594,1393,0.19414925575256348,0.05535987200304615,0.053123516754142654,-10.080917363390643,0.0
41,2.374769449234009,-8.438852457935548,2.0326860159604636,-4.408596565572631,-16.849940679609045,0.046875,0.6174499439995623,0.1,0.00750422477722168,0.1695997714996338,0.049564246,0.14969864,-8.809243275514582,-0.11431062384604677,-0.04174131528096895,0.046875,0.056427090847271745,1407,0.27088117599487305,0.06257544381289354,0.06110538241813674,-10.12842670672766,0.0
42,2.4567372798919678,-8.654464909221883,2.47679951838758,-4.242580297349063,-19.93265006074897,0.06770833333333334,0.602008421183154,0.1,0.007069110870361328,0.1642460823059082,0.049633414,0.15635638,-8.793765438885313,-0.11330700018995177,-0.04272670868971932,0.06770833333333334,0.05670824395987519,1441,0.25488924980163574,0.09645606130988593,0.09378485540713943,-10.31236169896029,0.0
43,1.5825049877166748,-8.428759249020223,2.2904129194993814,-3.604013548349706,-19.451777097385122,0.0625,0.604556778604388,0.1,0.035958290100097656,0.2732503414154053,0.05049917,0.1527881,-8.757264819898804,-0.11375256154810748,-0.04161174148314273,0.0625,0.0563436175931664,1402,0.20276808738708496,0.08003505719281376,0.07251747273850574,-9.835746571041025,0.0
44,2.2430858612060547,-8.140714678066741,1.9722202960334398,-4.083280507389072,-13.62658844441972,0.05729166666666668,0.5829681591128388,0.1,0.006775617599487305,0.19221901893615723,0.04990115,0.15521601,-8.695609805715598,-0.11024725029394523,-0.04024152172194229,0.05729166666666668,0.056631185078299416,1405,0.2635636329650879,0.061856793942293986,0.06017218777005341,-9.635664165928425,0.0
45,2.3092291355133057,-8.076508958885634,2.182140025752301,-3.924223749279605,-17.683696360991483,0.08854166666666666,0.6438586214828087,0.1,0.012027740478515625,0.17870354652404785,0.049526576,0.14635819,-8.633699721032603,-0.10872523432278042,-0.03990279953929755,0.08854166666666666,0.05661447160141153,1411,0.24089694023132324,0.08459935711634142,0.08150038594675103,-10.008745371188837,0.0
46,2.39160418510437,-8.249598011619033,2.071827363354072,-4.11051076160216,-14.163779503789648,0.06770833333333334,0.5989915555828301,0.1,0.006266355514526367,0.15926003456115723,0.050005067,0.15617384,-8.595289550091247,-0.11097265147134083,-0.04075152782372873,0.06770833333333334,0.056625105384071055,1417,0.2294929027557373,0.06795076934284698,0.0668914633127906,-9.678852702334368,0.0
47,2.212632179260254,-8.446644592595902,2.06227621980104,-4.116636290988002,-14.98815446000491,0.03645833333333333,0.6192332144794126,0.1,0.006335258483886719,0.15161752700805664,0.04998939,0.16091454,-8.580425054341713,-0.11277456467971762,-0.04183579634924892,0.03645833333333333,0.057134360079769374,1431,0.2329854965209961,0.060252662946848765,0.06228170661907755,-9.670652608023953,0.0
48,2.366464138031006,-8.472848819252151,2.112632830255931,-4.148153981314008,-12.903853856632459,0.046875,0.616381011405478,0.1,0.007378339767456055,0.21316742897033691,0.049416166,0.16293608,-8.569667430832757,-0.11453387293899801,-0.04181781871235472,0.046875,0.05722626244865045,1402,0.2543046474456787,0.058649161238770044,0.05614411202294899,-9.776859630903127,0.0
49,2.360260248184204,-8.027077763764717,1.9610482681292183,-4.014879545113367,-14.236540243290047,0.0625,0.6035718887713204,0.1,0.02089524269104004,0.21030926704406738,0.050937768,0.16396567,-8.515408464125953,-0.10777482218127253,-0.039711970118189006,0.0625,0.05704573941455455,1419,0.22037482261657715,0.0634347394726886,0.060697243074932766,-9.227303212779692,0.0
50,1.7739295959472656,-8.01357744103378,2.0114728419135046,-4.138282224683783,-16.03772992173967,0.04166666666666667,0.5948702746552641,0.1,0.016527175903320312,0.13370347023010254,0.050025884,0.15777722,-8.465225361816735,-0.10782007486614818,-0.039538953025595756,0.04166666666666667,0.05689777654570327,1412,0.21099281311035156,0.06431037591934985,0.06265217019891235,-9.214374593858,0.0
51,2.5316500663757324,-8.28058393540686,2.384355060453634,-3.975886274104049,-19.46074641282795,0.020833333333333336,0.6111068980455372,0.1,0.016947507858276367,0.23031353950500488,0.05046167,0.1486843,-8.446761219175748,-0.11046969871528374,-0.0408670212994077,0.020833333333333336,0.057227912015917204,1419,0.34346866607666016,0.08574430714965321,0.08185295387949149,-9.511548373097755,0.0
52,2.2322049140930176,-8.20143141314727,1.9144315078855907,-3.8401727937376524,-13.542039838620024,0.046875,0.5891990248124369,0.1,0.008978605270385742,0.26648879051208496,0.04936809,0.1747323,-8.4222282385729,-0.10931279180940191,-0.04052886993834898,0.046875,0.0575208759927713,1428,0.21849489212036133,0.06263213349944602,0.06054616515945426,-9.762969590691597,0.0
53,2.051198959350586,-8.47402948298754,1.733129988776759,-4.266695109648916,-13.08205398732987,0.020833333333333336,0.6355536823622261,0.1,0.016350746154785156,0.17563247680664062,0.048359763,0.15045585,-8.427408363014365,-0.1126289730086551,-0.04189420719808944,0.020833333333333336,0.056846605585771044,1434,0.31294822692871094,0.04927439111863109,0.04658644539602664,-9.374927260563684,0.0
54,2.010554552078247,-8.289373415941201,2.0633736206687874,-3.7115148312617534,-15.181380631598728,0.04166666666666667,0.6531895819824498,0.1,0.04259753227233887,0.2037491798400879,0.049016558,0.14869912,-8.413604868307049,-0.11187017823154284,-0.040998009442057,0.04166666666666667,0.057248465751367106,1414,0.2502768039703369,0.06329931829357618,0.06192892722730241,-9.39249006391398,0.0
55,1.9781737327575684,-7.913621075574544,2.0469107679820073,-3.9016783412163027,-16.644477977223154,0.057291666666666664,0.6044138341945609,0.1,0.03996396064758301,0.22355914115905762,0.05054031,0.14813033,-8.363606489033799,-0.1077938506585339,-0.039011909938405594,0.057291666666666664,0.0576916859970818,1390,0.26880502700805664,0.07347472181656245,0.07058955561356993,-9.429264086762824,0.03125
56,2.2535624504089355,-8.133191045053382,2.2939326610439523,-3.5268046068126524,-16.23668659343771,0.07291666666666667,0.6301228254860045,0.1,0.017284631729125977,0.1563866138458252,0.049652535,0.14801615,-8.340564944635757,-0.10797490555516666,-0.04016426916869844,0.07291666666666667,0.057339146635678684,1431,0.22598505020141602,0.07897771673685657,0.07785192627999321,-9.46748252666288,0.03125
57,2.019674301147461,-8.331911885495837,2.1577720204708073,-3.8057913233692484,-13.690641643346286,0.06770833333333334,0.5999319549936533,0.1,0.01659107208251953,0.1422276496887207,0.048478976,0.16231024,-8.339699638721765,-0.11195481943375894,-0.04112040322501211,0.06770833333333334,0.057590635834473956,1404,0.20548439025878906,0.06883525262194962,0.06760828588873702,-9.554922089881284,0.03125
58,2.0314342975616455,-7.831715125248317,1.788679733412368,-3.782999946805772,-12.292988197704044,0.04166666666666667,0.6410910453436306,0.1,0.02467823028564453,0.29299473762512207,0.048166286,0.14716601,-8.288901187374421,-0.10881173750926144,-0.03871351831985435,0.04166666666666667,0.05708937513491839,1373,0.24709534645080566,0.06969943346946654,0.04999552999809238,-9.720180832219642,0.03125
59,2.1847431659698486,-8.273118766589493,2.085259713368852,-3.8462966466098925,-13.424938704595501,0.036458333333333336,0.6116628242751079,0.1,0.0063321590423583984,0.13605117797851562,0.049282566,0.16185093,-8.287322945295928,-0.11260787171149955,-0.040941529492805585,0.036458333333333336,0.057140933914251735,1394,0.23356103897094727,0.06193885514742567,0.057022947178056,-9.774388082970138,0.03125
60,2.228637218475342,-7.984008599605761,1.9015589751004331,-4.225079543425286,-13.84884163421593,0.052083333333333336,0.6042313432574448,0.1,0.017447710037231445,0.3023660182952881,0.049557265,0.15730284,-8.256991510726913,-0.10947934746701087,-0.03965284851833893,0.052083333333333336,0.05706700362694079,1395,0.26104187965393066,0.057473993964287165,0.05475198012707398,-9.394455767930651,0.03125
61,2.0804128646850586,-7.8967104971423865,1.9814683873558434,-4.174065221240346,-12.29778628090729,0.0625,0.6527218393192082,0.1,0.03948235511779785,0.2589118480682373,0.049420737,0.1482266,-8.22096340936846,-0.10631951024027368,-0.039110035747041576,0.0625,0.057179283130500295,1420,0.22290420532226562,0.059944957886279175,0.05861031026001432,-10.879390353024437,0.03125
62,1.8504736423492432,-7.935559888965888,1.835048594521536,-3.7879052741618273,-11.767279738432835,0.046875,0.5985210942418718,0.1,0.0064239501953125,0.1625971794128418,0.050254267,0.17040128,-8.192423057328202,-0.10980185571717456,-0.0392289994004644,0.046875,0.057306485047268325,1377,0.2200944423675537,0.048384849321165484,0.04693718953490606,-11.770443127887713,0.03125
63,2.23285174369812,-7.7746170463189115,1.9310303823919828,-4.0822471675044545,-12.954843438362296,0.03125,0.5818227601967908,0.1,0.006025552749633789,0.13394808769226074,0.048694205,0.17476848,-8.150642456227274,-0.10739488378943964,-0.03852859269450871,0.03125,0.057087420669237804,1385,0.20990419387817383,0.060455919235269544,0.06023690440594296,-11.80774746658567,0.03125
64,2.0360100269317627,-8.489330124784011,2.86085408226209,-4.2014149639305725,-21.27571541161862,0.057291666666666664,0.6453816784046645,0.1,0.0072612762451171875,0.2673001289367676,0.045606226,0.12937413,-8.184511223082948,-0.11273745735053142,-0.04208659509809104,0.057291666666666664,0.05679895650924529,1426,0.3423891067504883,0.14179033231420474,0.12189311107725845,-11.747089394316554,0.03125
65,2.1817033290863037,-8.041395981331531,1.87622500042982,-4.3015973429385355,-12.702694449712496,0.05729166666666668,0.6286333877754423,0.1,0.0076258182525634766,0.3290252685546875,0.048738293,0.15473303,-8.170199698907807,-0.10819506088112246,-0.039744096775928,0.05729166666666668,0.05686692247924895,1414,0.2594282627105713,0.06353268110141262,0.049462105388148575,-10.932617078334074,0.0
66,2.008716344833374,-7.898142489195776,2.0975961319952683,-3.487938016874011,-14.243977918928781,0.057291666666666664,0.6088733297751671,0.1,0.017422199249267578,0.13730192184448242,0.049647227,0.16180284,-8.142993977936603,-0.1064680411657281,-0.03896315144967948,0.057291666666666664,0.05730355632414366,1401,0.2178819179534912,0.0702983207372313,0.06798131570543155,-10.085661643198284,0.0
67,2.2241177558898926,-7.801512845853787,1.8467281721949318,-4.453133075958644,-13.692381624232109,0.04166666666666667,0.5959441419819695,0.1,0.006896257400512695,0.17212200164794922,0.049300056,0.16171287,-8.108845864728321,-0.10670414537463659,-0.03856068221192548,0.04166666666666667,0.05768219009595895,1393,0.27072954177856445,0.060513069686152644,0.05750649677072468,-10.24698637266075,0.0
68,2.1826090812683105,-7.631533841816075,1.7957621187777633,-3.317103754970711,-11.787754275245138,0.046875,0.6183769087914807,0.1,0.006595134735107422,0.14400148391723633,0.049255896,0.15286076,-8.061114662437097,-0.10494353693859963,-0.03772778084124676,0.046875,0.05749301119939678,1384,0.24550461769104004,0.053915308541821236,0.05090175710112764,-10.291911291539908,0.03125
69,2.247849702835083,-7.875341409458869,2.20366869441046,-3.943860274319885,-13.613992042911496,0.0625,0.5859022121582176,0.1,0.0065348148345947266,0.2746589183807373,0.048335828,0.16184707,-8.042537337139274,-0.10751704735510736,-0.038923172445994254,0.0625,0.057420189299972224,1389,0.2263033390045166,0.07561388105698912,0.07201034860818459,-10.957214149184935,0.03125
70,2.279237985610962,-8.075760508847171,1.885855863983063,-3.830892336729441,-13.066109164645292,0.03125,0.5937917089793393,0.1,0.005738973617553711,0.12804746627807617,0.049895313,0.15721814,-8.045859654310064,-0.10896773672136006,-0.039967548982783145,0.03125,0.057407022564351935,1413,0.2063589096069336,0.06007553157067414,0.05542977707513479,-10.244442722669639,0.03125
71,2.191978931427002,-8.10713475585509,1.9626560269831381,-4.012093586509281,-14.811607268529528,0.04166666666666667,0.6069129611592247,0.1,0.005475759506225586,0.13779687881469727,0.0503855,0.15501171,-8.051987164464567,-0.11213472594767077,-0.04006870409765134,0.04166666666666667,0.057805010501505445,1373,0.23975682258605957,0.0542628544596717,0.05475797287720005,-10.910581090542365,0.03125
72,1.666062355041504,-7.777457235809468,1.8665219868445235,-3.6813454855850987,-12.63943443767545,0.04166666666666667,0.6043674147134462,0.1,0.017774105072021484,0.23556804656982422,0.048881277,0.15793437,-8.024534171599058,-0.10696630422375845,-0.038436731213224516,0.04166666666666667,0.05806487005593212,1382,0.25147128105163574,0.06686255094167894,0.05895047469514174,-11.12988616913994,0.03125
73,2.2350399494171143,-8.250006771697583,2.2138701909566545,-4.11861512990917,-14.65218953447797,0.036458333333333336,0.5924283376362912,0.1,0.005843639373779297,0.14088988304138184,0.04673837,0.1544504,-8.04708143160891,-0.11120146854123623,-0.04078607091742175,0.036458333333333336,0.05751943341210917,1407,0.23562049865722656,0.07190980079541533,0.0623409860158684,-10.549541555992771,0.03125
74,2.0844688415527344,-7.901720871125614,1.913128856139427,-3.56135468375128,-13.009810759352602,0.057291666666666664,0.6027261107915586,0.1,0.02758026123046875,0.1417856216430664,0.048393924,0.1646114,-8.03254537556058,-0.10606851857571443,-0.03902813486340686,0.057291666666666664,0.05783387347572186,1418,0.24723124504089355,0.05300081094655823,0.05000206508884636,-10.442703718053561,0.03125
75,1.8845446109771729,-7.253794779070262,2.0202029651447546,-3.6808140082044023,-11.559898525454836,0.08333333333333334,0.5972867680381755,0.1,0.032911062240600586,0.18598556518554688,0.04985193,0.17814107,-7.954670315911549,-0.09924881845241647,-0.03594999696826701,0.08333333333333334,0.05830003534437677,1394,0.2620811462402344,0.0753977874689367,0.06464692748346278,-10.449112819748231,0.03125
76,2.2466654777526855,-7.936326942728896,2.4628844704148536,-4.018039927929618,-22.64560801133083,0.036458333333333336,0.5791177506739362,0.1,0.007401704788208008,0.15048670768737793,0.05015871,0.1565156,-7.952835978593283,-0.10612376283445313,-0.03902720382372171,0.036458333333333336,0.057858875961382374,1402,0.24583911895751953,0.11370722790582072,0.09786288772375526,-10.263893004781854,0.03125
77,2.035740852355957,-7.892392156887053,2.485551863126145,-3.549880803419412,-17.36011946195506,0.046875,0.6155484922916575,0.1,0.016661882400512695,0.38730764389038086,0.049953006,0.15177257,-7.946791596422661,-0.10533003989527505,-0.03897978403316317,0.046875,0.0578900112252427,1415,0.329331636428833,0.08431055636728914,0.08082284517596121,-10.265132196516262,0.03125
78,1.9266736507415771,-7.6669930693041435,2.069410293640145,-3.3031519711554216,-13.779179054248614,0.052083333333333336,0.5697663055734344,0.1,0.0425107479095459,0.17100095748901367,0.047804393,0.16547191,-7.918811743710809,-0.10413432034995679,-0.037959162387886575,0.052083333333333336,0.05810412305481505,1398,0.29314637184143066,0.07120308729062565,0.06908290841784674,-10.234481789545038,0.03125
79,2.2375454902648926,-7.643776612990929,2.0148122891515277,-3.688933772193866,-12.773131276910185,0.04166666666666667,0.6127814379171521,0.1,0.006003618240356445,0.24138522148132324,0.050592523,0.15228193,-7.8913082306388205,-0.10268544323113186,-0.03787738821678263,0.04166666666666667,0.058136734325505264,1418,0.28883957862854004,0.05859955402201209,0.05557362508068131,-9.119598439213618,0.03125
80,2.205639600753784,-7.615733234654343,1.7843725832926343,-3.673112603504344,-12.843936031839403,0.03125,0.597662556052876,0.1,0.017066478729248047,0.13658690452575684,0.050458815,0.16915986,-7.863750731040373,-0.1041347481477547,-0.037651756779433325,0.03125,0.0579680297443965,1389,0.2619907855987549,0.051383501446128695,0.0499432561779969,-10.345791765778015,0.0
81,2.2492294311523438,-7.925900816317477,2.091297357353947,-2.959485926391424,-17.765875011604475,0.03645833333333333,0.6061208586434618,0.1,0.00595402717590332,0.20788908004760742,0.050450616,0.15234196,-7.869965739568084,-0.10436195057809074,-0.03936289868223288,0.03645833333333333,0.057743776256844175,1451,0.2576777935028076,0.07231737118356775,0.06732053071094037,-10.702063684187035,0.03125
82,2.2353076934814453,-7.961446316104786,2.1054207453962666,-4.033204296791629,-17.632085449359806,0.036458333333333336,0.6043213019083375,0.1,0.006900787353515625,0.3771202564239502,0.04747875,0.14785391,-7.879113797221754,-0.10733971682763938,-0.03935836722692537,0.036458333333333336,0.05794137818739401,1404,0.4949653148651123,0.06948419757223284,0.06563266069931298,-10.5660143021741,0.03125
83,2.249831199645996,-7.831238492157154,2.3744860419143143,-3.3545337673533764,-18.207124286475324,0.057291666666666664,0.6308474504145882,0.1,0.005917787551879883,0.13131999969482422,0.050240546,0.15352555,-7.874326266715294,-0.10528482122058043,-0.03880977511134381,0.057291666666666664,0.058094526595994844,1411,0.26015639305114746,0.0894735840066913,0.08840984433969598,-10.788395578127517,0.0
84,2.0373520851135254,-7.46996185622033,2.2232000991732273,-3.5726222205343703,-16.438302844468364,0.04166666666666667,0.5441193211409614,0.1,0.005975484848022461,0.13598895072937012,0.04896224,0.16188732,-7.833889825665798,-0.10288456874556663,-0.03690235406498246,0.04166666666666667,0.05841824072439247,1372,0.23866677284240723,0.09926267062681383,0.08556219258654613,-9.463156976485301,0.0
85,1.9612388610839844,-7.601423610634751,1.8108979433952703,-3.889932424708051,-11.687191137875102,0.04166666666666667,0.5742446527006277,0.1,0.005602836608886719,0.12224793434143066,0.050399937,0.16706221,-7.810643204162694,-0.10637677591334321,-0.037624746651853926,0.04166666666666667,0.05880451970855735,1366,0.23993539810180664,0.05712253150600916,0.04811010074916101,-9.184799475976396,0.0
86,2.234844923019409,-7.60722653362087,2.26334137861946,-3.3463078043163126,-17.97405949807032,0.03125,0.5857227407532286,0.1,0.017976045608520508,0.15961050987243652,0.05041685,0.14996547,-7.790301537108512,-0.10409554934572669,-0.037562279139821436,0.03125,0.059823611895299805,1381,0.2553436756134033,0.07801327889099934,0.07648197440698283,-9.80019745677322,0.0
87,2.181948661804199,-7.653572463990746,2.046735099410234,-3.855320155039584,-15.890123655874461,0.036458333333333336,0.603858522444586,0.1,0.00601506233215332,0.12878751754760742,0.048795357,0.15603596,-7.776628629796735,-0.10560891571251775,-0.03794346944836527,0.036458333333333336,0.059086459570295256,1383,0.25511598587036133,0.07197004460922937,0.06896388176676704,-9.865826308615274,0.0
88,2.040942668914795,-7.85064427726815,1.9133412277074513,-4.0013384504152025,-16.532200063634757,0.046875,0.5829504463595296,0.1,0.028779983520507812,0.24944829940795898,0.049546674,0.15353413,-7.784030194543877,-0.10774696847941505,-0.038741187798267525,0.046875,0.059713383361914014,1378,0.28913426399230957,0.06161723305522971,0.059020648247901035,-9.370621908932595,0.0
89,2.1880345344543457,-7.700569864139978,1.8639510526722014,-4.307442468929321,-13.089928729422448,0.036458333333333336,0.5893603269625413,0.1,0.016872644424438477,0.20395326614379883,0.0507204,0.17147033,-7.775684161503487,-0.10632465172120424,-0.038164432568906115,0.036458333333333336,0.05942949919522996,1384,0.26270508766174316,0.0608862219335271,0.0655610132517515,-9.163621747099182,0.0
90,2.0123002529144287,-7.521123292237906,1.8351763214426917,-4.170646339717939,-12.714404858748003,0.04687500000000001,0.6117506852050307,0.1,0.006300449371337891,0.13109087944030762,0.050238468,0.15920086,-7.750228074576929,-0.10459306841363282,-0.03723934015938931,0.04687500000000001,0.05964317198931312,1371,0.27506566047668457,0.06153375641143911,0.054650124284010816,-9.929664388822413,0.0
91,2.2140533924102783,-7.590242385881278,2.299152241736306,-3.5812290737570303,-18.334349827088086,0.0625,0.5837766314583942,0.1,0.024008750915527344,0.16823220252990723,0.04963251,0.14699808,-7.734229505707365,-0.10507952619502224,-0.03761515731497054,0.0625,0.05996003068552656,1370,0.26667165756225586,0.0991990350749767,0.08875333809316158,-9.681704575025705,0.0
92,2.20812726020813,-7.275465516336435,1.971412469546353,-3.8510605482797753,-13.609719729442524,0.052083333333333336,0.595600987701142,0.1,0.023595333099365234,0.2284388542175293,0.049409468,0.15657623,-7.688353106770272,-0.09853974205928577,-0.035993265914706356,0.052083333333333336,0.05967000580411097,1406,0.25786471366882324,0.06618061034109957,0.061893022859148515,-9.813238725482385,0.0
93,2.1659798622131348,-7.845146312571196,1.9956277594206477,-3.7317619042732346,-11.977636196396585,0.036458333333333336,0.5803166306539806,0.1,0.0060274600982666016,0.13692784309387207,0.04898689,0.1718889,-7.704032427350365,-0.10621792209663523,-0.038939580672760175,0.036458333333333336,0.059694449974801334,1406,0.24299836158752441,0.05653772194361085,0.05463850028924367,-10.634752771783731,0.0
94,2.195232629776001,-7.504212347136821,2.33405015519095,-3.4789663382423837,-15.839005583521097,0.036458333333333336,0.5806640134983264,0.1,0.0057566165924072266,0.2427840232849121,0.049746346,0.15035474,-7.684050419329011,-0.10269353079165006,-0.03721465906986735,0.036458333333333336,0.05944871256751327,1382,0.2375965118408203,0.09422744135745506,0.08890321316929232,-9.913614899442331,0.0
95,1.9601795673370361,-7.644561738284614,1.7307534692418178,-4.128793632896461,-13.86083995714636,0.010416666666666668,0.5760979629155132,0.1,0.018011808395385742,0.16607356071472168,0.04925036,0.16410023,-7.6801015512245705,-0.10341203894252943,-0.03781564359270973,0.010416666666666668,0.059639727406910266,1402,0.26728105545043945,0.051292732674468385,0.0476535766663046,-10.07280638392562,0.0
96,2.2084994316101074,-7.247596445311302,1.799380257947468,-3.4030415607562494,-11.049222280947658,0.046875,0.6012043196673885,0.1,0.01904439926147461,0.2687723636627197,0.050860744,0.17292023,-7.636851040633244,-0.1011326895432464,-0.03591703821570217,0.046875,0.05938299917457698,1371,0.2994379997253418,0.05276279646902261,0.04843681466317597,-10.023368625910019,0.0
97,2.188897132873535,-7.217112376642917,1.912009906882204,-4.125234272068504,-13.203846414449286,0.0625,0.596431878992343,0.1,0.0070285797119140625,0.16172480583190918,0.04815761,0.16770488,-7.594877174234212,-0.09849586515190846,-0.03565547312072739,0.0625,0.05943618785723868,1389,0.2862389087677002,0.0581366261608561,0.05641881937701463,-9.892686628918607,0.0
98,2.166860818862915,-7.767343758446522,1.8786343830941126,-4.144356158498999,-12.404046188892293,0.026041666666666668,0.5742636719102123,0.1,0.03741931915283203,0.12941741943359375,0.0476486,0.16804941,-7.612123832655444,-0.10853342642720427,-0.038431041159629496,0.026041666666666668,0.05973356140081468,1361,0.22414207458496094,0.056671432771940776,0.055121954729605495,-10.39701695312182,0.03125
99,2.173201322555542,-7.466242328841811,1.8868719411046329,-3.4350409631954575,-13.085329889803193,0.057291666666666664,0.620868695437295,0.1,0.0058667659759521484,0.14829635620117188,0.04674217,0.15584813,-7.5975356822740805,-0.10424737571096415,-0.036929430095556014,0.057291666666666664,0.05941608489988292,1361,0.20872092247009277,0.05399364622477028,0.048605065906365784,-10.05154942943102,0.03125
100,2.293285608291626,-7.180393368921625,2.208727693539858,-3.907027168907971,-17.969370808628465,0.06770833333333334,0.6216507651370514,0.1,0.005843639373779297,0.13666677474975586,0.04841046,0.13822748,-7.555821450938835,-0.09657325496101514,-0.03562005757153728,0.06770833333333334,0.0594968403012053,1416,0.2065591812133789,0.0977371701011151,0.09140610635800195,-9.18873753238227,0.03125
101,2.237023115158081,-7.31252778054725,1.8330709582073954,-3.467256286835064,-13.037038936542686,0.04166666666666667,0.6231451569281672,0.1,0.005726337432861328,0.12602019309997559,0.04912315,0.1519695,-7.531492083899677,-0.10010559388965685,-0.03618969948772581,0.04166666666666667,0.059675243987122956,1388,0.2125246524810791,0.054856158628787365,0.05116626164961225,-9.10137632999183,0.03125
102,2.177213668823242,-7.157383780001617,1.749662257700962,-3.817821457626163,-10.699858247001197,0.057291666666666664,0.6098656501698204,0.1,0.0069506168365478516,0.16004633903503418,0.0486551,0.16769211,-7.494081253509871,-0.09868502232683678,-0.03538722304511007,0.057291666666666664,0.059796307266607375,1375,0.31209802627563477,0.04754896004369206,0.04438105455480391,-8.735134066104333,0.03125
103,2.1417903900146484,-7.021310016487902,1.997696076473213,-3.6255051198661055,-15.274332809305253,0.078125,0.5474539984648966,0.1,0.020463228225708008,0.1607511043548584,0.050181415,0.17011848,-7.446804129807674,-0.09975196495766865,-0.03481053483031347,0.078125,0.059590255210765,1339,0.22884559631347656,0.07016366050440509,0.06764526400944722,-9.280649699935992,0.0
104,2.1748147010803223,-7.501906287852246,1.9080074333618413,-3.7171555811273276,-13.526337069609482,0.04166666666666667,0.5969740677134486,0.1,0.005700349807739258,0.12782788276672363,0.050081708,0.15431714,-7.452314345612131,-0.10254843640639984,-0.03711110489969787,0.04166666666666667,0.059617944763271556,1393,0.23980093002319336,0.06017643050949563,0.05467538568718281,-9.379619446775827,0.0
105,1.8097383975982666,-7.727409103509946,2.260730723129115,-3.7348567829458634,-13.8936063418497,0.0625,0.6079823278017731,0.1,0.006906747817993164,0.2834916114807129,0.047484525,0.15035105,-7.479823821401912,-0.1070458926743099,-0.03817180618119754,0.0625,0.06000199245296887,1368,0.3417203426361084,0.07542895800331381,0.0698868256138163,-9.32928045311727,0.03125
106,2.1518619060516357,-7.6555959664492415,1.7274006355871714,-4.185973471587989,-11.902206181836043,0.052083333333333336,0.6162566470434262,0.1,0.0076389312744140625,0.2117905616760254,0.049011715,0.15284964,-7.497401035906646,-0.1048212736227108,-0.03788876485300943,0.052083333333333336,0.059825279782834646,1389,0.2212505340576172,0.043087820682736214,0.04098055184843836,-10.689812963311464,0.03125
107,2.1728122234344482,-7.45172402849825,1.6776320970701428,-4.128988094170373,-11.283612259627821,0.04166666666666667,0.5969078532765348,0.1,0.007250547409057617,0.1666710376739502,0.049523678,0.16163005,-7.492833335165806,-0.10322030414652746,-0.03686832725443212,0.04166666666666667,0.06003034451848819,1379,0.25740909576416016,0.0446999138416571,0.04038401050279682,-9.69731503890442,0.03125
108,2.1975746154785156,-6.9806342750774775,1.603336955853977,-4.1055680925793885,-11.302974077765342,0.046875,0.6063910049363299,0.1,0.006051063537597656,0.12847566604614258,0.049465567,0.15141743,-7.441613429156973,-0.09715102895432702,-0.03460314346902759,0.046875,0.05996492998347941,1376,0.2037060260772705,0.056759602816146504,0.05558419543750624,-9.974915449527728,0.03125
109,2.1802268028259277,-7.42690435716121,1.9609400962629533,-3.236280445086126,-13.992084215313538,0.06770833333333334,0.6000975989964296,0.1,0.006219148635864258,0.12958192825317383,0.049925867,0.16273002,-7.440142521957398,-0.10313782865689551,-0.036638535245600755,0.06770833333333334,0.059828450753341915,1364,0.2442018985748291,0.05551014890451865,0.05447876216963866,-10.201832405711466,0.03125
110,2.143043279647827,-7.327769947625915,1.792361551409509,-3.3846629833915602,-12.493261147896307,0.036458333333333336,0.5827127204194071,0.1,0.006169795989990234,0.13415861129760742,0.049604878,0.17002536,-7.42890526452425,-0.1038792065172709,-0.03620982890111973,0.036458333333333336,0.060200759145416734,1334,0.24891400337219238,0.048023955922736034,0.0408618939241185,-9.895514228846336,0.03125
111,2.1860709190368652,-7.363229929184855,1.8922045753296128,-3.27554966477598,-11.99000129998911,0.0625,0.6078019731753534,0.1,0.040255069732666016,0.24862170219421387,0.046814304,0.17144325,-7.422337730990311,-0.10193332585916619,-0.03649727201395133,0.0625,0.05960668686867171,1370,0.31087589263916016,0.0530287991269555,0.051073748816058785,-9.52178639539863,0.03125
112,2.1587975025177,-7.33894032213842,1.6027702956418843,-3.645493809292347,-10.939701596695969,0.03645833333333333,0.6385568297345874,0.1,0.00828409194946289,0.1666724681854248,0.049259752,0.14607455,-7.413997990105122,-0.10458541438657175,-0.03627875693604748,0.03645833333333333,0.06024804934778285,1336,0.2933647632598877,0.04052058732386795,0.04078096484188209,-9.118802670361884,0.0
113,2.017754554748535,-7.697391217273203,2.0747764256252252,-3.7269816534980755,-16.30038408958743,0.046875,0.6107387622783111,0.1,0.018140792846679688,0.17518186569213867,0.04999783,0.1524653,-7.4423373128219295,-0.10721350317056717,-0.03815118837111047,0.046875,0.06010276908214177,1366,0.43420910835266113,0.06775204125143305,0.06419123073416211,-8.970865401489263,0.03125
114,2.184835910797119,-7.178129616396714,1.786568643930251,-4.194550108381446,-12.298188478188585,0.052083333333333336,0.6019718173479363,0.1,0.05858254432678223,0.17994213104248047,0.049306873,0.15872917,-7.415916543179408,-0.10081109192165279,-0.03551292092125556,0.052083333333333336,0.05970861603997126,1350,0.2478170394897461,0.05132356376786123,0.04461209810150783,-8.78722584884029,0.0
115,2.1387786865234375,-7.203564186928804,1.7947187960409043,-3.6860053669666017,-11.359526549308653,0.06770833333333334,0.6323586722607294,0.1,0.01677227020263672,0.18468451499938965,0.049575754,0.15465906,-7.394681307554348,-0.10362078908992296,-0.035587750317126784,0.06770833333333334,0.059704601213741604,1322,0.23489022254943848,0.048802000500282335,0.046942647560101775,-8.79338915364811,0.03125
116,1.9534461498260498,-7.2617325209462145,1.8488572717952512,-3.450220114081402,-13.00566804777384,0.0625,0.5830309343007881,0.1,0.021975040435791016,0.137160062789917,0.050520543,0.16458784,-7.381386428893535,-0.10269942668185972,-0.03591933558316502,0.0625,0.06004660836746275,1346,0.24522948265075684,0.05876247172909418,0.05649809797754893,-8.779136385937942,0.03125
117,2.179280996322632,-7.217614305873698,1.9643779715208822,-3.407479540899412,-11.364460272205728,0.052083333333333336,0.6219316480044822,0.1,0.007265567779541016,0.22426390647888184,0.05033488,0.16398692,-7.3650092165915515,-0.10297622128056605,-0.03577356784497942,0.052083333333333336,0.05983870601957062,1334,0.2791628837585449,0.05764439566647175,0.05527356628763167,-8.596238865645018,0.03125
118,2.347501754760742,-7.6490753413643136,1.90202966583595,-3.5123172355705163,-14.443740005686402,0.020833333333333336,0.5842469039765175,0.1,0.007054805755615234,0.23898839950561523,0.04824156,0.14976835,-7.393415829068828,-0.10763654823119666,-0.03790684860935012,0.020833333333333336,0.060236065272753075,1359,0.33746814727783203,0.05856578355607877,0.052621137819719714,-9.206483278009237,0.0
119,2.141407012939453,-6.889883544467177,1.6816706560001187,-3.558154008077709,-10.546329890985156,0.052083333333333336,0.5705818205621644,0.1,0.016984224319458008,0.1751093864440918,0.04871495,0.1757298,-7.343062600608663,-0.09772066321885152,-0.034147235753343434,0.052083333333333336,0.06033268985186221,1343,0.22869038581848145,0.05625195257209227,0.050797934923206556,-9.020234281491424,0.0
120,2.0986008644104004,-7.059811849613273,1.8688344814234847,-3.4788121181129776,-12.973314719727233,0.057291666666666664,0.5721770695715667,0.1,0.007017850875854492,0.28469276428222656,0.047989372,0.17527638,-7.314737525509124,-0.10102209282075351,-0.035009267021541106,0.057291666666666664,0.059998219220882276,1332,0.29216885566711426,0.04952971902919008,0.044063570495351756,-8.300365597547222,0.0
121,2.1867051124572754,-7.409635653224058,1.8853392234693154,-4.002666311719691,-13.042850468589698,0.05729166666666668,0.6078816200512777,0.1,0.0057735443115234375,0.16462182998657227,0.049920656,0.15272033,-7.324227338280617,-0.10254657234554493,-0.03671277544575854,0.05729166666666668,0.06032490559932365,1383,0.2731008529663086,0.05948254838486174,0.052402861788829316,-8.390818736738883,0.03125
122,2.3994226455688477,-7.189746923174148,2.0091659182655786,-3.527108932160345,-13.721662592492596,0.046875,0.6287220645416659,0.1,0.006789684295654297,0.2218472957611084,0.050124474,0.1369871,-7.3107792967699705,-0.09857833821358553,-0.03570304947673827,0.046875,0.06038531265399102,1400,0.3733043670654297,0.07441265319475925,0.07010632204850237,-8.204659415646773,0.03125
123,2.3937854766845703,-7.208334653337043,1.6510665909399365,-3.928048376806098,-10.398140869101306,0.036458333333333336,0.5887897477877742,0.1,0.017325639724731445,0.15019941329956055,0.04896271,0.16649301,-7.300534832426678,-0.10145463488135364,-0.035714449768459985,0.036458333333333336,0.060299641001240134,1354,0.2413773536682129,0.0407230076170823,0.04055466688529028,-8.192742314782485,0.03125
124,2.1716699600219727,-6.701326943788466,1.81253774104561,-3.7008639837778072,-11.306762796769037,0.09895833333333334,0.6120809112588455,0.1,0.00590968132019043,0.12734031677246094,0.04937896,0.15777934,-7.240614043562856,-0.09564375246792915,-0.033180350457532835,0.09895833333333334,0.06063491305999147,1331,0.22544360160827637,0.05667059988076257,0.048219225395101505,-8.302897559272783,0.03125
125,2.11422061920166,-7.127387314285013,2.168461908301275,-3.4786201001220274,-13.016632330376476,0.06770833333333334,0.6065799831825368,0.1,0.03391909599304199,0.16951227188110352,0.047899257,0.15057942,-7.229291370635073,-0.10058026510997013,-0.03536610181191991,0.06770833333333334,0.06093401418083231,1349,0.23596978187561035,0.072963445860289,0.07401017046036407,-8.191884055343955,0.0
126,2.346590280532837,-7.146768394186689,1.728715807446064,-3.6209537898735267,-13.080775603315011,0.0625,0.6158745019438858,0.1,0.018280744552612305,0.28486013412475586,0.047999393,0.15413162,-7.2210390729902345,-0.10273876173963996,-0.035444892937774974,0.0625,0.06146702855529823,1326,0.25721120834350586,0.05653259429001279,0.04397506774706896,-8.347662241765114,0.0
127,1.9856641292572021,-7.108559505802593,1.8692890943143192,-3.3362934310935586,-12.700843234347616,0.03645833333333333,0.6222448971012086,0.1,0.016399145126342773,0.1302037239074707,0.04941415,0.15904753,-7.209791116271471,-0.10021454055761918,-0.03516209976803932,0.03645833333333333,0.06138673829082319,1346,0.2712593078613281,0.057677050747606526,0.05132174681265611,-8.231908082540484,0.0
128,2.1621406078338623,-7.2083374337977375,1.6711218595724986,-3.224126944960291,-10.918052331874183,0.052083333333333336,0.5641485294701385,0.1,0.006200551986694336,0.12180614471435547,0.050461598,0.1833909,-7.209645748024097,-0.10361359876552965,-0.0357644376610346,0.052083333333333336,0.06164312694024027,1336,0.20244717597961426,0.04232597356195807,0.038400894375164814,-8.252075922929958,0.0
129,2.3363170623779297,-7.182343139033187,1.8254386859738758,-3.5143007334710545,-11.323102204711386,0.0625,0.5640707963078717,0.1,0.024646997451782227,0.21384000778198242,0.050602008,0.17003733,-7.206915487125006,-0.10174796354496903,-0.0355710418401945,0.0625,0.0618310242315974,1347,0.33296632766723633,0.045215029552833935,0.04161575316556382,-8.30241752968508,0.0
130,2.3031303882598877,-7.08943551801008,2.0216987451119723,-3.351904087198995,-14.23554762372628,0.05729166666666668,0.5736098365989624,0.1,0.005758523941040039,0.21881484985351562,0.049979173,0.16128185,-7.195167490213513,-0.10293361005774737,-0.03517401631170516,0.05729166666666668,0.06243687780889371,1310,0.22928452491760254,0.06399957417618816,0.06031889124833283,-8.040729916252829,0.0
131,2.153021812438965,-6.963610991226143,2.174293385324352,-3.5916910744082884,-12.500628773487756,0.057291666666666664,0.6002831053473864,0.1,0.006214618682861328,0.1366105079650879,0.04999391,0.16065289,-7.172011840314776,-0.10043926632627902,-0.03439370278064165,0.057291666666666664,0.062385324907968685,1308,0.24108076095581055,0.06420414185015302,0.062236919968312474,-8.535074625775804,0.0
132,2.1737515926361084,-7.4448418967385095,2.0121385334116373,-2.931589191610863,-13.292513068939844,0.036458333333333336,0.5783505343817757,0.1,0.022053003311157227,0.16620111465454102,0.050093427,0.1684415,-7.19929484595715,-0.10612154559137336,-0.03688829394699905,0.036458333333333336,0.06178557056758884,1337,0.26694178581237793,0.061140481491737494,0.05185687065479256,-8.141975067220116,0.0
133,2.1540541648864746,-7.113372864945677,2.0888149895261434,-3.2327453716725367,-14.863395899550873,0.0625,0.6204796557373693,0.1,0.024444580078125,0.2701687812805176,0.047876902,0.14023921,-7.1907026478560025,-0.10033390045738717,-0.03526482207630654,0.0625,0.06197557208416444,1351,0.23141837120056152,0.07212040704251306,0.06788452561721009,-8.157589873286978,0.0
134,2.328834295272827,-7.289532927751869,1.7649346645777702,-3.4304281085171775,-11.987352968807665,0.06770833333333334,0.581532130234508,0.1,0.031003713607788086,0.3190271854400635,0.04893576,0.16059454,-7.2005856758455895,-0.10406513726570828,-0.03614467498756019,0.06770833333333334,0.062044517611399765,1337,0.17764759063720703,0.04254692275590285,0.0395192715638366,-7.970698962238579,0.0
135,1.6975018978118896,-7.160650747254336,1.881055066541482,-3.47170457520369,-13.202011125756979,0.06770833333333334,0.5912056903081807,0.1,0.005837917327880859,0.09831094741821289,0.048614237,0.17881426,-7.196592182986464,-0.10362521307729798,-0.035484973054709726,0.06770833333333334,0.06233993221206368,1318,0.20177650451660156,0.055790807567402415,0.05182015545113665,-8.376392013633545,0.0
136,1.680450677871704,-7.067523445782352,1.726832261457794,-3.5278897706601033,-10.885658669649228,0.046875,0.6112784008241265,0.1,0.024174213409423828,0.2117786407470703,0.04782887,0.17775562,-7.183685309266053,-0.10094638603907073,-0.0349681783960516,0.046875,0.062392013826249704,1341,0.2494969367980957,0.04371608629575262,0.04122980350953079,-7.914142061141341,0.03125
137,2.340651273727417,-7.236389664545281,1.6953958294580886,-3.165224696376268,-11.209212897174513,0.057291666666666664,0.5845556438380567,0.1,0.01679682731628418,0.18459773063659668,0.0497806,0.15829876,-7.188955744793977,-0.10292945684000139,-0.03584893199755324,0.057291666666666664,0.062078430064696044,1341,0.23023700714111328,0.036948872425000584,0.03546084177833177,-8.26385955299255,0.0
138,2.1171185970306396,-7.002213887920722,1.98822390340477,-3.4480858459093406,-13.136408490475908,0.08333333333333334,0.5793245035120954,0.1,0.016083955764770508,0.12134981155395508,0.048591904,0.15984976,-7.170281559106652,-0.10103718487585538,-0.03460529964203508,0.08333333333333334,0.06237628161510542,1316,0.24135494232177734,0.06960119952812745,0.06402298148119966,-7.903740548274237,0.0
139,2.2593023777008057,-7.248083328296719,2.1560191009506315,-3.3217974582082475,-18.446174058645727,0.036458333333333336,0.5865259961134087,0.1,0.023192405700683594,0.14994144439697266,0.050105542,0.14246474,-7.178061736025659,-0.10551230730374184,-0.035937449454664226,0.036458333333333336,0.06213584964469365,1301,0.22983312606811523,0.07495212759589051,0.0698200703021648,-8.02081840838479,0.0
140,2.3398683071136475,-7.095196685723457,1.8033549941265208,-3.524847929995052,-10.978547384435172,0.07291666666666667,0.5580928448988082,0.1,0.005616903305053711,0.1332869529724121,0.050247185,0.18031144,-7.169775230995439,-0.09966677507300602,-0.035168093027393786,0.07291666666666667,0.06249821228585651,1357,0.2490837574005127,0.0477502288496366,0.04488966388294265,-8.393372020114235,0.0
141,2.318587064743042,-7.092933202669528,2.047105444399158,-3.8789990678197923,-15.152862658677105,0.04166666666666667,0.5625418153633476,0.1,0.006661415100097656,0.15580248832702637,0.050431635,0.15853137,-7.162091028162848,-0.10091785949030276,-0.035194659976314206,0.04166666666666667,0.06293007444716421,1347,0.2790088653564453,0.059070043822395064,0.06468765889798687,-8.523962274915114,0.0
142,2.181727170944214,-7.156085476368567,1.6519377292159432,-3.3143719997697145,-11.767811682173262,0.052083333333333336,0.5419464587468688,0.1,0.0071108341217041016,0.15458965301513672,0.05001813,0.15805234,-7.16149047298342,-0.10357236870691792,-0.0354555976549653,0.052083333333333336,0.06237551226249449,1317,0.28379154205322266,0.04858122003322485,0.03359017407777008,-8.33684457850751,0.0
143,2.052888870239258,-7.05097686803218,2.0521938879321433,-3.434932748063856,-13.685758394797386,0.06770833333333334,0.5571141400781354,0.1,0.007212638854980469,0.20325207710266113,0.05042432,0.16535924,-7.1504391124882964,-0.09854470726028468,-0.03494947064334211,0.06770833333333334,0.06234858892964632,1358,0.24974679946899414,0.06564256038737973,0.0612093815285487,-8.993271275830853,0.0
144,2.174792766571045,-6.580755336837147,1.6821104485942586,-3.2119677905104975,-10.369791510896475,0.07291666666666667,0.589303596928916,0.1,0.016628026962280273,0.14139342308044434,0.048900735,0.18673436,-7.093470734923182,-0.09387088456261193,-0.03253879310074568,0.07291666666666667,0.06222046151477378,1334,0.23369407653808594,0.03838255285389064,0.03710741092571279,-8.826379910929973,0.0
145,2.1854312419891357,-7.275231905793787,1.9103102759692236,-3.0581432171209633,-14.798146841059403,0.07291666666666667,0.5922190634778772,0.1,0.023172855377197266,0.13665509223937988,0.045988493,0.14521353,-7.111646852010242,-0.10390843263730838,-0.036074583459131754,0.07291666666666667,0.0623930033232323,1337,0.24857521057128906,0.058605616157878244,0.056271492264623364,-8.983093964120368,0.0
146,1.9614744186401367,-6.948039679361872,1.8102747150088414,-3.1603811700020072,-11.606316419717158,0.052083333333333336,0.5762973615965962,0.1,0.016920089721679688,0.1596050262451172,0.048056126,0.16080464,-7.095286134745406,-0.09954156090852206,-0.03442034153464155,0.052083333333333336,0.06267112619968342,1329,0.25551271438598633,0.05063006659563953,0.046753265784573964,-7.81944550704735,0.0
147,2.1427769660949707,-6.939387837321587,1.8897994623341783,-3.0693312402520263,-11.575141891453642,0.07291666666666667,0.5855188451127151,0.1,0.016196727752685547,0.12677860260009766,0.04890518,0.15826502,-7.079696305003024,-0.09975120378045187,-0.0344092154021974,0.07291666666666667,0.06299212802434877,1325,0.22944045066833496,0.04986455367425707,0.045166325201276385,-7.947476186003003,0.0
148,2.0038654804229736,-6.966536231966664,1.8498553038438317,-3.614889873803701,-10.95321057511234,0.07291666666666667,0.5842982919699871,0.1,0.02050328254699707,0.16498064994812012,0.04981596,0.1639875,-7.068380297699388,-0.10042229881942243,-0.03451617717927429,0.07291666666666667,0.06322202418156785,1323,0.27982521057128906,0.04471251532162198,0.04054440855442932,-7.855772647498679,0.0
149,2.1247406005859375,-7.04222011678669,1.667805836915053,-3.211024578707718,-10.554775312681587,0.04166666666666667,0.6099829716171692,0.1,0.017457962036132812,0.20931196212768555,0.050289698,0.16643438,-7.065764279608119,-0.10165204568205644,-0.03493452462675352,0.04166666666666667,0.06328543945709746,1322,0.2303166389465332,0.041976488319150504,0.040469378259145455,-8.606858827125388,0.03125
150,1.950179100036621,-6.813699122380716,1.81759876897738,-3.220013105291352,-12.495970867030884,0.078125,0.5975969709164878,0.1,0.017429590225219727,0.21335840225219727,0.04901111,0.14830798,-7.040557763885379,-0.0958576350825825,-0.03376253996538434,0.078125,0.06307582359016803,1356,0.23514175415039062,0.05498831717601712,0.05366697015542205,-8.354006909224548,0.03125
151,1.9829745292663574,-7.082420933893078,1.8083708743464806,-3.8359330221239,-13.371052652373992,0.036458333333333336,0.5450296876694873,0.1,0.005867481231689453,0.1274406909942627,0.04857193,0.173837,-7.044744080886149,-0.10121102783430964,-0.03514455199130522,0.036458333333333336,0.06322577727147276,1331,0.22728776931762695,0.052225601187428354,0.04876541759617245,-8.697631776144533,0.03125
152,2.197511911392212,-7.1090825326329075,2.1934097422356857,-3.4205765491709297,-14.708126467016708,0.07291666666666667,0.5533282765508601,0.1,0.016315698623657227,0.2077791690826416,0.049437594,0.1669855,-7.051177926060825,-0.0985734155693251,-0.03521555602753935,0.07291666666666667,0.06326548957885508,1367,0.2681901454925537,0.06883327817445861,0.05939105163191187,-8.767272527247808,0.03125
153,1.9468066692352295,-7.201424080331184,1.911103231238906,-3.4332915573332565,-12.190037074449922,0.057291666666666664,0.560938993643423,0.1,0.007894277572631836,0.3247509002685547,0.05064893,0.16813642,-7.066202541487861,-0.10280641160200432,-0.03571988940957148,0.057291666666666664,0.06314245633977518,1335,0.285595178604126,0.05543276238503122,0.05349416118702356,-9.536583188003682,0.03125
154,2.1982004642486572,-7.2585597502644985,2.0121521850797714,-3.624807491891857,-14.368889491766314,0.06770833333333334,0.6242245766288467,0.1,0.005888462066650391,0.13402819633483887,0.049671583,0.15281552,-7.085438262365526,-0.10068539119240022,-0.03594619166111249,0.06770833333333334,0.06270649023868288,1373,0.24173212051391602,0.06282238982470406,0.05673033111762729,-9.241542026552501,0.03125
155,1.9490458965301514,-7.027170180154612,1.8701599303746763,-3.3114248036711746,-10.696954766693565,0.06770833333333334,0.576424577458366,0.1,0.0058515071868896484,0.1292736530303955,0.050078418,0.17528272,-7.079611454144434,-0.09932370003692435,-0.034795043822998174,0.06770833333333334,0.06278504666684182,1350,0.20783424377441406,0.04574283926401708,0.042496020277951144,-9.566608659019664,0.03125
156,1.9711968898773193,-6.960532610543698,2.0067306990231244,-3.471365706088376,-12.264959773295066,0.07291666666666667,0.5694848859060075,0.1,0.00705265998840332,0.16139435768127441,0.049972836,0.17928746,-7.067703569784361,-0.09886659408039904,-0.03456752101238846,0.07291666666666667,0.06284934189821897,1345,0.2453603744506836,0.06570683964188648,0.06089876292369735,-9.691162233277483,0.03125
157,1.953007459640503,-6.931705716603953,1.8753674077960032,-3.287617091980037,-12.736084918954697,0.08333333333333334,0.6192492077800671,0.1,0.00652003288269043,0.1464855670928955,0.049382336,0.15530488,-7.054103784466321,-0.09809727930911753,-0.03439178749383753,0.08333333333333334,0.06253069897149446,1347,0.24437808990478516,0.050156438122479115,0.053423977160343035,-9.883379203319157,0.03125
158,2.179910182952881,-7.089738268830768,1.6553475942454094,-3.634510762500101,-12.324979408612817,0.046875,0.5398114217751945,0.1,0.007362842559814453,0.16630864143371582,0.048452772,0.17766759,-7.057667232902766,-0.09883772601347662,-0.03514725777643039,0.046875,0.06269975499783928,1366,0.256589412689209,0.04649485981101847,0.033075428341367265,-9.871273636487215,0.03125
159,2.2362053394317627,-7.032723844983408,2.1330024204692406,-3.1592517972607332,-14.665116619787675,0.07291666666666667,0.5585638793789524,0.1,0.016733884811401367,0.13674712181091309,0.049272902,0.17975417,-7.0551728941108305,-0.09797237439608764,-0.03491606334313602,0.07291666666666667,0.06310144290847552,1364,0.36161088943481445,0.056395546353682054,0.05400016815233366,-9.68613553289762,0.03125
160,2.226214647293091,-7.044886669076942,2.2396837749722023,-3.356466847243694,-16.643462666889228,0.08333333333333334,0.5586314084470142,0.1,0.027131080627441406,0.13065814971923828,0.049812254,0.16247143,-7.054144271607441,-0.09859464668264424,-0.034899855405578585,0.08333333333333334,0.06322561695484599,1352,0.2542147636413574,0.07461080304739992,0.06968388227416882,-9.646972615917257,0.03125
161,1.9505159854888916,-7.0088969061845185,1.9312846793503575,-3.0742909220023695,-13.847926951897115,0.0625,0.5846807839439294,0.1,0.017798662185668945,0.4164745807647705,0.049990457,0.1637846,-7.049619535065149,-0.09995567326983283,-0.03472534322318619,0.0625,0.06315462789077068,1335,0.26262426376342773,0.053385518628196106,0.049896410509373226,-9.094584302463876,0.03125
162,2.1226511001586914,-6.937593687345043,1.946057196535655,-2.989434048832644,-11.703948433999354,0.078125,0.6106760400286173,0.1,0.023221254348754883,0.20650935173034668,0.048949737,0.15741488,-7.038416950293139,-0.09910535274293865,-0.03436103554717238,0.078125,0.06364075732069607,1329,0.240525484085083,0.04628897758526025,0.04285221922300565,-9.377532324464713,0.03125
163,2.087881326675415,-6.920275717766248,2.037082648840282,-3.585981838297652,-12.55760514551635,0.0625,0.5656636851721839,0.1,0.008896827697753906,0.19542431831359863,0.05015232,0.17695788,-7.02660282704045,-0.096835127443753,-0.03429971972396903,0.0625,0.0632628634789091,1359,0.3109469413757324,0.051576203900641854,0.046287254038283286,-9.20909921251355,0.03125
164,2.1957590579986572,-6.568563946975597,2.118778194712293,-3.4916847249734957,-15.279056466050923,0.11458333333333336,0.5841198148402239,0.1,0.0061299800872802734,0.20917892456054688,0.049801555,0.15313038,-6.980798939033964,-0.09253643822728147,-0.0325719683806422,0.11458333333333336,0.06363702916083173,1349,0.24466419219970703,0.07209134577241624,0.06797761333225716,-8.812851316659396,0.03125
165,2.1490581035614014,-7.050713104172,1.8443666787800141,-3.1938574182013366,-16.10662140618307,0.0625,0.6031840004827669,0.1,0.011669158935546875,0.24445486068725586,0.04965529,0.13832197,-6.987790355547768,-0.10090007344941314,-0.034893274865727825,0.0625,0.0638115444496662,1330,0.2414562702178955,0.07199432587371543,0.061973506886095896,-9.641112613635862,0.03125
166,2.2108168601989746,-6.954870046631715,1.541323466842224,-2.8877654722530703,-10.511330040073345,0.06770833333333334,0.5853146841689297,0.1,0.0240933895111084,0.21399760246276855,0.048074923,0.1741855,-6.984498324656162,-0.0980635421216971,-0.03452079368552994,0.06770833333333334,0.06352536955290827,1361,0.3261430263519287,0.04052072479579102,0.037256257790498966,-9.076411688634883,0.03125
167,2.0404419898986816,-6.996724446350288,2.0304233792153155,-3.4731607736194814,-16.332087428942366,0.05729166666666668,0.5904155874838033,0.1,0.023545265197753906,0.18643641471862793,0.049895957,0.17345521,-6.985720936825575,-0.0991880401378532,-0.034721504557809875,0.05729166666666668,0.06389465460883263,1343,0.2706732749938965,0.0657081446555681,0.062396213048420884,-8.44106941188008,0.03125
168,1.5799882411956787,-6.729649512378153,1.6456817354594302,-3.786663369026283,-9.691326671968397,0.057291666666666664,0.5991946620778982,0.1,0.0073168277740478516,0.17366409301757812,0.05050753,0.18654595,-6.960113794380833,-0.09659488361732194,-0.03322540398679075,0.057291666666666664,0.06377483441909056,1326,0.2755699157714844,0.04448632746924723,0.03988019543104881,-8.845981728384093,0.03125
169,2.145169258117676,-6.860073228666842,1.6541806856074244,-3.4310565864635567,-11.530955239030488,0.04166666666666667,0.5988263775675864,0.1,0.007414340972900391,0.16580963134765625,0.049537063,0.14514801,-6.950109737809434,-0.09932797717451734,-0.034006144990565375,0.04166666666666667,0.06412568923406418,1318,0.281876802444458,0.03611683539397725,0.03352774710326388,-7.864655157658133,0.03125
170,2.1599555015563965,-6.727752152433347,1.7650051592834444,-3.2005026001334786,-11.135950245058224,0.0625,0.603797371151212,0.1,0.013916969299316406,0.2018442153930664,0.0477669,0.1524277,-6.927873979271826,-0.096377737614414,-0.03340007732810359,0.0625,0.06407901667953282,1336,0.24463939666748047,0.05841787939372296,0.05461251005319608,-7.906359467429814,0.03125
171,1.9381682872772217,-6.74510022223312,1.6890692024320224,-3.4101846028863108,-11.094196331614661,0.036458333333333336,0.582675603848769,0.1,0.006467103958129883,0.1376335620880127,0.050221276,0.15973176,-6.909596603567955,-0.0986596450740209,-0.0334736788940182,0.036458333333333336,0.0641809490387965,1305,0.23552250862121582,0.042107117456656205,0.03658168869914741,-7.986838568016505,0.03125
172,2.1596314907073975,-6.747072036001794,1.7941291747390515,-3.0085757519314082,-10.320018003874052,0.08333333333333334,0.5927908337930071,0.1,0.006638526916503906,0.14005327224731445,0.049729835,0.18070659,-6.893344146811339,-0.09684597168356752,-0.03348950260049118,0.08333333333333334,0.06379854832352472,1330,0.229508638381958,0.04104598419352862,0.03670139461078854,-7.995789049402857,0.03125
173,2.134415626525879,-6.855239210518927,1.6698894949507095,-3.1352880390210687,-10.16428826931332,0.0625,0.5583709591606949,0.1,0.006048679351806641,0.13799810409545898,0.049133107,0.17655705,-6.889533653182098,-0.097063292859097,-0.033973085081743404,0.0625,0.06381059146718718,1345,0.2680389881134033,0.03441862111880909,0.03206404917860499,-7.93277690670544,0.03125
174,2.149900197982788,-6.741575743893873,1.7241897819250585,-2.7977403774102374,-10.930584223468298,0.09895833333333334,0.5636717766895645,0.1,0.005719661712646484,0.22534465789794922,0.04962686,0.1962082,-6.874737862253275,-0.09808464247498233,-0.03340194899365286,0.09895833333333334,0.06441813274475555,1308,0.2695763111114502,0.04371304892802632,0.0415067910408617,-7.693091218605202,0.03125
175,2.1601874828338623,-6.958604495763606,1.81634546772775,-3.4185420260227097,-11.50248945831202,0.06770833333333334,0.6084464706574174,0.1,0.005776643753051758,0.1546621322631836,0.049142834,0.17360142,-6.883124525604308,-0.10054802083849756,-0.03447367430157535,0.06770833333333334,0.06433876380048612,1319,0.23300695419311523,0.044804548646819646,0.04283391370907269,-7.620608625696165,0.03125
176,2.275947093963623,-6.799598862748975,1.839902641021868,-3.4879421563966626,-13.0575381432468,0.026041666666666668,0.5931861533886443,0.1,0.005765676498413086,0.16972088813781738,0.049204584,0.15729363,-6.874771959318775,-0.09659889992247107,-0.033690894821660405,0.026041666666666668,0.06447277445115857,1341,0.2956249713897705,0.05281974143733995,0.050143020726406876,-7.722801059923974,0.03125
177,1.9908857345581055,-6.533875281656311,1.690997384434699,-3.2857663672445225,-11.018394304546653,0.052083333333333336,0.6261603404317158,0.1,0.007858514785766602,0.14346671104431152,0.048386034,0.1648212,-6.840682291552529,-0.09536100075952642,-0.03237925704170135,0.052083333333333336,0.06483567645601783,1306,0.28813743591308594,0.04739697884487382,0.044485061209465486,-7.703005584918143,0.03125
178,2.098879814147949,-6.611706179669739,1.8714376652626343,-3.214254717717549,-10.361844953850282,0.08333333333333334,0.5639194346101191,0.1,0.0058209896087646484,0.13471126556396484,0.0483537,0.2034388,-6.81778468036425,-0.09728567469652967,-0.032727166519806415,0.08333333333333334,0.06552319068389251,1295,0.23470187187194824,0.04488886360238244,0.04150056513148444,-7.529874052899604,0.03125
179,2.146657705307007,-7.018926430657921,1.9674758596768769,-3.4572589081598544,-12.365049625105986,0.078125,0.6192150289131362,0.1,0.005694150924682617,0.12996649742126465,0.049255982,0.15447392,-6.837898855393616,-0.1001957582383113,-0.0347479904939078,0.078125,0.06541394925733854,1337,0.230743408203125,0.06869059842574293,0.05479552447433148,-7.497591178181078,0.03125
180,2.1465039253234863,-6.946833749699077,2.2322176949467947,-3.184273677734752,-14.576782921687954,0.06770833333333334,0.6406014718333872,0.1,0.0051610469818115234,0.12734389305114746,0.0483715,0.13465796,-6.8487923448241625,-0.09812786296579683,-0.03441298959967466,0.06770833333333334,0.0653521641230445,1340,0.23813438415527344,0.08176408062966557,0.0772345488673042,-7.501943153060986,0.03125
181,2.135443687438965,-6.4267356802508,1.59833385627978,-3.413511854064957,-10.157248301743532,0.07812500000000001,0.6303953823495745,0.1,0.005925178527832031,0.13653135299682617,0.048046283,0.16114733,-6.806586678366827,-0.09373707336213895,-0.031885026834269296,0.07812500000000001,0.06546175875184655,1308,0.23424267768859863,0.039962307155778976,0.03674622997365544,-7.473924592071565,0.03125
182,2.1047961711883545,-6.7974634614590626,1.8856191079068483,-3.03383030519055,-11.379341305685248,0.08854166666666667,0.6422788324976518,0.1,0.0059223175048828125,0.13059639930725098,0.049097925,0.15597609,-6.805674356676051,-0.0983764206114112,-0.033802770009944055,0.08854166666666667,0.06564258856577139,1322,0.18767809867858887,0.05285530722659705,0.05056533167661522,-7.483836450330234,0.03125
183,1.922783613204956,-6.551041841014491,1.9269728487137636,-2.8363311076564,-12.261112851157666,0.08333333333333334,0.6238755084369542,0.1,0.01368403434753418,0.16930866241455078,0.047566466,0.15577474,-6.780211105109895,-0.09485132021042332,-0.032492491301569254,0.08333333333333334,0.06557455499203144,1317,0.3186941146850586,0.047188410114576855,0.045069513670147186,-7.4978513519118,0.03125
184,2.135446310043335,-7.058660420329929,1.8549776010858823,-3.7471120752597953,-12.801697221871427,0.04166666666666667,0.6193678516487297,0.1,0.006937742233276367,0.2318880558013916,0.050391696,0.15643163,-6.8080560366319,-0.10141221886477514,-0.03500131682516373,0.04166666666666667,0.06520766119732145,1329,0.28078746795654297,0.05274230717014954,0.04513706863000556,-7.515935862432148,0.03125
185,2.156050682067871,-6.552817516915227,1.6698028812160233,-3.4584256852552775,-11.056492336557067,0.08854166666666666,0.612743656491217,0.1,0.01684427261352539,0.1732320785522461,0.049340382,0.17651817,-6.782532184660233,-0.09562780239195257,-0.03242601800492383,0.08854166666666666,0.06577528142245523,1304,0.23266816139221191,0.03350760531973009,0.03227072376051014,-7.549558372820343,0.03125
186,2.160900831222534,-6.685554714365768,1.7301191549294113,-3.0997959917359843,-10.305905648846913,0.08333333333333334,0.6112246992482564,0.1,0.006309986114501953,0.14317798614501953,0.04983784,0.16055672,-6.772834437630786,-0.09731944703894786,-0.03313878851605914,0.08333333333333334,0.06544858691741706,1309,0.21639347076416016,0.040562005295965244,0.03864318101864374,-7.54414402718821,0.0
187,2.0625948905944824,-6.932690593067625,1.7681367564054042,-3.3012696263188253,-10.544908502253831,0.08854166666666667,0.5904575772380616,0.1,0.024733781814575195,0.23427963256835938,0.048971437,0.15214756,-6.7888200531744705,-0.10197351059757583,-0.03442040793012505,0.08854166666666667,0.06586687905220605,1301,0.29534125328063965,0.03537027050315233,0.03142133954782784,-7.6378602900762615,0.0
188,2.1274666786193848,-6.700473599233969,1.6620728122544766,-3.51571027746651,-11.247049330521708,0.0625,0.6994618738540495,0.1,0.006866455078125,0.1592116355895996,0.047352932,0.16260923,-6.779985407780421,-0.09834162383223048,-0.033269058426051414,0.0625,0.06620004297533781,1304,0.37629199028015137,0.04456545879337027,0.05139905020186975,-7.5249409167473456,0.0
189,2.0927696228027344,-6.7177546236137395,1.6681049853089138,-3.016024780555179,-10.314525552529236,0.052083333333333336,0.5813187610276589,0.1,0.03260922431945801,0.1524522304534912,0.05115979,0.1512686,-6.773762329363754,-0.10014093106316375,-0.03328798015845951,0.052083333333333336,0.06612755188955739,1277,0.2177600860595703,0.049921345037513984,0.035361961636805384,-7.524212570423043,0.0
190,2.1199567317962646,-6.814391054045579,2.104635928581408,-3.0779058208246237,-13.887878692894194,0.0625,0.5984169035220259,0.1,0.01627206802368164,0.13025975227355957,0.049708348,0.17274696,-6.777825201831937,-0.09902803618994223,-0.03378797225451265,0.0625,0.06615509639775989,1301,0.20904779434204102,0.06215518904078737,0.05829667862350955,-7.65198491811428,0.0
191,2.114171028137207,-6.900151356544659,1.885245028839271,-3.250262510264956,-11.392313252426781,0.07291666666666667,0.6513530698355127,0.1,0.016672611236572266,0.1624457836151123,0.0496655,0.17286356,-6.790057817303209,-0.09931087353395222,-0.0342431649827712,0.07291666666666667,0.06637907053197468,1325,0.22574877738952637,0.04885034929079613,0.04750860520855779,-7.645266841463645,0.0
192,1.9645068645477295,-6.670890733154718,1.6817495633626725,-3.0088785595972407,-11.086815776471145,0.052083333333333336,0.6274612063118462,0.1,0.005851030349731445,0.13758182525634766,0.049705982,0.18892731,-6.77814110888836,-0.09671761942760466,-0.03306414123496842,0.052083333333333336,0.06662708890428769,1313,0.21047663688659668,0.0432731769294364,0.04162803996380505,-7.569279412287608,0.0
193,2.114896297454834,-6.845650771026098,1.7995997725789932,-3.1627098365285535,-10.9861471607158,0.06770833333333334,0.604999485802803,0.1,0.006117820739746094,0.13213801383972168,0.048906013,0.176107,-6.784892075102134,-0.09989630130785392,-0.03400149766525263,0.06770833333333334,0.06631694559670305,1307,0.22226572036743164,0.041659713517012975,0.03734096720415951,-7.509387086327577,0.0
194,2.141965627670288,-6.810255350305074,2.17622174659782,-3.403648426653688,-13.32609503812511,0.07812500000000001,0.6054622495484249,0.1,0.028397321701049805,0.23424816131591797,0.049852386,0.148098,-6.787428402622428,-0.0999527905478384,-0.03372077851565072,0.07812500000000001,0.06654424786755234,1291,0.3069326877593994,0.0581638104290255,0.05484916108058473,-7.454730290115254,0.0
195,2.1421875953674316,-6.621117719507322,1.8314453417464776,-2.8706978073978995,-10.80510171713604,0.09375,0.6097994120578553,0.1,0.016443967819213867,0.15281152725219727,0.04974725,0.18575439,-6.770797334310918,-0.0958766286536945,-0.03279185002930973,0.09375,0.06650601573823298,1314,0.21678519248962402,0.04348278810071905,0.03997393977597801,-7.680975792042668,0.0
196,2.1154932975769043,-6.7226630427285805,1.790447275947727,-3.2592993518497657,-11.01351377391793,0.08333333333333334,0.5914704933595358,0.1,0.016645431518554688,0.7345349788665771,0.04885668,0.2196978,-6.765983905152684,-0.09583516476158045,-0.03337972603726083,0.08333333333333334,0.0661386273679291,1341,0.2381727695465088,0.05067194378151994,0.04471880744481945,-7.4381296364985925,0.0
197,2.0743117332458496,-6.628722175990732,1.9608490795435176,-3.1956744789382237,-11.423949193143367,0.057291666666666664,0.5567785793111394,0.1,0.03696703910827637,0.1873011589050293,0.050482597,0.2023109,-6.7522577322364885,-0.09535732632922096,-0.032804401493603,0.057291666666666664,0.0663573406730545,1316,0.2287757396697998,0.054481612152642626,0.053249185914510846,-7.6436457609959385,0.0
198,1.9084851741790771,-6.316391753680662,2.052829012204931,-2.961900868384501,-14.107442308196575,0.11979166666666669,0.588104883276283,0.1,0.0059299468994140625,0.13353848457336426,0.050942726,0.15351567,-6.708671134380906,-0.09158053034876253,-0.0313752768281343,0.11979166666666669,0.06671656507480266,1315,0.198073148727417,0.07356415607987885,0.06793495204709261,-7.59365489021938,0.0
199,2.1364023685455322,-6.639993111403804,1.5039826390466708,-3.3563108199507825,-10.234141400009369,0.0625,0.5604688819902597,0.1,0.005553483963012695,0.12723541259765625,0.050261885,0.28492883,-6.7018033320831965,-0.0979978168648471,-0.03296517662864326,0.0625,0.0664785655777814,1294,0.29166316986083984,0.033692274556379194,0.03739523744463065,-7.684970097614694,0.0
200,2.1218338012695312,-6.749768990458385,1.930664722886389,-3.148098118676849,-11.014117560832455,0.0625,0.6154637443747922,0.1,0.02590012550354004,0.19128894805908203,0.049209915,0.15193549,-6.706599897920715,-0.09851260640225035,-0.03339757631491136,0.0625,0.0662277713043171,1299,0.2709658145904541,0.05565058742425777,0.05486353577013428,-7.758247818628373,0.0
201,1.7874326705932617,-6.598758428969098,1.8672148937562356,-2.891003223213544,-11.420078072135334,0.08854166666666666,0.685092980943659,0.1,0.0059969425201416016,0.1269838809967041,0.051182784,0.13242698,-6.695815751025554,-0.09575669118964442,-0.03271563850645034,0.08854166666666666,0.06612874111633965,1319,0.22910809516906738,0.06167093023468719,0.06614189468755238,-7.6654927861676265,0.0
202,1.970146894454956,-6.6917011344894775,1.7262617689390984,-3.1963021456769622,-10.443231029102975,0.052083333333333336,0.6445699508799946,0.1,0.01714324951171875,0.16413450241088867,0.047886927,0.1760478,-6.695404289371947,-0.09783049478679669,-0.03320671989666483,0.052083333333333336,0.06588819252401877,1311,0.24251723289489746,0.06033202938631777,0.0444265594439867,-7.545827036682612,0.0
203,2.130460739135742,-6.679511646494582,1.8175643910611612,-2.9143817427823766,-11.953625561494299,0.06770833333333334,0.6348910896204714,0.1,0.016499042510986328,0.24029302597045898,0.05010955,0.14772722,-6.69381502508421,-0.09868904620986955,-0.03312164645945554,0.06770833333333334,0.0662277297976538,1293,0.26984381675720215,0.049015333456841656,0.04492857232591072,-7.526537098837387,0.0
204,2.102607250213623,-6.5055467379931144,1.7880656361453189,-2.9410898403714385,-10.68611942326632,0.07812500000000001,0.6036639132876745,0.1,0.016520261764526367,0.3546433448791504,0.050346624,0.16151866,-6.6749881963751,-0.09480362240465584,-0.032309879480140004,0.07812500000000001,0.06654986386777335,1311,0.2553083896636963,0.04237081112148683,0.039170846835867176,-7.580859382761306,0.0
205,1.945023775100708,-6.789870715090092,1.6977342051221533,-3.1174290963513416,-12.076060865807047,0.036458333333333336,0.5910909932227539,0.1,0.007922172546386719,0.29627227783203125,0.04878139,0.1754,-6.6864764482466,-0.09922850227990192,-0.03363821997498661,0.036458333333333336,0.06633615579172682,1302,0.26800107955932617,0.0448270022199757,0.041830546864253346,-7.563256277442845,0.03125
206,2.02519154548645,-6.6922766036132915,2.0042749744061736,-2.9009629510077284,-11.692315260183857,0.06770833333333334,0.606428287972524,0.1,0.017225265502929688,0.15692806243896484,0.04947843,0.15331043,-6.68705646378327,-0.0955877009875973,-0.0331814499838421,0.06770833333333334,0.06582926279987873,1323,0.25840115547180176,0.050871640630526536,0.047210328892039445,-7.584270243149346,0.03125
207,2.0875966548919678,-6.60557074330621,1.7098125587486164,-3.131781205378934,-10.773391012467949,0.0625,0.6439897941374905,0.1,0.009721517562866211,0.1472644805908203,0.04928106,0.17157708,-6.678907891735564,-0.0984495174798642,-0.03275842908650586,0.0625,0.06657934505717077,1278,0.2273399829864502,0.045916186462838994,0.04398270322314241,-7.639795605106124,0.03125
208,2.122288942337036,-6.856546121176467,1.9265700227033729,-2.8119466007661806,-12.768690081636695,0.07291666666666667,0.5902722334672512,0.1,0.017635583877563477,0.22686433792114258,0.04994041,0.1691063,-6.696671714679654,-0.10114598711725241,-0.03399206199370209,0.07291666666666667,0.0668921050122535,1291,0.23573684692382812,0.04979156713263205,0.05647063199731491,-7.970052069817256,0.0
209,2.0936546325683594,-6.655547531399265,1.708176632501916,-3.5672883315226196,-11.60530118174198,0.0625,0.620614537836823,0.1,0.023679256439208984,0.22446703910827637,0.050051335,0.17397057,-6.692559296351615,-0.09825659102507733,-0.03300319089586656,0.0625,0.06619866712208385,1291,0.24618935585021973,0.046704973106558294,0.04063023571862984,-7.941347998883941,0.03125
210,2.1694324016571045,-6.798998710478796,1.8445977209871216,-3.3435729457510703,-11.311942126320336,0.06770833333333334,0.6252518854798226,0.1,0.011613130569458008,0.1449897289276123,0.05012907,0.1533374,-6.703203237764334,-0.09923840194684391,-0.033712727208152715,0.06770833333333334,0.06640469000876557,1306,0.23830294609069824,0.04696438791827358,0.04094902542045741,-8.039864276795042,0.03125
211,2.128347635269165,-6.577847303228533,1.709436208926378,-2.429372779942746,-11.013813962281725,0.08333333333333334,0.6225146515331469,0.1,0.019532442092895508,0.12894701957702637,0.04898673,0.15014176,-6.690667644310754,-0.09620724799668534,-0.03260767297698453,0.08333333333333334,0.06667540978706381,1302,0.2162914276123047,0.04256362123284242,0.03874480179063151,-7.807165080284813,0.03125
212,2.3381247520446777,-6.527926921113047,1.7755667642722532,-3.262702932878632,-10.389845723630847,0.0625,0.6373391088980476,0.1,0.0060634613037109375,0.12990951538085938,0.048276413,0.18399519,-6.674393571990984,-0.09472198464317001,-0.03232193009486937,0.0625,0.0664619495084135,1310,0.22237300872802734,0.048549955855324047,0.04484740278652878,-7.717728870850323,0.03125
213,2.1126935482025146,-6.494996412183421,1.7844144974963132,-3.2138194008389243,-9.985102634464612,0.06770833333333334,0.6213916061180378,0.1,0.006458759307861328,0.1622006893157959,0.049935535,0.17061655,-6.656453856010227,-0.09689819094930485,-0.03227592597109047,0.06770833333333334,0.0666352491644746,1278,0.25620532035827637,0.037587939383084856,0.036597082067727264,-7.894701318915297,0.03125
214,1.7356345653533936,-6.640519989483387,1.816421169776209,-3.0609738280046193,-10.191424211812818,0.09375,0.6432265811299864,0.1,0.01788640022277832,0.18014740943908691,0.049021304,0.17195496,-6.654860469357543,-0.09855852826758227,-0.032933082151132206,0.09375,0.06686732962029396,1283,0.21798133850097656,0.04200548038731741,0.03830639071477181,-8.070892159507983,0.03125
215,2.081354856491089,-6.688055025502479,1.746918437451636,-3.452962654521368,-10.17910973393637,0.08333333333333334,0.6138843541941388,0.1,0.007294654846191406,0.16446971893310547,0.04897184,0.1709125,-6.658179924972037,-0.0978984216552767,-0.033080594123133016,0.08333333333333334,0.06717336100147193,1303,0.26780176162719727,0.03977519300129633,0.038676694267636785,-7.893329688085206,0.03125
216,2.3500497341156006,-6.765111432593,1.9321000077144266,-2.791248024898854,-15.285826361558733,0.03645833333333333,0.5817218261580431,0.1,0.005896091461181641,0.1288316249847412,0.04971797,0.17852546,-6.668873075734134,-0.09820519158348635,-0.03354570995630434,0.03645833333333333,0.06644660465811404,1305,0.24117517471313477,0.05657217448320115,0.049831577564240025,-7.937531003602084,0.03125
217,2.3964426517486572,-6.695864211421923,1.7090351907838883,-3.2722888224109417,-10.359754276404113,0.07291666666666667,0.5863488948685321,0.1,0.018053531646728516,0.3444199562072754,0.050480366,0.15768243,-6.671572189302913,-0.09829024412574967,-0.03324158054476988,0.07291666666666667,0.06705724916603585,1308,0.3154017925262451,0.03824231087806172,0.03252959398354324,-8.161250129574167,0.03125
218,2.1238298416137695,-6.660119797618026,1.8618811022348354,-2.8159349231662114,-10.431784152624578,0.057291666666666664,0.6403569781375404,0.1,0.025300025939941406,0.13630080223083496,0.04858957,0.1702998,-6.670426950134424,-0.09571792810515904,-0.03302099780957781,0.057291666666666664,0.06690650935678699,1324,0.24190545082092285,0.03795536115074507,0.03557255841550466,-8.488332453635689,0.03125
219,2.1352226734161377,-6.620987156940916,1.5235328237236434,-2.9141265308273523,-9.666278926918569,0.057291666666666664,0.6408315396772958,0.1,0.005885124206542969,0.12433981895446777,0.050744798,0.1572507,-6.665482970815074,-0.09593557123982661,-0.03281862799290424,0.057291666666666664,0.066659823947424,1320,0.21840262413024902,0.029964776962488178,0.027697652586687955,-8.536552002203493,0.03125
220,2.3831329345703125,-6.8953308475401185,1.9105611997093852,-3.117783443476384,-14.069333252874896,0.10937500000000001,0.62363741080727,0.1,0.006943225860595703,0.13766789436340332,0.05050785,0.18235509,-6.688467758487578,-0.09921233715584549,-0.03429150338167444,0.10937500000000001,0.06674384829591976,1334,0.21726512908935547,0.0595791291951308,0.05460061091326482,-8.302583950311586,0.03125
221,1.9884026050567627,-6.786995732964239,1.7694756642817593,-3.0210822146763086,-11.564255024438408,0.06770833333333334,0.5978122549892859,0.1,0.016933441162109375,0.24205946922302246,0.049216826,0.16008355,-6.6983205559352434,-0.09843523719902307,-0.033732506934033506,0.06770833333333334,0.0670549089251209,1317,0.27831578254699707,0.03919780991986778,0.038589248500425034,-8.10883386686816,0.03125
222,2.380837917327881,-6.474207493556748,2.1592127273417985,-2.977303181115982,-15.931445372711813,0.09895833333333334,0.5980374925320228,0.1,0.017539262771606445,0.2029271125793457,0.049185436,0.1685266,-6.675909249697394,-0.093499033411785,-0.032191141369441685,0.09895833333333334,0.06672331490322192,1311,0.30354952812194824,0.06724758034573061,0.060676549410427875,-7.641128265108623,0.03125
223,1.9515812397003174,-6.540885521955396,1.809617993691608,-2.8203834121306883,-11.156934972845102,0.07291666666666667,0.6233977805305951,0.1,0.025332212448120117,0.2918815612792969,0.049660273,0.1531018,-6.662406876923194,-0.09651431428710089,-0.032436315346895006,0.07291666666666667,0.06706538219226232,1289,0.2777597904205322,0.04803950123728574,0.04353397992793169,-7.592378567815677,0.03125
224,2.106773614883423,-6.546853213422945,1.6295703889767206,-3.1077818795313004,-11.217844347724448,0.052083333333333336,0.6096917873707007,0.1,0.006636142730712891,0.1567239761352539,0.048708133,0.16089728,-6.65085151057317,-0.09688742471118061,-0.03244279820940759,0.052083333333333336,0.06726890810099072,1288,0.281064510345459,0.03957507429880195,0.041742700291283,-7.624952652233945,0.03125
225,2.3459341526031494,-6.4446163159013325,1.6816343543681205,-3.4787738881286416,-9.949310273315636,0.08854166666666667,0.6351962518505043,0.1,0.01620340347290039,0.14386200904846191,0.04980644,0.15722132,-6.630227991105986,-0.09373398914457916,-0.03186198871667456,0.08854166666666667,0.0667836145287508,1308,0.21570801734924316,0.04747606560773579,0.03827511840479687,-7.89292148175606,0.03125
226,2.372457265853882,-6.711801610242168,1.8724789312473435,-3.3880737690442677,-11.777877205375662,0.046875,0.6204729637736867,0.1,0.007073163986206055,0.15577459335327148,0.04798594,0.13563818,-6.638385353019604,-0.09745325692137503,-0.03333661616794203,0.046875,0.06724033086585689,1309,0.2520463466644287,0.050755709081614225,0.049668174164887696,-7.464474008784599,0.03125
227,2.297152519226074,-6.6399902414259735,1.6706241618647257,-3.2698367175855383,-10.636904888306038,0.03125,0.6167871409691255,0.1,0.0059506893157958984,0.1324324607849121,0.0507258,0.1487971,-6.638545841860242,-0.0970403832168938,-0.03292080417049367,0.03125,0.06749140703131996,1301,0.2363886833190918,0.052319696950481956,0.04830961293158101,-7.265972415054086,0.03125
228,2.305337905883789,-6.305434105655729,1.667318680450154,-3.0677538482728255,-10.17129849249618,0.08333333333333334,0.6363361569094397,0.1,0.0063664913177490234,0.13538765907287598,0.049288686,0.16624273,-6.605234668239791,-0.09306347572172403,-0.0312207350463993,0.08333333333333334,0.0675772813885538,1292,0.23064947128295898,0.042873527874670275,0.03681211466720257,-7.230888285748486,0.03125
229,2.390899658203125,-6.705008447823798,1.7093532839637942,-3.178089983340459,-12.751640786640671,0.057291666666666664,0.6081451462754625,0.1,0.057701826095581055,0.291046142578125,0.048740134,0.14026214,-6.615212046198192,-0.09834682879051289,-0.033200271142124975,0.057291666666666664,0.06743854327391414,1301,0.2554130554199219,0.06606464128061698,0.05718743635117002,-7.095186371036918,0.0
230,2.362502336502075,-6.610879918315021,1.8920813140076627,-3.2701410034810285,-14.31147394980476,0.0625,0.628063457937451,0.1,0.024760961532592773,0.3097357749938965,0.049074706,0.1544725,-6.614778833409875,-0.09685189374308933,-0.0328135697746273,0.0625,0.0676043028060093,1297,0.23977899551391602,0.04629047981752923,0.04583393531156929,-7.087004217447119,0.0
231,2.1246109008789062,-6.534955258096765,1.602592703273934,-3.2051170962145705,-9.979260557841062,0.08333333333333334,0.6577188846809009,0.1,0.006373882293701172,0.13862991333007812,0.04992975,0.13656075,-6.606796475878564,-0.0978420794438666,-0.03237638134503998,0.08333333333333334,0.06786967455020314,1276,0.20928430557250977,0.03828938336284186,0.030748390832651417,-7.223167478491801,0.03125
232,2.32513165473938,-6.511807974214917,1.6796846452552598,-3.2564415914494185,-10.522263502300962,0.0625,0.63527921568054,0.1,0.017240524291992188,0.26352787017822266,0.05013097,0.15134183,-6.5972976257122,-0.09674364946705594,-0.032307811562505624,0.0625,0.06705744736915577,1290,0.23975205421447754,0.04135820494384165,0.04246744164939483,-7.024808292450912,0.03125
233,2.328509569168091,-6.67730072206099,1.670611943104012,-3.072805906915122,-10.13282088609556,0.052083333333333336,0.5929569997599701,0.1,0.005602121353149414,0.12648367881774902,0.048993032,0.19636656,-6.605297935347078,-0.09707709764358079,-0.03320821630678513,0.052083333333333336,0.06722233860695616,1314,0.2809867858886719,0.042627313606151976,0.03989596506975789,-7.136494868468695,0.03125
234,2.3477745056152344,-6.724008737415233,1.7103060813928932,-3.387836364297867,-10.574763795009737,0.08333333333333334,0.6225724991432846,0.1,0.031749725341796875,0.21480011940002441,0.049834833,0.13933644,-6.617169015553894,-0.097642313328222,-0.033373094089417736,0.08333333333333334,0.0675245720281579,1316,0.19862699508666992,0.04659406771253437,0.03583076056981841,-7.0456658523684705,0.0
235,2.33931040763855,-6.896070854558779,1.7618653301748897,-3.1835773133854883,-11.324483069372091,0.057291666666666664,0.6036989251160746,0.1,0.016313791275024414,0.23329734802246094,0.04896765,0.20701535,-6.645059199454382,-0.1017368366914388,-0.0341985424755609,0.057291666666666664,0.06742588369191822,1292,0.21573495864868164,0.03343252876352499,0.033108820673541504,-7.108201400779414,0.0
236,2.321545124053955,-6.334050824117788,1.6707464922438617,-3.079468539219978,-10.106639386680788,0.0625,0.6558329578942335,0.1,0.01587986946105957,0.16289949417114258,0.049932417,0.16159803,-6.613958361920722,-0.09371522003539405,-0.03142706707674105,0.0625,0.06748751507074212,1290,0.24698853492736816,0.03809127635022394,0.03550916395580738,-6.926914350791728,0.0
237,2.258260726928711,-6.545426445731657,2.1615785354109986,-3.0399624016351865,-18.0240015600666,0.07291666666666667,0.6221825108917854,0.1,0.01960015296936035,0.13500189781188965,0.049811885,0.13483454,-6.607105170301816,-0.09491323658322816,-0.03237709278896836,0.07291666666666667,0.06801358737151131,1302,0.2462916374206543,0.07554047765345487,0.07162275289091458,-7.062609500284912,0.0
238,1.9517903327941895,-6.756025465568061,1.63869686183711,-3.6468076318470413,-10.603341440801339,0.05729166666666666,0.6151724841863379,0.1,0.01270437240600586,0.2844054698944092,0.05008195,0.16966058,-6.62199719982844,-0.09664464678406622,-0.03356166305991507,0.05729166666666666,0.06771561584679807,1347,0.3203768730163574,0.03683604886931293,0.035090720518055264,-6.997530277354181,0.0
239,2.1624820232391357,-6.418536876173704,1.7251006494023164,-3.244278058271563,-10.911591457879693,0.07812500000000001,0.6339630855301919,0.1,0.01698613166809082,0.15560698509216309,0.050616905,0.14988841,-6.6016511674629665,-0.09424899419012893,-0.03183180942486333,0.07812500000000001,0.06801058601107192,1299,0.19945216178894043,0.04910896277099286,0.0425198412929025,-6.941582532880779,0.0
240,2.1456096172332764,-6.408365800936813,1.8623177150663452,-2.882648597955966,-11.105735938609635,0.09375,0.5986833977172125,0.1,0.007047414779663086,0.17213892936706543,0.050400946,0.15095656,-6.582322630810351,-0.0930122936811737,-0.031751418401560254,0.09375,0.06767263713600363,1308,0.31596875190734863,0.04845057854650296,0.04864046661927213,-6.952114899627178,0.0
241,2.0031332969665527,-6.3807597687182565,1.8296304336909353,-2.750927139808577,-10.264684023462621,0.11979166666666669,0.6565828028846429,0.1,0.005955219268798828,0.13321447372436523,0.049784563,0.15025926,-6.562166344601142,-0.09185547806297684,-0.031627493720972594,0.11979166666666669,0.06768190683184033,1324,0.24201011657714844,0.049371762746011266,0.04246101893877993,-7.066160454526832,0.0
242,2.1371943950653076,-6.910259778642974,1.67280987927802,-3.470247771613222,-12.11375917523074,0.04166666666666667,0.6402670029318683,0.1,0.01694464683532715,0.21448302268981934,0.049358163,0.13835713,-6.596975688005325,-0.09846764462252283,-0.03427388967190471,0.04166666666666667,0.06768770840471099,1340,0.21366333961486816,0.041500249005991974,0.03928822900908715,-6.990316864472812,0.0
243,1.961653232574463,-6.826387371317137,1.7200331285382338,-3.3694475651229636,-10.391383303336596,0.046875,0.6081485648549402,0.1,0.006956815719604492,0.15552568435668945,0.049470477,0.17741215,-6.6199168563365065,-0.0998062357121866,-0.03382712454956487,0.046875,0.06801289892711702,1302,0.2741248607635498,0.041293367164390575,0.039673495391865085,-7.077649379110707,0.0
244,2.161705732345581,-6.802835388595779,1.8064772028973877,-3.1556837365379944,-11.771852279206126,0.0625,0.6258506409817871,0.1,0.021875858306884766,0.22518491744995117,0.04871895,0.15289202,-6.638208709562433,-0.09853357676203178,-0.033797352766030804,0.0625,0.06858391780800788,1315,0.2752864360809326,0.03867748395015317,0.04925021154488476,-7.0415657512181795,0.0
245,1.9175245761871338,-6.524153053011919,1.7872922666542022,-2.977206884589423,-10.41305193526686,0.08854166666666667,0.6031335481806924,0.1,0.006054401397705078,0.13296818733215332,0.049219605,0.17469658,-6.626803143907382,-0.09605901177441818,-0.032394009192962724,0.08854166666666667,0.06865501495525057,1299,0.21048760414123535,0.05113389549132269,0.04069724774184333,-6.989384169030725,0.0
246,2.12406849861145,-6.507948846482719,1.7294265669381854,-2.9705299063514703,-9.976856921704169,0.07291666666666667,0.6551709606570317,0.1,0.05083870887756348,0.2166903018951416,0.04931551,0.14805803,-6.614917714164916,-0.0953965603187542,-0.032363717282021066,0.07291666666666667,0.06794680809973912,1306,0.25833916664123535,0.041697753593786316,0.03854200944440289,-6.997036252623611,0.0
247,1.534367322921753,-6.433253583009126,1.731751672832009,-3.1501371620643597,-10.60133262116341,0.07291666666666667,0.6451193700009229,0.1,0.006036281585693359,0.12861967086791992,0.050475158,0.15198158,-6.596751301049337,-0.09400385183404013,-0.03184736875690034,0.07291666666666667,0.06816692831795478,1299,0.3373432159423828,0.049382253206490416,0.04918284197373913,-7.167421648231575,0.0
248,1.9931068420410156,-6.483740485145483,1.796454549299871,-3.3214126105764996,-11.426368460589051,0.07812500000000001,0.564992444038981,0.1,0.006430149078369141,0.270904541015625,0.050211713,0.17638555,-6.585450219458951,-0.09416017000195336,-0.032151794762094475,0.07812500000000001,0.06862972832031251,1319,0.24026226997375488,0.04834891711066559,0.04794803484253836,-7.129597331056518,0.0
249,2.154592514038086,-6.9199051188663345,1.6521471264110028,-3.496215805482782,-10.561902074729227,0.05729166666666668,0.6402449647901685,0.1,0.022306203842163086,0.1646716594696045,0.048736222,0.14961703,-6.618895709399689,-0.10059673780142793,-0.034375623558808965,0.05729166666666668,0.06824809378709429,1314,0.23079252243041992,0.0387382495319151,0.03548251771495109,-7.2533877203256925,0.0
250,2.134945869445801,-6.5075943620675885,1.887876900036276,-2.9217517410027956,-11.257885180137748,0.09895833333333334,0.6087630345297508,0.1,0.006442070007324219,0.12555503845214844,0.049292155,0.16754372,-6.607765574666479,-0.09617643822682624,-0.03226094947911356,0.09895833333333334,0.06820142788341557,1288,0.24379491806030273,0.0446711630460306,0.04113091984313258,-7.28973430497734,0.0
251,2.1257965564727783,-6.291840543731098,1.7349234603123043,-2.7281437739215217,-11.54183481878958,0.07291666666666667,0.5726235627321153,0.1,0.00567936897277832,0.12427067756652832,0.049948778,0.18433516,-6.576173071572941,-0.0925234653000107,-0.031212102262046126,0.07291666666666667,0.06836738180477325,1300,0.20568299293518066,0.036407205071881436,0.03812198611183631,-7.154276413718128,0.0
252,1.938854455947876,-6.574986486122071,1.6859725607296934,-3.2973041660121463,-11.183537349743322,0.036458333333333336,0.5987126250883785,0.1,0.018642425537109375,0.15819811820983887,0.049746312,0.16831928,-6.576054413027854,-0.09665870629470592,-0.032634903207553995,0.036458333333333336,0.0686270581902596,1299,0.3495521545410156,0.048532450966468625,0.03948358893943187,-7.2493074021988235,0.0
253,2.1575095653533936,-6.556603873085507,1.838054471310362,-3.3795474475308414,-11.237611030170626,0.08854166666666666,0.612279604756898,0.1,0.007227897644042969,0.166517972946167,0.049476076,0.17453526,-6.574109359033619,-0.09485205888332926,-0.03257020447319899,0.08854166666666666,0.06783148454363215,1320,0.23171257972717285,0.042892026714546,0.041438848930563356,-7.174559695491075,0.0
254,2.1347947120666504,-6.581120535125533,1.8053902709015308,-3.663533448689963,-12.379299957731963,0.046875,0.6367964030355154,0.1,0.009983062744140625,0.1468656063079834,0.049224466,0.13822399,-6.574810476642811,-0.09585730632428503,-0.03266536422105276,0.046875,0.06832720404580118,1304,0.21503543853759766,0.04393368110108506,0.041110408665172536,-7.223054744286342,0.0
255,2.09810471534729,-6.319898915788752,1.5939340455535942,-3.3726078360766927,-10.191513006765032,0.08333333333333334,0.5808268140874212,0.1,0.01619863510131836,0.12548279762268066,0.049917273,0.18076216,-6.549319320557405,-0.09317552447911166,-0.03138351865807735,0.08333333333333334,0.0683654020906556,1299,0.2131338119506836,0.04175757259243749,0.042295712618360175,-7.2198809086711595,0.0
256,2.1307640075683594,-6.469929376342097,1.826539112664995,-3.0561637617502053,-10.092337724376215,0.0625,0.5821373421577127,0.1,0.0380551815032959,0.16079926490783691,0.049270075,0.16649894,-6.541380326135874,-0.09640430051824848,-0.0320917564460229,0.0625,0.06844537163932256,1287,0.2545781135559082,0.04710958718447901,0.039676042374570994,-7.358028289996662,0.0
257,2.10864520072937,-6.682464188654478,1.7054266978098462,-3.6249898991631744,-10.752674133568748,0.0625,0.6044924525907673,0.1,0.006886959075927734,0.14825105667114258,0.048185933,0.15361266,-6.555488712387735,-0.09776437349451168,-0.033210037276036,0.0625,0.06875941765607674,1306,0.23739099502563477,0.042339816859982574,0.040271186558145204,-7.18580100640208,0.0
258,2.0894720554351807,-6.827103769433832,1.619457053721839,-3.307211700379712,-10.63244749794218,0.046875,0.5976824712356379,0.1,0.016821622848510742,0.15296530723571777,0.050664593,0.18806577,-6.582650218092345,-0.10072685677093218,-0.033918950239288065,0.046875,0.06897606832399134,1297,0.21058177947998047,0.03573662964449915,0.03265322014505015,-7.0307755543042765,0.0
259,1.9404168128967285,-6.649336606088863,1.6382920601702924,-2.961197975652862,-10.68133522710506,0.046875,0.5778678899687193,0.1,0.01771402359008789,0.359727144241333,0.048876785,0.20409113,-6.589318856891997,-0.09931812452853332,-0.033025077622004496,0.046875,0.06874906310192384,1279,0.21302556991577148,0.04331790602122607,0.03956308666511053,-7.185525437519774,0.0
260,1.837799072265625,-6.703824302396982,1.7957843119708228,-3.0963166392958072,-10.822002711763263,0.05729166666666668,0.5884166865078768,0.1,0.005562782287597656,0.12860345840454102,0.049592853,0.16722582,-6.600769401442496,-0.09970332098876052,-0.0332598924386233,0.05729166666666668,0.06877693917898835,1281,0.21349000930786133,0.045906573646707326,0.04347179000751704,-7.18639696262354,0.0
261,1.948324203491211,-6.7813918965245,1.8278966820197602,-3.4291012288652665,-13.30581544042377,0.046875,0.6351021738444674,0.1,0.04306960105895996,0.12723422050476074,0.05006919,0.14861715,-6.618831650950696,-0.09946992539374427,-0.033616292619275234,0.046875,0.06896512090984064,1296,0.2082071304321289,0.04812347938862007,0.0484584243100653,-7.146012059038863,0.0
262,1.9539861679077148,-6.456091195794477,1.8089289586755064,-2.6889999558066506,-11.038483982569907,0.08854166666666667,0.613595191784942,0.1,0.017110586166381836,0.3251986503601074,0.047833886,0.15510067,-6.6025576054350745,-0.09455463796892784,-0.0320800161172372,0.08854166666666667,0.06886706318530665,1305,0.2956535816192627,0.050249933556661436,0.046646594408514916,-7.123052004165405,0.0
263,2.16399884223938,-6.794663041436998,1.7319540092793018,-3.1277357842495404,-14.012286343132121,0.052083333333333336,0.6259239300881441,0.1,0.016054153442382812,0.12902045249938965,0.04959949,0.1464437,-6.621768149035267,-0.09933370647573798,-0.033721562085597956,0.052083333333333336,0.06928239708250601,1300,0.18659043312072754,0.04575695125796213,0.0478129913510159,-7.131157245278911,0.0
264,1.8988330364227295,-6.5972205502958445,1.7422326896044509,-2.8687621750167236,-10.156598840638356,0.08854166666666667,0.5879548460989987,0.1,0.006059408187866211,0.12870097160339355,0.049553335,0.16332266,-6.619313389161325,-0.09651313508333266,-0.03275813522214462,0.08854166666666667,0.0694237161493243,1311,0.18032574653625488,0.044377866096345094,0.04001530901865866,-7.042845852124686,0.0
265,2.156876802444458,-6.583013256128669,1.6464212298460805,-3.2032068972935503,-10.426522527437644,0.0625,0.6000033331195098,0.1,0.005663394927978516,0.15364694595336914,0.04958887,0.16310821,-6.61568337585806,-0.09668146909359503,-0.03264414749247723,0.0625,0.06934003774543673,1297,0.20046734809875488,0.03629589997490025,0.032350810577316376,-6.908930248576187,0.0
266,2.001471519470215,-6.659285152514357,1.7543577172658016,-3.128690930892417,-13.809391033532307,0.08333333333333334,0.6219250164878012,0.1,0.005441427230834961,0.25258898735046387,0.04859623,0.14528719,-6.62004355352369,-0.09719355484615742,-0.03302281481775916,0.08333333333333334,0.06958506936951825,1301,0.2085096836090088,0.055566683706734746,0.05197609381076935,-6.967693093086677,0.0
267,2.1423637866973877,-6.533522994362208,1.7252082132478588,-2.8716966081711304,-9.8269164408195,0.07291666666666667,0.5959039033261321,0.1,0.005873680114746094,0.13912677764892578,0.05124402,0.18098873,-6.611391497607542,-0.09639321065682249,-0.03246175339501215,0.07291666666666667,0.06911079804276309,1294,0.23975038528442383,0.041956800334775286,0.040790531212939615,-7.1428004111352275,0.0
268,2.106358528137207,-6.544752975378046,1.7859630231698513,-3.125921633606269,-12.15753580108758,0.08333333333333334,0.5489142241067885,0.1,0.0074710845947265625,0.1892251968383789,0.049361784,0.18336248,-6.6047276453845924,-0.09679205593272482,-0.03244437168683176,0.08333333333333334,0.06970029669285384,1292,0.2471170425415039,0.04247492751622566,0.04125706851181945,-7.03832977286542,0.0
269,1.9675657749176025,-6.530023407545937,1.6892998293560277,-3.1075270153226784,-11.058510157504887,0.0625,0.5781246661625282,0.1,0.006719112396240234,0.22389006614685059,0.048998065,0.16399841,-6.597257221600728,-0.0961649228483565,-0.032393466957739876,0.0625,0.06902011522598707,1295,0.24049830436706543,0.04442508580023055,0.03872348728404823,-7.2561756139737845,0.0
270,2.0235180854797363,-6.726172264383997,1.7456916775528026,-3.2036862847751983,-10.868621461741654,0.08333333333333334,0.6201544561841099,0.1,0.016565561294555664,0.12482452392578125,0.049151916,0.16910261,-6.610148725879055,-0.09943742322267939,-0.033396428832337045,0.08333333333333334,0.0697961646633115,1292,0.19787979125976562,0.04254439402263544,0.04089722965311623,-7.185897777203074,0.0
271,2.115359306335449,-6.534565129350977,1.7603136325549935,-3.4353368991249154,-10.651914962770062,0.08333333333333334,0.6003721501906585,0.1,0.006650209426879883,0.14942216873168945,0.049538992,0.19008355,-6.602590366226247,-0.09609360907398379,-0.03238526699849355,0.08333333333333334,0.06943126894246035,1292,0.2070605754852295,0.03831876758334702,0.031536721266948425,-7.309907340345656,0.0
272,1.9228968620300293,-6.506046407466026,1.7236360184313857,-2.6406171320531,-11.355490195377545,0.078125,0.6109297632478323,0.1,0.007130146026611328,0.2957003116607666,0.049147468,0.20255263,-6.592935970350225,-0.09627940150775553,-0.03223466663519886,0.078125,0.06945660134188468,1288,0.25728845596313477,0.04860953751090019,0.046607530536516964,-7.2040377761740295,0.0
273,1.952160120010376,-6.421469554313958,1.7689381214674658,-2.968631608163168,-10.13748932850911,0.07812500000000001,0.6077467741755445,0.1,0.016045331954956055,0.13973379135131836,0.049418196,0.15931188,-6.575789328746598,-0.094270924232003,-0.031781374904494654,0.07812500000000001,0.06955529286607821,1296,0.2529757022857666,0.045860849869118495,0.04262143051220276,-6.929240719396619,0.0
274,1.7314558029174805,-6.6572372462572575,1.6551357635760664,-3.327243030109505,-10.087131662205378,0.052083333333333336,0.6665781250522705,0.1,0.0169522762298584,0.17039775848388672,0.04810219,0.14570633,-6.5839341204976645,-0.09726788141328147,-0.033067154585947334,0.052083333333333336,0.06942622132997915,1309,0.21162199974060059,0.037591735675512,0.035416780507984504,-7.084230534116597,0.0
275,1.9316608905792236,-6.670852596587205,1.5750265472737646,-3.386138550453847,-10.32835565860385,0.078125,0.618910499689351,0.1,0.024801015853881836,0.15041637420654297,0.04887148,0.19251263,-6.592625968106619,-0.09798675516918202,-0.03308221567014449,0.078125,0.06980094622383946,1300,0.20606684684753418,0.030592812513220626,0.030292122379221062,-7.066974412999523,0.0
276,2.1362125873565674,-6.670185306889135,1.9945190970598536,-3.0462444217484546,-11.89381233035042,0.10416666666666667,0.6090787462282509,0.1,0.00593256950378418,0.13066887855529785,0.049331583,0.1522353,-6.600381901984871,-0.09654503924349124,-0.033029269292827255,0.10416666666666667,0.06995289269135783,1309,0.2207801342010498,0.0534627896541602,0.04996815406555842,-7.049408016693155,0.0
277,2.172292947769165,-6.57079805099335,1.7037623189034357,-3.2896324063428977,-11.232796632801271,0.07812500000000001,0.6282042342482713,0.1,0.02126455307006836,0.31553053855895996,0.050197322,0.16675594,-6.597423516885719,-0.09472085836161324,-0.032582628932649134,0.07812500000000001,0.06952900523177961,1334,0.24436402320861816,0.05255335450238273,0.05054141321481661,-7.121388213796104,0.0
278,2.1349244117736816,-6.482584522734055,1.8590175592038396,-3.3337104630817285,-11.275020402597004,0.06770833333333334,0.647793011300493,0.1,0.016846418380737305,0.1371150016784668,0.049650125,0.15780646,-6.585939617470553,-0.0937453724047728,-0.03219497581186254,0.06770833333333334,0.06981939749362591,1318,0.20825648307800293,0.05485226374264071,0.04249133301930357,-6.924393017266706,0.0
279,1.5687854290008545,-6.49730455615713,1.5054865601800724,-2.8749797510813573,-9.691850697348661,0.036458333333333336,0.6377415037003922,0.1,0.006410121917724609,0.1374359130859375,0.05091088,0.1562629,-6.577076111339211,-0.09422526415295052,-0.03217994111677585,0.036458333333333336,0.06983216031872426,1319,0.20904326438903809,0.041445555425370637,0.03739405285240858,-6.932982749799779,0.0
280,1.6366267204284668,-6.764468257843966,1.6098363309030956,-2.8171125397496395,-9.43579865360858,0.07291666666666667,0.6054849723830713,0.1,0.006330251693725586,0.13792133331298828,0.04907845,0.19958453,-6.595815325989687,-0.09583734476562246,-0.03358680948693144,0.07291666666666667,0.06899303056347436,1355,0.2296772003173828,0.03391352608226357,0.030545832722224046,-6.900061948547798,0.0
281,2.101619005203247,-6.392319954766023,2.0497246378303173,-2.793224620946857,-10.490200960814972,0.08333333333333334,0.5861357928168205,0.1,0.007153511047363281,0.1634676456451416,0.05045071,0.16302328,-6.57546578886732,-0.09334555667542876,-0.031739155590795834,0.08333333333333334,0.07006103074962527,1300,0.24152159690856934,0.059343528112006494,0.05277043676851754,-6.890028992374909,0.0
282,2.117698907852173,-6.4658824203258805,1.6691787763005428,-2.641767632536335,-10.246514693473715,0.07291666666666667,0.6255308232997094,0.1,0.027877092361450195,0.2304518222808838,0.050011285,0.15758243,-6.564507452013176,-0.0942273706811632,-0.032145121088740736,0.07291666666666667,0.07009455105332583,1311,0.3537273406982422,0.03236895668070718,0.03202182442807603,-6.917349643273443,0.0
283,2.0929155349731445,-6.296949890247281,1.6237337539428858,-2.613173992129288,-10.72542418350549,0.057291666666666664,0.6490554640574681,0.1,0.007071256637573242,0.15720415115356445,0.049684234,0.17561418,-6.537751695836587,-0.09278185785119679,-0.031248799631816333,0.057291666666666664,0.07013585173043925,1298,0.2410287857055664,0.04308839683938996,0.039367099838544084,-6.956003773136517,0.0
284,2.1223859786987305,-6.563044993941571,1.6376583498255382,-3.0427141732079117,-10.151370909800729,0.0625,0.6250864050684187,0.1,0.018688678741455078,0.1686396598815918,0.049374975,0.14538501,-6.540281025647085,-0.09451409720705224,-0.032557192062509996,0.0625,0.07017230153527297,1324,0.21950674057006836,0.03368468952912397,0.030284538099919312,-7.094528244733313,0.0
285,2.2343320846557617,-6.876247928080109,1.7919433403326028,-2.9218092593039975,-11.619418711136884,0.0625,0.6141776541956695,0.1,0.0061419010162353516,0.17418622970581055,0.050480492,0.15564758,-6.573877715890387,-0.09668883503586377,-0.03409527112247577,0.0625,0.06962070805606574,1354,0.22075176239013672,0.05521016930047203,0.0514229095021232,-7.058024620876099,0.0
286,2.1336472034454346,-6.656989310755286,1.9347896950121983,-3.0568144716315784,-11.97017862268142,0.07291666666666667,0.6008282470568097,0.1,0.005288362503051758,0.24275493621826172,0.05029819,0.1662989,-6.582188875376877,-0.09590168131530434,-0.03290277600884447,0.07291666666666667,0.07011884320231039,1313,0.22816705703735352,0.053819209531420824,0.04986674849410237,-7.040669541455188,0.0
287,1.9282021522521973,-6.629570702690387,1.6831912923846128,-3.2097746626756516,-11.252310234687242,0.05729166666666668,0.6484287090209212,0.1,0.007031917572021484,0.15844488143920898,0.05060819,0.14412229,-6.586927058108229,-0.09828035152038746,-0.032896754645700695,0.05729166666666668,0.07012464394213995,1284,0.2459726333618164,0.048870357229908824,0.047486637385721425,-7.043355658029869,0.0
288,1.8648145198822021,-6.691080689291376,1.7140154561675205,-3.576307590470078,-13.064592703926028,0.057291666666666664,0.6417939207019724,0.1,0.005242109298706055,0.12416481971740723,0.049963314,0.15068641,-6.597342421226544,-0.09557386942015923,-0.03322974906575365,0.057291666666666664,0.06962044741039385,1339,0.2133803367614746,0.05091029631748153,0.04401517346739641,-7.018011534985749,0.0
289,1.9455692768096924,-6.807415996548627,1.8579860700162067,-2.7766562137723776,-10.372353819330561,0.046875,0.643718684976837,0.1,0.006224393844604492,0.149275541305542,0.049636234,0.16698004,-6.618349778758752,-0.09735650404426299,-0.0338072724977978,0.046875,0.06958372397419038,1335,0.24135541915893555,0.04414750761406718,0.039884665740282994,-6.970098055102488,0.0
290,2.1229817867279053,-6.681464984493254,1.7100829372078308,-3.384943943719625,-12.727866790864342,0.07291666666666667,0.6155866906804854,0.1,0.01758098602294922,0.12894344329833984,0.049040653,0.19739684,-6.624661299332202,-0.0975518509735807,-0.03317108396411987,0.07291666666666667,0.07050465666133965,1308,0.34724926948547363,0.051139583184406534,0.047113500285160766,-6.918342392412621,0.0
291,2.124345302581787,-6.422955945727139,1.670335488391968,-2.9433900455293136,-12.881458304092385,0.07291666666666667,0.6044642135710926,0.1,0.007192850112915039,0.3036229610443115,0.04914975,0.14552374,-6.604490763971697,-0.09506181612789792,-0.031843401467403505,0.07291666666666667,0.07024538850314632,1291,0.21334385871887207,0.06125303443380235,0.05567873656913709,-7.127496228386143,0.0
292,2.1526684761047363,-6.602987273232305,1.845875804156367,-2.5386714573527,-10.120451649506217,0.07291666666666667,0.570359233589181,0.1,0.016857385635375977,0.193892240524292,0.048858598,0.1880257,-6.604340414897758,-0.0957016093857675,-0.03281319688339473,0.07291666666666667,0.07016052158240944,1319,0.2269914150238037,0.04332522125669332,0.03838844222397169,-7.027659775069657,0.0
293,1.9438605308532715,-6.774878585364529,1.642810995228642,-2.7439265237670982,-9.757901861917176,0.057291666666666664,0.6747319231151447,0.1,0.005616664886474609,0.1530754566192627,0.0490951,0.15339193,-6.621394231944435,-0.10021446763592329,-0.03362685702562901,0.057291666666666664,0.07025092617143391,1289,0.20973753929138184,0.03305304224720532,0.03227211450771019,-7.053644478772354,0.0
294,2.0496275424957275,-6.7173959890493435,1.6824139196180747,-3.620080908280915,-11.76434105411416,0.05729166666666668,0.6635914256421154,0.1,0.006192684173583984,0.12938690185546875,0.048698496,0.16607727,-6.630994407654925,-0.09772597708430801,-0.0333722334304794,0.05729166666666668,0.06951519052080983,1318,0.25971412658691406,0.04045705754247249,0.036890282286265265,-6.950889299141934,0.03125
295,2.167029857635498,-6.436879223297548,1.8938781899179096,-2.94417800159357,-12.455572160259937,0.08333333333333334,0.5872421651979188,0.1,0.016776561737060547,0.26825928688049316,0.050439376,0.14990626,-6.6115828892191875,-0.09297951460032217,-0.03192700226717581,0.08333333333333334,0.07012091411277972,1326,0.2396848201751709,0.07115981689489354,0.06354507083361322,-7.120489773162204,0.0
296,1.9350311756134033,-6.281251922053708,1.728266167174077,-2.8889078923904545,-12.57052328306593,0.0625,0.6476314290372756,0.1,0.02194070816040039,0.17506861686706543,0.049779408,0.14293727,-6.578549792502639,-0.09482675950010873,-0.03112019152816103,0.0625,0.0702280903375433,1264,0.24496221542358398,0.06503406758751631,0.05376739647750333,-7.103818208419276,0.0
297,1.9288661479949951,-6.242225780656322,1.7334674437787683,-2.7169705506492354,-10.424086313793554,0.08854166666666667,0.6522068916295494,0.1,0.031048059463500977,0.5239899158477783,0.04912114,0.1562748,-6.544917391318008,-0.09170330534825194,-0.030943873176501675,0.08854166666666667,0.07005055847992274,1295,0.2784888744354248,0.03569942859178266,0.03412071210920586,-7.038350257871686,0.0
298,2.127410411834717,-6.488713135744074,1.9985818637280512,-2.9446540750787813,-11.831606378450573,0.09375000000000001,0.6095321106328091,0.1,0.005888700485229492,0.14104604721069336,0.050642177,0.15746987,-6.539296965760615,-0.09385466455274327,-0.032095372872937206,0.09375000000000001,0.06951844723410251,1312,0.23060250282287598,0.06028976626714985,0.05487881814357946,-6.966584575147307,0.0
299,1.9713964462280273,-6.625770464068931,1.756494175554633,-3.1752500538651294,-12.358359090325443,0.057291666666666664,0.6566968826149278,0.1,0.005689382553100586,0.12849116325378418,0.04995945,0.16851288,-6.5479443155914465,-0.0959682184707941,-0.032793115943972585,0.057291666666666664,0.06982652081816522,1326,0.2113938331604004,0.04894115011413071,0.04157412137201278,-6.984238876155167,0.0
300,2.092235803604126,-6.706031748707353,1.5154082593638036,-3.2461035397428373,-10.295128629026163,0.036458333333333336,0.591930321186855,0.1,0.005859375,0.12687420845031738,0.05067195,0.15156396,-6.563753058903037,-0.09938799272921416,-0.03326314693426366,0.036458333333333336,0.06967803655045259,1291,0.2224123477935791,0.030996824921922864,0.03224428015809504,-7.118549204649923,0.03125
301,2.1313531398773193,-6.722299184893515,1.7992683532117644,-2.947606690202355,-10.623786273545255,0.08333333333333334,0.6321690765930637,0.1,0.016007661819458008,0.14455699920654297,0.050416533,0.14462754,-6.579607671502085,-0.09843096329925886,-0.0333593497346234,0.08333333333333334,0.06979232220954006,1308,0.2447032928466797,0.04869651137608849,0.045441645194584566,-7.02728182934613,0.0
302,2.1107146739959717,-6.342873480005796,1.7445583045736917,-3.167332598844856,-10.938097437589668,0.078125,0.6105547910901182,0.1,0.008300542831420898,0.17317461967468262,0.049696133,0.1558595,-6.555934252352457,-0.09287352534720893,-0.031477793635437935,0.078125,0.06946982374572616,1301,0.23919439315795898,0.042081262726248,0.04011257843978567,-6.959098019810373,0.0
303,2.1472995281219482,-6.433427754994571,1.9018921451180186,-2.691698375434304,-10.671308956675654,0.09375,0.6112830297593747,0.1,0.007292985916137695,0.2255234718322754,0.050355304,0.16488633,-6.543683602616668,-0.09407375818309212,-0.03193438346957708,0.09375,0.07013359290699239,1303,0.24262666702270508,0.04427892021940943,0.04286081557653254,-6.978762406488097,0.0
304,2.1675374507904053,-6.27216336176279,1.7308665041997777,-2.8212881942422507,-9.932195378310757,0.09895833333333334,0.5949330833498875,0.1,0.0059468746185302734,0.12842345237731934,0.04838996,0.23221038,-6.51653157853128,-0.09107387040194004,-0.031098668297464643,0.09895833333333334,0.06991451401605542,1316,0.23409581184387207,0.04127458131313799,0.037368018355313594,-6.981505679835976,0.0
305,2.052334785461426,-6.706043439720607,1.696971019362735,-3.0326342068201115,-11.213477019471217,0.08333333333333334,0.6748352346851556,0.1,0.006071805953979492,0.21009182929992676,0.04945494,0.13562837,-6.535482764650213,-0.09908919341578289,-0.033300393920409385,0.08333333333333334,0.06974146464319796,1295,0.2776029109954834,0.034681058327588186,0.03241721586824949,-6.966112721332756,0.0
