iteration,time_sampling,stoc_pol_mean,stoc_pol_std,stoc_pol_max,stoc_pol_min,rollout_success,alpha,delta,time_vpg,time_npg,kl_dist,surr_improvement,running_score,rwd_sparse,rwd_dense,success_percentage,num_samples,time_VF,VF_error_before,VF_error_after,eval_score,eval_success
0,1.799513339996338,-26.00043885869141,17.105349637960547,90.68376443890116,-42.47969896867782,1.0416666666666667,6.105371220517389,0.1,0.05772256851196289,0.3159515857696533,0.048813164,0.023314467,-26.00043885869141,-0.1450816068485097,-0.12987327351517639,1.0416666666666667,19200,1.7984700202941895,0.9969933035728985,0.3350392147678935,-28.288806654816856,0.0
1,1.472322940826416,-24.792947786081125,23.37903528199459,110.9168833502341,-44.39971660829162,2.0833333333333335,12.229644087703146,0.1,0.01094508171081543,0.2563650608062744,0.05300452,0.0069924435,-25.879689751430384,-0.1502671720446482,-0.12380883871131487,2.0833333333333335,19200,1.750199556350708,0.4161225411891543,0.3992856385340916,-27.212679097791465,0.0
2,1.489527940750122,-24.696696317319162,20.16100596447822,96.19098891147867,-40.370618537152374,1.0416666666666667,9.158829342453052,0.1,0.01096034049987793,0.2748587131500244,0.047440205,0.013382834,-25.76139040801926,-0.14481431112172247,-0.12335597778838912,1.0416666666666667,19200,2.3174657821655273,0.3863963409847959,0.36322667644562534,-27.599324314420446,0.0
3,1.5197198390960693,-23.763127649986362,25.168460490373683,132.69164909148193,-42.19771682566202,2.0833333333333335,10.03221731556732,0.1,0.010958194732666016,0.2557344436645508,0.052593272,0.009002358,-25.56156413221597,-0.14867046154272767,-0.11867046154272765,2.0833333333333335,19200,2.5655903816223145,0.4881803142283775,0.4663039498800832,-25.718515368917323,0.0
4,1.5394444465637207,-24.345650093715733,18.263644641806795,84.69552142620579,-40.24735116385174,0.0,10.352312034576531,0.1,0.010821104049682617,0.2586789131164551,0.05183007,0.008962477,-25.439972728365948,-0.14075892516721975,-0.1215922585005531,0.0,19200,2.610846996307373,0.3450133338040298,0.3411204678184924,-24.016768085677246,0.0
5,1.5396313667297363,-20.51623879326133,25.639233476653537,136.95367737716248,-38.19678827263831,2.0833333333333335,9.320752530099924,0.1,0.01107335090637207,0.2814817428588867,0.051676266,0.009900822,-24.947599334855486,-0.13038712644547304,-0.10247045977880638,2.0833333333333335,19200,2.6324996948242188,0.5832252579612976,0.5693033180640512,-23.00129812636077,0.0
6,1.494211196899414,-17.431629163541018,35.223214678899836,160.46896535074856,-37.128309618311356,4.166666666666667,12.227425885428994,0.1,0.011282205581665039,0.31987524032592773,0.05257664,0.008336838,-24.19600231772404,-0.128090459541359,-0.08704879287469232,4.166666666666667,19200,2.646017074584961,0.7788014070392917,0.7518423581942124,-23.515544711372087,0.0
7,1.709054946899414,-20.86558996554587,30.34123292178141,185.05527980447235,-42.23428512029724,2.0833333333333335,8.492202155015882,0.1,0.011078596115112305,0.28923749923706055,0.04786647,0.014500425,-23.862961082506224,-0.13005662286827013,-0.1042232895349368,2.0833333333333335,19200,2.641049861907959,0.6764879990489716,0.665902804610876,-22.588381214170724,0.0
8,1.5111658573150635,-20.162244814605522,33.15781734292018,238.64280573773507,-39.548862070271966,2.0833333333333335,8.57392936043103,0.1,0.010845422744750977,0.2549450397491455,0.05196433,0.011229952,-23.492889455716153,-0.12635168827261836,-0.10072668827261837,2.0833333333333335,19200,2.593423366546631,0.7599504909267691,0.7469732203559988,-22.235274132167813,0.0
9,1.5364453792572021,-13.956628228444664,40.30977497678587,192.52154267917925,-37.71923706918421,2.0833333333333335,18.267293526109455,0.1,0.011142969131469727,0.3178708553314209,0.046931233,0.0060656997,-22.539263332989005,-0.11741747078065234,-0.06970913744731903,2.0833333333333335,19200,2.5782763957977295,0.8515324493194233,0.8270844399989442,-21.318370767327444,0.0
10,1.535348892211914,-19.096887667512185,33.01292013123561,261.0465099267887,-37.63712655528442,1.0416666666666667,6.1431798442517564,0.1,0.011717081069946289,0.2984287738800049,0.048777785,0.016615007,-22.195025766441326,-0.11999306050379982,-0.09540972717046652,1.0416666666666667,19200,2.6429364681243896,0.7802440178664977,0.7418887062629578,-21.031114442057632,0.0
11,1.5443921089172363,-13.097329585221287,44.466865828846906,345.00765516502486,-36.8695191554299,1.0416666666666667,11.778374159663633,0.1,0.01165914535522461,0.3213202953338623,0.05591468,0.009504047,-21.285256148319323,-0.11022394108131552,-0.06543227441464887,1.0416666666666667,19200,2.6596620082855225,0.8857596550197464,0.8438354154934585,-20.645938780122222,0.0
12,1.536562442779541,-8.293875396330193,60.30252685498719,313.6203872863871,-34.79270675203749,2.0833333333333335,11.997227746837856,0.1,0.011034011840820312,0.3047151565551758,0.05542619,0.008514231,-19.98611807312041,-0.10932972804347664,-0.041413061376809945,2.0833333333333335,19200,2.643871545791626,0.8789409799153186,0.8051618986839897,-20.79614545001306,0.0
13,1.5384256839752197,-18.847302329969978,24.003317512873664,116.4040247395204,-38.33368706186929,0.0,7.672446295579965,0.1,0.011502981185913086,0.260922908782959,0.051183727,0.014538411,-19.872236498805364,-0.11353938806309638,-0.09416438806309639,0.0,19200,2.6617789268493652,0.7697011837705118,0.6166459246976111,-22.86831428661548,0.0
14,1.806323528289795,-17.290857769784406,28.082331075841847,179.1429547356929,-38.50491647910771,1.0416666666666667,8.32690620666298,0.1,0.011318206787109375,0.26044416427612305,0.049847897,0.012022755,-19.614098625903267,-0.11160739925538599,-0.08639906592205267,1.0416666666666667,19200,2.649143934249878,0.7635770436334578,0.7333943227916923,-23.231280245566943,0.0
15,1.5702581405639648,-19.361482291562293,20.609643821888245,142.2219075972699,-38.8205575454771,0.0,10.005932323320192,0.1,0.010868072509765625,0.25492286682128906,0.049843952,0.011922252,-19.58883699246917,-0.11322908323871934,-0.09697908323871936,0.0,19200,2.663384199142456,0.663796542733117,0.6106147701216211,-21.714603199765357,0.0
16,1.5202076435089111,-11.534714195481522,58.0741681962097,392.70927907829497,-36.90033079092267,3.125,15.678368511946736,0.1,0.011552095413208008,0.25763607025146484,0.049272254,0.0076950127,-18.783424712770405,-0.11178131785763262,-0.057614651190965954,3.125,19200,2.6973717212677,0.9070564435120559,0.8126384737258996,-21.075402028522106,0.0
17,1.5165724754333496,-7.373267005670847,96.19167619475056,872.2062435226552,-41.79454385768503,1.0416666666666667,5.37286701961736,0.1,0.011196136474609375,0.2802877426147461,0.04756003,0.01904151,-17.64240894206045,-0.11305913638079589,-0.036809136380795866,1.0416666666666667,19200,2.6919844150543213,0.888406403801783,0.8287597044944592,-21.358738446002825,0.0
18,1.512441873550415,-14.605599436589758,50.226943889838495,374.3754805474648,-41.22141326622628,1.0416666666666667,9.78566579616716,0.1,0.011399269104003906,0.29109811782836914,0.0505398,0.012201493,-17.33872799151338,-0.11670978235325824,-0.07295978235325823,1.0416666666666667,19200,2.7022852897644043,0.8064094344047495,0.7578228813113611,-22.254337666405593,0.0
19,1.5177979469299316,-18.505721037568794,23.12957121196615,122.75006415437603,-41.256409524033195,0.0,8.470872657894686,0.1,0.011191844940185547,0.2584366798400879,0.05116407,0.013553076,-17.455427296118923,-0.11123196670666081,-0.09248196670666083,0.0,19200,2.723468065261841,1.0137188900155183,0.6756038283720847,-21.902842903646246,0.0
20,1.5611093044281006,0.9983228965052824,89.61983097697448,541.7451315792548,-38.26612303909694,3.125,7.219447551693607,0.1,0.011266708374023438,0.2652890682220459,0.050909013,0.015553241,-15.610052276856504,-0.10722750391083091,0.005064162755835784,3.125,19200,2.6689534187316895,0.885791231389068,0.7658171483349047,-21.072744951507122,0.0
21,1.545480489730835,-20.43398074674982,14.110184136026811,82.76031670532458,-34.203609740915326,0.0,6.190547549986625,0.1,0.011634111404418945,0.31586146354675293,0.052969594,0.016567802,-16.092445123845835,-0.11045383097418464,-0.1021204976408513,0.0,19200,2.6589090824127197,1.885795900875273,0.45859105769720343,-20.531803093247653,0.0
22,1.7329232692718506,-6.214319736349862,65.00070698913785,346.3897299044508,-41.87278563317626,5.208333333333333,8.899727852192655,0.1,0.011324405670166016,0.3079562187194824,0.05625098,0.010809375,-15.104632585096237,-0.10725960471015161,-0.03100960471015161,5.208333333333333,19200,2.6919829845428467,0.8805917016559697,0.7925600297723009,-20.3213362020806,0.0
23,1.5476274490356445,-15.33694585222309,31.20430593171565,153.48147441031213,-39.040448774484155,0.0,7.927126454818743,0.1,0.011069297790527344,0.2551083564758301,0.04849515,0.013546477,-15.127863911808921,-0.10912227437766585,-0.07662227437766583,0.0,19200,2.6970596313476562,0.8682387263794477,0.7117239567748564,-20.097042516299936,0.0
24,1.5392224788665771,-14.346529313440428,38.01466729049895,248.45417235367603,-38.81290672526192,1.0416666666666667,9.314552134860117,0.1,0.011263608932495117,0.2562074661254883,0.052649282,0.011610109,-15.049730451972072,-0.11185728832135133,-0.071648954988018,1.0416666666666667,19200,2.6977078914642334,0.7695709097353639,0.6991208193310706,-20.210035821922045,0.0
25,1.536726474761963,-8.657535331586235,48.41891059229828,243.94387489387475,-38.573675440486674,2.0833333333333335,8.755444981194739,0.1,0.011080026626586914,0.2547283172607422,0.05489233,0.010321681,-14.410510939933488,-0.10905996338755974,-0.04322663005422642,2.0833333333333335,19200,2.731142997741699,0.76468985396884,0.7319844079653492,-19.625713726564037,0.0
26,1.5412232875823975,-12.902761389846058,43.974416669928665,237.81766440125784,-38.66305903362646,3.125,8.095323961748957,0.1,0.010895013809204102,0.3288257122039795,0.04952582,0.012825182,-14.259735984924745,-0.1131853228054114,-0.0644353228054114,3.125,19200,2.678931951522827,0.7037495696911754,0.6585456132008383,-19.880912115393755,0.0
27,1.532137155532837,-17.76130136843855,29.36339298267196,220.92700871959437,-38.944791523978374,1.0416666666666667,9.686106644853602,0.1,0.011074542999267578,0.29428911209106445,0.04907863,0.0104817515,-14.609892523276127,-0.11227004446822257,-0.08872837780155589,1.0416666666666667,19200,2.6841678619384766,0.7004650646836622,0.6017853675815068,-19.578492696447853,0.0
28,1.5163352489471436,-13.227238239580089,36.41457872830332,191.64374175223392,-40.74053942362787,1.0416666666666667,11.523654175680948,0.1,0.01119375228881836,0.31951022148132324,0.047289588,0.008427804,-14.471627094906523,-0.11188552265585266,-0.06605218932251934,1.0416666666666667,19200,2.6773579120635986,0.7051900890117486,0.6618677413213165,-19.357622348305544,0.0
29,1.5563945770263672,-10.435495861941236,44.83070630469139,220.54246041529342,-40.687602302657275,1.0416666666666667,11.163168938539954,0.1,0.010869741439819336,0.3117637634277344,0.05254641,0.007861903,-14.068013971609995,-0.10939270909359218,-0.052101042426925516,1.0416666666666667,19200,2.6291611194610596,0.7226795807352698,0.6853719423195099,-19.209147991261787,0.0
30,1.7250359058380127,-14.089560578491103,44.28909525276148,257.6661184026797,-40.967565805817536,2.0833333333333335,8.959855175630505,0.1,0.012701034545898438,0.3501272201538086,0.053701177,0.011549475,-14.070168632298106,-0.11184241999886539,-0.07038408666553203,2.0833333333333335,19200,3.2964859008789062,0.7413305399422463,0.7175949899710864,-19.43588499396892,0.0
31,1.5946550369262695,-14.519557709195283,34.52531995681733,212.35360437057957,-39.64806968043449,1.0416666666666667,10.750297601357854,0.1,0.01264047622680664,0.28968310356140137,0.048623525,0.012035805,-14.115107539987825,-0.10772805930098418,-0.07251972596765084,1.0416666666666667,19200,3.274698495864868,0.747823208698324,0.6468883513111208,-19.242373106869948,0.0
32,1.5659215450286865,-16.42411809003022,34.588886616022215,207.9721758966822,-36.13185602082483,2.0833333333333335,9.126181733213276,0.1,0.01123666763305664,0.31819725036621094,0.04993929,0.012057229,-14.346008594992066,-0.11080796040712453,-0.08205796040712453,2.0833333333333335,19200,2.61873722076416,0.717633295706539,0.6775845244635861,-19.194895710912412,0.0
33,1.536388874053955,-15.01639562003959,38.37592192657398,219.94248090203897,-38.31830034617783,2.0833333333333335,9.311479130593929,0.1,0.011057615280151367,0.298292875289917,0.051052727,0.012582994,-14.413047297496819,-0.11437247906491262,-0.07499747906491262,2.0833333333333335,19200,2.639073610305786,0.660007993860952,0.6308632253368167,-19.500253495751245,0.0
34,1.5247304439544678,-14.320178171277638,38.31691940244706,212.2597104067514,-41.37751722061121,1.0416666666666667,7.451482936478674,0.1,0.01191854476928711,0.322420597076416,0.04980117,0.01665495,-14.4037603848749,-0.11381411893312492,-0.07152245226645822,1.0416666666666667,19200,2.659409523010254,0.684464024009544,0.6694125361079257,-19.849611229531483,0.0
35,1.5641179084777832,-16.337678731059,33.84756118204221,231.35562068331424,-40.850920882558384,1.0416666666666667,8.99808496514858,0.1,0.011133193969726562,0.25917792320251465,0.047869787,0.01160846,-14.59715221949331,-0.11536867439479827,-0.0816186743947983,1.0416666666666667,19200,2.677039623260498,0.6066736995221141,0.5852732488439949,-19.406385438062827,0.0
36,1.5297305583953857,-15.367752574645152,34.064426861115024,227.96065920674113,-40.4070615581668,1.0416666666666667,13.863405533556675,0.1,0.011609554290771484,0.30677175521850586,0.045311246,0.005899933,-14.674212255008495,-0.10906601961880354,-0.07677435295213686,1.0416666666666667,19200,2.7010815143585205,0.689340429637999,0.6581313374395165,-18.946310228873003,0.0
37,1.7459771633148193,-15.420223415244743,37.678769876755496,287.6985823908477,-38.061480508522976,1.0416666666666667,8.516301848536036,0.1,0.011242151260375977,0.2945137023925781,0.045369603,0.011650951,-14.748813371032119,-0.10932136124298224,-0.07702969457631555,1.0416666666666667,19200,2.7344701290130615,0.7214411622662649,0.7070757078721389,-19.05632556929249,0.0
38,1.5643370151519775,-3.8899934305688095,58.58706023045257,413.92896998892996,-36.650922035823406,3.125,6.90346913336833,0.1,0.011298894882202148,0.2594001293182373,0.050082576,0.012926125,-13.662931376985789,-0.10001605382787519,-0.01939105382787521,3.125,19200,2.7179532051086426,0.738851009417748,0.6776533551017015,-18.794611943401407,0.0
39,1.5175793170928955,-11.642384955479145,47.11429036722338,327.0071903717392,-39.765409788379316,2.0833333333333335,8.623626712672126,0.1,0.011293172836303711,0.2852199077606201,0.05844155,0.010636377,-13.460876734835125,-0.10502108574233256,-0.05814608574233254,2.0833333333333335,19200,2.69909405708313,0.8360124871947013,0.7910329929409385,-18.9457991584311,0.0
40,1.5516276359558105,-12.67468725489941,43.81537408012784,315.1561049705698,-37.63163051953569,1.0416666666666667,7.452458725271244,0.1,0.011096477508544922,0.3213052749633789,0.05054607,0.012750566,-13.382257786841555,-0.10249954966566606,-0.0633328829989994,1.0416666666666667,19200,2.7102432250976562,0.7460789678218583,0.6987118057427986,-19.156966941149353,0.0
41,1.5252721309661865,-9.0786901903462,45.223451652917795,207.79680204311927,-38.179804625946474,0.0,14.11704335794084,0.1,0.011528491973876953,0.29801082611083984,0.05255591,0.007987657,-12.951901027192019,-0.10411467053096685,-0.04536467053096685,0.0,19200,2.6982381343841553,0.6579166377266641,0.6341492676622846,-19.0905472723403,0.0
42,1.5592937469482422,2.3109898317976016,70.9034477861287,393.81382475778406,-39.581116335077525,4.166666666666667,9.158235968109661,0.1,0.011257410049438477,0.2568197250366211,0.047350127,0.013170894,-11.425611941293056,-0.09901785463523509,0.011607145364764959,4.166666666666667,19200,2.677260398864746,0.7410698420675996,0.6665343929796063,-19.42664828758205,0.0
43,1.518064022064209,-4.534655118593616,67.01688114487807,420.54253838262315,-39.491405594570814,4.166666666666667,10.561443600333277,0.1,0.010877609252929688,0.2543196678161621,0.051553495,0.010337807,-10.736516259023112,-0.09782787154381493,-0.02261953821048157,4.166666666666667,19200,2.6637072563171387,0.8617334027943871,0.8012917462574576,-19.746714478012958,0.0
44,1.653747320175171,-3.9853124401095177,72.50582602555137,445.51097609630807,-39.3432166519652,2.0833333333333335,9.925353299549279,0.1,0.010768890380859375,0.2544741630554199,0.046931747,0.009581799,-10.061395877131753,-0.10445901219785542,-0.0198756788645221,2.0833333333333335,19200,2.662527084350586,0.7687337744504464,0.7243243403462379,-19.22490978524813,0.0
45,1.5325927734375,-3.007244601346636,84.72443606837373,583.7844661581967,-40.68212850980178,3.125,10.051642510552046,0.1,0.011161088943481445,0.2585322856903076,0.050986774,0.010146393,-9.355980749553241,-0.1045636241567186,-0.014980290823385282,3.125,19200,2.680342435836792,0.7494330239058771,0.7139279460640908,-19.14996598659794,0.0
46,1.5230624675750732,15.054421177432639,105.77307757315934,525.6874861004716,-41.68828855844977,5.208333333333333,10.355023485673351,0.1,0.011023283004760742,0.2560749053955078,0.055411167,0.008544009,-6.914940556854653,-0.09863578830305963,0.07532254503027368,5.208333333333333,19200,2.7060399055480957,0.833711667774794,0.7107266551134406,-19.130192374952802,0.0
47,1.5298211574554443,4.194235868756513,87.42403431148368,490.07378590603014,-42.40851317026741,2.0833333333333335,9.219048844764961,0.1,0.011208295822143555,0.3107421398162842,0.050556615,0.010160961,-5.804022914293537,-0.10250765675826405,0.021034009908402613,2.0833333333333335,19200,2.7301137447357178,0.7425450545661701,0.6956186767387853,-18.9131161628107,0.0
48,1.5182480812072754,4.941091817729988,90.7455316293721,528.790599850653,-42.89894466449645,4.166666666666667,10.02232886218895,0.1,0.011245012283325195,0.32774901390075684,0.05087526,0.010030589,-4.729511441091184,-0.10358342686361244,0.02474990646972089,4.166666666666667,19200,2.7341148853302,0.7345079138984001,0.7093424998333834,-18.793109180657346,0.0
49,1.5241708755493164,-1.9011911277611564,69.40223241571853,356.64309734511045,-43.668439014371664,3.125,7.081094691700905,0.1,0.012713193893432617,0.28871750831604004,0.049957305,0.012080368,-4.446679409758181,-0.09945314779728102,-0.009453147797281009,3.125,19200,2.7328178882598877,0.9866420707425623,0.7656914777710587,-18.749980766614996,0.0
50,1.5271844863891602,7.502873512498617,86.26798486095076,415.29961269577774,-36.39535587406446,4.166666666666667,15.436140041538314,0.1,0.010878801345825195,0.27007508277893066,0.05158081,0.006525795,-3.251724117532501,-0.0974308509401149,0.037569149059885114,4.166666666666667,19200,2.6882877349853516,0.7915350138194481,0.7102430271523216,-19.074238828004827,0.0
51,1.5299830436706543,22.705023409626325,117.61552927749992,471.8343126468279,-43.40243552318443,8.333333333333334,14.490807804943417,0.1,0.010717391967773438,0.31192874908447266,0.049997196,0.00661018,-0.6560493648166186,-0.10059907091340169,0.11356759575326504,8.333333333333334,19200,2.658494710922241,0.709388475964491,0.6222500393957073,-18.922298231478404,0.0
52,1.7358813285827637,-4.414413571317328,60.048120045064195,320.42424577019216,-42.012229055822154,1.0416666666666667,7.12476881615021,0.1,0.010781526565551758,0.2521791458129883,0.052711707,0.014594238,-1.0318857854666894,-0.10492532411802113,-0.02200865745135447,1.0416666666666667,19200,2.6636345386505127,0.8410129913300974,0.5224784504913563,-19.533095268044498,0.0
53,1.5402798652648926,-4.112580742919129,80.69482666523866,588.1464818589492,-41.60065144599753,3.125,7.407374237613593,0.1,0.010776996612548828,0.3199892044067383,0.054436702,0.013508449,-1.3399552812119335,-0.10593520847441477,-0.020935208474414758,3.125,19200,2.6814746856689453,0.874446615766142,0.7741070455288687,-19.322749699591657,0.0
54,1.5612671375274658,-7.459949482543423,61.29523523768249,372.41199287475587,-42.68217110076474,4.166666666666667,7.40035976166681,0.1,0.011518716812133789,0.31510019302368164,0.050236586,0.012411961,-1.9519547013450826,-0.10495016129162528,-0.03724182795829194,4.166666666666667,19200,2.6571602821350098,0.7822961390498462,0.681487969272064,-19.519943813604748,0.0
55,1.5109632015228271,9.13994547312159,93.1165598839608,463.18920743602786,-41.714198002563265,4.166666666666667,11.06876740774314,0.1,0.010905265808105469,0.31500911712646484,0.05076929,0.010064624,-0.8427646838984153,-0.10718078583562303,0.04531921416437703,4.166666666666667,19200,2.6727747917175293,0.6837541269478419,0.5697681315598229,-19.454626651210894,0.0
56,1.5186221599578857,-12.671170073578873,38.61753638093613,247.15231531857702,-40.203409202483286,0.0,7.71974769475643,0.1,0.010618209838867188,0.3113393783569336,0.047162943,0.01492847,-2.0256052228664614,-0.10122585552826868,-0.06330918886160203,0.0,19200,2.6726200580596924,2.097669970922624,0.6887396792452043,-19.60109385230416,0.0
57,1.5447814464569092,-12.835612848095495,49.31256608781554,330.00500940251203,-43.56667677259674,1.0416666666666667,8.899402495534959,0.1,0.011093616485595703,0.2565879821777344,0.05401783,0.011497738,-3.106605985389365,-0.11577597618112989,-0.06410930951446321,1.0416666666666667,19200,2.580845832824707,0.6944163548351421,0.6680070487598673,-19.716354909837044,0.0
58,1.5180549621582031,5.719590460891694,82.46934717825611,418.10731153570435,-40.207807674857406,6.25,8.472231244064782,0.1,0.010681867599487305,0.30902814865112305,0.048339926,0.013155905,-2.223986340761259,-0.10240359654440682,0.028638070122259853,6.25,19200,2.566572427749634,0.8102702936945713,0.5706959705476191,-19.98169208798398,0.0
59,1.6593551635742188,-6.093618994870873,61.69529622393524,366.209427596473,-44.821770719290924,4.166666666666667,8.86728090706413,0.1,0.011187076568603516,0.2573676109313965,0.051915333,0.010430245,-2.61094960617222,-0.11520775026074132,-0.030416083594074633,4.166666666666667,19200,2.642045021057129,0.5685195688158773,0.49502325476758224,-20.125264909459602,0.0
60,1.7309823036193848,-10.388824719806331,49.24300601007219,244.0822574143666,-43.65345917326467,1.0416666666666667,7.315613061667026,0.1,0.01104879379272461,0.298811674118042,0.05082265,0.014310694,-3.388737117535631,-0.10855350133393633,-0.0518868346672697,1.0416666666666667,19200,2.6344375610351562,0.9683903881114143,0.6102407404239565,-20.264957302259116,0.0
61,1.5813655853271484,4.736797033204227,86.44909158492952,411.04177282463115,-44.12949432917182,6.25,9.295533524744421,0.1,0.010821342468261719,0.2547907829284668,0.048153274,0.009660747,-2.5761837024616447,-0.10585992528988979,0.023723408043443552,6.25,19200,2.594263792037964,0.6390791363083302,0.5416042154955664,-20.173527602898986,0.0
62,1.5328941345214844,-12.027430815177302,46.8774022203636,323.0995484743339,-40.81662277203446,1.0416666666666667,7.872062138726924,0.1,0.011813879013061523,0.29184436798095703,0.050075658,0.01240869,-3.5213084137332107,-0.10466669990279558,-0.06008336656946223,1.0416666666666667,19200,2.56139874458313,0.8841426801717223,0.6911682939382263,-20.29266850396688,0.0
63,1.5213863849639893,23.928744344552058,124.04068833975052,555.5104285976258,-43.17430321057561,8.333333333333334,8.033125088173868,0.1,0.01073908805847168,0.2568929195404053,0.04812571,0.011665031,-0.7763031379046836,-0.10779671177149804,0.11949495489516866,8.333333333333334,19200,2.5673089027404785,0.6987212829662292,0.5213086855757886,-20.49500927674872,0.0
64,1.5520875453948975,5.175499414297335,100.10924189741752,595.7631175576581,-43.71418309494804,3.125,5.408493932472539,0.1,0.011580467224121094,0.2656412124633789,0.04930517,0.019264417,-0.18112288268448173,-0.11009282599426144,0.025948840672405226,3.125,19200,2.6432666778564453,0.6244235513766044,0.5580806502005509,-20.493833609639836,0.0
65,1.5801150798797607,-5.364700834618173,72.26049583663077,547.7673628689142,-43.15938290037201,2.0833333333333335,7.564683834184949,0.1,0.011252880096435547,0.2615785598754883,0.048198733,0.014003791,-0.699480677877851,-0.10948977007600275,-0.026781436742669407,2.0833333333333335,19200,2.689938545227051,0.8488583883397146,0.6663703742910144,-20.658240924883124,0.0
66,1.512686014175415,-11.320048626957416,55.32367839856569,359.3481562159794,-42.6532509132737,1.0416666666666667,7.97119791235816,0.1,0.011321783065795898,0.2633247375488281,0.048924774,0.013697056,-1.7615374727858075,-0.11839961473878284,-0.05652461473878285,1.0416666666666667,19200,2.7056005001068115,0.7134880097636329,0.5937193994271516,-20.82787804206037,0.0
67,1.681623935699463,1.027125476420802,81.013197258162,439.0100703821975,-42.66403240505742,4.166666666666667,7.621824510969541,0.1,0.010936975479125977,0.25385165214538574,0.05176363,0.013122107,-1.4826711778651465,-0.11105294328429827,0.004988723382368394,4.166666666666667,19200,2.664304256439209,0.6294061687376521,0.5331650197212822,-20.971975938709093,0.0
68,1.5492558479309082,0.24785907449671818,81.16045432282155,418.5525780481883,-42.061280781667556,3.125,9.309408355831298,0.1,0.011027336120605469,0.2578089237213135,0.053615965,0.011778374,-1.3096181526289599,-0.1116204180913512,0.0012962485753154663,3.125,19200,2.6683120727539062,0.6559299978480536,0.5412991012570559,-20.79850666719866,0.0
69,1.5941696166992188,-11.805007178260063,60.11005953479774,491.45284999518157,-40.7977705776053,1.0416666666666667,8.587625320725996,0.1,0.011142492294311523,0.27486109733581543,0.047461115,0.0114217745,-2.35915705519207,-0.10833990209145983,-0.058964902091459825,1.0416666666666667,19200,2.6369822025299072,1.0515446517162594,0.6489966561088685,-20.71173399055759,0.0
70,1.5505127906799316,-15.398083527531142,53.04323730576608,416.37005354363566,-44.425434211693805,0.0,9.735890103004316,0.1,0.010792970657348633,0.2664165496826172,0.05257295,0.011053267,-3.663049702425978,-0.1177710089696032,-0.07693767563626987,0.0,19200,2.63478684425354,0.7924229469145828,0.6475961872011515,-20.933211282873337,0.0
71,1.5406460762023926,-15.889014099241516,45.54010479180651,354.26792864830867,-46.352844498548386,1.0416666666666667,9.768758906088479,0.1,0.011182308197021484,0.2561936378479004,0.05370999,0.009994673,-4.8856461421075315,-0.11626728522452297,-0.07939228522452298,1.0416666666666667,19200,2.653667449951172,0.6983553226914058,0.5405679814524279,-21.125058326538777,0.0
72,1.5315332412719727,-1.1146832004335796,71.59584556513374,404.11616389038136,-44.39324299280449,2.0833333333333335,8.2725304929837,0.1,0.012311697006225586,0.2898426055908203,0.05224591,0.014630119,-4.508549847940137,-0.11030728092263864,-0.005723947589305288,2.0833333333333335,19200,3.351207971572876,0.7030799785763184,0.6036660236023539,-21.277650919955395,0.0
73,1.5824453830718994,-5.4785208938743635,69.72526583793145,396.55512136197035,-43.89439730769921,1.0416666666666667,8.973641853755781,0.1,0.012304544448852539,0.2977488040924072,0.055804577,0.010588916,-4.60554695253356,-0.10774895998466831,-0.02733229331800165,1.0416666666666667,19200,3.382883310317993,0.6524812122920489,0.5839428935198538,-20.883698443023448,0.0
74,1.5360875129699707,-2.337389526872029,85.75322683264599,615.4334452269952,-42.947625030433564,2.0833333333333335,9.193947986002085,0.1,0.010631084442138672,0.2543065547943115,0.055694696,0.010020077,-4.378731209967407,-0.10477278468944244,-0.01164778468944245,2.0833333333333335,19200,2.648651123046875,0.6906669253726441,0.6138404833988731,-20.993781238524726,0.0
75,1.7636334896087646,1.2274662227350308,76.9808716192967,407.1370793871727,-44.89247660862998,5.208333333333333,9.5007432173713,0.1,0.01101231575012207,0.25394129753112793,0.048749007,0.0105469385,-3.818111466697163,-0.10213126593016819,0.006202067403165133,5.208333333333333,19200,2.6401355266571045,0.6577720538328845,0.5290777376101711,-21.306580889997186,0.0
76,1.5503106117248535,0.4186310829105535,87.34693564033252,431.91219624873844,-43.040591394202174,4.166666666666667,9.819995947469142,0.1,0.011003494262695312,0.2605257034301758,0.049231086,0.010926928,-3.3944372117363915,-0.11534738286146184,0.0021526171385381175,4.166666666666667,19200,2.679764747619629,0.6098680705774996,0.5302371234391313,-20.723113556742074,0.0
77,1.545381784439087,0.06195350122526536,70.71774386591258,391.140963686025,-41.37658865978618,2.0833333333333335,6.019266183063511,0.1,0.011064529418945312,0.25603151321411133,0.04727135,0.017227622,-3.048798140440226,-0.09924037780648333,0.00034295552684997926,2.0833333333333335,19200,2.6828815937042236,0.5899699826232927,0.5393248871188204,-20.617838586247167,0.0
78,1.5207180976867676,4.842967772498905,75.08057739006179,294.88597772866467,-41.60199713995392,3.125,8.679440429143051,0.1,0.011264324188232422,0.25803470611572266,0.053736784,0.011587298,-2.2596215491463125,-0.1022035062581943,0.024046493741805702,3.125,19200,2.7573800086975098,0.4717735475434787,0.4361282388741241,-20.46118656952855,0.0
79,1.56007981300354,-7.537870004849759,66.47966044621951,502.13818947907583,-42.30551083805867,2.0833333333333335,8.515288878070368,0.1,0.011856794357299805,0.26586079597473145,0.052313317,0.012382285,-2.7874463947166572,-0.10825794240385762,-0.03763294240385762,2.0833333333333335,19200,2.7873694896698,0.6636200873109172,0.5936777686672573,-20.46264367606338,0.0
80,1.5593876838684082,-0.6767604374505157,66.53943253133193,417.44465217176725,-43.75293328935541,4.166666666666667,8.95273771709251,0.1,0.012367725372314453,0.3007347583770752,0.052715536,0.010794393,-2.5763777989900434,-0.10209315026921388,-0.003343150269213894,4.166666666666667,19200,3.4201266765594482,0.4055343698240713,0.36475261550283467,-20.38588719312245,0.0
81,1.5834267139434814,-6.665589411475665,58.804086927614215,322.5464034122569,-42.92979415775533,2.0833333333333335,11.899720558969458,0.1,0.01236724853515625,0.2905149459838867,0.049329944,0.008147475,-2.9852989602386053,-0.10744873702541362,-0.033282070358746925,2.0833333333333335,19200,3.355738401412964,0.47627476174459243,0.42825803220461495,-20.27589063864792,0.0
82,1.6738927364349365,-1.2550241879733122,73.10846709260844,351.3346262018392,-40.676670250529554,5.208333333333333,7.592771616318932,0.1,0.011495351791381836,0.26848435401916504,0.052625902,0.013259322,-2.812271483012076,-0.10788764383489591,-0.006220977168229201,5.208333333333333,19200,2.6962451934814453,0.6089488300878755,0.5186027298256065,-20.252428118399816,0.0
83,1.570913553237915,-11.129518800777523,37.00669337863456,173.1083565775694,-42.388750019483,2.0833333333333335,8.140971029665204,0.1,0.011642217636108398,0.26052331924438477,0.053850256,0.012762333,-3.643996214788621,-0.10580073226693959,-0.055592398933606256,2.0833333333333335,19200,2.717705488204956,0.7315861963453075,0.3168842908576716,-20.553474734875678,0.0
84,1.549431562423706,-7.440699717576886,66.01280661674477,442.5966089484669,-39.557629071104294,3.125,7.57936807643371,0.1,0.01109933853149414,0.26665353775024414,0.049851753,0.013318773,-4.0236665650674475,-0.1067441258131288,-0.037160792479795424,3.125,19200,2.6602048873901367,0.7041901810637319,0.47497265513947107,-20.809409971322857,0.0
85,1.5600306987762451,-3.0462572186838295,52.83403673919667,262.43391071387106,-39.22452674068959,4.166666666666667,7.938616707924273,0.1,0.01093602180480957,0.27417778968811035,0.051122252,0.0144319115,-3.9259256304290857,-0.10060906806769122,-0.01519240140102456,4.166666666666667,19200,2.7094950675964355,0.5415838287591023,0.3451056039756568,-20.868562774709737,0.0
86,1.5563147068023682,-12.285400248097284,43.262237572254,313.04317253325394,-41.88527234642723,1.0416666666666667,6.96622345830297,0.1,0.010956287384033203,0.26035261154174805,0.049773637,0.015665041,-4.761873092195906,-0.10908110250552609,-0.06137276917219275,1.0416666666666667,19200,2.7389907836914062,0.44322687312767184,0.402497920191342,-20.65131635279011,0.0
87,1.5579559803009033,-0.47133061237411766,58.327480343786036,241.57944952456572,-41.745766641438394,2.0833333333333335,8.650525373736667,0.1,0.010797262191772461,0.25641345977783203,0.04956283,0.010155603,-4.332818844213727,-0.1018920647646935,-0.002308731431360169,2.0833333333333335,19200,2.7477128505706787,0.47460464675661,0.3773483931389075,-20.65545883603437,0.0
88,1.6960227489471436,-6.146948477701482,55.085408629638636,249.51562477795255,-37.3381531304443,3.125,6.968574548202556,0.1,0.011231184005737305,0.2641596794128418,0.045490537,0.016377427,-4.514231807562503,-0.10568206853207257,-0.03068206853207257,3.125,19200,2.7553956508636475,0.5342396603533304,0.4613529716811306,-20.551418483537113,0.0
89,1.741732120513916,-8.603821743899617,44.38482775355874,197.56667783686322,-44.590419944275276,2.0833333333333335,6.505789623083437,0.1,0.010944366455078125,0.25422000885009766,0.05157675,0.016330263,-4.923190801196214,-0.10693608126977842,-0.04297774793644507,2.0833333333333335,19200,2.7230210304260254,0.4123534453297595,0.27961706916223317,-20.6265031207854,0.0
90,1.5780200958251953,-12.982687529434754,43.2957266401415,329.6447801710595,-41.83148554343831,1.0416666666666667,7.483334998770584,0.1,0.011271238327026367,0.2596704959869385,0.04654198,0.014529335,-5.729140474020069,-0.10570740376540684,-0.06487407043207351,1.0416666666666667,19200,2.715629816055298,0.5335328991288648,0.47553840928464686,-20.679370810864704,0.0
91,1.601149559020996,-14.740417486258272,35.80305943807577,257.3263752841379,-44.0397210148584,1.0416666666666667,8.05575038136282,0.1,0.010970115661621094,0.2531113624572754,0.04556958,0.014509757,-6.63026817524389,-0.10719914995587054,-0.07365748328920387,1.0416666666666667,19200,2.6653871536254883,0.586557245912974,0.44008793509031086,-20.83826770814714,0.0
92,1.524388313293457,-10.513255170494832,59.88837389541784,401.8853898141245,-42.89418053799143,2.0833333333333335,8.183193740247908,0.1,0.010971546173095703,0.25589561462402344,0.052072313,0.011437752,-7.018566874768984,-0.10899445714915267,-0.05253612381581931,2.0833333333333335,19200,2.722125291824341,0.6973956743195401,0.5542501556286322,-20.93291352903245,0.0
93,1.5306181907653809,1.16833201953,88.74600903605908,504.150768946024,-46.00581567800188,4.166666666666667,10.350219659408975,0.1,0.011288642883300781,0.2634594440460205,0.045556564,0.010593996,-6.1998769853390865,-0.11180512666970104,0.005903206663632306,4.166666666666667,19200,2.716665267944336,0.6410028512952723,0.39341703638135705,-21.229320601998936,0.0
94,1.5395588874816895,-4.390050075707624,67.09236080808803,515.6519798614044,-42.81947600750325,1.0416666666666667,9.160857165159198,0.1,0.011146306991577148,0.26389074325561523,0.047605313,0.010670922,-6.018894294375941,-0.10795145302733127,-0.021909786360664596,1.0416666666666667,19200,2.7094719409942627,0.9784757389944396,0.5043652837493162,-21.308345755037433,0.0
95,1.5525717735290527,-13.661225284654984,31.288369666353823,173.14219844972936,-39.70424259780406,0.0,8.319441363336416,0.1,0.011080026626586914,0.2551736831665039,0.05099004,0.011402859,-6.783127393403846,-0.10908653070024166,-0.06825319736690832,0.0,19200,2.7465012073516846,0.6267430426016487,0.34377377440371676,-21.529502544545515,0.0
96,1.6831064224243164,-19.57426993335912,23.5965442896532,128.270635882416,-41.67619300743923,0.0,9.41892340758553,0.1,0.010939836502075195,0.26136112213134766,0.05539315,0.009097277,-8.062241647399373,-0.12010783122911513,-0.09781616456244846,0.0,19200,2.7416422367095947,0.38641662459127585,0.27467675893910715,-21.956730649892542,0.0
97,1.6940467357635498,-8.644705477686449,43.580754844005135,230.6346069143001,-43.47948332554964,1.0416666666666667,9.977363644474059,0.1,0.010743856430053711,0.25601959228515625,0.052204076,0.010736727,-8.120488030428081,-0.10629812906522622,-0.04317312906522621,1.0416666666666667,19200,2.756197214126587,0.5435442623882893,0.43545523125672825,-22.02082992669007,0.0
98,1.523249626159668,-17.225306157492646,28.417050201785408,166.43929381864143,-43.304933060127745,1.0416666666666667,6.228020958404194,0.1,0.011499404907226562,0.2830517292022705,0.055824164,0.01628056,-9.030969843134539,-0.11272709559760478,-0.08606042893093813,1.0416666666666667,19200,2.7923171520233154,0.3923764656837388,0.2918760971739959,-21.90202209260265,0.0
99,1.5380172729492188,-16.479150744665848,30.978979688204078,164.45699036639036,-42.341559047183836,1.0416666666666667,6.26821328771957,0.1,0.010846376419067383,0.2531285285949707,0.049917072,0.014022901,-9.77578793328767,-0.11776230465662373,-0.08234563798995707,1.0416666666666667,19200,2.7607085704803467,0.2930115546184275,0.199890986646903,-21.99795870984151,0.0
100,1.5272326469421387,-15.30089975915284,29.20249775401454,201.6852457975422,-37.50891917160556,1.0416666666666667,6.613102574921914,0.1,0.010859012603759766,0.26177072525024414,0.050042626,0.015677856,-10.328299115874188,-0.10956674049853517,-0.07644174049853515,1.0416666666666667,19200,2.8229663372039795,0.8392859834914879,0.5301765488227135,-21.979258713696264,0.0
101,1.5730702877044678,-5.909695529731882,51.55194733398003,267.08897163238163,-43.970180337568834,3.125,10.122451742013341,0.1,0.012122154235839844,0.3017690181732178,0.048783094,0.010548033,-9.886438757259958,-0.10368316133437461,-0.02951649466770796,3.125,19200,3.521973133087158,0.6268666102245787,0.49487096319371277,-21.493442021558444,0.0
102,1.5511128902435303,-18.342900660463343,16.330171912431528,69.09526676562874,-42.63010368895405,0.0,6.398270354746351,0.1,0.011109590530395508,0.257596492767334,0.050353367,0.0133118285,-10.732084947580296,-0.10666322497199932,-0.0916632249719993,0.0,19200,2.8497769832611084,0.8927844498052051,0.22485491655231704,-21.325748624357846,0.0
103,1.713322639465332,-6.658066553310365,52.83118457979757,294.4216560667112,-40.6596929669587,4.166666666666667,7.36035788323361,0.1,0.011193513870239258,0.25438809394836426,0.053983893,0.012827492,-10.324683108153303,-0.10136566229516941,-0.03324066229516944,4.166666666666667,19200,2.8609061241149902,0.6449027818418187,0.4298679543436314,-21.319445427659772,0.0
104,1.5292916297912598,-6.347099495071657,65.93851086121073,474.4671936377812,-42.327469109506396,3.125,8.447228838240918,0.1,0.011040687561035156,0.2561168670654297,0.046704706,0.013063663,-9.926924746845138,-0.10460797773590595,-0.03169131106923929,3.125,19200,2.896038293838501,0.5648885115205461,0.49096292819637877,-21.09295466954989,0.0
105,1.5435965061187744,-8.095213602362008,43.42598341752655,242.79174528295138,-37.2019696861352,0.0,9.927774732010747,0.1,0.011203289031982422,0.2608225345611572,0.049662977,0.010830499,-9.743753632396825,-0.10210399629859539,-0.0404373296319287,0.0,19200,2.938157796859741,0.6943525504037974,0.47757337282174933,-20.836197645718038,0.0
106,1.5656507015228271,-7.0142491432306775,48.28427166136671,258.48250953122704,-39.56831178414425,5.208333333333333,9.18727026019147,0.1,0.011002779006958008,0.25996923446655273,0.05498989,0.011796962,-9.47080318348021,-0.10418273977970571,-0.03501607311303904,5.208333333333333,19200,3.0073323249816895,0.6652956367338343,0.46111964550260826,-20.815964421705708,0.0
107,1.5653352737426758,-1.339045829667346,68.65212214997507,361.8418267270392,-42.99418522622704,4.166666666666667,8.598856102787167,0.1,0.011336088180541992,0.25725293159484863,0.04631875,0.010920913,-8.657627448098923,-0.10080300725626772,-0.006636340589601014,4.166666666666667,19200,2.9610214233398438,0.6144408299822838,0.43482776582829963,-20.969241076105867,0.0
108,1.5699892044067383,-5.408744672398535,61.37523583084304,360.8249256960135,-39.48259311566636,2.0833333333333335,9.4282813585523,0.1,0.012072563171386719,0.2628469467163086,0.052851524,0.010770832,-8.332739170528884,-0.10699286246758344,-0.026992862467583426,2.0833333333333335,19200,2.917783260345459,0.48433841761792445,0.43997870960555124,-20.928285887794154,0.0
109,1.5396428108215332,-2.094166001473422,74.07451261105578,347.889252771841,-45.53075432587429,6.25,7.723617714818981,0.1,0.010829925537109375,0.2532346248626709,0.046349976,0.012929722,-7.708881853623338,-0.10978558267305842,-0.010410582673058421,6.25,19200,2.895158529281616,0.43587631125036913,0.3746288079732668,-20.814440424049717,0.0
110,1.7225010395050049,-1.4187312424673866,72.70342793676167,376.5986189529928,-41.455452225865535,4.166666666666667,7.591915159679567,0.1,0.011078834533691406,0.2664616107940674,0.049812656,0.014415833,-7.079866792507743,-0.10913389041598838,-0.007258890415988384,4.166666666666667,19200,2.8992433547973633,0.6116855555077981,0.463270270195668,-20.91859453062846,0.0
111,1.5257062911987305,-11.133950905223521,34.154794786482135,137.58198485123373,-41.453244065264805,0.0,8.021005400200945,0.1,0.010966062545776367,0.25599026679992676,0.05518996,0.011246724,-7.485275203779321,-0.10042657453787536,-0.05563490787120868,0.0,19200,2.9346728324890137,0.8591792329069746,0.4564447466774674,-20.98961638361491,0.0
112,1.5576705932617188,-6.166181883174775,51.536927839892684,209.81964500552365,-40.00539333142265,2.0833333333333335,10.697040955276783,0.1,0.010912418365478516,0.2596461772918701,0.047345236,0.008372954,-7.353365871718866,-0.11099383733503564,-0.030785504001702307,2.0833333333333335,19200,3.0117385387420654,0.31009749160944194,0.24951540756155227,-21.02882570195206,0.0
113,1.5279784202575684,-11.924217543543937,36.89606735125131,159.29031968899537,-45.42828883665775,1.0416666666666667,7.224234262805225,0.1,0.011736392974853516,0.2586672306060791,0.049790498,0.0127928415,-7.810451038901373,-0.11246922833678126,-0.05955256167011458,1.0416666666666667,19200,2.9914908409118652,0.6870975826676776,0.44263463596052555,-20.930810072076852,0.0
114,1.5485947132110596,-8.374038088768833,48.40470424780576,244.18540271134094,-43.108039441189995,1.0416666666666667,10.430227440670826,0.1,0.010637521743774414,0.254802942276001,0.046411175,0.008654593,-7.866809743888119,-0.1078660448868045,-0.04182437822013782,1.0416666666666667,19200,2.9047820568084717,0.534116606809033,0.4418479289458346,-20.866759469062927,0.0
115,1.5645580291748047,1.3497279730169953,82.04497386796884,409.38953616569773,-40.84102835225991,4.166666666666667,8.336409738689447,0.1,0.011030197143554688,0.2552473545074463,0.05133739,0.012055257,-6.9451559721976075,-0.10403041567030431,0.006802917663029005,4.166666666666667,19200,2.9354753494262695,0.5510121370241453,0.42912601932627076,-20.998066908987845,0.0
116,1.5126426219940186,-10.59343068584838,46.12644460164896,201.51831737693067,-41.50323378446477,3.125,10.175687855628338,0.1,0.010955572128295898,0.25472211837768555,0.04960449,0.012511994,-7.309983443562685,-0.11125808200826907,-0.05292474867493572,3.125,19200,2.988494873046875,0.6256555355934911,0.3121037459345923,-21.086000104865747,0.0
117,1.6809430122375488,-12.438941408091411,43.05861129464247,250.08959437726514,-43.59464236613205,1.0416666666666667,8.409481973145342,0.1,0.011176586151123047,0.2621281147003174,0.050460935,0.011979593,-7.822879240015558,-0.1138179170667432,-0.06215125040007654,1.0416666666666667,19200,2.9905996322631836,0.6242338046770416,0.4269575975826276,-21.043373787315854,0.0
118,1.5359761714935303,-3.4963377014148285,63.594998903990586,265.3865887420837,-46.40521390357269,1.0416666666666667,10.208828537920121,0.1,0.01080012321472168,0.2629520893096924,0.047048643,0.009248615,-7.3902250861554855,-0.10932058075350702,-0.017653914086840337,1.0416666666666667,19200,2.96724009513855,0.5248930821533626,0.38903942881018727,-21.114909885599182,0.0
119,1.5846800804138184,10.627359871369963,92.3117992382066,416.52818319956316,-41.366078075921116,6.25,6.28289056850082,0.1,0.010926246643066406,0.2555718421936035,0.051363908,0.016656745,-5.588466590402941,-0.10722070700339555,0.05319595966327112,6.25,19200,2.954620838165283,0.4578775200336253,0.3113985936344536,-20.850632331689493,0.0
120,1.5326611995697021,-2.6885779121406266,63.54101540711575,308.44803337242195,-40.59649567940325,2.0833333333333335,8.203605093818114,0.1,0.011016607284545898,0.26021909713745117,0.049061958,0.012281308,-5.29847772257671,-0.10235075980283943,-0.013392426469506113,2.0833333333333335,19200,2.961270809173584,0.8428710838796128,0.4929189842119686,-20.755582333680735,0.0
121,1.5409162044525146,-5.282527215447295,57.77941789712152,365.73932985666517,-44.74127434857407,2.0833333333333335,7.740198426742389,0.1,0.011287927627563477,0.2582111358642578,0.04902897,0.012207954,-5.296882671863768,-0.11010218043812103,-0.026352180438121025,2.0833333333333335,19200,2.9432942867279053,0.6128362299550854,0.3279391802825498,-20.543279355630546,0.0
122,1.5677354335784912,-7.451378998360841,46.38707604701291,265.1754022345921,-45.03780988473623,1.0416666666666667,7.731011318239412,0.1,0.011079072952270508,0.26226091384887695,0.049457,0.012573522,-5.5123323045134764,-0.10054157966420008,-0.03720824633086671,1.0416666666666667,19200,2.9580507278442383,0.5455981015459727,0.454870250258074,-20.657598592345547,0.0
123,1.5585746765136719,-13.906334809503937,43.20456985569362,310.8119852963239,-47.28309282186307,1.0416666666666667,9.678620939057794,0.1,0.011168479919433594,0.291851282119751,0.04936679,0.01075249,-6.351732555012522,-0.11364274696374159,-0.06947608029707492,1.0416666666666667,19200,2.9449291229248047,0.595028749153323,0.5605857305529865,-20.69366894095606,0.0
124,1.6673953533172607,-3.0006630960507223,59.38882259714836,347.58558960156597,-41.79937650098631,4.166666666666667,7.494426236849127,0.1,0.011214733123779297,0.2691817283630371,0.049171392,0.014942428,-6.016625609116343,-0.10245267506017719,-0.014952675060177209,4.166666666666667,19200,2.952249765396118,0.4082405566851555,0.3201102443611611,-20.62887691718474,0.0
125,1.7091147899627686,-4.483950690869237,58.29346828245387,340.83038301033963,-44.30192697331472,3.125,8.064025395533784,0.1,0.011290550231933594,0.27857422828674316,0.049333323,0.011935279,-5.863358117291632,-0.1065275111188495,-0.022360844452182865,3.125,19200,2.924309015274048,0.5164438823957251,0.4298519410724603,-20.64805225040733,0.0
126,1.5490384101867676,-5.598964498498746,56.74350463572545,267.8272569032604,-40.68872925751166,4.166666666666667,7.946726951824088,0.1,0.010975837707519531,0.25881195068359375,0.05017158,0.012126663,-5.836918755412344,-0.10709747382066132,-0.027930807153994663,4.166666666666667,19200,2.8932642936706543,0.3148841610559643,0.25586201439849404,-20.45054367054377,0.0
127,1.5240938663482666,-5.1023246322368125,63.31082187679077,347.9863723250549,-46.68056532320925,3.125,8.273357078702224,0.1,0.010977745056152344,0.2614619731903076,0.05160463,0.010860933,-5.763459343094791,-0.11170285786588935,-0.02545285786588934,3.125,19200,2.886540651321411,0.48279395000338415,0.39859030819078306,-20.26848124528932,0.0
128,1.5483055114746094,-4.191165651638742,67.25590529050645,351.2051429405638,-42.3096368067662,3.125,8.695503105633238,0.1,0.010805130004882812,0.2543931007385254,0.04838863,0.011960996,-5.606229973949187,-0.10779313947847852,-0.02091813947847852,3.125,19200,2.900049924850464,0.4983169636746649,0.3479548523005126,-20.27936071440481,0.0
129,1.561201572418213,9.352396583129911,93.0619006118061,467.3715154483897,-44.69883418275483,6.25,7.395488167180508,0.1,0.011460065841674805,0.26303863525390625,0.04986781,0.013411709,-4.110367318241278,-0.10048350357462192,0.04680816309204474,6.25,19200,2.9290804862976074,0.4159725351751125,0.35787711189721705,-20.060932746976338,0.0
130,1.5521388053894043,-13.62572936942486,38.58917532257306,204.45342737727623,-44.24634463926317,0.0,7.105676761822798,0.1,0.011203527450561523,0.2563505172729492,0.050115213,0.014375442,-5.061903523359637,-0.1089246664394246,-0.06809133310609125,0.0,19200,2.9595649242401123,0.8824882330480576,0.3442280216275168,-20.147942244809578,0.0
131,1.558727741241455,0.7166592145390922,65.07208998378246,278.07149188469185,-41.07320477769942,3.125,10.119351542992113,0.1,0.01094198226928711,0.2665989398956299,0.05011026,0.010804991,-4.484047249569764,-0.10261228486707961,0.0036377151329204014,3.125,19200,2.9747817516326904,0.44989709095213987,0.2983897672115973,-20.2826568526377,0.0
132,1.751584768295288,3.8113857735573142,88.55072526076802,417.7120520976891,-41.24179818992057,5.208333333333333,10.42544289533002,0.1,0.011921405792236328,0.2565271854400635,0.05223284,0.011170061,-3.654503947257057,-0.11026742008076462,0.019107579919235368,5.208333333333333,19200,2.9511730670928955,0.4052835085765165,0.28329857628712374,-19.946479999073162,0.0
133,1.5218918323516846,-1.9676677541712984,76.31557479097069,537.1961195632304,-43.10159708706391,2.0833333333333335,6.970005029976297,0.1,0.010962724685668945,0.254314661026001,0.049126472,0.015180656,-3.485820327948481,-0.09896683410524082,-0.00980016743857419,2.0833333333333335,19200,2.9388482570648193,0.8810826006163676,0.5543316180711826,-20.013884649695044,0.0
134,1.5342884063720703,-4.111147591195105,73.09340054237714,374.50564859300226,-42.6291136156168,2.0833333333333335,7.017060716081036,0.1,0.011139631271362305,0.2576730251312256,0.050443407,0.014248067,-3.548353054273144,-0.10969724435999462,-0.02053057769332794,2.0833333333333335,19200,2.9875311851501465,0.5684165521647807,0.43190819875884967,-20.071627948030113,0.0
135,1.5468707084655762,-4.674972703181925,71.06037539290696,507.1724238506484,-44.390441526754124,2.0833333333333335,7.0841256194052065,0.1,0.011248350143432617,0.2590036392211914,0.047452156,0.0159861,-3.6610150191640223,-0.10271855549794755,-0.023343555497947536,2.0833333333333335,19200,2.950248956680298,0.4872244198916467,0.43199037364004095,-20.226237997994836,0.0
136,1.5239307880401611,-8.850158764265649,54.31749192904127,390.52518033509443,-43.813469836919026,2.0833333333333335,9.204996913354423,0.1,0.01098179817199707,0.25896739959716797,0.04892238,0.01083479,-4.179929393674185,-0.11107322027215068,-0.0441982202721507,2.0833333333333335,19200,2.9564433097839355,0.7389913574067476,0.4047745154760966,-20.32773228391855,0.0
137,1.6023194789886475,1.136128410706118,66.75599614923887,236.56742677128125,-42.07563598688422,5.208333333333333,10.83963614766694,0.1,0.01112055778503418,0.25467967987060547,0.05324253,0.008971829,-3.648323613236155,-0.10657979315538048,0.005503540177952848,5.208333333333333,19200,2.9717071056365967,0.40536941916015473,0.25225265473096586,-20.51910573093823,0.0
138,1.5402042865753174,-9.901222187367624,45.713816494825544,277.3641837060029,-41.68055951064514,1.0416666666666667,5.777202454952182,0.1,0.010886192321777344,0.25560927391052246,0.052421965,0.017225595,-4.273613470649302,-0.10468158319687108,-0.04947324986353772,1.0416666666666667,19200,2.9260647296905518,1.1458978000554692,0.4599983653201146,-20.61530496822169,0.0
139,1.6487247943878174,-9.022522001510586,52.1248342216374,389.89887656855274,-42.23278590280604,2.0833333333333335,7.842873402578131,0.1,0.010972738265991211,0.25182461738586426,0.050016277,0.011698178,-4.74850432373543,-0.10527825822284524,-0.04506992488951189,2.0833333333333335,19200,2.9395527839660645,0.3488765461733403,0.2824181394953687,-20.63003216958753,0.0
140,1.675063133239746,-5.221695200900416,48.667430414900764,212.09697045850783,-41.205214412369784,2.0833333333333335,7.75760641035782,0.1,0.010805606842041016,0.2581484317779541,0.05040785,0.013208426,-4.795823411451929,-0.1043954478131684,-0.026062114479835075,2.0833333333333335,19200,2.936716079711914,0.36565201402438674,0.2068452012708777,-20.720775649372037,0.0
141,1.524113655090332,4.912527995919227,72.52269838034383,320.2083514040158,-42.84336189840349,2.0833333333333335,7.902701668767006,0.1,0.010715961456298828,0.2540762424468994,0.04611808,0.01326799,-3.8249882707148135,-0.10288435578636995,0.0244073108802967,2.0833333333333335,19200,2.940556049346924,0.5441825093321632,0.36992418708738045,-20.519526768361906,0.0
142,1.5413973331451416,-5.128817057093922,61.22902894728813,396.71494790290654,-43.86198261268623,2.0833333333333335,9.873123162789101,0.1,0.011095046997070312,0.27369213104248047,0.04956237,0.010501092,-3.955371149352725,-0.10956112386317496,-0.025602790529841615,2.0833333333333335,19200,2.9724841117858887,0.4867511589268431,0.30569336247509415,-20.784571130101533,0.0
143,1.532270908355713,1.945337053758454,81.55608104310046,444.9260188971281,-42.32030351029961,3.125,10.162490259513733,0.1,0.010866165161132812,0.26082849502563477,0.051360346,0.009577285,-3.365300329041607,-0.1079428688150668,0.009765464518266542,3.125,19200,3.0373458862304688,0.47444120530794004,0.39226255296330614,-20.55449566700315,0.0
144,1.5268023014068604,-5.577798217964545,53.80957122979027,273.1061501449044,-43.27033677505716,3.125,8.456380555327652,0.1,0.011022806167602539,0.2540771961212158,0.05289874,0.009942719,-3.5865501179339008,-0.10099113812790987,-0.027866138127909845,3.125,19200,3.021411657333374,0.6050137760319368,0.3652240534032726,-20.698486942354098,0.0
145,1.569258213043213,-15.027265484485568,44.6142111777121,274.8955375962341,-41.808982032028766,2.0833333333333335,7.955035569230219,0.1,0.010974407196044922,0.26249170303344727,0.053247333,0.012217665,-4.730621654589068,-0.11862339792574628,-0.07529006459241296,2.0833333333333335,19200,2.9988889694213867,0.31285334368330836,0.21807227971412793,-20.75961173468587,0.0
146,1.5530927181243896,5.612142222320226,76.54590510691568,363.95623157854834,-44.33136337198079,4.166666666666667,7.829979227373846,0.1,0.010927677154541016,0.2580533027648926,0.047840267,0.016045325,-3.6963452668981382,-0.10441077992962715,0.028089220070372855,4.166666666666667,19200,2.9342856407165527,0.3148912901194954,0.28535848378358497,-20.507868071035624,0.0
147,1.7251403331756592,-0.5266728499965124,80.16638857493834,527.3210511365735,-41.09469193608059,3.125,7.551764630532732,0.1,0.011041879653930664,0.2530038356781006,0.047886338,0.01632362,-3.379378025207976,-0.10695846559810283,-0.0025834655981028243,3.125,19200,2.9510645866394043,0.4119584889339547,0.3158050579164958,-20.28166316144167,0.0
148,1.558894395828247,5.475722987611188,84.38557898630192,464.74116192421667,-41.87593503559159,3.125,6.5652231839713115,0.1,0.012478351593017578,0.26087427139282227,0.053427402,0.012189309,-2.49386792392606,-0.09818839569256303,0.027436604307436985,3.125,19200,2.9523704051971436,0.5130218879864791,0.3983612610083648,-20.47436125434436,0.0
149,1.5729806423187256,-8.64218594590386,55.599324269578275,307.6387030574394,-44.36512966471249,2.0833333333333335,6.412922947245271,0.1,0.011099815368652344,0.25974225997924805,0.054411113,0.012497687,-3.10869972612384,-0.11085219321783683,-0.043143859884503484,2.0833333333333335,19200,2.9673385620117188,0.4388239180032544,0.2519674923878661,-20.488721139514467,0.0
150,1.580552339553833,-2.5904401351785813,70.1137627529184,377.26511375431113,-44.501284065907605,3.125,7.392840651427246,0.1,0.011708974838256836,0.2733771800994873,0.04715934,0.013411487,-3.0568737670293142,-0.11038684596475744,-0.01288684596475744,3.125,19200,2.9807558059692383,0.40262998621560764,0.27940771443802065,-20.287727233978295,0.0
151,1.535740613937378,4.0570390625844155,108.5259658217921,686.4976303385077,-42.279490738983114,3.125,8.342103846433643,0.1,0.011603116989135742,0.25936269760131836,0.048351537,0.013542478,-2.3454824840679414,-0.10467328572346335,0.020326714276536675,3.125,19200,2.9684784412384033,0.7244333051284169,0.39681135955835395,-20.085606459494155,0.0
152,1.5665063858032227,16.23817867315567,102.19442206348086,507.7869845429466,-42.414202391442586,5.208333333333333,7.89178982107859,0.1,0.0110321044921875,0.2549448013305664,0.050088808,0.013370938,-0.48711636834558036,-0.10294129669327655,0.08122536997339012,5.208333333333333,19200,2.908205986022949,0.3531036342992354,0.24926439379123488,-19.869827628891464,0.0
153,1.5196688175201416,3.7136220778614706,87.58389335626433,498.12551681535786,-43.74183114399431,4.166666666666667,10.801333945860518,0.1,0.011545181274414062,0.2597665786743164,0.05074402,0.009031347,-0.06704252372487524,-0.10513237917918199,0.018409287487484705,4.166666666666667,19200,2.8339695930480957,0.5962988531773236,0.3441025576577164,-20.277834515856632,0.0
154,1.654381513595581,-5.235439975675146,55.26439358763477,262.00499779895017,-45.36524567497384,4.166666666666667,9.794222499350694,0.1,0.010776758193969727,0.25728917121887207,0.047541033,0.010902018,-0.5838822689199024,-0.10446579767555592,-0.02613246434222258,4.166666666666667,19200,2.8574180603027344,0.8459458630073132,0.32111881516420393,-20.455281338390478,0.0
155,1.7176251411437988,-9.349698753568202,46.924344210561195,221.7243201095875,-40.6344985634709,3.125,8.682462735630143,0.1,0.011589288711547852,0.25846052169799805,0.04882376,0.0112331845,-1.4604639173847325,-0.11438777749782895,-0.04667944416449562,3.125,19200,2.9202804565429688,0.3896212072369323,0.2348067601898287,-20.340719899387317,0.0
156,1.559800386428833,-5.37404479561894,60.072289811176546,328.82607580482414,-41.4373860252379,2.0833333333333335,8.058327494442626,0.1,0.01107931137084961,0.2630152702331543,0.048782293,0.0124985725,-1.8518220052081533,-0.10744252120181648,-0.02681752120181649,2.0833333333333335,19200,2.9090006351470947,0.4756740856899243,0.30339952820119664,-20.70398331075863,0.0
157,1.572244644165039,-3.757245640896061,66.5364503885986,428.80611696298683,-41.295874762930985,1.0416666666666667,8.383798769049283,0.1,0.011661529541015625,0.25504398345947266,0.049404044,0.012975882,-2.042364368776944,-0.10642285744958173,-0.018714524116248358,1.0416666666666667,19200,2.8749213218688965,0.41599287089145304,0.33417196879973166,-20.795270362441038,0.0
158,1.532752513885498,-7.856431409350161,57.29592006491502,302.0535987756067,-39.363677584523785,2.0833333333333335,7.477369993487591,0.1,0.0114288330078125,0.2683110237121582,0.052457724,0.015112772,-2.623771072834266,-0.11090231103642523,-0.03923564436975854,2.0833333333333335,19200,2.881606101989746,0.3046231570152069,0.17444934892343997,-20.81166668968398,0.0
159,1.527019739151001,0.2349594893030774,80.90163925386518,441.2756576813722,-45.60793619409485,3.125,9.731431481041296,0.1,0.011023998260498047,0.2589108943939209,0.047881793,0.010230568,-2.3378980166205316,-0.11272259108052969,0.001235742252803614,3.125,19200,2.867215871810913,0.3724848201324499,0.2644081756817914,-20.666665436008817,0.0
160,1.5610413551330566,-1.364061477277706,77.3230618313992,397.2034796492148,-48.01312914517341,2.0833333333333335,9.428155986073989,0.1,0.011292695999145508,0.26699042320251465,0.05076435,0.01065622,-2.240514362686249,-0.11009926289822476,-0.006765929564891444,2.0833333333333335,19200,2.8494105339050293,0.5461954816941816,0.3727793948372857,-20.684895632093898,0.0
161,1.593383550643921,-2.687691373966121,70.15738660096068,367.5842707251424,-46.456939745477584,3.125,6.660347641367957,0.1,0.01163625717163086,0.2556595802307129,0.04806173,0.017059635,-2.2852320638142363,-0.11088840418398122,-0.013388404183981217,3.125,19200,2.9198713302612305,0.5370784399679764,0.2969472036550035,-20.509296901048124,0.0
162,1.681856393814087,-9.795184155831508,46.75320030934198,260.1236139214623,-42.957280392880726,2.0833333333333335,7.820465758593486,0.1,0.011092662811279297,0.25786447525024414,0.049548507,0.015314359,-3.036227273015964,-0.10477340726264257,-0.04894007392930926,2.0833333333333335,19200,2.905914783477783,0.5432656121246867,0.3693994647918764,-20.520224710913052,0.0
163,1.5269978046417236,10.89684435919218,90.9444382255275,437.63463028415663,-42.805141831188166,3.125,7.8060171137154,0.1,0.011002063751220703,0.2527730464935303,0.048038132,0.013344342,-1.6429201097951498,-0.10338279038511716,0.05432554294821613,3.125,19200,2.922048807144165,0.45243677931564624,0.30482418132588385,-20.593339357204005,0.0
164,1.5308446884155273,-9.66120154790494,42.01841444935059,212.44447946166193,-45.01798495875022,0.0,7.548228469703864,0.1,0.011292219161987305,0.27594995498657227,0.05409586,0.0135460105,-2.4447482536061287,-0.10161185208957503,-0.0482785187562417,0.0,19200,2.9532384872436523,0.7404588373688891,0.2866760969183451,-21.00286914846128,0.0
165,1.528996229171753,7.61961967845473,91.67426113962695,419.33638237363544,-45.58493815114827,4.166666666666667,12.433872329858584,0.1,0.011575698852539062,0.2622065544128418,0.049160242,0.008332862,-1.438311460400043,-0.1020620683542281,0.038146264979105206,4.166666666666667,19200,2.9229884147644043,0.527090733370701,0.32252473791832487,-20.970142156427002,0.0
166,1.5615746974945068,-3.3641993019380565,65.12426781465845,356.3881798949694,-39.470602333097844,3.125,6.991073233770683,0.1,0.010934829711914062,0.25937604904174805,0.0507578,0.013481506,-1.6309002445538443,-0.11010565447044185,-0.0167723211371085,3.125,19200,2.90948748588562,0.42977542530083973,0.2729490890104628,-20.807074900548244,0.0
167,1.5350065231323242,-1.1223550288726447,91.08740651207023,450.19119947405824,-43.33743636572623,3.125,12.154739349443885,0.1,0.01157832145690918,0.2539238929748535,0.05496178,0.0075226333,-1.5800457229857243,-0.11182340472600942,-0.005573404726009423,3.125,19200,2.965216875076294,0.39406993699400733,0.2921394121010041,-20.772717188058934,0.0
168,1.5262393951416016,-8.855224346004785,49.125158981286226,280.3026941784873,-42.855706320483314,2.0833333333333335,9.739223306917841,0.1,0.011301040649414062,0.25504326820373535,0.057132263,0.009958896,-2.307563585287631,-0.11089601935361136,-0.0442293526869447,2.0833333333333335,19200,2.953176736831665,0.3949328102773858,0.24635261768952507,-20.702809055969166,0.0
169,1.6547608375549316,-6.423659960951262,60.9899769842678,335.6316373134213,-45.901515481338265,3.125,8.809721070939988,0.1,0.011319160461425781,0.26418304443359375,0.04717736,0.0121081015,-2.719173222853994,-0.10999248503994184,-0.03228415170660854,3.125,19200,2.9675514698028564,0.3667898320784991,0.264672291432757,-20.837069998059746,0.0
170,1.7215538024902344,-1.6093960095639244,74.77796987218493,365.4306136062559,-43.5598064010059,3.125,10.405305884876357,0.1,0.010899543762207031,0.2529313564300537,0.050022364,0.0084386645,-2.608195501524987,-0.11402828265207188,-0.00819494931873857,3.125,19200,2.9205212593078613,0.4298433300262068,0.29675930120337973,-20.554250298616562,0.0
171,1.5416240692138672,21.795209428205236,109.15118462844336,469.7788598696744,-45.74018923810017,8.333333333333334,9.83755031668639,0.1,0.01073598861694336,0.26100707054138184,0.052294396,0.008733848,-0.16785500855196478,-0.1003490623273832,0.10902593767261677,8.333333333333334,19200,2.89774489402771,0.29746975448899576,0.22695821164378518,-20.411717832383566,0.0
172,1.5091760158538818,5.758103511534462,81.65894921778444,364.49528206530186,-48.10653630423161,3.125,8.314688064494463,0.1,0.010975360870361328,0.25645947456359863,0.052090373,0.013025205,0.42474084345667795,-0.10741846460666517,0.028831535393334846,3.125,19200,2.956855535507202,0.5559373171112943,0.2954148973901862,-20.396121731711666,0.0
173,1.5460808277130127,9.384012590641236,106.99746277997406,722.6870191150413,-43.46070441146459,4.166666666666667,9.750211284676967,0.1,0.010793685913085938,0.2534980773925781,0.04978259,0.011440918,1.3206680181751338,-0.10699949021470294,0.046958843118630356,4.166666666666667,19200,2.895587682723999,0.6304053064606757,0.4061770801755238,-20.39067030181491,0.0
174,1.5423662662506104,-8.355078364272268,53.16559164816121,280.69106725367783,-43.280261852132845,3.125,8.784129163352098,0.1,0.010825872421264648,0.25934839248657227,0.049068198,0.01148857,0.3530933799303937,-0.10422661652121523,-0.04172661652121524,3.125,19200,2.89133620262146,0.7821939687347124,0.31562065746365653,-20.43945375110576,0.0
175,1.5552566051483154,-4.33296830927559,75.61648286186126,473.55745996129446,-47.43685279592001,1.0416666666666667,8.07380858664242,0.1,0.012808084487915039,0.2956657409667969,0.048143845,0.012695689,-0.11551278899020473,-0.11287119619468543,-0.02162119619468543,1.0416666666666667,19200,3.5710415840148926,0.4663437670899321,0.2379871700769998,-20.28294889815557,0.0
176,1.5138719081878662,6.185786862349659,125.23755922580884,766.0897534060537,-43.01571216488509,3.125,9.910314481050122,0.1,0.011090755462646484,0.25655388832092285,0.053503208,0.009251952,0.5146171761437817,-0.10756590698929848,0.03097575967736818,3.125,19200,2.912816286087036,0.552914856223879,0.3591427413154463,-20.207727265137883,0.0
177,1.7034361362457275,-4.7921960293308326,56.03102212077255,265.4936009094961,-45.23151355177046,3.125,8.423734583846482,0.1,0.011347532272338867,0.2610437870025635,0.055072684,0.009494451,-0.016064144403679814,-0.10475696513261101,-0.023923631799277683,3.125,19200,2.8768959045410156,0.8239339628591955,0.2740962450677576,-20.138448065470257,0.0
178,1.5566637516021729,-3.029059772128708,85.33713027689862,581.8986325078636,-45.44665288469513,2.0833333333333335,12.13975949431493,0.1,0.01116037368774414,0.27322840690612793,0.048979286,0.0070584198,-0.3173637071761827,-0.10779626321833259,-0.015087929884999268,2.0833333333333335,19200,2.8855879306793213,0.558207141400217,0.4086794827568111,-20.290662406517896,0.0
179,1.5663599967956543,1.2125387307798203,91.07967520449479,650.4800757005355,-43.99673716578119,2.0833333333333335,7.9107581272401895,0.1,0.011066913604736328,0.256925106048584,0.050484117,0.012456762,-0.1643734633805824,-0.10700592250119499,0.005910744165471685,2.0833333333333335,19200,2.919792413711548,0.5311864648314614,0.3615179830575142,-20.348471423257745,0.0
180,1.5201749801635742,-11.829649586862745,41.27088763135481,264.8200215010081,-43.091658655665476,1.0416666666666667,10.114720886298121,0.1,0.011582136154174805,0.28486204147338867,0.049981903,0.010062742,-1.3309010757287987,-0.10785246961059408,-0.05910246961059409,1.0416666666666667,19200,2.888993501663208,0.7479947323319629,0.33072358295396953,-20.586889282976006,0.0
181,1.5473246574401855,22.076418479214087,108.53006823550196,482.65071048386744,-48.106262411886405,5.208333333333333,7.688012737257922,0.1,0.010701656341552734,0.25893330574035645,0.051584754,0.015938716,1.00983087976549,-0.10165580850145157,0.11042752483188178,5.208333333333333,19200,2.885981798171997,0.565701212635527,0.2789197934973021,-20.652104110882778,0.0
182,1.529891014099121,-7.353532944341386,61.41914279152266,352.25922266331713,-45.412367922150935,2.0833333333333335,6.757564307268742,0.1,0.010967731475830078,0.26961350440979004,0.053793486,0.014049538,0.17349449735480238,-0.1112837351259343,-0.03670040179260096,2.0833333333333335,19200,2.8871114253997803,0.44362010889624937,0.31998505612041134,-20.736213578223435,0.0
183,1.537243366241455,-4.656389870081665,72.79770674035947,357.42228858520446,-45.945407176272035,2.0833333333333335,11.79815155664464,0.1,0.011487722396850586,0.25250744819641113,0.04958905,0.0090724975,-0.3094939393888444,-0.11864499792923382,-0.023228331262567143,2.0833333333333335,19200,2.8955278396606445,0.4293402410371303,0.2697828452842772,-20.613110248499623,0.0
184,1.6859593391418457,7.707821741383661,94.44304094781502,468.8945759279063,-44.87452983685677,2.0833333333333335,8.636789989305798,0.1,0.011296272277832031,0.2630026340484619,0.047885366,0.012598751,0.49223762868840615,-0.10100076139602793,0.03837423860397213,2.0833333333333335,19200,2.9727072715759277,0.34634774736222645,0.28044170521355305,-20.302516341148937,0.0
185,1.5754621028900146,0.7385618541921298,70.59193456492535,331.14518845176417,-43.14105134157375,3.125,6.98173898695511,0.1,0.011121511459350586,0.2561333179473877,0.047657568,0.014034713,0.5168700512387785,-0.10418865251932219,0.003728014147344458,3.125,19200,2.980548620223999,0.45021103256929834,0.22192094332244236,-20.157364508299892,0.0
186,1.5394058227539062,16.8368695837038,137.41660470778484,939.3783890183199,-39.64604279113939,6.25,11.00390097123516,0.1,0.011055231094360352,0.2633051872253418,0.052821986,0.0080723725,2.1488700044852806,-0.10931203005492353,0.08422963661174314,6.25,19200,2.9460365772247314,0.5446160859056868,0.3413374599871536,-19.891217418056915,0.0
187,1.526170015335083,22.890251387976843,139.75167064037745,947.4383789712938,-41.98531382493103,8.333333333333334,8.409129595491564,0.1,0.011003732681274414,0.2659034729003906,0.04753887,0.013436792,4.223008142834438,-0.1054770321531084,0.11452296784689157,8.333333333333334,19200,2.916947364807129,0.4572482162486021,0.33359218168864174,-20.062018166257275,0.0
188,1.5349442958831787,-1.3434972267335172,88.4452803840526,690.8015632817941,-44.340379774840656,3.125,9.607712187214219,0.1,0.01122736930847168,0.2786262035369873,0.049412444,0.0074935094,3.6663576058776424,-0.10751251537313226,-0.007095848706465585,3.125,19200,2.8955609798431396,0.6651876835391304,0.4048901990418587,-20.022139879012975,0.0
189,1.529773235321045,3.6114016500494786,91.41244113661071,454.41718216550146,-45.02063016109891,3.125,9.844701880712222,0.1,0.011271476745605469,0.2590210437774658,0.048469577,0.009957428,3.6608620102948257,-0.11086519002948986,0.01788480997051015,3.125,19200,2.893293857574463,0.32167329995440885,0.12573312189619001,-19.748464762045003,0.0
190,1.5512542724609375,0.5960423834550781,86.12632506759057,406.2880563942464,-43.200805051980524,4.166666666666667,9.04518308361062,0.1,0.01121211051940918,0.266826868057251,0.04830135,0.011351399,3.354380047610851,-0.114239338620327,0.003052328046339675,4.166666666666667,19200,2.896935224533081,0.34664426986613,0.19627609243362173,-19.96379441352987,0.0
191,1.7120628356933594,7.678370155841253,146.07124674630984,1224.4634283488795,-43.94890946654644,3.125,6.873344415341456,0.1,0.011470317840576172,0.2757303714752197,0.050118186,0.0144634005,3.786779058433891,-0.10845190141888239,0.03842309858111757,3.125,19200,2.92561411857605,0.6034229948300958,0.4720630162745694,-20.170582013678803,0.0
192,1.547827959060669,13.056794273796607,102.58096045232917,565.706215409966,-45.903460459084606,6.25,6.162826278280906,0.1,0.01151728630065918,0.2608325481414795,0.052645337,0.013356115,4.713780579970163,-0.10196915820027792,0.06511417513305541,6.25,19200,2.9305121898651123,0.2528746531843674,0.15163139928164696,-19.865686949060485,0.0
193,1.5115060806274414,17.984630662241162,110.30223331976381,587.0018071123608,-44.06090045858642,3.125,9.029502190115036,0.1,0.010988235473632812,0.258328914642334,0.05265056,0.010368099,6.0408655881972635,-0.10670191542494567,0.08996475124172099,3.125,19200,2.897683620452881,0.33971099667513655,0.2052210004628939,-16.199606897390574,0.0
194,1.5598053932189941,16.303705558887387,124.79110277942925,951.3979079513351,-43.94930861988023,4.166666666666667,9.322288531115454,0.1,0.011596202850341797,0.2797966003417969,0.047665536,0.010738889,7.067149585266276,-0.10843616882007268,0.08093883117992733,4.166666666666667,19200,2.8453691005706787,0.5054792224474045,0.3764630564797715,-19.651458157671993,0.0
195,1.5230977535247803,14.871958510948389,92.51817836080404,452.91609127209074,-39.66328612476297,6.25,7.933088226941527,0.1,0.011035680770874023,0.2813241481781006,0.045561444,0.01232734,7.847630477834487,-0.09163612142590259,0.07440554524076408,6.25,19200,2.8231918811798096,0.5569522814811626,0.2699973681901921,-15.658793354469314,0.0
196,1.5353140830993652,6.663162695751374,92.48828833129262,565.4254005426268,-41.94596720192281,5.208333333333333,9.671777601791481,0.1,0.010908842086791992,0.2629520893096924,0.048894677,0.010885968,7.7291836996261765,-0.10601069980307408,0.03315596686359262,5.208333333333333,19200,2.8607044219970703,0.5506419093604397,0.24938973484599494,-13.247243125128819,0.0
197,1.5608723163604736,28.902729929573525,148.66556216392627,947.4869129519642,-44.17552616250542,6.25,11.371333924894081,0.1,0.010886907577514648,0.26596546173095703,0.047721963,0.011023794,9.846538322620912,-0.10335758257061704,0.1441424174293829,6.25,19200,2.8813483715057373,0.3597426412880992,0.2187109957152218,-16.170195466531517,0.0
198,1.543647289276123,14.231272102918345,104.12925889977372,481.2830756997775,-42.27339724559377,7.291666666666667,9.466806308157095,0.1,0.011638879776000977,0.3201162815093994,0.04879932,0.012912952,10.285011700650657,-0.10672367826302133,0.0711929884036453,7.291666666666667,19200,2.9063708782196045,0.23741848248693953,0.16139911679773847,-19.73984029324926,0.0
199,1.7238805294036865,15.33556071292715,104.24517238097658,642.8521632920223,-43.68664402186667,3.125,6.841861693376751,0.1,0.011536121368408203,0.2659339904785156,0.04508864,0.016687397,10.790066601878307,-0.10203347915514877,0.07671652084485124,3.125,19200,2.903865337371826,0.35999844831893807,0.23777061710765965,-19.821214787740566,0.0
200,1.5280754566192627,9.450918821327859,115.67574627093738,843.5064928915731,-46.508573391445466,3.125,7.749260985342235,0.1,0.01154327392578125,0.32433533668518066,0.050132986,0.01376058,10.656151823823262,-0.11062134698838838,0.04687865301161157,3.125,19200,2.9392848014831543,0.33929267970509,0.25867425471121686,-17.6936974695246,0.0
201,1.5134329795837402,15.271676329985366,157.61061455969906,1228.514149672239,-43.903942114977795,5.208333333333333,7.958381401418494,0.1,0.01261591911315918,0.3575265407562256,0.051508132,0.013053621,11.117704274439472,-0.10692884393581763,0.07640448939751564,5.208333333333333,19200,3.5781478881835938,0.3455144668362912,0.27311519302524884,-18.308581012987343,0.0
202,1.5089616775512695,10.686514809622482,125.3804181287338,906.2615774845018,-44.26794781176362,4.166666666666667,10.23883613595481,0.1,0.011043787002563477,0.25666308403015137,0.04856219,0.010374163,11.074585327957774,-0.10862277210196329,0.053252227898036714,4.166666666666667,19200,2.8715925216674805,0.3810213878657105,0.30269142413362665,-16.931485914956962,0.0
203,1.5109302997589111,48.18898637980138,204.13534529246067,1039.3763686381137,-43.55103496234737,9.375,11.7781340087262,0.1,0.011137008666992188,0.30843091011047363,0.053531583,0.007775002,14.786025433142136,-0.09943662601534665,0.2407717073179867,9.375,19200,2.9313292503356934,0.38168145902785194,0.26144169060394984,-19.73504289407507,0.0
204,1.5105032920837402,24.6456801568294,155.6909919486808,983.5021833243163,-46.825605238014894,4.166666666666667,8.725690450964775,0.1,0.011297464370727539,0.3271059989929199,0.045125388,0.011487635,15.771990905510862,-0.10526640485373757,0.1232752618129291,4.166666666666667,19200,2.9243786334991455,0.37392349522720375,0.13978482623603633,-19.66829360445803,0.0
205,1.6507594585418701,2.0650352868764106,90.0660723420719,507.4422798773948,-43.4215049063845,2.0833333333333335,9.63062763140781,0.1,0.011461973190307617,0.3193042278289795,0.045823224,0.010538431,14.401295343647417,-0.1127511934324386,0.010165473234228097,2.0833333333333335,19200,2.8886361122131348,0.5042080594314083,0.21227111179965363,-15.392278238170295,0.0
206,1.695216178894043,0.7036491327851285,76.96700534800453,403.30527201518345,-41.860004964127555,3.125,9.14061843779695,0.1,0.011463403701782227,0.32032060623168945,0.049854733,0.011444954,13.031530722561188,-0.1062381287875232,0.0035535378791434597,3.125,19200,2.8920907974243164,0.35351087277768983,0.12224497093700235,-19.658055523308434,0.0
207,1.5644805431365967,22.41118415821626,140.57698668103166,991.1985687643809,-42.90933209743446,3.125,10.935000557539235,0.1,0.011117696762084961,0.32445430755615234,0.052859366,0.009149281,13.969496066126695,-0.09892661409429175,0.11211505257237496,3.125,19200,2.9490883350372314,0.4093872013066083,0.23878531410361234,-19.639812783460624,0.0
208,1.5304806232452393,23.939914247383225,118.58278868604849,642.3031915056899,-41.08721607550982,3.125,8.179218137397484,0.1,0.01098775863647461,0.2961306571960449,0.047429472,0.012381566,14.966537884252348,-0.09777256542242535,0.11972743457757468,3.125,19200,2.90889835357666,0.3061059542717709,0.17821724326577335,-19.46732334965312,0.0
209,1.5865843296051025,23.510642210297533,140.72688904595705,967.3564473005019,-43.21708760821869,2.0833333333333335,9.70700104397265,0.1,0.01107025146484375,0.26100921630859375,0.051925864,0.012851524,15.820948316856867,-0.10116722416636999,0.11737444250029665,2.0833333333333335,19200,2.8640739917755127,0.34390367574029007,0.22262850299133646,-19.257503993960853,0.0
210,1.5677247047424316,12.189209323145155,119.14166977603014,790.5561199793832,-43.729615966653995,3.125,10.043372612532321,0.1,0.011052608489990234,0.3190028667449951,0.05081854,0.009291896,15.457774417485696,-0.103186924067333,0.060563075932666965,3.125,19200,2.836583137512207,0.30551134624303383,0.19572888338263497,-19.042328315071693,0.0
211,1.6077566146850586,11.835613212027724,101.14654540322053,637.9622907325382,-37.47208427957345,4.166666666666667,7.955458439822521,0.1,0.01100301742553711,0.3144948482513428,0.04665753,0.011942266,15.095558296939899,-0.09952140183756797,0.05902026482909867,4.166666666666667,19200,2.8105292320251465,0.61613651098677,0.17753061050206467,-18.82926826338376,0.0
212,1.574805498123169,-7.561689165792643,60.799275459341224,344.17966270023874,-45.67153574081159,2.0833333333333335,7.9976611860991005,0.1,0.010941505432128906,0.2955765724182129,0.05413919,0.010968641,12.829833550666645,-0.1058969594974376,-0.037771959497437606,2.0833333333333335,19200,2.801957368850708,0.6692145965151206,0.21760362606526307,-18.699176758558565,0.0
213,1.7360353469848633,23.89445989948329,115.65432927998353,561.3954683119479,-45.73112561136525,7.291666666666667,8.66804526319305,0.1,0.010657310485839844,0.25574731826782227,0.053405356,0.012058593,13.936296185548311,-0.09009085590631523,0.11907581076035145,7.291666666666667,19200,2.8423314094543457,0.3687302693526927,0.19026166251936194,-18.891026370461145,0.0
214,1.723522663116455,28.168959315669166,142.37293046226645,835.4858295996164,-43.84883858886208,5.208333333333333,9.465150386755122,0.1,0.011130332946777344,0.3190755844116211,0.05046107,0.01117213,15.359562498560397,-0.1049515974488553,0.14088173588447805,5.208333333333333,19200,2.8511836528778076,0.2190925150139333,0.14185619465553695,-18.948080953003135,0.0
215,1.5274531841278076,25.091650964609922,157.74392117945922,988.3064633370091,-40.16988000120452,5.208333333333333,10.247229837116418,0.1,0.011067390441894531,0.32274937629699707,0.047868118,0.009087483,16.33277134516535,-0.09719570792119703,0.125304292078803,5.208333333333333,19200,2.886380672454834,0.30263130607886896,0.17949820217153775,-18.929646422348455,0.0
216,1.5466926097869873,-7.937550033080302,81.5447706347489,751.3019056013723,-42.11331194492659,1.0416666666666667,6.375862340698569,0.1,0.010904312133789062,0.2551422119140625,0.046595007,0.017074639,13.905739207340787,-0.10400833023618088,-0.03963333023618087,1.0416666666666667,19200,2.8264427185058594,0.6721304022216971,0.29446060739909086,-18.93456031656787,0.0
217,1.5398879051208496,18.38230957621623,117.92051919454973,619.469635972352,-43.88900225448913,4.166666666666667,9.409986581104398,0.1,0.010982990264892578,0.32185983657836914,0.050951526,0.010942293,14.353396244228332,-0.09701215662479379,0.09194617670853955,4.166666666666667,19200,2.9019598960876465,0.2918830740142842,0.15049021518123037,-18.835714937372444,0.0
218,1.531874418258667,39.37408828462241,176.29645094587596,1164.3784758707081,-42.03524280083614,5.208333333333333,9.691473761370018,0.1,0.012611627578735352,0.29250264167785645,0.049001805,0.014014443,16.85546544826774,-0.09599419976413111,0.19692246690253556,5.208333333333333,19200,3.573867082595825,0.3558131909176719,0.1793369150321324,-18.88141223944704,0.0
219,1.5199294090270996,16.986002601710293,111.63251886336825,719.8095082568666,-44.070614168620914,3.125,9.06935810675508,0.1,0.010759115219116211,0.3208191394805908,0.046783503,0.011198546,16.868519163611996,-0.09190886670041243,0.08496613329958752,3.125,19200,2.916794776916504,0.8370511083610166,0.25175115925016606,-18.93071038949143,0.0
220,1.6444346904754639,0.10403629175207385,94.48904201176737,747.3102993424114,-42.038218805462776,3.125,7.776082737826901,0.1,0.012894868850708008,0.2915654182434082,0.04914973,0.012323474,15.192070876426005,-0.10546541575177287,0.0005762509148937908,3.125,19200,3.5534019470214844,0.4248753039565483,0.1245128173079108,-18.941015910893718,0.0
221,1.7109193801879883,15.594392279961207,122.9742917057836,738.5520427840013,-44.03492906839777,2.0833333333333335,9.225117924762099,0.1,0.011048555374145508,0.31363677978515625,0.05366705,0.0114870425,15.232303016779525,-0.10012258891014768,0.07800241108985233,2.0833333333333335,19200,2.8984527587890625,0.4268072437209973,0.18211819662713374,-15.381160950535296,0.0
222,1.5476789474487305,22.720234854877194,122.90743579649919,605.6316956140541,-42.41298891065178,7.291666666666667,7.541438143102432,0.1,0.010989189147949219,0.3068113327026367,0.047452345,0.014084961,15.981096200589294,-0.09616840035071945,0.11299826631594717,7.291666666666667,19200,2.927004098892212,0.4269464134022073,0.07200692387488983,-14.151297209857052,0.0
223,1.5753364562988281,33.161167337917654,159.2062651187393,1092.6536129718754,-41.60496017739071,6.25,10.182425485941016,0.1,0.010802507400512695,0.25667548179626465,0.05226329,0.009935838,17.69910331432213,-0.09289687086779615,0.16564479579887045,6.25,19200,2.9832777976989746,0.33348039341127783,0.15888739972357754,-11.222605792080676,0.0
224,1.5387403964996338,43.915881965803,175.22054110908823,1103.9219660639128,-42.423730063307524,5.208333333333333,8.24644912285423,0.1,0.012508392333984375,0.32308530807495117,0.055609792,0.01113181,20.320781179470217,-0.09414656642908792,0.21918676690424535,5.208333333333333,19200,2.924290418624878,0.3259396866519659,0.18396033019094263,-11.122720280449556,0.0
225,1.5113632678985596,65.6474699790679,191.2027322771342,774.4014966483405,-42.27185360039224,8.333333333333334,7.851610363879829,0.1,0.011446237564086914,0.2525646686553955,0.0542341,0.012021742,24.85345005942999,-0.09068597361420122,0.32827235971913216,8.333333333333334,19200,2.916365385055542,0.17181577100287787,0.07223123530521085,-9.41346169676865,0.0
226,1.5329020023345947,38.79777439110191,165.1853089915497,806.5897647129447,-40.50826463058275,6.25,10.48412426872536,0.1,0.011180400848388672,0.2550694942474365,0.05057872,0.008333766,26.24788249259718,-0.0895101051275769,0.19403156153908982,6.25,19200,2.9094228744506836,0.3016619142318527,0.16795007570822781,-9.844116364582181,0.0
227,1.576002836227417,46.26936967705916,198.80732898099757,927.1408809037767,-44.78559086568556,5.208333333333333,6.819140612109121,0.1,0.01088261604309082,0.2596461772918701,0.04462974,0.01925231,28.250031211043378,-0.1013231604281813,0.231385172905152,5.208333333333333,19200,2.913935899734497,0.18822530444107347,0.08085152740011826,-9.699282891665302,0.0
228,1.707115650177002,25.679882353522697,141.5310528993737,794.5191312917485,-41.73430156046424,4.166666666666667,8.999623011969758,0.1,0.011400938034057617,0.2555208206176758,0.047953095,0.011186856,27.99301632529131,-0.09883744781745744,0.12845421884920918,4.166666666666667,19200,2.857577323913574,0.2624333948811476,0.10109480974819356,-12.19584062309577,0.0
229,1.5265331268310547,43.34354004296796,180.11307553422054,883.5791622985901,-41.009297572386366,4.166666666666667,8.309777234071085,0.1,0.01104593276977539,0.2548391819000244,0.04801391,0.0139969755,29.528068697058977,-0.09198303707837623,0.2167669629216237,4.166666666666667,19200,2.82657527923584,0.2174367409645589,0.1396413861641463,-11.261144399938042,0.0
230,1.5214874744415283,61.35663459605373,214.14069000507206,1039.6810022505965,-40.29493255106657,8.333333333333334,8.38795635760153,0.1,0.01078343391418457,0.2564272880554199,0.04911513,0.012434858,32.71092528695846,-0.08838595509781137,0.30682237823552194,8.333333333333334,19200,2.809098958969116,0.17462710496243258,0.09648149611988523,-7.743694411177161,0.0
231,1.512310266494751,16.3871629142787,122.86294168704038,693.8013040888184,-41.89367265704938,6.25,9.591581597185991,0.1,0.01116323471069336,0.26136088371276855,0.054174125,0.009316886,31.07854904969048,-0.10674616497017687,0.0820038350298231,6.25,19200,2.837665557861328,0.2590107487222138,0.12021648255862716,-6.480428240255238,0.0
232,1.5256705284118652,41.76449261062735,165.7380224164585,773.1432209470039,-43.275445210470544,4.166666666666667,10.35345753559641,0.1,0.011021137237548828,0.2558450698852539,0.05294256,0.00860214,32.14714340578416,-0.09529557569110465,0.20866275764222872,4.166666666666667,19200,2.8170723915100098,0.22746177416643162,0.14231769017279858,-5.827227300472748,0.0
233,1.5248467922210693,14.34064823968649,109.31164698609719,513.3299295197733,-41.810201591150665,5.208333333333333,10.534637466518364,0.1,0.011033058166503906,0.25634336471557617,0.052044448,0.0074509797,30.3664938891744,-0.10096129547515291,0.0713303711915138,5.208333333333333,19200,2.8361740112304688,0.2223107232296239,0.1045264695530576,-6.0597148411989785,0.0
234,1.5450067520141602,40.84543134951351,180.7268323350673,1173.9302868895154,-41.3507039932072,9.375,8.8214867464424,0.1,0.010618925094604492,0.25325775146484375,0.048761137,0.01081484,31.414387635208314,-0.0961580659392917,0.20425860072737492,9.375,19200,2.8436832427978516,0.3596793023673611,0.1579610768229389,-5.788876686555945,0.0
235,1.6329174041748047,20.61324235305643,127.79296519266151,616.0531934021221,-44.44713121253132,4.166666666666667,7.456676051749789,0.1,0.011038780212402344,0.2551584243774414,0.04636317,0.012006328,30.334273106993127,-0.09314840794897772,0.10289325871768899,4.166666666666667,19200,2.8863987922668457,0.1590357635268362,0.09911151795478045,0.9750532458958352,0.0
236,1.7311043739318848,75.45309908621748,205.3095187116233,850.8972417895794,-38.10220303887129,11.458333333333334,9.510586752278853,0.1,0.011306285858154297,0.2550215721130371,0.052867696,0.010072521,34.84615570491556,-0.08936125140348132,0.3773054152631854,11.458333333333334,19200,2.8661270141601562,0.21145611960148775,0.0945105937776001,0.868215445497686,0.0
237,1.5231099128723145,18.050751418050837,116.60364857147286,698.1217932967737,-39.60613578582579,2.0833333333333335,6.878965273682191,0.1,0.010779619216918945,0.30878734588623047,0.045824744,0.013714132,33.16661527622909,-0.09555184168218966,0.08986482498447701,2.0833333333333335,19200,2.7967543601989746,0.20745368002331224,0.11626732565034126,2.8163232821320676,0.0
238,1.5385465621948242,32.017251736003836,167.2836134937989,958.7209758952871,-39.65415531754238,6.25,8.924390638303988,0.1,0.01062774658203125,0.3073766231536865,0.04807616,0.0116850315,33.05167892220656,-0.0955091195375531,0.16011588046244687,6.25,19200,2.741992473602295,0.20276222621646267,0.0927109526794,-0.7123178061561246,0.0
239,1.5114898681640625,66.81357850301568,224.3811620595951,1289.5688231256258,-42.54860496517804,10.416666666666666,7.669505145117894,0.1,0.01089167594909668,0.2569608688354492,0.050771248,0.010162828,36.42786888028748,-0.08944816238417648,0.33346850428249014,10.416666666666666,19200,2.816896915435791,0.4978092492397033,0.1105589394551471,-2.64140804798687,0.0
240,1.5134153366088867,45.066789314263055,159.3027521944625,770.2827103803652,-37.8580365179359,8.333333333333334,9.2597244651192,0.1,0.010914802551269531,0.3102126121520996,0.048600744,0.009154203,37.29176092368504,-0.09567299813502439,0.225160335198309,8.333333333333334,19200,2.8649752140045166,0.0970688566583876,0.04403677882368855,-7.214736050038204,0.0
241,1.5102310180664062,30.89300078324038,154.10425779011112,785.2149892414367,-41.68985303387249,5.208333333333333,6.458922118091677,0.1,0.01116943359375,0.3159220218658447,0.05053936,0.016460568,36.65188490964057,-0.09632330280014623,0.15430169719985376,5.208333333333333,19200,2.897113084793091,0.19221358301402713,0.0991843378718126,-8.99183824716544,0.0
242,1.577441692352295,44.73035565986188,174.84071128644825,1008.5535004241419,-42.018888566659975,5.208333333333333,8.901426604596836,0.1,0.011013031005859375,0.2595937252044678,0.047255404,0.010712199,37.4597319846627,-0.08821286740618624,0.22282879926048046,5.208333333333333,19200,2.946028709411621,0.5854348036614809,0.16883731043206476,-9.571901299104026,0.0
243,1.699706792831421,24.05929327795729,143.51347774227503,660.1857024235749,-44.081438379469276,6.25,9.931987564759607,0.1,0.010830402374267578,0.31713223457336426,0.048640262,0.010116407,36.11968811399217,-0.10319067926607252,0.12035098740059418,6.25,19200,2.9258339405059814,0.3329097953717579,0.11322279735417642,-10.507098480721606,0.0
244,1.5080997943878174,28.66659807847962,156.37399856239935,950.9776299747724,-37.15331242860881,6.25,8.788015855783678,0.1,0.010886669158935547,0.2915360927581787,0.043088313,0.014008301,35.37437911044091,-0.09058343336964025,0.1431665666303598,6.25,19200,2.9106497764587402,0.22700072536054577,0.15833593606902746,-11.939706571819844,0.0
245,1.5301048755645752,49.779715903343316,196.94022786770935,1093.061893677243,-41.59071336769163,6.25,8.368299192088735,0.1,0.011076211929321289,0.25924158096313477,0.04898657,0.008891191,36.81491278973115,-0.09836171297850778,0.24851328702149214,6.25,19200,2.9328696727752686,0.19274425543065823,0.07641948258264035,-13.012882942278111,0.0
246,1.5353987216949463,42.635100504075126,173.15614686410413,829.9522674416731,-39.413097401396804,6.25,6.707008282044603,0.1,0.010816335678100586,0.32289814949035645,0.04577675,0.014590745,37.39693156116555,-0.08784880228848979,0.21298453104484358,6.25,19200,2.905003547668457,0.29774144539826425,0.1420587507245135,-11.811011551492705,0.0
247,1.5110833644866943,35.59493814362878,149.49954678765224,869.8277312067079,-42.843866939281085,4.166666666666667,8.691384299601078,0.1,0.010984420776367188,0.2557559013366699,0.04771095,0.011330319,37.21673221941188,-0.09199975998138586,0.17758357335194744,4.166666666666667,19200,2.8564977645874023,0.23300797080303978,0.13130117566292276,-17.745298601132582,0.0
248,1.5219366550445557,21.33507649627411,137.43139212481583,928.0163287446401,-39.94873679128914,4.166666666666667,5.632196721243993,0.1,0.01090860366821289,0.31598520278930664,0.048232168,0.018289538,35.628566647098104,-0.1009951699320608,0.10650483006793919,4.166666666666667,19200,2.824740409851074,0.136247454891128,0.06793987869091771,-16.420220065808852,0.0
249,1.5235042572021484,28.266590675872845,162.5504234168542,835.6023236487873,-40.69926841837632,6.25,7.83525530930449,0.1,0.010900020599365234,0.2520945072174072,0.05152983,0.011792511,34.89236904997558,-0.09550698774420141,0.14115967892246528,6.25,19200,2.844287157058716,0.0950868629620536,0.053001933927310625,-17.764853182594212,0.0
250,1.5278539657592773,3.9694057370149274,86.89595924115412,420.36614372214103,-40.58372250819035,4.166666666666667,8.144077890966265,0.1,0.01106119155883789,0.31481027603149414,0.049805343,0.012886343,31.800072718679512,-0.09240350467072901,0.019679828662604353,4.166666666666667,19200,2.8673136234283447,0.17168286093386517,0.04889879357364912,-17.57139580000875,0.0
251,1.6826908588409424,33.21314847236466,169.64277723989105,879.1450009873521,-42.061673198794935,6.25,7.591389761783782,0.1,0.010826826095581055,0.2850513458251953,0.051052667,0.01353142,31.941380294048027,-0.09514890945850513,0.16589275720816152,6.25,19200,2.9255499839782715,0.1373023417919349,0.06599716453928545,-14.598065700806035,0.0
252,1.548238754272461,70.75177957723612,200.39321565041402,1034.5385829999325,-42.51480772710057,6.25,9.621020223521272,0.1,0.010976791381835938,0.25877904891967773,0.04876921,0.010580336,35.82242022236684,-0.10036787039662454,0.35338212960337545,6.25,19200,2.932748794555664,0.2194736931616464,0.09488800274665118,-10.464470762624417,0.0
253,1.5156023502349854,25.66012455573666,142.42803324682285,782.4710465896263,-39.63662655791396,4.166666666666667,7.919084396808401,0.1,0.01100301742553711,0.2864501476287842,0.05104734,0.011840026,34.806190655703816,-0.0993806380048093,0.1283276953285241,4.166666666666667,19200,2.9345531463623047,0.17547737434616661,0.062167655518012184,-17.19709088636152,0.0
254,1.5274710655212402,46.91882032350742,160.8409524631718,782.7072362848477,-41.03320269521585,5.208333333333333,9.181767953895202,0.1,0.01095724105834961,0.3228433132171631,0.047888476,0.010015539,36.017453622484176,-0.09433022285361514,0.23400311047971814,5.208333333333333,19200,2.9404213428497314,0.19713516623795627,0.09070402805926969,-7.63621248791801,0.0
255,1.5313920974731445,82.01773714879285,210.5169142099784,774.9627778109577,-39.39083788453106,13.541666666666666,7.322762526838671,0.1,0.01091313362121582,0.2593214511871338,0.052845843,0.013190633,40.61748197511505,-0.08405746563493754,0.4099008676983958,13.541666666666666,19200,2.914480209350586,0.13208696651536547,0.06342609160454746,-5.437225731338769,0.0
256,1.5466701984405518,52.483132126046456,191.579213196409,1032.9861681348436,-40.9552572353114,9.375,6.739531219064211,0.1,0.010868072509765625,0.25951409339904785,0.044466555,0.014151228,41.80404699020819,-0.09837959646222731,0.262453736871106,9.375,19200,2.9209933280944824,0.11212759477817379,0.06916359255079935,-2.5902406106449654,0.0
257,1.5427489280700684,11.122344159129447,89.89696130173063,394.34240087544055,-39.39112455232334,4.166666666666667,7.173632119799257,0.1,0.011037826538085938,0.25920605659484863,0.04889694,0.013313261,38.73587670710032,-0.09395346856055804,0.05562986477277524,4.166666666666667,19200,2.900784969329834,0.41850846859678326,0.11922781728679321,-0.8935760085373801,0.0
258,1.704023838043213,104.19509070220802,208.16877676855015,894.8766773873753,-41.96523475144074,14.583333333333334,7.64349956536763,0.1,0.010653495788574219,0.2541534900665283,0.047854852,0.013460307,45.28179810661109,-0.07692249561458357,0.5207858377187498,14.583333333333334,19200,2.8388078212738037,0.20011366831971447,0.07070801275623093,-2.232503025569433,0.0
259,1.5701403617858887,51.31654643275427,200.6384643798433,1422.081419015908,-39.2361673611925,6.25,9.123680361086972,0.1,0.011120080947875977,0.2592754364013672,0.04573841,0.012114189,45.88527293922541,-0.09214832977724291,0.25660167022275715,6.25,19200,2.857717514038086,0.30501545516937295,0.10516538026744829,-2.6318135209794127,0.0
260,1.5679848194122314,58.84750744877538,179.7035178057107,841.3276713340664,-39.50994448316262,8.333333333333334,9.859213692954151,0.1,0.011495590209960938,0.31608128547668457,0.051898666,0.011425584,47.181496390180406,-0.08991381541709036,0.2936278512495763,8.333333333333334,19200,2.8681843280792236,0.20665084545374157,0.06382937284460878,2.3719735731366822,0.0
261,1.5776679515838623,50.57314213153315,178.96340484058115,825.7245563653042,-41.56446781733858,5.208333333333333,7.057397316651666,0.1,0.011121988296508789,0.2565624713897705,0.050131384,0.016041845,47.52066096431568,-0.0937551343521243,0.25291153231454233,5.208333333333333,19200,2.852623224258423,0.14635380926864694,0.0828186511797648,10.971576985922916,0.0
262,1.5732088088989258,66.46005283738988,231.1758403866445,1118.7111017922157,-42.482959137885054,10.416666666666666,8.216979066618816,0.1,0.011090517044067383,0.31612682342529297,0.04857078,0.011271862,49.4146001516231,-0.0910059689524901,0.3319106977141766,10.416666666666666,19200,2.8714334964752197,0.13092518780457923,0.04939842643899569,6.64396553873477,0.0
263,1.5635149478912354,86.5131930569417,247.26522740601592,1192.8232112306378,-38.50060590691499,10.416666666666666,10.974991969651802,0.1,0.011504888534545898,0.25515198707580566,0.052290644,0.0099265585,53.124459442154965,-0.08949737869618407,0.43175262130381603,10.416666666666666,19200,2.8851215839385986,0.22398385274516963,0.07460350535300984,0.42551799384865063,0.0
264,1.6000819206237793,73.85295311001437,225.52220199997538,1056.4418387962003,-41.185990458811176,7.291666666666667,6.996799127263736,0.1,0.010910511016845703,0.3141903877258301,0.049741846,0.0152897565,55.1973088089409,-0.09050151754994236,0.36929014911672436,7.291666666666667,19200,2.8941190242767334,0.09502560564341309,0.05555781999525365,-2.890880505159455,0.0
265,1.5654022693634033,62.37862118171147,202.91521105143255,939.9654778426635,-41.284507335635865,8.333333333333334,7.724453798552169,0.1,0.012501716613769531,0.29378342628479004,0.05311094,0.011452945,55.91544004621797,-0.09266504165112621,0.3119182916822071,8.333333333333334,19200,3.5672607421875,0.09335662800830832,0.05127657138418392,-2.2589619792733755,0.0
266,1.7234761714935303,117.09373928602547,275.1883149210893,1156.907765761481,-38.74895919860427,12.5,5.119823446632576,0.1,0.01230168342590332,0.34032249450683594,0.044538353,0.017426977,62.03326997019872,-0.08596450003434992,0.5852854999656502,12.5,19200,3.5253968238830566,0.07637106875613334,0.038665316896422997,1.4050604017926176,0.0
267,1.7127320766448975,73.43591148591383,226.55366136362332,1043.2067305655517,-41.377998276603535,9.375,7.698714944256357,0.1,0.012724637985229492,0.28931307792663574,0.051435165,0.012031307,63.17353412177023,-0.09321167225605931,0.36699666107727397,9.375,19200,3.525752067565918,0.1304154159825119,0.047998259662378466,26.233429317194968,0.0
268,1.5408785343170166,70.86445319205104,226.09754903293094,1006.0993089553914,-38.260479160947185,7.291666666666667,7.65122338865802,0.1,0.012519598007202148,0.3542294502258301,0.052870706,0.012553097,63.942626028798315,-0.08816465601465151,0.3539186773186818,7.291666666666667,19200,3.521787405014038,0.1983944667141342,0.03977423085969832,30.255992009773337,0.0
269,1.546614170074463,66.28561745121054,209.02421707134627,1023.7517476191902,-40.7922632538824,6.25,7.848447714868159,0.1,0.01069784164428711,0.29387664794921875,0.05112692,0.012079984,64.17692517103954,-0.08105872814306316,0.33102460519027016,6.25,19200,2.8022351264953613,0.16544141376131483,0.09873341060235741,40.91037273583959,6.25
270,1.5713167190551758,47.55601499104343,175.2094644417136,846.1984627201083,-39.938847007027654,5.208333333333333,8.576632316341037,0.1,0.011122465133666992,0.3193025588989258,0.052859277,0.011500555,62.514834153039935,-0.0955112631785029,0.23740540348816377,5.208333333333333,19200,2.827397108078003,0.35512540361536205,0.05860067074582733,42.80147952199248,6.25
271,1.5140604972839355,101.16391943892148,254.7648085551865,956.0249339759754,-41.633962169798636,12.5,6.9053987902290785,0.1,0.010803461074829102,0.31102752685546875,0.049195003,0.014586637,66.37974268162809,-0.09041402762482664,0.5054193057085068,12.5,19200,2.820747137069702,0.2352019422259114,0.051286507175571504,38.25605584937113,6.25
272,1.5441579818725586,70.88415778232705,217.83728840463954,1202.862677452796,-42.121927350057945,7.291666666666667,9.018475165059277,0.1,0.010944366455078125,0.2982206344604492,0.048814785,0.012261669,66.83018419169798,-0.09347051997181051,0.3540294800281895,7.291666666666667,19200,2.8330650329589844,0.11494573137697464,0.07165260718982056,43.80937934500305,6.25
273,1.521575927734375,71.39701942587298,215.85520307451225,1026.5880771627758,-40.58450674512748,6.25,7.9791684067425654,0.1,0.01106405258178711,0.25838708877563477,0.052617677,0.01103503,67.28686771511548,-0.088205084173317,0.3563782491600163,6.25,19200,2.827298164367676,0.11632481368638198,0.07046977783276484,37.34571017718466,6.25
274,1.633164405822754,67.67557985960275,221.02205697406816,1194.8836263589048,-40.270547627909615,7.291666666666667,7.471999510188852,0.1,0.011253833770751953,0.31477999687194824,0.049503054,0.015372971,67.32573892956421,-0.09117764556184083,0.3375723544381592,7.291666666666667,19200,2.8146772384643555,0.17297701576094074,0.05395510067424032,31.65162047503949,0.0
275,1.6792612075805664,36.51677883770518,166.5474578705994,836.3892258712367,-40.799590626162235,5.208333333333333,7.297765232818177,0.1,0.010792016983032227,0.25411009788513184,0.053400014,0.0121218795,64.24484292037832,-0.09820633488575586,0.18221033178091087,5.208333333333333,19200,2.8434131145477295,0.1330850996198745,0.04587116075401,37.347337701003745,6.25
276,1.534111499786377,76.37227821654416,211.47653627579925,1069.4741618039477,-42.00641145152386,7.291666666666667,11.16882355938351,0.1,0.010927915573120117,0.31028103828430176,0.0483572,0.008981641,65.4575864499949,-0.08832778543905014,0.3818805478942832,7.291666666666667,19200,2.8601417541503906,0.1369328944030585,0.10534506548834283,43.64816678558348,6.25
277,1.5792534351348877,67.38641866335433,192.7435571521461,780.6377821120266,-39.74530224680455,10.416666666666666,7.925543785906706,0.1,0.010783910751342773,0.3182058334350586,0.051533606,0.012306528,65.65046967133085,-0.0867974178799595,0.33632758212004044,10.416666666666666,19200,2.814868450164795,0.08615338829738305,0.04078469417755035,44.613467458849655,6.25
278,1.5715787410736084,82.80767442469407,246.18759676888016,991.8292234859006,-42.27804677004402,11.458333333333334,7.249283865971544,0.1,0.010870218276977539,0.2901763916015625,0.04901557,0.014740061,67.36619014666718,-0.09237630238043576,0.4136653642862309,11.458333333333334,19200,2.7988665103912354,0.08743141049977987,0.02704995344468704,45.34255985464106,6.25
279,1.6092398166656494,55.22303645666968,179.94035433897668,857.488752266576,-40.895224830161865,7.291666666666667,7.95119209395106,0.1,0.010815858840942383,0.2916290760040283,0.05060992,0.0128022395,66.15187477766743,-0.09155446935126225,0.2759455306487377,7.291666666666667,19200,2.801398515701294,0.18165517909648765,0.06373621769567656,46.35737109201517,6.25
280,1.5686051845550537,69.6997507199646,204.9418975319374,914.0293444900401,-37.65499395653977,9.375,8.249522482997936,0.1,0.010945558547973633,0.3186483383178711,0.047316413,0.014424621,66.50666237189715,-0.09293957608514114,0.34789375724819216,9.375,19200,2.787954092025757,0.10140157872085269,0.03468087934649854,44.50972863088931,6.25
281,1.5476670265197754,51.34661762925479,166.62179254907124,653.2634238766783,-40.74359890388684,5.208333333333333,6.704414167850327,0.1,0.010975360870361328,0.26607418060302734,0.052644856,0.01442885,64.99065789763291,-0.09510753253887883,0.25635080079445455,5.208333333333333,19200,2.8000667095184326,0.16462913563706655,0.03512389023352335,47.72103908380572,6.25
282,1.672652006149292,84.07872237689666,216.64109015498227,820.5256979240265,-38.817452990427505,12.5,7.629576842954831,0.1,0.011199474334716797,0.2583186626434326,0.05133418,0.011817863,66.8994643455593,-0.07998819075885714,0.4204284759078096,12.5,19200,2.8097569942474365,0.18392497249169137,0.042628963649942946,49.01161862418824,6.25
283,1.704176902770996,49.71170191967019,199.73658817074977,1026.555248159065,-39.13322919433157,6.25,6.943019581146454,0.1,0.012823343276977539,0.3193645477294922,0.050570305,0.014525129,65.18068810297038,-0.09245145220213519,0.24817354779786482,6.25,19200,3.468890428543091,0.09502515534665087,0.03406403988714088,34.49137916542969,0.0
284,1.5758795738220215,70.2476293039437,249.16476002592583,1107.9093253218082,-41.47428836362945,10.416666666666666,9.80352225457612,0.1,0.01238560676574707,0.28852224349975586,0.05478509,0.008303746,65.68738222306771,-0.0933176949447488,0.35084897172191787,10.416666666666666,19200,3.464322566986084,0.09314553563802931,0.022024313040747225,35.82951627947838,0.0
285,1.5792553424835205,82.48942962397805,245.30166714833447,1179.0873220765648,-42.275987702321444,6.25,7.228067109472782,0.1,0.010909318923950195,0.2773911952972412,0.050127063,0.014325726,67.36758696315874,-0.09065105881079583,0.41101560785587093,6.25,19200,2.796178102493286,0.13993373316905228,0.04975306608504144,52.11578462668791,6.25
286,1.5441076755523682,87.24124578585554,267.26544020692387,1126.981894685722,-39.36310744250034,9.375,8.775267714779899,0.1,0.01093435287475586,0.311359167098999,0.049401913,0.011216326,69.35495284542843,-0.08627159325394222,0.4358117400793912,9.375,19200,2.872727870941162,0.147370170780903,0.055581792486392535,52.88406439371384,6.25
287,1.5340931415557861,52.74770285195192,180.3883598786074,986.089093168826,-38.40497180205142,6.25,7.562976545305273,0.1,0.011014699935913086,0.30812716484069824,0.04805511,0.0136207845,67.69422784608078,-0.09165445004511315,0.26272054995488686,6.25,19200,2.8610479831695557,0.10707742060952812,0.04655757142319419,54.4069491538239,6.25
288,1.5343952178955078,70.82002310782464,213.40221184382702,1085.741832508855,-42.003586701782105,10.416666666666666,7.44718040742668,0.1,0.01072549819946289,0.2545595169067383,0.05293332,0.011977313,68.00680737225517,-0.08753885408907743,0.3541278125775893,10.416666666666666,19200,2.8760437965393066,0.0937079657407164,0.056916528808902175,59.68411251876779,6.25
289,1.526803970336914,55.07881604744301,222.00447360914646,1226.933500056029,-44.803365592084965,6.25,9.989353726745932,0.1,0.011128664016723633,0.31016016006469727,0.05235181,0.010516296,66.71400823977396,-0.09435691750359859,0.2752264158297347,6.25,19200,2.887218713760376,0.15317801924124724,0.042131688641481965,58.19230200491137,6.25
290,1.641547679901123,73.51028878138358,233.88017776345458,1183.9640768861818,-39.32969242046391,9.375,5.745156924982552,0.1,0.010987997055053711,0.2575535774230957,0.050042894,0.018624663,67.39363629393492,-0.08367200909267047,0.36674465757399616,9.375,19200,2.851900815963745,0.1396167037958599,0.059763051121036574,47.59714496943425,6.25
291,1.7099533081054688,33.02793216482433,167.77215925245125,845.05415760329,-42.31444803009584,5.208333333333333,9.391828269081772,0.1,0.011280536651611328,0.31578731536865234,0.048162226,0.011271512,63.957065881023865,-0.09503494932127322,0.16475671734539343,5.208333333333333,19200,2.8349215984344482,0.1582679897608243,0.09540497471362376,32.86731845140385,6.25
292,1.5054152011871338,73.07194820508988,236.4250133340438,1034.5919124080594,-40.16412283032925,11.458333333333334,7.278329699599563,0.1,0.010875940322875977,0.3143179416656494,0.050446898,0.012843097,64.86855411343046,-0.09336320052556273,0.36476179947443726,11.458333333333334,19200,2.815046548843384,0.15349938005349673,0.04152799161400086,23.420353396598117,6.25
293,1.5183978080749512,63.59578983627995,226.6811921486054,1071.7421679062322,-40.97538091642078,9.375,8.09748985515606,0.1,0.010785579681396484,0.25511717796325684,0.052472904,0.012204949,64.74127768571542,-0.08492010220322706,0.3175798977967729,9.375,19200,2.835897922515869,0.13424166988997427,0.03629151173253334,20.144495006331308,0.0
294,1.5255348682403564,102.44472045566306,257.6363219274913,993.7479562414027,-41.64237763515403,12.5,9.340597815379278,0.1,0.010771751403808594,0.2561330795288086,0.048970707,0.010799771,68.51162196271018,-0.0900519688772858,0.5118230311227142,12.5,19200,2.8296573162078857,0.11621717424792181,0.031087434972060672,6.320667750429761,0.0
295,1.5245349407196045,36.09211144603518,188.07253372910137,1086.715508726658,-39.63256971957961,5.208333333333333,8.345152830823451,0.1,0.011042118072509766,0.31310200691223145,0.050026592,0.011227839,65.26967091104268,-0.09618597133977924,0.17985569532688742,5.208333333333333,19200,2.825425148010254,0.3391791536469157,0.06698288098986482,22.677023405164388,6.25
296,1.511474609375,135.0833316974886,311.52127328268233,1124.154540951237,-41.74945625899747,15.625,7.756208925965306,0.1,0.010789632797241211,0.2764148712158203,0.05172046,0.012357809,72.25103698968728,-0.08061383180690578,0.6745945015264275,15.625,19200,2.843928098678589,0.13922618597117356,0.034879527302194645,44.2880501604553,6.25
297,1.5315685272216797,67.91578769170629,214.20804299558037,1092.143698155071,-41.22670476895004,9.375,9.192555027162376,0.1,0.011115312576293945,0.3069024085998535,0.05055495,0.010097358,71.81751205988918,-0.08789484200377601,0.33939682466289073,9.375,19200,2.85908842086792,0.13567507768797532,0.07757110509222534,46.06057562429661,6.25
298,1.6408708095550537,72.98362213864456,226.0581516555179,1174.7304508031148,-40.28466884169412,10.416666666666666,9.848362189086128,0.1,0.010775327682495117,0.2529146671295166,0.046760228,0.009338497,71.93412306776472,-0.0854867962573781,0.36430487040928855,10.416666666666666,19200,2.852602005004883,0.09123181954396264,0.03310045710445559,25.72414401947487,6.25
299,1.6928753852844238,59.931486920144685,209.05847065922478,1155.5100066716443,-37.25579879203169,8.333333333333334,7.749618558574348,0.1,0.011214256286621094,0.3154444694519043,0.05171813,0.012103578,70.73385945300272,-0.0819901337825457,0.2994681995507877,8.333333333333334,19200,2.8485066890716553,0.12815952817565163,0.057095458039566636,17.69342804974771,0.0
300,1.5608220100402832,71.5606745625732,227.8903072147612,1216.2229480000265,-39.049921621394134,6.25,12.047603334288812,0.1,0.011165380477905273,0.30250024795532227,0.051977035,0.007067396,70.81654096395977,-0.0851016435944373,0.3571900230722294,6.25,19200,2.8982858657836914,0.18282684652803732,0.06041678635835379,18.740462291005546,0.0
301,1.5123753547668457,74.6887679053553,215.18843475259635,917.6622489306515,-40.49246910423581,10.416666666666666,6.592918405429851,0.1,0.010998010635375977,0.2704477310180664,0.050888855,0.013883805,71.20376365809932,-0.09236612112966265,0.37305054553700395,10.416666666666666,19200,2.917712450027466,0.09624191635988961,0.02620665776322852,25.331436284272613,6.25
302,1.5121181011199951,68.83076754769462,202.726260860375,937.9434762147481,-39.833086663700236,9.375,8.21748999928927,0.1,0.011322736740112305,0.2706904411315918,0.05034131,0.012448628,70.96646404705885,-0.08935908807477061,0.3433492452585627,9.375,19200,2.926149368286133,0.21578545604666116,0.05999692467464841,18.080268899206374,0.0
303,1.5331377983093262,72.88982018985935,218.95463874474265,1078.627544138923,-39.49017350620167,6.25,8.463491319677091,0.1,0.010977983474731445,0.26061129570007324,0.05530487,0.01121654,71.1587996613389,-0.08575471530133506,0.36382861803199823,6.25,19200,2.8967297077178955,0.11111309462311797,0.03298325167710279,5.753055165706176,0.0
304,1.5496137142181396,77.27236790715389,249.0362147249557,1117.3447241202894,-38.510175396280836,8.333333333333334,7.304543460270319,0.1,0.01103067398071289,0.2537405490875244,0.053087667,0.012778922,71.77015648592041,-0.08675557987564979,0.38532775345768355,8.333333333333334,19200,2.8849642276763916,0.11702411204546573,0.04461991317643714,4.5725490447742825,0.0
305,1.7372581958770752,52.829701201830154,181.5572999333723,897.3393268555657,-41.16237342623663,6.25,8.228741713935623,0.1,0.010960102081298828,0.3106997013092041,0.052160315,0.011699079,69.8761109575114,-0.083339068860599,0.263535931139401,6.25,19200,2.865447521209717,0.07590003481215517,0.03247407617668407,5.544240422289299,0.0
306,1.537107229232788,58.30736308691474,219.1325726720622,1139.2458002571345,-38.79453427533143,6.25,8.22279938762275,0.1,0.010565757751464844,0.3150153160095215,0.04820085,0.012859055,68.71923617045174,-0.08949450846425629,0.2913388248690771,6.25,19200,2.856903314590454,0.12546711587207815,0.03846262965499169,4.17352333368745,0.0
307,1.5375702381134033,60.831432779184524,197.06290928514468,994.4701974752383,-42.4107813941646,6.25,7.8631506791752255,0.1,0.010701656341552734,0.30811619758605957,0.051068313,0.0118555,67.93045583132502,-0.0851871906659077,0.30397947600075886,6.25,19200,2.8613338470458984,0.13133587550750928,0.04676847263284271,4.771916744493854,0.0
308,1.503103256225586,67.70047559986146,205.46278814684266,674.414412063683,-41.384387396020465,10.416666666666666,10.963914517286677,0.1,0.010625600814819336,0.31554412841796875,0.04473107,0.010133988,67.90745780817866,-0.09085378298368536,0.33810455034964787,10.416666666666666,19200,2.809835433959961,0.1275725391892586,0.042743702282770496,31.861330660737192,6.25
309,1.5050454139709473,99.07723584072325,243.03841047862034,974.973028107566,-41.46122182364293,10.416666666666666,7.9858632179417866,0.1,0.012516021728515625,0.3339114189147949,0.050931767,0.012351971,71.02443561143312,-0.08169802735968384,0.49434363930698283,10.416666666666666,19200,2.740281343460083,0.16378989140856973,0.036776625136041984,38.73803412435112,6.25
310,1.5034279823303223,45.66483279172201,177.62196147662186,769.5222045797768,-38.19698073362378,6.25,9.217033643870426,0.1,0.010891437530517578,0.31165003776550293,0.05074375,0.010596106,68.488475329462,-0.08477410706822179,0.22772589293177825,6.25,19200,2.739423990249634,0.11052090062789648,0.04930110508734533,32.2112096161696,0.0
311,1.5371990203857422,72.97873073281208,217.17245881236275,965.727417359597,-36.444341388485036,10.416666666666666,9.285291150335043,0.1,0.010801076889038086,0.2884714603424072,0.049614917,0.011716988,68.937500869797,-0.08343489100145672,0.3646901089985433,10.416666666666666,19200,2.766124725341797,0.17438989386911766,0.061119812606836466,45.821150858270094,6.25
312,1.5272529125213623,90.47712303421712,234.3749750070874,995.283848391487,-40.710210000493056,7.291666666666667,9.55240589029674,0.1,0.011689901351928711,0.25824594497680664,0.047639877,0.010067125,71.09146308623902,-0.08404283774252336,0.4519988289241432,7.291666666666667,19200,2.8028724193573,0.1423071622971716,0.037601668081544255,47.05206088643891,6.25
313,1.6982359886169434,122.48949626752041,250.18069408088593,1140.2817127155859,-40.133148039253626,12.5,9.712656308699762,0.1,0.011165380477905273,0.316195011138916,0.05189865,0.010407499,76.23126640436716,-0.08356962980799663,0.6105970368586701,12.5,19200,2.815295934677124,0.10725906063677967,0.03164775180795299,37.09897024100075,0.0
314,1.5291087627410889,66.80964507461617,197.1024007714512,921.7090840430933,-39.386118703508835,8.333333333333334,8.569442317325313,0.1,0.01145029067993164,0.25474071502685547,0.0499251,0.011666522,75.28910427139206,-0.08427943654024571,0.333637230126421,8.333333333333334,19200,2.744293451309204,0.14624618981611182,0.047297575840390196,45.82744572776057,6.25
315,1.5401370525360107,52.99363367226467,169.31782626384066,893.6065113991554,-38.00838426002455,5.208333333333333,8.661971788405252,0.1,0.01094508171081543,0.29663729667663574,0.05303883,0.010685663,73.05955721147932,-0.07772308793057192,0.26477691206942805,5.208333333333333,19200,2.7858097553253174,0.18642352413053057,0.06789767567017499,50.09515856845593,6.25
316,1.5581212043762207,90.95590299048335,229.5674922830784,914.5882398428892,-37.70569987188284,7.291666666666667,8.082444596238771,0.1,0.010811328887939453,0.2508676052093506,0.047351792,0.012936074,74.84919178937973,-0.08582147577766787,0.4541785242223321,7.291666666666667,19200,2.8193986415863037,0.10504648635299794,0.0374301191832538,40.82886338215312,0.0
317,1.522249698638916,102.131771845615,257.15111159352296,1208.0978047829394,-40.256616701220395,8.333333333333334,7.036698932763069,0.1,0.010689020156860352,0.30763673782348633,0.05438736,0.013365448,77.57744979500326,-0.08555900146521371,0.5098576652014529,8.333333333333334,19200,2.8242599964141846,0.08491373753945398,0.03539151766942538,50.882594705771076,6.25
318,1.528512716293335,44.34382149273464,176.37502188066975,889.8430346136316,-38.39664981393105,4.166666666666667,9.34221911099075,0.1,0.010810136795043945,0.2521805763244629,0.048006155,0.01123454,74.25408696477639,-0.08160916546283724,0.22089083453716277,4.166666666666667,19200,2.7903800010681152,0.3209441062304493,0.06918915894555792,42.65495469379897,6.25
319,1.5290606021881104,90.10468170389561,243.2682187536925,983.7810719483191,-36.71564404334765,9.375,6.276893338923507,0.1,0.010779857635498047,0.309049129486084,0.05154494,0.015053578,75.83914643868832,-0.08197719016803748,0.4501061431652958,9.375,19200,2.8167359828948975,0.09368091854125052,0.039353857855087944,30.586924459868897,0.0
320,1.6308627128601074,62.754988633438096,209.84758361215674,949.2920616130918,-35.87510740919147,8.333333333333334,7.58593797721432,0.1,0.01087331771850586,0.2525930404663086,0.05174473,0.012210893,74.53073065816331,-0.08202856155514282,0.3135964384448573,8.333333333333334,19200,2.84641170501709,0.14715844812610382,0.042739248812305744,47.12777197500921,6.25
321,1.6870379447937012,115.29201452886157,265.90189432584987,1072.5278506982274,-40.52881344016974,9.375,8.972117927704259,0.1,0.011041879653930664,0.3168175220489502,0.051786296,0.010283029,78.60685904523314,-0.08328748040232366,0.5765041862643431,9.375,19200,2.853501558303833,0.13970829880164357,0.04387503429145803,44.636936788897785,6.25
322,1.5100464820861816,122.71586612062315,275.3786095862735,1216.5101912168216,-37.97321770794521,11.458333333333334,8.42351957020319,0.1,0.011358022689819336,0.3162515163421631,0.047973923,0.011369606,83.01775975277215,-0.0805669803970341,0.6131830196029658,11.458333333333334,19200,2.860846757888794,0.1262081352163659,0.03362483990403727,52.894429700933024,6.25
323,1.547189712524414,106.36882896460622,278.72279989500856,1182.4451130654281,-40.33485353641873,10.416666666666666,9.416408323878596,0.1,0.012005329132080078,0.3104543685913086,0.049363077,0.010315054,85.35286667395556,-0.077947056587499,0.5310112767458343,10.416666666666666,19200,2.859204053878784,0.06314704179488423,0.03250753059562498,51.10865602191613,6.25
324,1.5007555484771729,75.76785154682513,240.22567024378148,1284.9687579741146,-39.11087058858908,8.333333333333334,7.964200835937284,0.1,0.011257648468017578,0.25498151779174805,0.050175972,0.012312972,84.39436516124252,-0.0892726572995845,0.37885234270041557,8.333333333333334,19200,2.8786630630493164,0.08740303616190696,0.0451058045347381,38.3889091382167,0.0
325,1.5019021034240723,85.67999692443944,214.20043224814418,772.7419265510767,-33.94672898778541,9.375,8.23153817174714,0.1,0.010858535766601562,0.31226444244384766,0.055495623,0.01124779,84.52292833756222,-0.07638262803646087,0.4282007052968724,9.375,19200,2.898944854736328,0.16850120039671926,0.05329863222232871,38.87749014034615,0.0
326,1.5115582942962646,81.09800111945115,221.75908219540793,948.792790701233,-35.081042835241625,11.458333333333334,6.6266580697464965,0.1,0.011087179183959961,0.31263065338134766,0.052521802,0.013882076,84.18043561575112,-0.08220768156286096,0.4050839851038058,11.458333333333334,19200,2.8912765979766846,0.08802683160723447,0.03014478646790777,39.86505394630569,0.0
327,1.5066862106323242,79.97677931909847,234.04909875335719,1200.5542472484378,-36.147042321662504,8.333333333333334,7.992363315185737,0.1,0.010710716247558594,0.3127720355987549,0.047713596,0.013320632,83.76006998608587,-0.08300759065685832,0.399700742676475,8.333333333333334,19200,2.8316237926483154,0.08326656827856004,0.03557422816627461,50.236000075837325,6.25
328,1.7071418762207031,120.32955142696223,280.0407145459975,1140.347865146406,-35.53361751544032,13.541666666666666,6.571331690576188,0.1,0.01085209846496582,0.31195688247680664,0.04841945,0.017411359,87.4170181301735,-0.07584759674307126,0.6010274032569288,13.541666666666666,19200,2.8017497062683105,0.07227210279861551,0.03896730004018779,40.25204087016462,0.0
329,1.5512685775756836,51.70434627807589,166.49696552810536,719.9600611256807,-39.14754731214546,4.166666666666667,8.160542765590112,0.1,0.010927915573120117,0.2852013111114502,0.048569415,0.013118313,83.84575094496375,-0.08771253887391357,0.25832912779275313,4.166666666666667,19200,2.8168506622314453,0.4037697897192574,0.08334464009471891,43.4593050405519,0.0
330,1.5454909801483154,100.52051553319218,246.06769851199076,929.1277495066425,-40.03536491594971,8.333333333333334,8.213380370896653,0.1,0.011158227920532227,0.2548706531524658,0.049204662,0.013281095,85.5132274037866,-0.08425048644345938,0.5019995135565406,8.333333333333334,19200,2.8383584022521973,0.1622575201845444,0.05875347174163783,46.26871075702816,0.0
331,1.5466835498809814,84.7468928641387,230.6321189046861,1126.4972656170398,-38.183827042643614,6.25,6.046759740484304,0.1,0.010887861251831055,0.3062896728515625,0.04978794,0.017570555,85.43659394982183,-0.08562611649936079,0.4229155501673059,6.25,19200,2.8642945289611816,0.12155011086096575,0.04641148459846809,45.52407756609661,0.0
332,1.5579705238342285,95.31203569228809,226.83542212481933,963.8105970455955,-37.14029659253751,7.291666666666667,7.328959170640849,0.1,0.011108160018920898,0.26288938522338867,0.05346695,0.013913244,86.42413812406845,-0.07780284075783091,0.4761554925755025,7.291666666666667,19200,2.8841071128845215,0.14258202458115107,0.07357909310084847,46.48495247289942,0.0
