Iter | Sampling Pol | Evaluation Pol | Best (Sampled) 
   0 -10.31 -15.98 -100000000.00 
   1 -10.01 -15.19 -10.31 
   2 -9.80 -15.97 -10.01 
   3 -9.33 -13.92 -9.80 
   4 -9.43 -14.09 -9.33 
   5 -9.63 -12.39 -9.33 
   6 -9.75 -12.66 -9.33 
   7 -9.13 -12.33 -9.33 
   8 -9.28 -12.01 -9.13 
   9 -9.32 -12.40 -9.13 
  10 -9.23 -12.26 -9.13 
  11 -9.06 -12.46 -9.13 
  12 -9.03 -11.19 -9.06 
  13 -8.82 -11.05 -9.03 
  14 -8.62 -10.72 -8.82 
  15 -9.34 -10.53 -8.62 
  16 -8.66 -10.58 -8.62 
  17 -9.03 -10.01 -8.62 
  18 -8.70 -10.06 -8.62 
  19 -8.85 -10.00 -8.62 
  20 -8.97 -9.32 -8.62 
  21 -8.57 -9.38 -8.62 
  22 -8.86 -9.61 -8.57 
  23 -8.89 -9.54 -8.57 
  24 -8.50 -9.55 -8.57 
  25 -8.77 -9.38 -8.50 
  26 -8.90 -9.33 -8.50 
  27 -8.69 -9.02 -8.50 
  28 -8.56 -9.95 -8.50 
  29 -8.71 -9.53 -8.50 
  30 -8.78 -8.96 -8.50 
  31 -8.88 -8.97 -8.50 
  32 -8.41 -8.84 -8.50 
  33 -8.40 -8.82 -8.41 
  34 -8.60 -8.79 -8.40 
  35 -8.59 -8.53 -8.40 
  36 -8.37 -8.65 -8.40 
  37 -8.46 -9.02 -8.37 
  38 -8.42 -8.85 -8.37 
  39 -8.09 -8.66 -8.37 
  40 -8.52 -8.67 -8.09 
  41 -8.54 -8.67 -8.09 
  42 -8.13 -8.64 -8.09 
  43 -8.40 -8.43 -8.09 
  44 -8.20 -8.41 -8.09 
  45 -8.02 -8.46 -8.09 
  46 -8.14 -8.47 -8.02 
  47 -8.18 -8.52 -8.02 
  48 -8.22 -8.26 -8.02 
  49 -7.83 -8.38 -8.02 
  50 -7.93 -8.35 -7.83 
  51 -8.14 -8.34 -7.83 
  52 -8.45 -8.16 -7.83 
  53 -8.55 -8.13 -7.83 
  54 -8.10 -8.02 -7.83 
  55 -7.61 -8.05 -7.83 
  56 -8.21 -8.12 -7.61 
  57 -8.01 -8.30 -7.61 
  58 -8.02 -8.31 -7.61 
  59 -8.31 -8.16 -7.61 
  60 -7.96 -8.42 -7.61 
  61 -7.77 -8.32 -7.61 
  62 -7.92 -8.33 -7.61 
  63 -7.79 -8.09 -7.61 
  64 -8.37 -8.39 -7.61 
  65 -8.17 -8.35 -7.61 
  66 -8.30 -8.28 -7.61 
  67 -7.76 -8.31 -7.61 
  68 -7.80 -8.30 -7.61 
  69 -7.78 -7.93 -7.61 
  70 -8.08 -8.03 -7.61 
  71 -7.89 -8.06 -7.61 
  72 -7.72 -8.14 -7.61 
  73 -8.02 -8.04 -7.61 
  74 -8.19 -8.04 -7.61 
  75 -7.31 -8.04 -7.61 
  76 -8.02 -8.21 -7.31 
  77 -7.79 -8.29 -7.31 
  78 -7.87 -8.19 -7.31 
  79 -7.58 -8.24 -7.31 
  80 -7.79 -8.40 -7.31 
  81 -7.73 -8.17 -7.31 
  82 -8.03 -8.28 -7.31 
  83 -8.10 -8.11 -7.31 
  84 -7.41 -8.40 -7.31 
  85 -7.91 -8.45 -7.31 
  86 -7.84 -8.38 -7.31 
  87 -7.77 -8.31 -7.31 
  88 -8.02 -8.17 -7.31 
  89 -7.92 -8.46 -7.31 
  90 -7.56 -7.99 -7.31 
  91 -7.54 -8.20 -7.31 
  92 -7.50 -8.18 -7.31 
  93 -7.87 -8.01 -7.31 
  94 -7.32 -8.08 -7.31 
  95 -7.71 -8.37 -7.31 
  96 -7.69 -8.20 -7.31 
  97 -7.44 -8.25 -7.31 
  98 -8.16 -8.12 -7.31 
  99 -7.95 -8.11 -7.31 
 100 -7.45 -8.03 -7.31 
 101 -7.43 -8.12 -7.31 
 102 -7.43 -8.25 -7.31 
 103 -7.66 -8.28 -7.31 
 104 -8.00 -7.92 -7.31 
 105 -7.66 -7.63 -7.31 
 106 -7.54 -7.87 -7.31 
 107 -7.68 -7.57 -7.31 
 108 -7.34 -7.81 -7.31 
 109 -7.35 -7.81 -7.31 
 110 -7.75 -7.32 -7.31 
 111 -7.41 -7.64 -7.31 
 112 -7.39 -7.93 -7.31 
 113 -7.66 -7.72 -7.31 
 114 -7.55 -7.43 -7.31 
 115 -7.75 -7.54 -7.31 
 116 -7.44 -7.42 -7.31 
 117 -7.47 -7.47 -7.31 
 118 -7.79 -7.19 -7.31 
 119 -7.09 -7.26 -7.31 
 120 -7.20 -7.15 -7.09 
 121 -7.46 -7.39 -7.09 
 122 -7.37 -7.41 -7.09 
 123 -7.49 -7.38 -7.09 
 124 -6.98 -7.36 -7.09 
 125 -7.32 -7.42 -6.98 
 126 -7.19 -7.42 -6.98 
 127 -7.23 -7.36 -6.98 
 128 -7.57 -7.28 -6.98 
 129 -7.25 -7.48 -6.98 
 130 -7.13 -7.44 -6.98 
 131 -7.56 -7.26 -6.98 
 132 -7.36 -7.47 -6.98 
 133 -7.16 -7.11 -6.98 
 134 -7.29 -7.27 -6.98 
 135 -7.03 -7.16 -6.98 
 136 -7.02 -7.15 -6.98 
 137 -7.12 -7.03 -6.98 
 138 -6.93 -6.99 -6.98 
 139 -7.05 -7.03 -6.93 
 140 -7.15 -7.10 -6.93 
 141 -7.25 -7.06 -6.93 
 142 -6.93 -6.98 -6.93 
 143 -6.67 -7.40 -6.93 
 144 -6.66 -7.23 -6.67 
 145 -7.38 -6.78 -6.66 
 146 -6.89 -6.80 -6.66 
 147 -6.88 -6.78 -6.66 
 148 -6.66 -6.76 -6.66 
 149 -6.98 -6.73 -6.66 
 150 -6.64 -6.72 -6.66 
 151 -6.70 -6.71 -6.64 
 152 -6.89 -6.80 -6.64 
 153 -6.98 -6.74 -6.64 
 154 -6.90 -6.67 -6.64 
 155 -6.61 -6.44 -6.64 
 156 -6.46 -6.53 -6.61 
 157 -6.51 -6.61 -6.46 
 158 -6.57 -6.66 -6.46 
 159 -6.49 -6.54 -6.46 
 160 -6.46 -6.64 -6.46 
 161 -6.41 -6.54 -6.46 
 162 -6.71 -6.50 -6.41 
 163 -6.32 -6.52 -6.41 
 164 -6.32 -6.34 -6.32 
 165 -6.60 -6.34 -6.32 
 166 -6.17 -6.37 -6.32 
 167 -6.48 -6.51 -6.17 
 168 -6.13 -6.51 -6.17 
 169 -6.52 -6.41 -6.13 
 170 -6.14 -6.53 -6.13 
 171 -6.59 -6.44 -6.13 
 172 -6.52 -6.47 -6.13 
 173 -6.47 -6.48 -6.13 
 174 -5.97 -6.54 -6.13 
 175 -6.56 -6.58 -5.97 
 176 -6.12 -6.42 -5.97 
 177 -6.10 -6.56 -5.97 
 178 -6.34 -6.59 -5.97 
 179 -6.17 -6.55 -5.97 
 180 -6.10 -6.44 -5.97 
 181 -6.06 -6.62 -5.97 
 182 -6.20 -6.22 -5.97 
 183 -6.04 -6.19 -5.97 
 184 -6.08 -6.21 -5.97 
 185 -5.96 -6.29 -5.97 
 186 -6.00 -6.44 -5.96 
 187 -6.42 -6.29 -5.96 
 188 -6.09 -6.42 -5.96 
 189 -6.22 -6.43 -5.96 
 190 -6.30 -6.39 -5.96 
 191 -6.18 -6.46 -5.96 
 192 -6.05 -6.35 -5.96 
 193 -6.14 -6.31 -5.96 
 194 -5.99 -6.46 -5.96 
 195 -5.88 -6.42 -5.96 
 196 -5.94 -6.30 -5.88 
 197 -6.07 -6.32 -5.88 
 198 -5.68 -6.45 -5.88 
 199 -6.16 -6.44 -5.68 
 200 -6.16 -6.49 -5.68 
 201 -5.82 -6.41 -5.68 
 202 -5.78 -6.55 -5.68 
 203 -6.12 -6.43 -5.68 
 204 -5.91 -6.46 -5.68 
 205 -5.99 -6.43 -5.68 
 206 -5.79 -6.32 -5.68 
 207 -6.06 -6.42 -5.68 
 208 -6.01 -6.62 -5.68 
 209 -6.11 -6.78 -5.68 
 210 -6.30 -6.59 -5.68 
 211 -5.96 -6.41 -5.68 
 212 -5.80 -6.50 -5.68 
 213 -5.90 -6.50 -5.68 
 214 -5.76 -6.50 -5.68 
 215 -5.87 -6.42 -5.68 
 216 -6.06 -6.49 -5.68 
 217 -6.27 -6.38 -5.68 
 218 -5.90 -6.35 -5.68 
 219 -6.07 -6.46 -5.68 
 220 -6.16 -6.51 -5.68 
 221 -6.03 -6.45 -5.68 
 222 -5.75 -6.49 -5.68 
 223 -5.81 -6.46 -5.68 
 224 -5.95 -6.60 -5.68 
 225 -5.68 -6.25 -5.68 
 226 -5.83 -6.28 -5.68 
 227 -5.83 -6.34 -5.68 
 228 -5.65 -6.27 -5.68 
 229 -6.05 -6.32 -5.65 
 230 -5.70 -6.36 -5.65 
 231 -6.13 -6.40 -5.65 
 232 -5.95 -6.25 -5.65 
 233 -5.82 -6.34 -5.65 
 234 -5.65 -6.35 -5.65 
 235 -6.05 -6.28 -5.65 
 236 -5.75 -6.28 -5.65 
 237 -5.83 -6.39 -5.65 
 238 -6.03 -6.48 -5.65 
 239 -5.96 -6.43 -5.65 
 240 -5.74 -6.42 -5.65 
 241 -5.57 -6.42 -5.65 
 242 -5.90 -6.18 -5.57 
 243 -6.00 -6.38 -5.57 
 244 -5.97 -6.36 -5.57 
 245 -5.98 -6.30 -5.57 
 246 -5.67 -6.19 -5.57 
 247 -5.74 -6.32 -5.57 
 248 -5.77 -6.25 -5.57 
 249 -5.84 -6.41 -5.57 
 250 -5.60 -6.21 -5.57 
 251 -5.62 -6.23 -5.57 
 252 -5.65 -6.31 -5.57 
 253 -5.57 -6.32 -5.57 
 254 -5.59 -6.37 -5.57 
 255 -5.46 -6.40 -5.57 
 256 -5.73 -6.22 -5.46 
 257 -5.63 -6.31 -5.46 
 258 -5.76 -6.23 -5.46 
 259 -5.76 -6.18 -5.46 
 260 -5.93 -6.30 -5.46 
 261 -5.96 -6.14 -5.46 
 262 -5.62 -6.18 -5.46 
 263 -5.91 -6.26 -5.46 
 264 -5.47 -6.26 -5.46 
 265 -5.51 -6.27 -5.46 
 266 -5.48 -6.22 -5.46 
 267 -5.70 -6.08 -5.46 
 268 -5.81 -6.26 -5.46 
 269 -5.45 -6.18 -5.46 
 270 -5.76 -6.13 -5.45 
 271 -5.63 -6.24 -5.45 
 272 -5.42 -5.65 -5.45 
 273 -5.56 -5.84 -5.42 
 274 -5.95 -5.93 -5.42 
 275 -5.49 -5.87 -5.42 
 276 -5.52 -5.98 -5.42 
 277 -5.59 -5.90 -5.42 
 278 -5.70 -5.87 -5.42 
 279 -5.46 -5.89 -5.42 
 280 -5.76 -5.86 -5.42 
 281 -5.54 -5.82 -5.42 
 282 -5.54 -5.85 -5.42 
 283 -5.44 -5.83 -5.42 
 284 -5.63 -5.82 -5.42 
 285 -5.79 -5.84 -5.42 
 286 -5.61 -5.79 -5.42 
 287 -5.39 -5.84 -5.42 
 288 -5.63 -5.82 -5.39 
 289 -5.72 -5.87 -5.39 
 290 -5.63 -5.70 -5.39 
 291 -5.47 -5.66 -5.39 
 292 -5.64 -5.72 -5.39 
 293 -5.78 -5.85 -5.39 
 294 -5.63 -5.77 -5.39 
 295 -5.41 -5.89 -5.39 
 296 -5.51 -5.82 -5.39 
 297 -5.46 -5.80 -5.39 
 298 -5.56 -5.68 -5.39 
 299 -5.58 -5.68 -5.39 
 300 -5.57 -5.67 -5.39 
 301 -5.70 -5.71 -5.39 
 302 -5.43 -5.80 -5.39 
 303 -5.42 -5.69 -5.39 
 304 -5.42 -5.72 -5.39 
 305 -5.58 -5.76 -5.39 
 306 -5.27 -5.85 -5.39 
 307 -5.32 -5.86 -5.27 
 308 -5.26 -5.77 -5.27 
 309 -5.46 -5.76 -5.26 
 310 -5.45 -5.81 -5.26 
 311 -5.41 -5.76 -5.26 
 312 -5.46 -5.77 -5.26 
 313 -5.23 -5.84 -5.26 
 314 -5.28 -5.75 -5.23 
 315 -5.15 -5.80 -5.23 
 316 -5.45 -5.83 -5.15 
 317 -5.24 -5.76 -5.15 
 318 -5.56 -5.74 -5.15 
 319 -5.18 -5.77 -5.15 
 320 -5.22 -5.64 -5.15 
 321 -5.27 -5.67 -5.15 
 322 -5.43 -5.67 -5.15 
 323 -4.94 -5.64 -5.15 
 324 -5.19 -5.66 -4.94 
 325 -5.13 -5.68 -4.94 
 326 -5.08 -5.68 -4.94 
 327 -5.08 -5.79 -4.94 
 328 -5.40 -5.80 -4.94 
 329 -5.20 -5.79 -4.94 
 330 -5.02 -5.75 -4.94 
 331 -5.35 -5.70 -4.94 
 332 -5.06 -5.66 -4.94 
 333 -5.24 -5.83 -4.94 
 334 -5.03 -5.80 -4.94 
 335 -4.94 -5.49 -4.94 
 336 -5.23 -5.56 -4.94 
 337 -5.07 -5.65 -4.94 
 338 -4.97 -5.69 -4.94 
 339 -5.17 -5.54 -4.94 
 340 -5.23 -5.51 -4.94 
 341 -4.77 -5.49 -4.94 
 342 -5.15 -5.71 -4.77 
 343 -4.89 -5.35 -4.77 
 344 -4.94 -5.41 -4.77 
 345 -4.87 -5.61 -4.77 
 346 -5.26 -5.46 -4.77 
 347 -5.14 -5.42 -4.77 
 348 -4.96 -5.34 -4.77 
 349 -5.39 -5.39 -4.77 
 350 -5.20 -5.51 -4.77 
 351 -4.99 -5.51 -4.77 
 352 -4.93 -5.52 -4.77 
 353 -4.89 -5.67 -4.77 
 354 -5.09 -5.49 -4.77 
 355 -5.11 -5.49 -4.77 
 356 -5.08 -5.58 -4.77 
 357 -5.39 -5.38 -4.77 
 358 -5.04 -5.54 -4.77 
 359 -5.31 -5.49 -4.77 
 360 -4.94 -5.44 -4.77 
 361 -5.08 -5.57 -4.77 
 362 -5.03 -5.62 -4.77 
 363 -4.74 -5.75 -4.77 
 364 -5.08 -5.46 -4.74 
 365 -4.93 -5.65 -4.74 
 366 -5.05 -5.59 -4.74 
 367 -4.80 -5.60 -4.74 
 368 -5.28 -5.53 -4.74 
 369 -5.13 -5.51 -4.74 
 370 -4.99 -5.63 -4.74 
 371 -4.73 -5.67 -4.74 
 372 -4.81 -5.69 -4.73 
 373 -4.78 -5.47 -4.73 
 374 -4.88 -5.51 -4.73 
 375 -4.69 -5.62 -4.73 
 376 -4.92 -5.65 -4.69 
 377 -4.93 -5.61 -4.69 
 378 -4.87 -5.55 -4.69 
 379 -4.79 -5.50 -4.69 
 380 -5.03 -5.72 -4.69 
 381 -5.12 -5.61 -4.69 
 382 -5.05 -5.69 -4.69 
 383 -5.10 -5.72 -4.69 
 384 -4.93 -5.57 -4.69 
 385 -4.86 -5.47 -4.69 
 386 -4.85 -5.52 -4.69 
 387 -4.60 -5.60 -4.69 
 388 -4.81 -5.34 -4.60 
 389 -4.89 -5.49 -4.60 
 390 -4.83 -5.53 -4.60 
 391 -4.83 -5.37 -4.60 
 392 -4.80 -5.63 -4.60 
 393 -4.76 -5.46 -4.60 
 394 -4.79 -5.69 -4.60 
 395 -4.72 -5.57 -4.60 
 396 -4.81 -5.63 -4.60 
 397 -4.90 -5.68 -4.60 
 398 -4.96 -5.87 -4.60 
 399 -4.75 -5.58 -4.60 
 400 -4.78 -5.73 -4.60 
 401 -4.79 -5.58 -4.60 
 402 -4.91 -5.55 -4.60 
 403 -4.73 -5.45 -4.60 
 404 -4.70 -5.55 -4.60 
 405 -4.83 -5.39 -4.60 
 406 -4.86 -5.60 -4.60 
 407 -4.77 -5.58 -4.60 
 408 -4.82 -5.71 -4.60 
 409 -4.87 -5.67 -4.60 
 410 -4.80 -5.64 -4.60 
 411 -4.71 -5.61 -4.60 
 412 -4.53 -5.65 -4.60 
 413 -4.68 -5.59 -4.53 
 414 -4.79 -5.44 -4.53 
 415 -4.46 -5.66 -4.53 
 416 -4.84 -5.61 -4.46 
 417 -4.87 -5.56 -4.46 
 418 -4.65 -5.42 -4.46 
 419 -4.64 -5.40 -4.46 
 420 -4.57 -5.54 -4.46 
 421 -4.89 -5.42 -4.46 
 422 -4.47 -5.41 -4.46 
 423 -4.72 -5.42 -4.46 
 424 -4.86 -5.45 -4.46 
 425 -4.57 -5.37 -4.46 
 426 -4.83 -5.42 -4.46 
 427 -5.07 -5.48 -4.46 
 428 -4.71 -5.52 -4.46 
 429 -4.44 -5.34 -4.46 
 430 -4.68 -5.37 -4.44 
 431 -4.56 -5.36 -4.44 
 432 -4.53 -5.45 -4.44 
 433 -4.55 -5.52 -4.44 
 434 -4.88 -5.37 -4.44 
 435 -4.70 -5.38 -4.44 
 436 -4.64 -5.34 -4.44 
 437 -4.64 -5.41 -4.44 
 438 -4.47 -5.32 -4.44 
 439 -4.73 -5.31 -4.44 
 440 -4.41 -5.27 -4.44 
 441 -4.69 -5.39 -4.41 
 442 -4.64 -5.20 -4.41 
 443 -4.67 -5.36 -4.41 
 444 -4.51 -5.32 -4.41 
 445 -4.65 -5.40 -4.41 
 446 -4.72 -5.26 -4.41 
 447 -4.45 -5.52 -4.41 
 448 -4.69 -5.23 -4.41 
 449 -4.70 -5.16 -4.41 
 450 -4.45 -5.11 -4.41 
 451 -4.75 -5.06 -4.41 
 452 -4.49 -5.00 -4.41 
 453 -4.47 -5.09 -4.41 
 454 -4.51 -5.17 -4.41 
 455 -4.71 -5.08 -4.41 
 456 -4.49 -5.09 -4.41 
 457 -4.60 -5.04 -4.41 
 458 -4.53 -5.05 -4.41 
 459 -4.53 -5.09 -4.41 
 460 -4.64 -5.10 -4.41 
 461 -4.46 -5.04 -4.41 
 462 -4.42 -5.21 -4.41 
 463 -4.37 -5.20 -4.41 
 464 -4.54 -5.21 -4.37 
 465 -4.57 -5.12 -4.37 
 466 -4.66 -5.10 -4.37 
 467 -4.28 -5.23 -4.37 
 468 -4.63 -5.15 -4.28 
 469 -4.43 -5.14 -4.28 
 470 -4.66 -5.03 -4.28 
 471 -4.35 -5.02 -4.28 
 472 -4.35 -4.94 -4.28 
 473 -4.65 -5.05 -4.28 
 474 -4.65 -4.99 -4.28 
 475 -4.68 -5.05 -4.28 
 476 -4.57 -5.17 -4.28 
 477 -4.28 -5.05 -4.28 
 478 -4.46 -5.06 -4.28 
 479 -4.39 -5.21 -4.28 
 480 -4.64 -5.12 -4.28 
 481 -4.49 -5.20 -4.28 
 482 -4.29 -5.00 -4.28 
 483 -4.46 -5.18 -4.28 
 484 -4.58 -5.24 -4.28 
 485 -4.36 -5.08 -4.28 
 486 -4.37 -5.01 -4.28 
 487 -4.38 -5.31 -4.28 
 488 -4.25 -5.14 -4.28 
 489 -4.54 -5.20 -4.25 
 490 -4.65 -5.11 -4.25 
 491 -4.70 -5.10 -4.25 
 492 -4.52 -5.12 -4.25 
 493 -4.70 -5.13 -4.25 
 494 -4.67 -5.16 -4.25 
 495 -4.61 -5.09 -4.25 
 496 -4.61 -4.94 -4.25 
 497 -4.49 -5.21 -4.25 
 498 -4.34 -5.17 -4.25 
 499 -4.40 -5.25 -4.25 
 500 -4.75 -5.32 -4.25 
 501 -4.46 -5.33 -4.25 
 502 -4.38 -5.15 -4.25 
 503 -4.71 -5.32 -4.25 
 504 -4.58 -5.26 -4.25 
 505 -4.43 -5.27 -4.25 
 506 -4.54 -5.23 -4.25 
 507 -4.56 -5.22 -4.25 
 508 -4.57 -5.36 -4.25 
 509 -4.39 -5.06 -4.25 
 510 -4.58 -5.30 -4.25 
 511 -4.63 -5.30 -4.25 
 512 -4.60 -5.27 -4.25 
 513 -4.52 -5.21 -4.25 
 514 -4.49 -5.26 -4.25 
 515 -4.23 -5.44 -4.25 
 516 -4.46 -5.28 -4.23 
 517 -4.27 -5.25 -4.23 
 518 -4.58 -5.29 -4.23 
 519 -4.65 -5.29 -4.23 
 520 -4.42 -5.36 -4.23 
 521 -4.56 -5.19 -4.23 
 522 -4.71 -5.28 -4.23 
 523 -4.62 -5.21 -4.23 
 524 -4.57 -5.21 -4.23 
 525 -4.55 -5.15 -4.23 
 526 -4.17 -5.11 -4.23 
 527 -4.39 -5.03 -4.17 
 528 -4.45 -5.18 -4.17 
 529 -4.36 -5.16 -4.17 
 530 -4.26 -5.27 -4.17 
 531 -4.55 -5.15 -4.17 
 532 -4.60 -5.14 -4.17 
 533 -4.39 -5.14 -4.17 
 534 -4.59 -5.15 -4.17 
 535 -4.36 -5.27 -4.17 
 536 -4.47 -5.14 -4.17 
 537 -4.56 -5.26 -4.17 
 538 -4.41 -5.19 -4.17 
 539 -4.41 -5.16 -4.17 
 540 -4.33 -5.20 -4.17 
 541 -4.38 -5.18 -4.17 
 542 -4.59 -5.11 -4.17 
 543 -4.70 -5.02 -4.17 
 544 -4.35 -5.11 -4.17 
 545 -4.52 -5.01 -4.17 
 546 -4.54 -5.09 -4.17 
 547 -4.35 -5.07 -4.17 
 548 -4.65 -5.16 -4.17 
 549 -4.19 -5.12 -4.17 
 550 -4.72 -5.25 -4.17 
 551 -4.33 -5.09 -4.17 
 552 -4.64 -5.16 -4.17 
 553 -4.21 -5.26 -4.17 
 554 -4.50 -5.12 -4.17 
 555 -4.48 -5.08 -4.17 
 556 -4.24 -5.07 -4.17 
 557 -4.35 -5.07 -4.17 
 558 -4.30 -5.08 -4.17 
 559 -4.36 -5.09 -4.17 
 560 -4.31 -5.00 -4.17 
 561 -4.23 -5.08 -4.17 
 562 -4.36 -5.01 -4.17 
 563 -4.33 -5.05 -4.17 
 564 -4.45 -4.96 -4.17 
 565 -4.60 -4.94 -4.17 
 566 -4.37 -4.96 -4.17 
 567 -4.19 -5.00 -4.17 
 568 -4.29 -4.95 -4.17 
 569 -4.50 -4.92 -4.17 
 570 -4.27 -4.96 -4.17 
 571 -4.50 -4.95 -4.17 
 572 -4.20 -5.05 -4.17 
 573 -4.19 -5.07 -4.17 
 574 -4.52 -5.11 -4.17 
 575 -4.37 -5.11 -4.17 
 576 -4.48 -5.03 -4.17 
 577 -4.42 -5.01 -4.17 
 578 -4.32 -5.04 -4.17 
 579 -4.51 -5.03 -4.17 
 580 -4.43 -5.16 -4.17 
 581 -4.47 -5.09 -4.17 
 582 -4.43 -5.10 -4.17 
 583 -4.54 -5.00 -4.17 
 584 -4.45 -4.95 -4.17 
 585 -4.50 -5.04 -4.17 
 586 -4.21 -5.00 -4.17 
 587 -4.39 -4.96 -4.17 
 588 -4.57 -4.96 -4.17 
 589 -4.30 -5.01 -4.17 
 590 -4.38 -5.09 -4.17 
 591 -4.37 -5.07 -4.17 
 592 -4.50 -5.11 -4.17 
 593 -4.39 -5.01 -4.17 
 594 -4.28 -4.99 -4.17 
 595 -4.38 -5.01 -4.17 
 596 -4.15 -5.10 -4.17 
 597 -4.31 -5.14 -4.15 
 598 -4.25 -5.02 -4.15 
 599 -4.33 -5.01 -4.15 
 600 -4.34 -5.06 -4.15 
 601 -4.40 -5.02 -4.15 
 602 -4.21 -5.00 -4.15 
 603 -4.27 -5.08 -4.15 
 604 -4.38 -5.16 -4.15 
 605 -4.22 -5.01 -4.15 
 606 -4.17 -5.05 -4.15 
 607 -4.33 -5.02 -4.15 
 608 -4.41 -5.04 -4.15 
 609 -4.45 -5.08 -4.15 
 610 -4.32 -5.06 -4.15 
 611 -4.32 -5.15 -4.15 
 612 -4.36 -5.06 -4.15 
 613 -4.48 -5.04 -4.15 
 614 -4.41 -5.06 -4.15 
 615 -4.20 -5.07 -4.15 
 616 -4.29 -4.97 -4.15 
 617 -4.26 -5.08 -4.15 
 618 -4.37 -5.02 -4.15 
 619 -4.29 -5.02 -4.15 
 620 -4.24 -5.04 -4.15 
 621 -4.20 -4.95 -4.15 
 622 -4.12 -5.08 -4.15 
 623 -4.32 -4.94 -4.12 
 624 -4.42 -4.95 -4.12 
 625 -4.50 -4.97 -4.12 
 626 -4.11 -5.10 -4.12 
 627 -4.40 -5.15 -4.11 
 628 -4.14 -5.17 -4.11 
 629 -4.39 -4.97 -4.11 
 630 -4.55 -5.13 -4.11 
 631 -4.30 -4.99 -4.11 
 632 -4.05 -5.24 -4.11 
 633 -4.44 -5.09 -4.05 
 634 -4.20 -5.02 -4.05 
 635 -4.49 -5.07 -4.05 
 636 -4.33 -4.89 -4.05 
 637 -4.35 -4.92 -4.05 
 638 -4.29 -4.93 -4.05 
 639 -4.68 -4.91 -4.05 
 640 -4.51 -5.05 -4.05 
 641 -4.22 -5.05 -4.05 
 642 -4.22 -4.97 -4.05 
 643 -4.56 -5.02 -4.05 
 644 -4.53 -4.99 -4.05 
 645 -4.36 -4.98 -4.05 
 646 -4.36 -4.96 -4.05 
 647 -4.44 -4.96 -4.05 
 648 -4.22 -4.95 -4.05 
 649 -4.35 -4.90 -4.05 
 650 -4.33 -4.95 -4.05 
 651 -4.40 -5.00 -4.05 
 652 -4.31 -5.00 -4.05 
 653 -4.29 -4.96 -4.05 
 654 -4.31 -5.08 -4.05 
 655 -4.46 -5.11 -4.05 
 656 -4.47 -4.98 -4.05 
 657 -4.17 -5.01 -4.05 
 658 -4.21 -4.98 -4.05 
 659 -4.33 -4.92 -4.05 
 660 -4.52 -5.10 -4.05 
 661 -4.45 -4.97 -4.05 
 662 -4.15 -4.95 -4.05 
 663 -4.53 -4.95 -4.05 
 664 -4.30 -4.93 -4.05 
 665 -4.36 -4.79 -4.05 
 666 -4.19 -4.86 -4.05 
 667 -4.45 -4.94 -4.05 
 668 -4.56 -4.84 -4.05 
 669 -4.21 -4.94 -4.05 
 670 -4.55 -4.93 -4.05 
 671 -4.34 -4.93 -4.05 
 672 -4.44 -4.74 -4.05 
 673 -4.64 -4.77 -4.05 
 674 -4.39 -4.80 -4.05 
 675 -4.61 -4.66 -4.05 
 676 -4.01 -4.75 -4.05 
 677 -4.55 -4.72 -4.01 
 678 -4.25 -4.94 -4.01 
 679 -4.06 -4.78 -4.01 
 680 -4.47 -4.81 -4.01 
 681 -4.38 -4.76 -4.01 
 682 -4.38 -4.76 -4.01 
 683 -4.33 -4.81 -4.01 
 684 -4.26 -4.87 -4.01 
 685 -4.41 -4.88 -4.01 
 686 -4.22 -4.92 -4.01 
 687 -4.33 -5.01 -4.01 
 688 -4.43 -4.90 -4.01 
 689 -4.56 -4.93 -4.01 
 690 -4.23 -4.93 -4.01 
 691 -4.32 -4.98 -4.01 
 692 -4.54 -4.92 -4.01 
 693 -4.11 -4.86 -4.01 
 694 -4.37 -4.97 -4.01 
 695 -4.26 -4.89 -4.01 
 696 -4.18 -4.98 -4.01 
 697 -4.36 -4.96 -4.01 
 698 -4.27 -4.92 -4.01 
 699 -4.28 -4.85 -4.01 
 700 -4.41 -5.03 -4.01 
 701 -4.43 -5.09 -4.01 
 702 -4.24 -5.03 -4.01 
 703 -4.18 -5.10 -4.01 
 704 -4.23 -5.12 -4.01 
 705 -4.45 -5.05 -4.01 
 706 -4.25 -5.07 -4.01 
 707 -4.33 -5.00 -4.01 
 708 -4.30 -5.01 -4.01 
 709 -4.16 -4.98 -4.01 
 710 -4.42 -4.97 -4.01 
 711 -4.33 -4.96 -4.01 
 712 -4.35 -4.95 -4.01 
 713 -4.44 -5.10 -4.01 
 714 -4.29 -5.00 -4.01 
 715 -4.31 -5.11 -4.01 
 716 -4.52 -5.09 -4.01 
 717 -4.11 -5.01 -4.01 
 718 -4.27 -5.05 -4.01 
 719 -4.26 -5.03 -4.01 
 720 -4.25 -5.03 -4.01 
 721 -4.41 -4.78 -4.01 
 722 -4.22 -4.88 -4.01 
 723 -4.31 -4.83 -4.01 
 724 -4.03 -4.82 -4.01 
 725 -4.12 -5.05 -4.01 
 726 -4.21 -4.98 -4.01 
 727 -4.30 -4.86 -4.01 
 728 -4.13 -4.73 -4.01 
 729 -4.17 -4.74 -4.01 
 730 -4.16 -4.85 -4.01 
 731 -4.19 -4.79 -4.01 
 732 -4.21 -4.85 -4.01 
 733 -4.48 -4.92 -4.01 
 734 -4.18 -4.92 -4.01 
 735 -4.29 -4.96 -4.01 
 736 -4.24 -4.95 -4.01 
 737 -4.21 -4.92 -4.01 
 738 -4.33 -4.90 -4.01 
 739 -4.18 -4.95 -4.01 
 740 -4.36 -4.91 -4.01 
 741 -4.41 -4.85 -4.01 
 742 -4.46 -5.00 -4.01 
 743 -4.23 -5.04 -4.01 
 744 -4.34 -5.01 -4.01 
 745 -4.18 -4.96 -4.01 
 746 -4.43 -4.85 -4.01 
 747 -4.20 -4.92 -4.01 
 748 -4.10 -4.98 -4.01 
 749 -4.24 -4.95 -4.01 
 750 -4.18 -4.85 -4.01 
 751 -4.18 -4.78 -4.01 
 752 -4.15 -4.88 -4.01 
 753 -4.28 -4.80 -4.01 
 754 -4.37 -4.89 -4.01 
 755 -4.30 -4.84 -4.01 
 756 -4.21 -4.79 -4.01 
 757 -4.34 -4.83 -4.01 
 758 -4.11 -4.89 -4.01 
 759 -4.33 -4.83 -4.01 
 760 -4.27 -4.90 -4.01 
 761 -3.93 -4.84 -4.01 
 762 -4.36 -4.86 -3.93 
 763 -4.22 -4.84 -3.93 
 764 -4.23 -5.05 -3.93 
 765 -4.23 -4.98 -3.93 
 766 -4.49 -4.99 -3.93 
 767 -4.33 -4.85 -3.93 
 768 -4.17 -4.88 -3.93 
 769 -4.56 -4.75 -3.93 
 770 -4.19 -4.79 -3.93 
 771 -4.20 -4.85 -3.93 
 772 -4.15 -4.80 -3.93 
 773 -4.16 -4.91 -3.93 
 774 -4.38 -4.84 -3.93 
 775 -4.31 -4.97 -3.93 
 776 -4.21 -4.95 -3.93 
 777 -4.16 -4.82 -3.93 
 778 -4.20 -4.91 -3.93 
 779 -4.14 -4.96 -3.93 
 780 -4.06 -4.89 -3.93 
 781 -3.99 -4.97 -3.93 
 782 -4.26 -4.98 -3.93 
 783 -4.20 -4.81 -3.93 
 784 -4.21 -4.77 -3.93 
 785 -4.31 -5.03 -3.93 
 786 -4.33 -4.82 -3.93 
 787 -4.35 -4.88 -3.93 
 788 -4.19 -4.77 -3.93 
 789 -4.19 -4.94 -3.93 
 790 -4.50 -4.75 -3.93 
 791 -4.19 -4.87 -3.93 
 792 -4.34 -4.92 -3.93 
 793 -4.32 -4.81 -3.93 
 794 -4.00 -4.85 -3.93 
 795 -4.19 -5.05 -3.93 
 796 -4.18 -4.97 -3.93 
 797 -4.36 -4.93 -3.93 
 798 -4.31 -4.74 -3.93 
 799 -4.29 -4.69 -3.93 
 800 -4.11 -4.89 -3.93 
 801 -4.30 -5.00 -3.93 
 802 -4.00 -4.81 -3.93 
 803 -4.34 -4.90 -3.93 
 804 -4.00 -4.95 -3.93 
 805 -4.17 -4.97 -3.93 
 806 -4.35 -4.87 -3.93 
 807 -4.34 -4.86 -3.93 
 808 -4.36 -4.88 -3.93 
 809 -4.20 -4.90 -3.93 
 810 -4.07 -4.89 -3.93 
 811 -4.08 -4.88 -3.93 
 812 -4.28 -4.92 -3.93 
 813 -4.25 -4.71 -3.93 
 814 -4.27 -4.82 -3.93 
 815 -4.28 -4.89 -3.93 
 816 -4.38 -4.92 -3.93 
 817 -4.19 -4.69 -3.93 
 818 -4.22 -4.95 -3.93 
 819 -4.32 -4.92 -3.93 
 820 -4.36 -4.93 -3.93 
 821 -4.26 -4.80 -3.93 
 822 -4.38 -4.94 -3.93 
 823 -4.25 -4.96 -3.93 
 824 -4.31 -4.98 -3.93 
 825 -4.31 -4.88 -3.93 
 826 -4.10 -4.88 -3.93 
 827 -4.30 -4.64 -3.93 
 828 -4.16 -4.84 -3.93 
 829 -4.35 -4.86 -3.93 
 830 -4.09 -4.89 -3.93 
 831 -4.35 -4.82 -3.93 
 832 -4.27 -4.92 -3.93 
 833 -4.01 -4.89 -3.93 
 834 -4.29 -4.91 -3.93 
 835 -4.27 -4.92 -3.93 
 836 -4.17 -4.87 -3.93 
 837 -4.01 -4.90 -3.93 
 838 -4.24 -4.84 -3.93 
 839 -4.20 -4.89 -3.93 
 840 -4.27 -4.88 -3.93 
 841 -4.05 -5.03 -3.93 
 842 -4.33 -4.93 -3.93 
 843 -4.31 -4.81 -3.93 
 844 -4.25 -4.77 -3.93 
 845 -4.28 -4.89 -3.93 
 846 -4.18 -4.93 -3.93 
 847 -4.10 -4.89 -3.93 
 848 -4.23 -4.99 -3.93 
 849 -4.20 -4.91 -3.93 
 850 -4.19 -5.04 -3.93 
 851 -4.27 -5.02 -3.93 
 852 -4.27 -5.11 -3.93 
 853 -4.41 -5.11 -3.93 
 854 -4.31 -4.87 -3.93 
 855 -4.33 -4.95 -3.93 
 856 -4.08 -4.68 -3.93 
 857 -4.32 -4.62 -3.93 
 858 -4.02 -4.69 -3.93 
 859 -4.27 -4.70 -3.93 
 860 -4.24 -5.00 -3.93 
 861 -4.11 -4.95 -3.93 
 862 -4.52 -4.82 -3.93 
 863 -4.31 -4.74 -3.93 
 864 -4.22 -4.91 -3.93 
 865 -4.22 -4.73 -3.93 
 866 -4.20 -4.71 -3.93 
 867 -4.18 -4.66 -3.93 
 868 -4.26 -4.76 -3.93 
 869 -4.17 -4.81 -3.93 
 870 -4.38 -4.82 -3.93 
 871 -4.16 -4.90 -3.93 
 872 -4.29 -4.83 -3.93 
 873 -4.16 -4.86 -3.93 
 874 -4.15 -4.91 -3.93 
 875 -4.35 -4.79 -3.93 
 876 -4.06 -4.84 -3.93 
 877 -4.15 -4.72 -3.93 
 878 -4.23 -4.77 -3.93 
 879 -4.13 -4.92 -3.93 
 880 -4.41 -4.95 -3.93 
 881 -4.30 -4.71 -3.93 
 882 -4.19 -4.78 -3.93 
 883 -4.11 -4.79 -3.93 
 884 -4.24 -4.78 -3.93 
 885 -4.06 -4.72 -3.93 
 886 -4.06 -4.78 -3.93 
 887 -4.21 -4.70 -3.93 
 888 -3.98 -4.84 -3.93 
 889 -3.97 -4.84 -3.93 
 890 -4.22 -4.86 -3.93 
 891 -4.20 -4.94 -3.93 
 892 -3.88 -4.84 -3.93 
 893 -4.23 -4.77 -3.88 
 894 -4.11 -4.83 -3.88 
 895 -4.12 -4.75 -3.88 
 896 -4.17 -4.75 -3.88 
 897 -4.15 -4.81 -3.88 
 898 -4.28 -4.74 -3.88 
 899 -4.07 -4.79 -3.88 
 900 -4.22 -4.83 -3.88 
 901 -4.06 -4.83 -3.88 
 902 -3.98 -4.81 -3.88 
 903 -4.38 -4.84 -3.88 
 904 -4.22 -4.77 -3.88 
 905 -4.14 -4.77 -3.88 
 906 -4.24 -4.76 -3.88 
 907 -4.14 -4.83 -3.88 
 908 -4.28 -4.96 -3.88 
 909 -4.37 -4.94 -3.88 
 910 -4.33 -4.85 -3.88 
 911 -4.20 -4.80 -3.88 
 912 -4.23 -4.96 -3.88 
 913 -4.32 -4.86 -3.88 
 914 -4.26 -4.93 -3.88 
 915 -4.21 -4.89 -3.88 
 916 -4.25 -4.82 -3.88 
 917 -4.20 -4.84 -3.88 
 918 -4.13 -4.85 -3.88 
 919 -3.95 -4.90 -3.88 
 920 -4.07 -4.82 -3.88 
 921 -4.05 -4.84 -3.88 
 922 -4.00 -4.82 -3.88 
 923 -3.98 -4.89 -3.88 
 924 -4.19 -5.04 -3.88 
 925 -4.25 -4.95 -3.88 
 926 -4.21 -4.97 -3.88 
 927 -4.19 -4.83 -3.88 
 928 -4.30 -4.81 -3.88 
 929 -4.36 -4.94 -3.88 
 930 -4.39 -4.83 -3.88 
 931 -4.26 -4.77 -3.88 
 932 -4.17 -4.92 -3.88 
 933 -4.01 -4.63 -3.88 
 934 -4.28 -4.66 -3.88 
 935 -4.31 -4.72 -3.88 
 936 -4.16 -4.76 -3.88 
 937 -4.23 -4.91 -3.88 
 938 -4.27 -4.75 -3.88 
 939 -4.16 -4.63 -3.88 
 940 -4.02 -4.82 -3.88 
 941 -4.28 -4.64 -3.88 
 942 -4.29 -4.64 -3.88 
 943 -4.17 -4.83 -3.88 
 944 -4.20 -4.86 -3.88 
 945 -4.24 -4.77 -3.88 
 946 -4.13 -4.74 -3.88 
 947 -4.18 -4.85 -3.88 
 948 -4.31 -4.78 -3.88 
 949 -4.02 -4.76 -3.88 
 950 -4.06 -4.82 -3.88 
 951 -4.05 -4.72 -3.88 
 952 -4.10 -4.77 -3.88 
 953 -4.00 -4.78 -3.88 
 954 -4.04 -4.88 -3.88 
 955 -4.21 -4.89 -3.88 
 956 -4.24 -4.81 -3.88 
 957 -4.50 -4.80 -3.88 
 958 -4.18 -4.78 -3.88 
 959 -4.25 -4.71 -3.88 
 960 -4.16 -5.04 -3.88 
 961 -4.23 -4.79 -3.88 
 962 -4.10 -4.95 -3.88 
 963 -4.22 -4.85 -3.88 
 964 -4.18 -4.71 -3.88 
 965 -3.91 -4.90 -3.88 
 966 -4.08 -4.80 -3.88 
 967 -4.27 -5.02 -3.88 
 968 -4.07 -5.02 -3.88 
 969 -4.27 -4.92 -3.88 
 970 -4.10 -4.90 -3.88 
 971 -4.10 -4.84 -3.88 
 972 -4.28 -4.71 -3.88 
 973 -4.22 -4.85 -3.88 
 974 -4.20 -4.86 -3.88 
 975 -4.10 -4.87 -3.88 
 976 -4.24 -4.76 -3.88 
 977 -4.04 -4.98 -3.88 
 978 -4.21 -4.83 -3.88 
 979 -4.23 -4.85 -3.88 
 980 -4.27 -4.75 -3.88 
 981 -4.53 -4.72 -3.88 
 982 -4.19 -4.70 -3.88 
 983 -4.09 -4.81 -3.88 
 984 -4.22 -4.82 -3.88 
 985 -4.28 -4.86 -3.88 
 986 -4.18 -4.79 -3.88 
 987 -4.06 -4.81 -3.88 
 988 -4.20 -4.81 -3.88 
 989 -4.21 -4.80 -3.88 
 990 -4.14 -4.81 -3.88 
 991 -4.21 -4.70 -3.88 
 992 -4.26 -4.81 -3.88 
 993 -4.00 -4.86 -3.88 
 994 -4.13 -4.80 -3.88 
 995 -4.10 -4.89 -3.88 
 996 -4.11 -4.81 -3.88 
 997 -4.14 -4.95 -3.88 
 998 -3.85 -4.76 -3.88 
 999 -4.11 -4.78 -3.85 
1000 -4.32 -4.82 -3.85 
1001 -3.98 -4.77 -3.85 
1002 -4.03 -4.72 -3.85 
1003 -4.08 -4.69 -3.85 
1004 -3.90 -4.86 -3.85 
1005 -4.13 -4.70 -3.85 
1006 -4.26 -4.87 -3.85 
1007 -4.21 -4.95 -3.85 
1008 -4.17 -4.74 -3.85 
1009 -4.13 -4.83 -3.85 
1010 -4.02 -4.79 -3.85 
1011 -4.19 -4.74 -3.85 
1012 -4.03 -4.95 -3.85 
1013 -4.01 -5.02 -3.85 
1014 -4.03 -4.99 -3.85 
1015 -4.30 -4.97 -3.85 
1016 -4.02 -4.92 -3.85 
1017 -4.28 -4.85 -3.85 
1018 -4.20 -4.90 -3.85 
1019 -4.16 -4.74 -3.85 
1020 -3.96 -4.89 -3.85 
1021 -3.99 -4.97 -3.85 
1022 -4.26 -4.89 -3.85 
1023 -4.45 -4.83 -3.85 
1024 -4.11 -4.80 -3.85 
1025 -4.33 -4.68 -3.85 
1026 -4.25 -4.87 -3.85 
1027 -4.12 -4.87 -3.85 
1028 -4.28 -4.93 -3.85 
1029 -4.40 -4.88 -3.85 
1030 -4.08 -4.76 -3.85 
1031 -4.23 -4.66 -3.85 
1032 -4.16 -4.77 -3.85 
1033 -4.21 -4.93 -3.85 
1034 -4.28 -4.80 -3.85 
1035 -4.13 -4.67 -3.85 
1036 -3.89 -4.76 -3.85 
1037 -4.32 -4.88 -3.85 
1038 -4.26 -4.94 -3.85 
1039 -4.18 -4.72 -3.85 
1040 -4.22 -4.75 -3.85 
1041 -4.02 -4.73 -3.85 
1042 -4.15 -4.76 -3.85 
1043 -4.17 -4.58 -3.85 
1044 -4.18 -4.64 -3.85 
1045 -4.25 -4.83 -3.85 
1046 -4.03 -4.87 -3.85 
1047 -4.15 -4.63 -3.85 
1048 -4.29 -4.66 -3.85 
1049 -4.05 -4.64 -3.85 
1050 -4.03 -4.80 -3.85 
1051 -4.05 -4.86 -3.85 
1052 -3.96 -4.66 -3.85 
1053 -4.05 -4.88 -3.85 
1054 -4.11 -4.74 -3.85 
1055 -4.23 -4.87 -3.85 
1056 -4.13 -4.76 -3.85 
1057 -4.13 -4.82 -3.85 
1058 -4.14 -4.72 -3.85 
1059 -4.24 -4.76 -3.85 
1060 -4.22 -4.63 -3.85 
1061 -4.40 -4.75 -3.85 
1062 -4.36 -4.80 -3.85 
1063 -4.28 -4.90 -3.85 
1064 -4.20 -4.81 -3.85 
1065 -4.11 -4.81 -3.85 
1066 -3.90 -4.81 -3.85 
1067 -4.08 -4.93 -3.85 
1068 -4.20 -4.69 -3.85 
1069 -4.22 -4.77 -3.85 
1070 -4.15 -4.66 -3.85 
1071 -4.16 -4.72 -3.85 
1072 -3.98 -4.66 -3.85 
1073 -4.20 -4.74 -3.85 
1074 -4.14 -4.73 -3.85 
1075 -4.33 -4.88 -3.85 
1076 -4.18 -4.87 -3.85 
1077 -4.01 -4.90 -3.85 
1078 -4.00 -4.97 -3.85 
1079 -4.24 -4.97 -3.85 
1080 -3.99 -4.96 -3.85 
1081 -4.23 -4.68 -3.85 
1082 -4.22 -4.95 -3.85 
1083 -4.15 -4.66 -3.85 
1084 -4.22 -4.89 -3.85 
1085 -4.21 -4.85 -3.85 
1086 -4.23 -4.95 -3.85 
1087 -3.97 -4.83 -3.85 
1088 -4.03 -4.91 -3.85 
1089 -4.04 -4.84 -3.85 
1090 -4.12 -4.87 -3.85 
1091 -4.23 -5.02 -3.85 
1092 -3.97 -4.91 -3.85 
1093 -4.27 -4.89 -3.85 
1094 -3.92 -4.97 -3.85 
1095 -4.10 -4.91 -3.85 
1096 -4.17 -4.77 -3.85 
1097 -3.99 -4.85 -3.85 
1098 -4.03 -5.01 -3.85 
1099 -4.24 -4.93 -3.85 
1100 -4.43 -4.99 -3.85 
1101 -3.95 -4.99 -3.85 
1102 -4.23 -5.05 -3.85 
1103 -3.91 -4.87 -3.85 
1104 -3.97 -4.90 -3.85 
1105 -4.02 -4.84 -3.85 
1106 -4.00 -4.74 -3.85 
1107 -4.09 -4.90 -3.85 
1108 -4.22 -4.90 -3.85 
1109 -3.95 -4.99 -3.85 
1110 -4.37 -4.90 -3.85 
1111 -4.12 -4.85 -3.85 
1112 -4.18 -4.84 -3.85 
1113 -4.10 -4.94 -3.85 
1114 -4.04 -4.93 -3.85 
1115 -4.06 -4.94 -3.85 
1116 -3.94 -4.88 -3.85 
1117 -4.07 -4.92 -3.85 
1118 -4.11 -4.84 -3.85 
1119 -4.06 -4.79 -3.85 
1120 -4.15 -4.95 -3.85 
1121 -4.11 -4.83 -3.85 
1122 -4.11 -4.85 -3.85 
1123 -4.25 -4.85 -3.85 
1124 -4.10 -4.70 -3.85 
1125 -4.07 -5.00 -3.85 
1126 -4.03 -4.84 -3.85 
1127 -3.96 -4.72 -3.85 
1128 -4.24 -4.72 -3.85 
1129 -3.88 -4.70 -3.85 
1130 -4.03 -4.69 -3.85 
1131 -4.17 -4.72 -3.85 
1132 -3.88 -4.80 -3.85 
1133 -4.03 -4.89 -3.85 
1134 -3.94 -4.87 -3.85 
1135 -3.80 -4.85 -3.85 
1136 -4.09 -4.84 -3.80 
1137 -4.08 -4.77 -3.80 
1138 -4.07 -4.72 -3.80 
1139 -4.12 -4.66 -3.80 
1140 -4.04 -4.77 -3.80 
1141 -4.05 -4.76 -3.80 
1142 -3.95 -4.76 -3.80 
1143 -4.27 -4.89 -3.80 
1144 -3.78 -4.89 -3.80 
1145 -3.89 -4.96 -3.78 
1146 -3.95 -4.87 -3.78 
1147 -3.92 -4.96 -3.78 
1148 -3.98 -4.89 -3.78 
1149 -3.95 -4.90 -3.78 
1150 -3.71 -4.90 -3.78 
1151 -3.92 -4.94 -3.71 
1152 -4.17 -4.94 -3.71 
1153 -3.97 -4.82 -3.71 
1154 -3.97 -4.87 -3.71 
1155 -3.95 -4.63 -3.71 
1156 -4.12 -4.69 -3.71 
1157 -3.97 -4.51 -3.71 
1158 -3.87 -4.64 -3.71 
1159 -4.12 -4.71 -3.71 
1160 -4.14 -4.59 -3.71 
1161 -3.96 -4.61 -3.71 
1162 -4.12 -4.61 -3.71 
1163 -4.16 -4.52 -3.71 
1164 -3.97 -4.62 -3.71 
1165 -4.08 -4.61 -3.71 
1166 -4.10 -4.61 -3.71 
1167 -3.98 -4.61 -3.71 
1168 -3.99 -4.62 -3.71 
1169 -4.18 -4.60 -3.71 
1170 -3.95 -4.71 -3.71 
1171 -3.94 -4.67 -3.71 
1172 -4.14 -4.67 -3.71 
1173 -3.85 -4.66 -3.71 
1174 -3.89 -4.70 -3.71 
1175 -3.92 -4.78 -3.71 
1176 -4.14 -4.66 -3.71 
1177 -3.98 -4.75 -3.71 
1178 -3.93 -4.77 -3.71 
1179 -4.00 -4.58 -3.71 
1180 -4.02 -4.71 -3.71 
1181 -4.09 -4.61 -3.71 
1182 -3.83 -4.55 -3.71 
1183 -3.93 -4.36 -3.71 
1184 -4.02 -4.47 -3.71 
1185 -4.04 -4.37 -3.71 
1186 -3.97 -4.28 -3.71 
1187 -3.70 -4.28 -3.71 
1188 -4.10 -4.29 -3.70 
1189 -3.88 -4.29 -3.70 
1190 -4.06 -4.30 -3.70 
1191 -3.97 -4.38 -3.70 
1192 -4.01 -4.47 -3.70 
1193 -4.00 -4.55 -3.70 
1194 -4.02 -4.62 -3.70 
1195 -3.92 -4.54 -3.70 
1196 -3.90 -4.64 -3.70 
1197 -4.01 -4.70 -3.70 
1198 -3.99 -4.70 -3.70 
1199 -3.90 -4.45 -3.70 
1200 -4.13 -4.55 -3.70 
1201 -3.93 -4.55 -3.70 
1202 -3.96 -4.46 -3.70 
1203 -3.96 -4.47 -3.70 
1204 -4.01 -4.47 -3.70 
1205 -3.98 -4.54 -3.70 
1206 -3.90 -4.60 -3.70 
1207 -3.95 -4.46 -3.70 
1208 -3.88 -4.46 -3.70 
1209 -3.89 -4.47 -3.70 
1210 -4.02 -4.52 -3.70 
1211 -3.82 -4.52 -3.70 
1212 -4.02 -4.53 -3.70 
1213 -3.89 -4.65 -3.70 
1214 -3.99 -4.55 -3.70 
1215 -4.05 -4.47 -3.70 
1216 -3.83 -4.55 -3.70 
1217 -4.13 -4.56 -3.70 
1218 -4.01 -4.65 -3.70 
1219 -3.92 -4.65 -3.70 
1220 -3.76 -4.55 -3.70 
1221 -3.97 -4.64 -3.70 
1222 -3.98 -4.62 -3.70 
1223 -4.04 -4.53 -3.70 
1224 -4.07 -4.52 -3.70 
1225 -4.06 -4.60 -3.70 
1226 -4.04 -4.62 -3.70 
1227 -4.13 -4.63 -3.70 
1228 -3.68 -4.63 -3.70 
1229 -3.78 -4.63 -3.68 
1230 -4.01 -4.65 -3.68 
1231 -4.06 -4.56 -3.68 
1232 -3.97 -4.56 -3.68 
1233 -4.02 -4.47 -3.68 
1234 -3.91 -4.57 -3.68 
1235 -3.98 -4.47 -3.68 
1236 -3.90 -4.47 -3.68 
1237 -3.81 -4.45 -3.68 
1238 -3.92 -4.46 -3.68 
1239 -3.84 -4.57 -3.68 
1240 -3.92 -4.52 -3.68 
1241 -4.00 -4.74 -3.68 
1242 -4.09 -4.45 -3.68 
1243 -4.10 -4.44 -3.68 
1244 -3.93 -4.56 -3.68 
1245 -3.98 -4.60 -3.68 
1246 -3.96 -4.68 -3.68 
1247 -4.13 -4.75 -3.68 
1248 -3.96 -4.82 -3.68 
1249 -4.03 -4.52 -3.68 
1250 -3.98 -4.75 -3.68 
1251 -3.90 -4.72 -3.68 
1252 -3.89 -4.70 -3.68 
1253 -3.91 -4.59 -3.68 
1254 -4.02 -4.71 -3.68 
1255 -4.18 -4.59 -3.68 
1256 -3.91 -4.33 -3.68 
1257 -3.92 -4.59 -3.68 
1258 -4.09 -4.39 -3.68 
1259 -3.87 -4.31 -3.68 
1260 -3.94 -4.56 -3.68 
1261 -3.95 -4.47 -3.68 
1262 -4.10 -4.54 -3.68 
1263 -3.90 -4.55 -3.68 
1264 -4.14 -4.49 -3.68 
1265 -3.80 -4.56 -3.68 
1266 -3.77 -4.47 -3.68 
1267 -4.03 -4.32 -3.68 
1268 -4.00 -4.27 -3.68 
1269 -4.09 -4.37 -3.68 
1270 -3.72 -4.36 -3.68 
1271 -3.94 -4.34 -3.68 
1272 -4.01 -4.34 -3.68 
1273 -4.15 -4.35 -3.68 
1274 -3.81 -4.53 -3.68 
1275 -3.93 -4.37 -3.68 
1276 -3.94 -4.42 -3.68 
1277 -4.08 -4.34 -3.68 
1278 -3.83 -4.50 -3.68 
1279 -4.11 -4.33 -3.68 
1280 -3.93 -4.33 -3.68 
1281 -3.80 -4.41 -3.68 
1282 -3.95 -4.43 -3.68 
1283 -4.05 -4.41 -3.68 
1284 -3.88 -4.41 -3.68 
1285 -3.87 -4.41 -3.68 
1286 -3.90 -4.55 -3.68 
1287 -4.11 -4.47 -3.68 
1288 -3.99 -4.61 -3.68 
1289 -3.91 -4.45 -3.68 
1290 -3.78 -4.46 -3.68 
1291 -4.01 -4.46 -3.68 
1292 -4.37 -4.47 -3.68 
1293 -3.75 -4.50 -3.68 
1294 -3.89 -4.40 -3.68 
1295 -4.15 -4.51 -3.68 
1296 -3.86 -4.49 -3.68 
1297 -3.71 -4.48 -3.68 
1298 -3.98 -4.61 -3.68 
1299 -3.81 -4.44 -3.68 
1300 -4.12 -4.39 -3.68 
1301 -3.92 -4.48 -3.68 
1302 -4.01 -4.43 -3.68 
1303 -3.89 -4.49 -3.68 
1304 -3.97 -4.49 -3.68 
1305 -3.88 -4.45 -3.68 
1306 -3.82 -4.53 -3.68 
1307 -4.09 -4.44 -3.68 
1308 -4.08 -4.41 -3.68 
1309 -4.01 -4.35 -3.68 
1310 -3.82 -4.41 -3.68 
1311 -4.00 -4.41 -3.68 
1312 -3.94 -4.42 -3.68 
1313 -3.91 -4.53 -3.68 
1314 -3.82 -4.54 -3.68 
1315 -3.77 -4.54 -3.68 
1316 -4.06 -4.54 -3.68 
1317 -3.98 -4.36 -3.68 
1318 -4.05 -4.40 -3.68 
1319 -3.99 -4.42 -3.68 
1320 -3.97 -4.60 -3.68 
1321 -3.96 -4.55 -3.68 
1322 -3.93 -4.40 -3.68 
1323 -3.70 -4.48 -3.68 
1324 -4.02 -4.44 -3.68 
1325 -4.04 -4.44 -3.68 
1326 -3.90 -4.48 -3.68 
1327 -3.94 -4.55 -3.68 
1328 -3.72 -4.56 -3.68 
1329 -3.90 -4.47 -3.68 
1330 -3.88 -4.45 -3.68 
1331 -3.78 -4.46 -3.68 
1332 -3.93 -4.38 -3.68 
1333 -3.87 -4.39 -3.68 
1334 -3.94 -4.45 -3.68 
1335 -3.78 -4.56 -3.68 
1336 -3.86 -4.61 -3.68 
1337 -3.89 -4.54 -3.68 
1338 -3.85 -4.62 -3.68 
1339 -3.95 -4.61 -3.68 
1340 -3.76 -4.59 -3.68 
1341 -3.84 -4.70 -3.68 
1342 -3.88 -4.48 -3.68 
1343 -3.76 -4.63 -3.68 
1344 -4.08 -4.69 -3.68 
1345 -3.75 -4.67 -3.68 
1346 -3.84 -4.67 -3.68 
1347 -3.80 -4.73 -3.68 
1348 -3.86 -4.87 -3.68 
1349 -3.83 -4.71 -3.68 
1350 -3.85 -4.80 -3.68 
1351 -3.88 -4.72 -3.68 
1352 -3.78 -4.65 -3.68 
1353 -3.93 -4.72 -3.68 
1354 -3.77 -4.63 -3.68 
1355 -3.82 -4.79 -3.68 
1356 -3.90 -4.72 -3.68 
1357 -3.83 -4.63 -3.68 
1358 -4.06 -4.45 -3.68 
1359 -4.05 -4.49 -3.68 
1360 -3.95 -4.48 -3.68 
1361 -4.01 -4.50 -3.68 
1362 -3.78 -4.49 -3.68 
1363 -3.81 -4.47 -3.68 
1364 -3.91 -4.42 -3.68 
1365 -3.92 -4.64 -3.68 
1366 -3.72 -4.37 -3.68 
1367 -3.72 -4.50 -3.68 
1368 -4.04 -4.55 -3.68 
1369 -4.04 -4.50 -3.68 
1370 -3.82 -4.52 -3.68 
1371 -4.07 -4.52 -3.68 
1372 -3.82 -4.50 -3.68 
1373 -3.92 -4.54 -3.68 
1374 -3.85 -4.53 -3.68 
1375 -3.85 -4.53 -3.68 
1376 -4.12 -4.53 -3.68 
1377 -3.86 -4.47 -3.68 
1378 -3.72 -4.50 -3.68 
1379 -3.85 -4.50 -3.68 
1380 -3.91 -4.47 -3.68 
1381 -3.93 -4.53 -3.68 
1382 -4.02 -4.56 -3.68 
1383 -3.88 -4.56 -3.68 
1384 -3.91 -4.57 -3.68 
1385 -4.01 -4.57 -3.68 
1386 -3.98 -4.56 -3.68 
1387 -3.93 -4.52 -3.68 
1388 -3.83 -4.51 -3.68 
1389 -3.86 -4.47 -3.68 
1390 -3.91 -4.49 -3.68 
1391 -4.02 -4.44 -3.68 
1392 -3.84 -4.45 -3.68 
1393 -3.98 -4.44 -3.68 
1394 -4.05 -4.42 -3.68 
1395 -3.73 -4.43 -3.68 
1396 -3.82 -4.45 -3.68 
1397 -3.97 -4.46 -3.68 
1398 -3.72 -4.50 -3.68 
1399 -4.03 -4.51 -3.68 
1400 -3.90 -4.46 -3.68 
1401 -4.00 -4.43 -3.68 
1402 -3.81 -4.58 -3.68 
1403 -3.93 -4.54 -3.68 
1404 -3.87 -4.51 -3.68 
1405 -3.94 -4.44 -3.68 
1406 -3.77 -4.54 -3.68 
1407 -3.93 -4.45 -3.68 
1408 -3.79 -4.43 -3.68 
1409 -3.95 -4.50 -3.68 
1410 -3.86 -4.52 -3.68 
1411 -4.02 -4.59 -3.68 
1412 -3.91 -4.61 -3.68 
1413 -3.89 -4.52 -3.68 
1414 -4.00 -4.49 -3.68 
1415 -3.73 -4.59 -3.68 
1416 -3.92 -4.60 -3.68 
1417 -3.86 -4.59 -3.68 
1418 -3.86 -4.50 -3.68 
1419 -3.93 -4.61 -3.68 
1420 -4.04 -4.54 -3.68 
1421 -3.77 -4.59 -3.68 
1422 -3.98 -4.54 -3.68 
1423 -4.03 -4.52 -3.68 
1424 -3.73 -4.53 -3.68 
1425 -3.91 -4.59 -3.68 
1426 -3.90 -4.47 -3.68 
1427 -3.95 -4.49 -3.68 
1428 -4.05 -4.48 -3.68 
1429 -3.82 -4.49 -3.68 
1430 -3.85 -4.51 -3.68 
1431 -3.93 -4.50 -3.68 
1432 -4.14 -4.48 -3.68 
1433 -3.90 -4.49 -3.68 
1434 -4.03 -4.55 -3.68 
1435 -3.96 -4.54 -3.68 
1436 -3.95 -4.54 -3.68 
1437 -3.93 -4.48 -3.68 
1438 -4.02 -4.56 -3.68 
1439 -4.07 -4.55 -3.68 
1440 -3.96 -4.63 -3.68 
1441 -3.89 -4.47 -3.68 
1442 -3.92 -4.64 -3.68 
1443 -3.98 -4.58 -3.68 
1444 -3.94 -4.64 -3.68 
1445 -4.01 -4.58 -3.68 
1446 -3.78 -4.58 -3.68 
1447 -3.78 -4.60 -3.68 
1448 -3.86 -4.59 -3.68 
1449 -3.93 -4.49 -3.68 
1450 -3.62 -4.50 -3.68 
1451 -3.96 -4.51 -3.62 
1452 -3.88 -4.51 -3.62 
1453 -3.80 -4.51 -3.62 
1454 -4.02 -4.50 -3.62 
1455 -3.99 -4.51 -3.62 
1456 -3.91 -4.51 -3.62 
1457 -3.98 -4.50 -3.62 
1458 -3.91 -4.51 -3.62 
1459 -3.93 -4.51 -3.62 
1460 -4.02 -4.50 -3.62 
1461 -3.77 -4.59 -3.62 
1462 -3.82 -4.50 -3.62 
1463 -3.80 -4.57 -3.62 
1464 -3.98 -4.50 -3.62 
1465 -3.84 -4.50 -3.62 
1466 -4.21 -4.50 -3.62 
1467 -3.89 -4.54 -3.62 
1468 -3.81 -4.55 -3.62 
1469 -3.87 -4.61 -3.62 
1470 -3.99 -4.58 -3.62 
1471 -3.92 -4.50 -3.62 
1472 -4.00 -4.59 -3.62 
1473 -3.83 -4.60 -3.62 
1474 -4.08 -4.59 -3.62 
1475 -3.98 -4.59 -3.62 
1476 -3.83 -4.59 -3.62 
1477 -3.76 -4.57 -3.62 
1478 -3.63 -4.56 -3.62 
1479 -3.90 -4.54 -3.62 
1480 -4.00 -4.55 -3.62 
1481 -3.90 -4.47 -3.62 
1482 -3.97 -4.44 -3.62 
1483 -3.86 -4.45 -3.62 
1484 -3.88 -4.54 -3.62 
1485 -3.81 -4.57 -3.62 
1486 -3.68 -4.58 -3.62 
1487 -3.82 -4.48 -3.62 
1488 -3.89 -4.50 -3.62 
1489 -3.96 -4.49 -3.62 
1490 -3.75 -4.49 -3.62 
1491 -3.83 -4.60 -3.62 
1492 -3.81 -4.61 -3.62 
1493 -3.89 -4.61 -3.62 
1494 -4.00 -4.61 -3.62 
1495 -4.12 -4.60 -3.62 
1496 -3.83 -4.60 -3.62 
1497 -3.67 -4.58 -3.62 
1498 -3.77 -4.43 -3.62 
1499 -4.04 -4.44 -3.62 
1500 -3.76 -4.43 -3.62 
1501 -4.04 -4.46 -3.62 
1502 -3.70 -4.63 -3.62 
1503 -3.78 -4.65 -3.62 
1504 -4.01 -4.56 -3.62 
1505 -3.86 -4.58 -3.62 
1506 -3.82 -4.65 -3.62 
1507 -3.90 -4.45 -3.62 
1508 -3.82 -4.40 -3.62 
1509 -3.71 -4.42 -3.62 
1510 -3.81 -4.40 -3.62 
1511 -3.77 -4.32 -3.62 
1512 -4.13 -4.32 -3.62 
1513 -3.86 -4.32 -3.62 
1514 -3.79 -4.33 -3.62 
1515 -3.87 -4.35 -3.62 
1516 -3.94 -4.35 -3.62 
1517 -3.91 -4.34 -3.62 
1518 -4.06 -4.35 -3.62 
1519 -3.89 -4.36 -3.62 
1520 -4.04 -4.35 -3.62 
1521 -3.96 -4.35 -3.62 
1522 -3.90 -4.35 -3.62 
1523 -3.88 -4.36 -3.62 
1524 -4.07 -4.36 -3.62 
1525 -3.95 -4.39 -3.62 
1526 -3.81 -4.38 -3.62 
1527 -3.85 -4.38 -3.62 
1528 -4.02 -4.38 -3.62 
1529 -4.04 -4.41 -3.62 
1530 -3.87 -4.41 -3.62 
1531 -3.73 -4.41 -3.62 
1532 -3.86 -4.41 -3.62 
1533 -3.87 -4.41 -3.62 
1534 -3.84 -4.41 -3.62 
1535 -3.87 -4.41 -3.62 
1536 -3.87 -4.41 -3.62 
1537 -3.92 -4.39 -3.62 
1538 -3.99 -4.42 -3.62 
1539 -3.75 -4.51 -3.62 
1540 -3.79 -4.62 -3.62 
1541 -3.87 -4.61 -3.62 
1542 -3.77 -4.68 -3.62 
1543 -3.95 -4.50 -3.62 
1544 -3.78 -4.50 -3.62 
1545 -3.95 -4.50 -3.62 
1546 -3.69 -4.61 -3.62 
1547 -3.64 -4.60 -3.62 
1548 -3.85 -4.59 -3.62 
1549 -3.87 -4.45 -3.62 
1550 -3.79 -4.58 -3.62 
1551 -3.96 -4.57 -3.62 
1552 -3.76 -4.58 -3.62 
1553 -3.71 -4.60 -3.62 
1554 -4.00 -4.49 -3.62 
1555 -3.96 -4.59 -3.62 
1556 -3.95 -4.72 -3.62 
1557 -3.98 -4.61 -3.62 
1558 -3.83 -4.57 -3.62 
1559 -3.89 -4.64 -3.62 
1560 -3.91 -4.58 -3.62 
1561 -3.70 -4.63 -3.62 
1562 -3.83 -4.63 -3.62 
1563 -3.74 -4.69 -3.62 
1564 -3.98 -4.64 -3.62 
1565 -3.85 -4.59 -3.62 
1566 -3.65 -4.76 -3.62 
1567 -3.78 -4.70 -3.62 
1568 -4.00 -4.58 -3.62 
1569 -3.86 -4.56 -3.62 
1570 -4.13 -4.51 -3.62 
1571 -3.99 -4.38 -3.62 
1572 -3.94 -4.52 -3.62 
1573 -3.82 -4.52 -3.62 
1574 -3.88 -4.51 -3.62 
1575 -3.62 -4.61 -3.62 
1576 -3.88 -4.61 -3.62 
1577 -3.80 -4.56 -3.62 
1578 -3.82 -4.62 -3.62 
1579 -3.97 -4.64 -3.62 
1580 -3.86 -4.55 -3.62 
1581 -3.91 -4.58 -3.62 
1582 -4.05 -4.45 -3.62 
1583 -4.01 -4.56 -3.62 
1584 -3.63 -4.68 -3.62 
1585 -3.95 -4.68 -3.62 
1586 -3.85 -4.65 -3.62 
1587 -3.92 -4.86 -3.62 
1588 -3.98 -4.75 -3.62 
1589 -4.12 -4.74 -3.62 
1590 -3.84 -4.66 -3.62 
1591 -3.80 -4.75 -3.62 
1592 -3.98 -4.74 -3.62 
1593 -3.87 -4.68 -3.62 
1594 -3.88 -4.73 -3.62 
1595 -3.91 -4.83 -3.62 
1596 -4.03 -4.85 -3.62 
1597 -4.08 -4.67 -3.62 
1598 -4.04 -4.67 -3.62 
1599 -3.88 -4.58 -3.62 
1600 -3.67 -4.74 -3.62 
1601 -3.98 -4.76 -3.62 
1602 -4.00 -4.64 -3.62 
1603 -4.08 -4.77 -3.62 
1604 -3.89 -4.84 -3.62 
1605 -3.93 -4.70 -3.62 
1606 -4.00 -4.77 -3.62 
1607 -3.80 -4.65 -3.62 
1608 -4.01 -4.67 -3.62 
1609 -3.68 -4.67 -3.62 
1610 -3.99 -4.65 -3.62 
1611 -3.88 -4.70 -3.62 
1612 -3.97 -4.63 -3.62 
1613 -3.80 -4.73 -3.62 
1614 -3.91 -4.66 -3.62 
1615 -3.85 -4.69 -3.62 
1616 -3.90 -4.69 -3.62 
1617 -4.08 -4.67 -3.62 
1618 -3.68 -4.72 -3.62 
1619 -3.79 -4.55 -3.62 
1620 -3.97 -4.67 -3.62 
1621 -4.16 -4.58 -3.62 
1622 -3.84 -4.75 -3.62 
1623 -4.00 -4.63 -3.62 
1624 -3.96 -4.68 -3.62 
1625 -3.75 -4.64 -3.62 
1626 -4.09 -4.67 -3.62 
1627 -3.94 -4.58 -3.62 
1628 -4.12 -4.76 -3.62 
1629 -3.96 -4.68 -3.62 
1630 -4.02 -4.69 -3.62 
1631 -4.02 -4.71 -3.62 
1632 -4.10 -4.65 -3.62 
1633 -3.80 -4.50 -3.62 
1634 -3.98 -4.65 -3.62 
1635 -3.83 -4.66 -3.62 
1636 -3.75 -4.64 -3.62 
1637 -3.80 -4.70 -3.62 
1638 -4.04 -4.70 -3.62 
1639 -3.91 -4.60 -3.62 
1640 -3.94 -4.60 -3.62 
1641 -3.85 -4.69 -3.62 
1642 -3.85 -4.70 -3.62 
1643 -3.85 -4.69 -3.62 
1644 -3.89 -4.65 -3.62 
1645 -4.11 -4.58 -3.62 
1646 -4.02 -4.54 -3.62 
1647 -3.90 -4.34 -3.62 
1648 -3.91 -4.35 -3.62 
1649 -4.16 -4.35 -3.62 
1650 -3.82 -4.34 -3.62 
1651 -3.86 -4.35 -3.62 
1652 -3.85 -4.46 -3.62 
1653 -3.94 -4.53 -3.62 
1654 -3.77 -4.46 -3.62 
1655 -3.99 -4.48 -3.62 
1656 -3.92 -4.46 -3.62 
1657 -3.86 -4.59 -3.62 
1658 -3.93 -4.47 -3.62 
1659 -3.91 -4.48 -3.62 
1660 -4.04 -4.55 -3.62 
1661 -3.83 -4.52 -3.62 
1662 -3.86 -4.53 -3.62 
1663 -3.96 -4.54 -3.62 
1664 -3.74 -4.55 -3.62 
1665 -3.88 -4.44 -3.62 
1666 -3.77 -4.54 -3.62 
1667 -3.90 -4.44 -3.62 
1668 -3.87 -4.44 -3.62 
1669 -3.78 -4.46 -3.62 
1670 -3.93 -4.43 -3.62 
1671 -4.21 -4.44 -3.62 
1672 -3.81 -4.47 -3.62 
1673 -3.95 -4.44 -3.62 
1674 -3.85 -4.44 -3.62 
1675 -3.80 -4.46 -3.62 
1676 -4.16 -4.51 -3.62 
1677 -3.77 -4.50 -3.62 
1678 -3.95 -4.48 -3.62 
1679 -4.09 -4.44 -3.62 
1680 -4.00 -4.50 -3.62 
1681 -3.81 -4.45 -3.62 
1682 -3.83 -4.43 -3.62 
1683 -3.99 -4.44 -3.62 
1684 -4.03 -4.44 -3.62 
1685 -3.97 -4.48 -3.62 
1686 -3.94 -4.44 -3.62 
1687 -3.90 -4.55 -3.62 
1688 -3.92 -4.65 -3.62 
1689 -3.78 -4.51 -3.62 
1690 -3.91 -4.62 -3.62 
1691 -3.73 -4.66 -3.62 
1692 -3.85 -4.68 -3.62 
1693 -3.91 -4.67 -3.62 
1694 -4.05 -4.66 -3.62 
1695 -3.99 -4.68 -3.62 
1696 -3.85 -4.62 -3.62 
1697 -4.01 -4.73 -3.62 
1698 -3.68 -4.47 -3.62 
1699 -3.89 -4.56 -3.62 
1700 -3.77 -4.72 -3.62 
1701 -3.76 -4.61 -3.62 
1702 -3.81 -4.67 -3.62 
1703 -3.78 -4.58 -3.62 
1704 -3.95 -4.55 -3.62 
1705 -3.87 -4.54 -3.62 
1706 -3.91 -4.36 -3.62 
1707 -3.82 -4.44 -3.62 
1708 -3.77 -4.44 -3.62 
1709 -3.99 -4.45 -3.62 
1710 -3.69 -4.45 -3.62 
1711 -3.84 -4.36 -3.62 
1712 -3.86 -4.62 -3.62 
1713 -4.07 -4.73 -3.62 
1714 -3.90 -4.62 -3.62 
1715 -3.86 -4.70 -3.62 
1716 -4.01 -4.80 -3.62 
1717 -3.76 -4.75 -3.62 
1718 -3.92 -4.61 -3.62 
1719 -3.86 -4.53 -3.62 
1720 -4.00 -4.63 -3.62 
1721 -3.94 -4.47 -3.62 
1722 -4.05 -4.47 -3.62 
1723 -4.05 -4.46 -3.62 
1724 -4.21 -4.45 -3.62 
1725 -4.00 -4.45 -3.62 
1726 -3.83 -4.33 -3.62 
1727 -3.62 -4.52 -3.62 
1728 -3.96 -4.52 -3.62 
1729 -3.98 -4.52 -3.62 
1730 -3.82 -4.69 -3.62 
1731 -3.93 -4.54 -3.62 
1732 -3.97 -4.53 -3.62 
1733 -3.90 -4.31 -3.62 
1734 -4.01 -4.34 -3.62 
1735 -3.87 -4.45 -3.62 
1736 -3.87 -4.46 -3.62 
1737 -4.09 -4.34 -3.62 
1738 -3.91 -4.33 -3.62 
1739 -3.97 -4.43 -3.62 
1740 -4.09 -4.39 -3.62 
1741 -3.78 -4.38 -3.62 
1742 -3.77 -4.33 -3.62 
1743 -4.04 -4.34 -3.62 
1744 -3.82 -4.35 -3.62 
1745 -3.88 -4.33 -3.62 
1746 -3.81 -4.48 -3.62 
1747 -3.71 -4.47 -3.62 
1748 -4.02 -4.35 -3.62 
1749 -3.87 -4.36 -3.62 
1750 -3.82 -4.38 -3.62 
1751 -3.90 -4.37 -3.62 
1752 -4.05 -4.49 -3.62 
1753 -3.96 -4.46 -3.62 
1754 -4.05 -4.38 -3.62 
1755 -3.89 -4.48 -3.62 
1756 -3.85 -4.46 -3.62 
1757 -3.90 -4.36 -3.62 
1758 -3.65 -4.37 -3.62 
1759 -3.88 -4.44 -3.62 
1760 -3.89 -4.61 -3.62 
1761 -3.75 -4.61 -3.62 
1762 -4.02 -4.63 -3.62 
1763 -3.93 -4.63 -3.62 
1764 -3.95 -4.52 -3.62 
1765 -3.78 -4.52 -3.62 
1766 -3.93 -4.53 -3.62 
1767 -3.83 -4.63 -3.62 
1768 -3.73 -4.64 -3.62 
1769 -3.80 -4.54 -3.62 
1770 -3.91 -4.62 -3.62 
1771 -3.78 -4.52 -3.62 
1772 -3.92 -4.53 -3.62 
1773 -3.77 -4.52 -3.62 
1774 -3.74 -4.53 -3.62 
1775 -3.74 -4.52 -3.62 
1776 -3.80 -4.71 -3.62 
1777 -3.79 -4.70 -3.62 
1778 -3.84 -4.69 -3.62 
1779 -3.93 -4.61 -3.62 
1780 -4.06 -4.62 -3.62 
1781 -3.82 -4.62 -3.62 
1782 -3.89 -4.70 -3.62 
1783 -3.95 -4.66 -3.62 
1784 -3.80 -4.64 -3.62 
1785 -4.12 -4.65 -3.62 
1786 -3.79 -4.56 -3.62 
1787 -3.99 -4.55 -3.62 
1788 -3.71 -4.68 -3.62 
1789 -3.76 -4.68 -3.62 
1790 -3.81 -4.68 -3.62 
1791 -3.91 -4.60 -3.62 
1792 -3.83 -4.49 -3.62 
1793 -3.81 -4.51 -3.62 
1794 -3.80 -4.48 -3.62 
1795 -3.90 -4.44 -3.62 
1796 -3.85 -4.44 -3.62 
1797 -3.87 -4.45 -3.62 
1798 -3.88 -4.60 -3.62 
1799 -3.79 -4.57 -3.62 
1800 -3.91 -4.56 -3.62 
1801 -3.91 -4.56 -3.62 
1802 -3.94 -4.55 -3.62 
1803 -3.79 -4.55 -3.62 
1804 -3.92 -4.58 -3.62 
1805 -3.68 -4.57 -3.62 
1806 -3.90 -4.57 -3.62 
1807 -3.79 -4.57 -3.62 
1808 -3.92 -4.58 -3.62 
1809 -3.87 -4.58 -3.62 
1810 -3.81 -4.57 -3.62 
1811 -3.77 -4.57 -3.62 
1812 -3.73 -4.59 -3.62 
1813 -3.82 -4.58 -3.62 
1814 -3.79 -4.47 -3.62 
1815 -3.93 -4.47 -3.62 
1816 -3.70 -4.48 -3.62 
1817 -4.06 -4.47 -3.62 
1818 -4.06 -4.47 -3.62 
1819 -4.02 -4.47 -3.62 
1820 -3.81 -4.50 -3.62 
1821 -3.79 -4.50 -3.62 
1822 -4.01 -4.50 -3.62 
1823 -3.87 -4.49 -3.62 
1824 -3.73 -4.49 -3.62 
1825 -3.65 -4.49 -3.62 
1826 -3.75 -4.48 -3.62 
1827 -4.04 -4.49 -3.62 
1828 -3.97 -4.49 -3.62 
1829 -3.87 -4.49 -3.62 
1830 -3.97 -4.59 -3.62 
1831 -4.07 -4.49 -3.62 
1832 -3.72 -4.48 -3.62 
1833 -3.85 -4.49 -3.62 
1834 -3.85 -4.59 -3.62 
1835 -4.02 -4.59 -3.62 
1836 -4.09 -4.59 -3.62 
1837 -3.79 -4.59 -3.62 
1838 -3.99 -4.59 -3.62 
1839 -3.98 -4.60 -3.62 
1840 -3.86 -4.59 -3.62 
1841 -3.83 -4.59 -3.62 
1842 -3.85 -4.48 -3.62 
1843 -3.74 -4.57 -3.62 
1844 -3.84 -4.46 -3.62 
1845 -3.84 -4.46 -3.62 
1846 -4.01 -4.46 -3.62 
1847 -3.83 -4.46 -3.62 
1848 -3.86 -4.46 -3.62 
1849 -3.99 -4.44 -3.62 
1850 -3.60 -4.51 -3.62 
1851 -3.92 -4.44 -3.60 
1852 -3.84 -4.45 -3.60 
1853 -4.02 -4.44 -3.60 
1854 -3.76 -4.46 -3.60 
1855 -3.75 -4.45 -3.60 
1856 -4.06 -4.34 -3.60 
1857 -3.99 -4.44 -3.60 
1858 -3.76 -4.39 -3.60 
1859 -3.74 -4.48 -3.60 
1860 -4.10 -4.48 -3.60 
1861 -3.74 -4.43 -3.60 
1862 -3.86 -4.44 -3.60 
1863 -3.61 -4.44 -3.60 
1864 -4.03 -4.43 -3.60 
1865 -3.79 -4.43 -3.60 
1866 -3.90 -4.43 -3.60 
1867 -3.93 -4.48 -3.60 
1868 -3.69 -4.49 -3.60 
1869 -4.21 -4.47 -3.60 
1870 -3.62 -4.47 -3.60 
1871 -3.76 -4.47 -3.60 
1872 -3.78 -4.50 -3.60 
1873 -3.91 -4.48 -3.60 
1874 -4.03 -4.44 -3.60 
1875 -3.84 -4.44 -3.60 
1876 -3.92 -4.49 -3.60 
1877 -3.71 -4.44 -3.60 
1878 -3.66 -4.47 -3.60 
1879 -4.02 -4.47 -3.60 
1880 -3.84 -4.48 -3.60 
1881 -3.85 -4.50 -3.60 
1882 -3.91 -4.51 -3.60 
1883 -4.00 -4.39 -3.60 
1884 -3.95 -4.48 -3.60 
1885 -3.82 -4.38 -3.60 
1886 -3.88 -4.47 -3.60 
1887 -3.82 -4.50 -3.60 
1888 -3.75 -4.47 -3.60 
1889 -3.84 -4.50 -3.60 
1890 -3.71 -4.48 -3.60 
1891 -3.73 -4.49 -3.60 
1892 -3.94 -4.39 -3.60 
1893 -3.71 -4.38 -3.60 
1894 -3.90 -4.49 -3.60 
1895 -3.88 -4.50 -3.60 
1896 -3.73 -4.50 -3.60 
1897 -4.00 -4.51 -3.60 
1898 -3.93 -4.52 -3.60 
1899 -3.72 -4.52 -3.60 
1900 -3.77 -4.50 -3.60 
1901 -3.89 -4.50 -3.60 
1902 -3.81 -4.51 -3.60 
1903 -3.97 -4.59 -3.60 
1904 -3.84 -4.51 -3.60 
1905 -4.13 -4.51 -3.60 
1906 -3.75 -4.52 -3.60 
1907 -3.75 -4.52 -3.60 
1908 -3.88 -4.50 -3.60 
1909 -3.89 -4.52 -3.60 
1910 -3.63 -4.52 -3.60 
1911 -3.89 -4.52 -3.60 
1912 -3.79 -4.51 -3.60 
1913 -3.83 -4.51 -3.60 
1914 -3.79 -4.51 -3.60 
1915 -3.89 -4.51 -3.60 
1916 -3.92 -4.51 -3.60 
1917 -3.78 -4.51 -3.60 
1918 -3.92 -4.51 -3.60 
1919 -3.84 -4.51 -3.60 
1920 -3.71 -4.50 -3.60 
1921 -3.85 -4.41 -3.60 
1922 -4.04 -4.52 -3.60 
1923 -3.71 -4.52 -3.60 
1924 -3.94 -4.50 -3.60 
1925 -3.92 -4.51 -3.60 
1926 -3.71 -4.52 -3.60 
1927 -3.86 -4.52 -3.60 
1928 -3.77 -4.51 -3.60 
1929 -3.82 -4.52 -3.60 
1930 -3.85 -4.55 -3.60 
1931 -3.71 -4.64 -3.60 
1932 -3.99 -4.65 -3.60 
1933 -3.96 -4.64 -3.60 
1934 -3.78 -4.63 -3.60 
1935 -3.69 -4.63 -3.60 
1936 -3.93 -4.63 -3.60 
1937 -3.96 -4.64 -3.60 
1938 -3.91 -4.64 -3.60 
1939 -3.79 -4.63 -3.60 
1940 -3.98 -4.60 -3.60 
1941 -3.75 -4.68 -3.60 
1942 -3.81 -4.60 -3.60 
1943 -3.87 -4.62 -3.60 
1944 -3.96 -4.61 -3.60 
1945 -3.95 -4.61 -3.60 
1946 -3.74 -4.70 -3.60 
1947 -3.78 -4.69 -3.60 
1948 -4.02 -4.68 -3.60 
1949 -3.78 -4.68 -3.60 
1950 -3.78 -4.68 -3.60 
1951 -3.81 -4.69 -3.60 
1952 -4.16 -4.68 -3.60 
1953 -3.80 -4.71 -3.60 
1954 -4.03 -4.69 -3.60 
1955 -3.84 -4.65 -3.60 
1956 -3.73 -4.71 -3.60 
1957 -4.09 -4.67 -3.60 
1958 -3.74 -4.65 -3.60 
1959 -3.93 -4.71 -3.60 
1960 -3.78 -4.65 -3.60 
1961 -3.95 -4.65 -3.60 
1962 -3.92 -4.65 -3.60 
1963 -3.87 -4.55 -3.60 
1964 -3.75 -4.46 -3.60 
1965 -4.04 -4.46 -3.60 
1966 -3.59 -4.46 -3.60 
1967 -3.79 -4.46 -3.59 
1968 -3.95 -4.45 -3.59 
1969 -3.99 -4.47 -3.59 
1970 -3.99 -4.47 -3.59 
1971 -3.60 -4.48 -3.59 
1972 -3.96 -4.46 -3.59 
1973 -4.12 -4.49 -3.59 
1974 -3.89 -4.49 -3.59 
1975 -3.83 -4.48 -3.59 
1976 -3.70 -4.46 -3.59 
1977 -3.61 -4.56 -3.59 
1978 -3.87 -4.47 -3.59 
1979 -3.97 -4.47 -3.59 
1980 -3.74 -4.46 -3.59 
1981 -3.85 -4.47 -3.59 
1982 -3.76 -4.48 -3.59 
1983 -3.81 -4.48 -3.59 
1984 -3.77 -4.57 -3.59 
1985 -3.73 -4.47 -3.59 
1986 -3.89 -4.57 -3.59 
1987 -3.80 -4.46 -3.59 
1988 -3.76 -4.48 -3.59 
1989 -3.79 -4.47 -3.59 
1990 -3.75 -4.65 -3.59 
1991 -4.18 -4.65 -3.59 
1992 -3.89 -4.67 -3.59 
1993 -3.71 -4.66 -3.59 
1994 -3.58 -4.47 -3.59 
1995 -3.60 -4.48 -3.58 
1996 -3.80 -4.48 -3.58 
1997 -3.93 -4.47 -3.58 
1998 -3.71 -4.46 -3.58 
1999 -3.78 -4.47 -3.58 
2000 -3.84 -4.50 -3.58 
2001 -3.82 -4.50 -3.58 
2002 -3.86 -4.51 -3.58 
2003 -3.80 -4.48 -3.58 
2004 -3.80 -4.47 -3.58 
2005 -3.82 -4.46 -3.58 
2006 -3.77 -4.46 -3.58 
2007 -3.96 -4.46 -3.58 
2008 -3.77 -4.44 -3.58 
2009 -3.88 -4.47 -3.58 
2010 -3.94 -4.48 -3.58 
2011 -3.75 -4.49 -3.58 
2012 -3.76 -4.47 -3.58 
2013 -3.77 -4.47 -3.58 
2014 -3.70 -4.46 -3.58 
2015 -3.89 -4.45 -3.58 
2016 -3.73 -4.46 -3.58 
2017 -3.83 -4.46 -3.58 
2018 -3.94 -4.46 -3.58 
2019 -3.84 -4.45 -3.58 
2020 -3.79 -4.45 -3.58 
2021 -4.01 -4.51 -3.58 
2022 -3.93 -4.52 -3.58 
2023 -3.97 -4.45 -3.58 
2024 -3.77 -4.45 -3.58 
2025 -3.62 -4.46 -3.58 
2026 -3.90 -4.46 -3.58 
2027 -3.87 -4.46 -3.58 
2028 -3.82 -4.46 -3.58 
2029 -3.85 -4.45 -3.58 
2030 -3.91 -4.45 -3.58 
2031 -3.99 -4.46 -3.58 
2032 -3.78 -4.49 -3.58 
2033 -3.73 -4.47 -3.58 
2034 -3.72 -4.55 -3.58 
2035 -3.98 -4.48 -3.58 
2036 -3.93 -4.46 -3.58 
2037 -3.83 -4.53 -3.58 
2038 -3.72 -4.53 -3.58 
2039 -3.92 -4.52 -3.58 
2040 -3.59 -4.46 -3.58 
2041 -4.02 -4.46 -3.58 
2042 -3.79 -4.47 -3.58 
2043 -3.80 -4.45 -3.58 
2044 -3.93 -4.46 -3.58 
2045 -3.74 -4.44 -3.58 
2046 -3.90 -4.45 -3.58 
2047 -4.02 -4.46 -3.58 
2048 -3.81 -4.46 -3.58 
2049 -3.92 -4.45 -3.58 
2050 -3.79 -4.47 -3.58 
2051 -3.85 -4.45 -3.58 
2052 -3.93 -4.45 -3.58 
2053 -3.88 -4.47 -3.58 
2054 -3.78 -4.46 -3.58 
2055 -3.78 -4.47 -3.58 
2056 -3.94 -4.46 -3.58 
2057 -3.98 -4.44 -3.58 
2058 -3.92 -4.53 -3.58 
2059 -4.06 -4.46 -3.58 
2060 -3.77 -4.55 -3.58 
2061 -3.71 -4.54 -3.58 
2062 -3.90 -4.46 -3.58 
2063 -3.83 -4.45 -3.58 
2064 -3.76 -4.52 -3.58 
2065 -3.72 -4.44 -3.58 
2066 -3.84 -4.45 -3.58 
2067 -3.75 -4.46 -3.58 
2068 -3.93 -4.62 -3.58 
2069 -3.67 -4.57 -3.58 
2070 -3.80 -4.54 -3.58 
2071 -4.01 -4.54 -3.58 
2072 -3.95 -4.55 -3.58 
2073 -3.96 -4.56 -3.58 
2074 -3.81 -4.53 -3.58 
2075 -3.90 -4.53 -3.58 
2076 -3.90 -4.42 -3.58 
2077 -3.84 -4.33 -3.58 
2078 -3.80 -4.49 -3.58 
2079 -3.69 -4.42 -3.58 
2080 -3.86 -4.51 -3.58 
2081 -3.75 -4.47 -3.58 
2082 -3.74 -4.62 -3.58 
2083 -3.77 -4.63 -3.58 
2084 -3.77 -4.63 -3.58 
2085 -3.94 -4.78 -3.58 
2086 -3.96 -4.62 -3.58 
2087 -3.88 -4.61 -3.58 
2088 -3.81 -4.53 -3.58 
2089 -3.95 -4.62 -3.58 
2090 -3.55 -4.56 -3.58 
2091 -3.89 -4.45 -3.55 
2092 -3.88 -4.45 -3.55 
2093 -3.94 -4.44 -3.55 
2094 -3.90 -4.48 -3.55 
2095 -3.97 -4.58 -3.55 
2096 -3.84 -4.60 -3.55 
2097 -3.96 -4.57 -3.55 
2098 -4.10 -4.56 -3.55 
2099 -3.77 -4.56 -3.55 
2100 -3.92 -4.50 -3.55 
2101 -3.84 -4.42 -3.55 
2102 -3.72 -4.36 -3.55 
2103 -4.01 -4.43 -3.55 
2104 -3.89 -4.55 -3.55 
2105 -3.87 -4.43 -3.55 
2106 -3.68 -4.44 -3.55 
2107 -3.97 -4.44 -3.55 
2108 -4.05 -4.45 -3.55 
2109 -3.87 -4.44 -3.55 
2110 -3.97 -4.58 -3.55 
2111 -3.95 -4.55 -3.55 
2112 -3.91 -4.55 -3.55 
2113 -3.81 -4.52 -3.55 
2114 -3.76 -4.59 -3.55 
2115 -3.96 -4.59 -3.55 
2116 -3.81 -4.57 -3.55 
2117 -4.13 -4.58 -3.55 
2118 -3.98 -4.65 -3.55 
2119 -4.02 -4.55 -3.55 
2120 -3.92 -4.63 -3.55 
2121 -3.76 -4.65 -3.55 
2122 -3.73 -4.67 -3.55 
2123 -3.83 -4.59 -3.55 
2124 -3.85 -4.58 -3.55 
2125 -3.94 -4.51 -3.55 
2126 -3.86 -4.59 -3.55 
2127 -3.92 -4.67 -3.55 
2128 -3.79 -4.67 -3.55 
2129 -3.91 -4.61 -3.55 
2130 -4.02 -4.50 -3.55 
2131 -3.84 -4.46 -3.55 
2132 -3.85 -4.54 -3.55 
2133 -3.95 -4.57 -3.55 
2134 -3.73 -4.52 -3.55 
2135 -3.76 -4.50 -3.55 
2136 -4.00 -4.54 -3.55 
2137 -3.96 -4.47 -3.55 
2138 -3.87 -4.51 -3.55 
2139 -4.02 -4.65 -3.55 
2140 -3.79 -4.58 -3.55 
2141 -3.94 -4.61 -3.55 
2142 -3.58 -4.67 -3.55 
2143 -3.85 -4.46 -3.55 
2144 -3.95 -4.58 -3.55 
2145 -3.89 -4.50 -3.55 
2146 -3.81 -4.57 -3.55 
2147 -4.00 -4.55 -3.55 
2148 -3.96 -4.55 -3.55 
2149 -3.84 -4.47 -3.55 
2150 -3.99 -4.47 -3.55 
2151 -3.79 -4.50 -3.55 
2152 -3.88 -4.62 -3.55 
2153 -3.60 -4.44 -3.55 
2154 -3.93 -4.53 -3.55 
2155 -3.86 -4.55 -3.55 
2156 -3.94 -4.71 -3.55 
2157 -3.98 -4.61 -3.55 
2158 -3.75 -4.62 -3.55 
2159 -3.90 -4.69 -3.55 
2160 -4.12 -4.69 -3.55 
2161 -3.84 -4.69 -3.55 
2162 -4.04 -4.70 -3.55 
2163 -3.89 -4.70 -3.55 
2164 -3.90 -4.68 -3.55 
2165 -3.68 -4.67 -3.55 
2166 -3.68 -4.58 -3.55 
2167 -3.64 -4.67 -3.55 
2168 -3.85 -4.58 -3.55 
2169 -3.93 -4.64 -3.55 
2170 -3.80 -4.65 -3.55 
2171 -3.69 -4.64 -3.55 
2172 -3.70 -4.60 -3.55 
2173 -4.03 -4.62 -3.55 
2174 -3.80 -4.60 -3.55 
2175 -3.83 -4.55 -3.55 
2176 -3.89 -4.67 -3.55 
2177 -3.77 -4.66 -3.55 
2178 -3.89 -4.53 -3.55 
2179 -3.75 -4.50 -3.55 
2180 -3.93 -4.50 -3.55 
2181 -3.95 -4.58 -3.55 
2182 -4.03 -4.52 -3.55 
2183 -3.70 -4.61 -3.55 
2184 -3.86 -4.58 -3.55 
2185 -3.75 -4.58 -3.55 
2186 -3.77 -4.62 -3.55 
2187 -3.84 -4.58 -3.55 
2188 -3.91 -4.58 -3.55 
2189 -4.05 -4.58 -3.55 
2190 -3.95 -4.57 -3.55 
2191 -3.94 -4.61 -3.55 
2192 -3.70 -4.61 -3.55 
2193 -3.77 -4.61 -3.55 
2194 -3.95 -4.43 -3.55 
2195 -3.86 -4.59 -3.55 
2196 -3.75 -4.58 -3.55 
2197 -3.82 -4.60 -3.55 
2198 -4.06 -4.58 -3.55 
2199 -3.84 -4.60 -3.55 
2200 -3.73 -4.58 -3.55 
2201 -3.90 -4.51 -3.55 
2202 -3.84 -4.57 -3.55 
2203 -3.99 -4.61 -3.55 
2204 -3.84 -4.52 -3.55 
2205 -3.74 -4.58 -3.55 
2206 -3.91 -4.45 -3.55 
2207 -3.73 -4.58 -3.55 
2208 -3.96 -4.54 -3.55 
2209 -3.87 -4.55 -3.55 
2210 -3.94 -4.58 -3.55 
2211 -3.69 -4.53 -3.55 
2212 -3.94 -4.57 -3.55 
2213 -3.79 -4.52 -3.55 
2214 -3.99 -4.61 -3.55 
2215 -4.05 -4.60 -3.55 
2216 -3.83 -4.59 -3.55 
2217 -4.00 -4.59 -3.55 
2218 -3.81 -4.43 -3.55 
2219 -4.07 -4.56 -3.55 
2220 -3.86 -4.57 -3.55 
2221 -3.78 -4.58 -3.55 
2222 -3.85 -4.58 -3.55 
2223 -3.90 -4.44 -3.55 
2224 -3.75 -4.48 -3.55 
2225 -4.13 -4.56 -3.55 
2226 -3.87 -4.48 -3.55 
2227 -3.90 -4.48 -3.55 
2228 -3.68 -4.47 -3.55 
2229 -3.86 -4.40 -3.55 
2230 -3.97 -4.42 -3.55 
2231 -3.80 -4.41 -3.55 
2232 -3.78 -4.54 -3.55 
2233 -3.87 -4.39 -3.55 
2234 -4.07 -4.39 -3.55 
2235 -3.83 -4.41 -3.55 
2236 -4.03 -4.43 -3.55 
2237 -3.95 -4.43 -3.55 
2238 -3.71 -4.42 -3.55 
2239 -3.84 -4.47 -3.55 
2240 -3.85 -4.58 -3.55 
2241 -3.82 -4.59 -3.55 
2242 -3.87 -4.58 -3.55 
2243 -4.02 -4.57 -3.55 
2244 -3.69 -4.58 -3.55 
2245 -4.14 -4.59 -3.55 
2246 -4.04 -4.58 -3.55 
2247 -3.88 -4.56 -3.55 
2248 -3.77 -4.55 -3.55 
2249 -3.86 -4.55 -3.55 
2250 -3.72 -4.55 -3.55 
2251 -4.10 -4.56 -3.55 
2252 -4.12 -4.57 -3.55 
2253 -3.79 -4.63 -3.55 
2254 -3.82 -4.56 -3.55 
2255 -4.23 -4.56 -3.55 
2256 -4.09 -4.57 -3.55 
2257 -3.86 -4.57 -3.55 
2258 -3.84 -4.58 -3.55 
2259 -3.95 -4.58 -3.55 
2260 -3.84 -4.59 -3.55 
2261 -4.00 -4.61 -3.55 
2262 -3.66 -4.59 -3.55 
2263 -3.64 -4.64 -3.55 
2264 -3.99 -4.62 -3.55 
2265 -3.89 -4.60 -3.55 
2266 -3.77 -4.64 -3.55 
2267 -3.83 -4.60 -3.55 
2268 -3.83 -4.61 -3.55 
2269 -3.90 -4.64 -3.55 
2270 -3.76 -4.62 -3.55 
2271 -3.77 -4.60 -3.55 
2272 -3.91 -4.59 -3.55 
2273 -3.79 -4.59 -3.55 
2274 -3.79 -4.61 -3.55 
2275 -3.81 -4.60 -3.55 
2276 -3.90 -4.60 -3.55 
2277 -3.98 -4.60 -3.55 
2278 -3.82 -4.60 -3.55 
2279 -3.80 -4.61 -3.55 
2280 -3.72 -4.60 -3.55 
2281 -3.64 -4.59 -3.55 
2282 -3.83 -4.79 -3.55 
2283 -3.93 -4.61 -3.55 
2284 -3.82 -4.60 -3.55 
2285 -3.86 -4.76 -3.55 
2286 -3.91 -4.69 -3.55 
2287 -3.64 -4.76 -3.55 
2288 -3.91 -4.75 -3.55 
2289 -3.93 -4.57 -3.55 
2290 -4.05 -4.60 -3.55 
2291 -4.03 -4.58 -3.55 
2292 -4.02 -4.60 -3.55 
2293 -3.71 -4.60 -3.55 
2294 -3.97 -4.59 -3.55 
2295 -3.90 -4.60 -3.55 
2296 -3.78 -4.60 -3.55 
2297 -4.07 -4.59 -3.55 
2298 -3.76 -4.59 -3.55 
2299 -3.78 -4.59 -3.55 
2300 -3.82 -4.59 -3.55 
2301 -3.81 -4.58 -3.55 
2302 -3.82 -4.59 -3.55 
2303 -3.95 -4.60 -3.55 
2304 -4.17 -4.59 -3.55 
2305 -3.90 -4.60 -3.55 
2306 -3.62 -4.60 -3.55 
2307 -3.93 -4.60 -3.55 
2308 -4.01 -4.61 -3.55 
2309 -4.04 -4.57 -3.55 
2310 -4.02 -4.60 -3.55 
2311 -3.86 -4.52 -3.55 
2312 -3.74 -4.63 -3.55 
2313 -3.86 -4.56 -3.55 
2314 -3.99 -4.58 -3.55 
2315 -3.96 -4.58 -3.55 
2316 -3.91 -4.57 -3.55 
2317 -3.75 -4.54 -3.55 
2318 -3.91 -4.55 -3.55 
2319 -3.95 -4.54 -3.55 
2320 -3.84 -4.54 -3.55 
2321 -3.72 -4.52 -3.55 
2322 -4.03 -4.50 -3.55 
2323 -3.90 -4.60 -3.55 
2324 -3.99 -4.51 -3.55 
2325 -3.70 -4.62 -3.55 
2326 -3.80 -4.64 -3.55 
2327 -3.74 -4.67 -3.55 
2328 -3.83 -4.67 -3.55 
2329 -3.93 -4.77 -3.55 
2330 -3.94 -4.77 -3.55 
2331 -3.96 -4.77 -3.55 
2332 -3.75 -4.76 -3.55 
2333 -4.04 -4.59 -3.55 
2334 -3.70 -4.60 -3.55 
2335 -3.82 -4.59 -3.55 
2336 -3.93 -4.59 -3.55 
2337 -3.78 -4.60 -3.55 
2338 -3.88 -4.53 -3.55 
2339 -3.62 -4.53 -3.55 
2340 -3.95 -4.60 -3.55 
2341 -3.87 -4.62 -3.55 
2342 -4.12 -4.56 -3.55 
2343 -3.79 -4.69 -3.55 
2344 -3.81 -4.58 -3.55 
2345 -3.85 -4.51 -3.55 
2346 -4.16 -4.51 -3.55 
2347 -3.70 -4.58 -3.55 
2348 -3.79 -4.56 -3.55 
2349 -3.85 -4.67 -3.55 
2350 -4.01 -4.68 -3.55 
2351 -3.77 -4.67 -3.55 
2352 -3.83 -4.66 -3.55 
2353 -3.98 -4.76 -3.55 
2354 -3.79 -4.74 -3.55 
2355 -3.98 -4.74 -3.55 
2356 -3.81 -4.75 -3.55 
2357 -3.92 -4.74 -3.55 
2358 -3.75 -4.75 -3.55 
2359 -3.77 -4.74 -3.55 
2360 -3.88 -4.66 -3.55 
2361 -3.76 -4.72 -3.55 
2362 -3.88 -4.74 -3.55 
2363 -3.80 -4.65 -3.55 
2364 -3.53 -4.62 -3.55 
2365 -4.00 -4.64 -3.53 
2366 -3.95 -4.57 -3.53 
2367 -3.95 -4.56 -3.53 
2368 -3.95 -4.64 -3.53 
2369 -3.74 -4.66 -3.53 
2370 -3.76 -4.66 -3.53 
2371 -3.67 -4.68 -3.53 
2372 -3.79 -4.70 -3.53 
2373 -3.97 -4.68 -3.53 
2374 -3.71 -4.56 -3.53 
2375 -3.86 -4.68 -3.53 
2376 -3.86 -4.62 -3.53 
2377 -3.83 -4.60 -3.53 
2378 -3.68 -4.70 -3.53 
2379 -3.84 -4.69 -3.53 
2380 -3.98 -4.71 -3.53 
2381 -3.66 -4.67 -3.53 
2382 -3.77 -4.71 -3.53 
2383 -3.77 -4.63 -3.53 
2384 -3.84 -4.72 -3.53 
2385 -3.86 -4.61 -3.53 
2386 -3.76 -4.68 -3.53 
2387 -3.77 -4.86 -3.53 
2388 -3.92 -4.77 -3.53 
2389 -3.98 -4.78 -3.53 
2390 -3.87 -4.83 -3.53 
2391 -3.86 -4.78 -3.53 
2392 -3.86 -4.78 -3.53 
2393 -3.81 -4.70 -3.53 
2394 -3.66 -4.84 -3.53 
2395 -3.78 -4.93 -3.53 
2396 -3.83 -4.69 -3.53 
2397 -3.77 -4.69 -3.53 
2398 -3.69 -4.69 -3.53 
2399 -3.96 -4.68 -3.53 
2400 -3.81 -4.61 -3.53 
2401 -3.69 -4.54 -3.53 
2402 -3.83 -4.54 -3.53 
2403 -3.85 -4.63 -3.53 
2404 -3.88 -4.63 -3.53 
2405 -3.84 -4.63 -3.53 
2406 -3.88 -4.62 -3.53 
2407 -3.85 -4.62 -3.53 
2408 -3.92 -4.62 -3.53 
2409 -3.75 -4.69 -3.53 
2410 -3.92 -4.71 -3.53 
2411 -3.79 -4.71 -3.53 
2412 -3.84 -4.78 -3.53 
2413 -3.79 -4.84 -3.53 
2414 -3.87 -4.71 -3.53 
2415 -3.78 -4.72 -3.53 
2416 -3.97 -4.71 -3.53 
2417 -3.84 -4.80 -3.53 
2418 -3.97 -4.79 -3.53 
2419 -3.92 -4.77 -3.53 
2420 -3.74 -4.72 -3.53 
2421 -3.92 -4.63 -3.53 
2422 -4.09 -4.73 -3.53 
2423 -3.73 -4.72 -3.53 
2424 -3.84 -4.69 -3.53 
2425 -3.94 -4.60 -3.53 
2426 -3.79 -4.76 -3.53 
2427 -3.98 -4.66 -3.53 
2428 -4.01 -4.75 -3.53 
2429 -3.86 -4.78 -3.53 
2430 -3.86 -4.78 -3.53 
2431 -3.83 -4.65 -3.53 
2432 -4.00 -4.80 -3.53 
2433 -3.66 -4.87 -3.53 
2434 -3.66 -4.87 -3.53 
2435 -3.85 -4.70 -3.53 
2436 -4.01 -4.76 -3.53 
2437 -3.95 -4.78 -3.53 
2438 -3.79 -4.63 -3.53 
2439 -3.88 -4.55 -3.53 
2440 -3.84 -4.68 -3.53 
2441 -3.82 -4.75 -3.53 
2442 -3.81 -4.77 -3.53 
2443 -3.79 -4.75 -3.53 
2444 -3.74 -4.73 -3.53 
2445 -3.87 -4.66 -3.53 
2446 -3.97 -4.80 -3.53 
2447 -4.04 -4.80 -3.53 
2448 -3.90 -4.74 -3.53 
2449 -4.03 -4.66 -3.53 
2450 -3.98 -4.65 -3.53 
2451 -3.75 -4.63 -3.53 
2452 -3.80 -4.72 -3.53 
2453 -3.92 -4.70 -3.53 
2454 -3.87 -4.80 -3.53 
2455 -3.91 -4.81 -3.53 
2456 -3.83 -4.78 -3.53 
2457 -3.67 -4.56 -3.53 
2458 -3.85 -4.73 -3.53 
2459 -3.61 -4.73 -3.53 
2460 -3.72 -4.73 -3.53 
2461 -3.80 -4.61 -3.53 
2462 -3.88 -4.74 -3.53 
2463 -3.81 -4.64 -3.53 
2464 -3.81 -4.69 -3.53 
2465 -3.76 -4.62 -3.53 
2466 -3.93 -4.62 -3.53 
2467 -4.06 -4.79 -3.53 
2468 -3.80 -4.69 -3.53 
2469 -3.80 -4.74 -3.53 
2470 -3.82 -4.48 -3.53 
2471 -3.55 -4.55 -3.53 
2472 -3.64 -4.73 -3.53 
2473 -3.90 -4.47 -3.53 
2474 -3.94 -4.57 -3.53 
2475 -3.77 -4.80 -3.53 
2476 -3.92 -4.70 -3.53 
2477 -3.74 -4.61 -3.53 
2478 -3.83 -4.55 -3.53 
2479 -4.00 -4.64 -3.53 
2480 -3.84 -4.63 -3.53 
2481 -3.78 -4.64 -3.53 
2482 -3.86 -4.51 -3.53 
2483 -3.86 -4.55 -3.53 
2484 -3.85 -4.55 -3.53 
2485 -3.81 -4.63 -3.53 
2486 -3.74 -4.64 -3.53 
2487 -3.74 -4.55 -3.53 
2488 -3.83 -4.48 -3.53 
2489 -3.89 -4.48 -3.53 
2490 -3.89 -4.43 -3.53 
2491 -3.94 -4.51 -3.53 
2492 -3.93 -4.43 -3.53 
2493 -3.76 -4.52 -3.53 
2494 -3.85 -4.41 -3.53 
2495 -3.66 -4.41 -3.53 
2496 -3.89 -4.41 -3.53 
2497 -3.76 -4.50 -3.53 
2498 -3.92 -4.47 -3.53 
2499 -3.74 -4.47 -3.53 
2500 -3.81 -4.38 -3.53 
2501 -3.83 -4.49 -3.53 
2502 -3.80 -4.49 -3.53 
2503 -3.70 -4.41 -3.53 
2504 -3.86 -4.50 -3.53 
2505 -3.70 -4.51 -3.53 
2506 -3.95 -4.31 -3.53 
2507 -3.99 -4.41 -3.53 
2508 -3.93 -4.45 -3.53 
2509 -3.95 -4.45 -3.53 
2510 -3.72 -4.35 -3.53 
2511 -3.77 -4.35 -3.53 
2512 -3.86 -4.43 -3.53 
2513 -3.73 -4.35 -3.53 
2514 -3.91 -4.37 -3.53 
2515 -3.79 -4.39 -3.53 
2516 -3.87 -4.28 -3.53 
2517 -3.98 -4.29 -3.53 
2518 -3.83 -4.30 -3.53 
2519 -3.85 -4.38 -3.53 
2520 -3.71 -4.38 -3.53 
2521 -3.71 -4.39 -3.53 
2522 -3.79 -4.39 -3.53 
2523 -3.79 -4.39 -3.53 
2524 -3.86 -4.40 -3.53 
2525 -3.72 -4.39 -3.53 
2526 -3.67 -4.32 -3.53 
2527 -3.69 -4.33 -3.53 
2528 -3.78 -4.40 -3.53 
2529 -3.99 -4.39 -3.53 
2530 -3.77 -4.42 -3.53 
2531 -4.01 -4.39 -3.53 
2532 -3.76 -4.41 -3.53 
2533 -3.75 -4.51 -3.53 
2534 -3.68 -4.51 -3.53 
2535 -4.10 -4.41 -3.53 
2536 -3.71 -4.42 -3.53 
2537 -3.80 -4.51 -3.53 
2538 -3.67 -4.42 -3.53 
2539 -4.03 -4.40 -3.53 
2540 -3.89 -4.49 -3.53 
2541 -3.54 -4.44 -3.53 
2542 -3.83 -4.38 -3.53 
2543 -3.87 -4.48 -3.53 
2544 -3.73 -4.44 -3.53 
2545 -3.60 -4.48 -3.53 
2546 -3.88 -4.44 -3.53 
2547 -3.66 -4.45 -3.53 
2548 -3.84 -4.45 -3.53 
2549 -3.67 -4.45 -3.53 
2550 -3.80 -4.44 -3.53 
2551 -3.98 -4.48 -3.53 
2552 -3.85 -4.47 -3.53 
2553 -3.90 -4.54 -3.53 
2554 -3.99 -4.55 -3.53 
2555 -4.06 -4.46 -3.53 
2556 -3.76 -4.45 -3.53 
2557 -3.79 -4.45 -3.53 
2558 -3.58 -4.43 -3.53 
2559 -3.82 -4.50 -3.53 
2560 -3.73 -4.49 -3.53 
2561 -3.93 -4.50 -3.53 
2562 -3.93 -4.48 -3.53 
2563 -3.93 -4.49 -3.53 
2564 -3.80 -4.49 -3.53 
2565 -3.80 -4.50 -3.53 
2566 -3.82 -4.43 -3.53 
2567 -3.86 -4.44 -3.53 
2568 -3.86 -4.50 -3.53 
2569 -3.91 -4.49 -3.53 
2570 -3.89 -4.49 -3.53 
2571 -3.88 -4.41 -3.53 
2572 -3.83 -4.49 -3.53 
2573 -3.99 -4.54 -3.53 
2574 -3.90 -4.54 -3.53 
2575 -3.77 -4.71 -3.53 
2576 -3.91 -4.62 -3.53 
2577 -3.79 -4.63 -3.53 
2578 -3.77 -4.62 -3.53 
2579 -3.92 -4.62 -3.53 
2580 -3.75 -4.62 -3.53 
2581 -3.86 -4.52 -3.53 
2582 -3.95 -4.54 -3.53 
2583 -3.71 -4.61 -3.53 
2584 -3.82 -4.51 -3.53 
2585 -3.78 -4.43 -3.53 
2586 -3.80 -4.53 -3.53 
2587 -3.88 -4.41 -3.53 
2588 -3.68 -4.43 -3.53 
2589 -3.83 -4.33 -3.53 
2590 -4.00 -4.35 -3.53 
2591 -3.67 -4.36 -3.53 
2592 -3.76 -4.35 -3.53 
2593 -3.81 -4.52 -3.53 
2594 -3.96 -4.56 -3.53 
2595 -3.81 -4.38 -3.53 
2596 -3.85 -4.44 -3.53 
2597 -3.91 -4.37 -3.53 
2598 -3.69 -4.46 -3.53 
2599 -3.74 -4.47 -3.53 
2600 -3.79 -4.47 -3.53 
2601 -3.85 -4.37 -3.53 
2602 -3.90 -4.47 -3.53 
2603 -3.88 -4.38 -3.53 
2604 -3.93 -4.38 -3.53 
2605 -3.95 -4.38 -3.53 
2606 -3.70 -4.44 -3.53 
2607 -3.74 -4.44 -3.53 
2608 -3.80 -4.45 -3.53 
2609 -3.85 -4.44 -3.53 
2610 -3.81 -4.44 -3.53 
2611 -3.95 -4.44 -3.53 
2612 -3.73 -4.43 -3.53 
2613 -3.74 -4.41 -3.53 
2614 -3.82 -4.42 -3.53 
2615 -3.91 -4.43 -3.53 
2616 -4.02 -4.42 -3.53 
2617 -3.92 -4.60 -3.53 
2618 -3.81 -4.49 -3.53 
2619 -3.81 -4.50 -3.53 
2620 -3.91 -4.38 -3.53 
2621 -3.82 -4.37 -3.53 
2622 -3.82 -4.37 -3.53 
2623 -3.74 -4.37 -3.53 
2624 -3.80 -4.43 -3.53 
2625 -3.80 -4.50 -3.53 
2626 -3.71 -4.47 -3.53 
2627 -3.72 -4.48 -3.53 
2628 -3.72 -4.46 -3.53 
2629 -3.77 -4.35 -3.53 
2630 -3.83 -4.44 -3.53 
2631 -3.65 -4.35 -3.53 
2632 -3.81 -4.36 -3.53 
2633 -3.81 -4.36 -3.53 
2634 -3.93 -4.38 -3.53 
2635 -4.02 -4.54 -3.53 
2636 -3.91 -4.46 -3.53 
2637 -3.81 -4.45 -3.53 
2638 -3.73 -4.61 -3.53 
2639 -3.81 -4.67 -3.53 
2640 -3.67 -4.80 -3.53 
2641 -3.81 -4.65 -3.53 
2642 -3.81 -4.48 -3.53 
2643 -3.70 -4.57 -3.53 
2644 -3.83 -4.56 -3.53 
2645 -3.77 -4.51 -3.53 
2646 -3.72 -4.40 -3.53 
2647 -3.70 -4.41 -3.53 
2648 -3.70 -4.45 -3.53 
2649 -3.69 -4.44 -3.53 
2650 -3.86 -4.45 -3.53 
2651 -3.68 -4.41 -3.53 
2652 -3.72 -4.42 -3.53 
2653 -3.64 -4.32 -3.53 
2654 -3.66 -4.42 -3.53 
2655 -3.81 -4.41 -3.53 
2656 -3.77 -4.41 -3.53 
2657 -3.62 -4.42 -3.53 
2658 -4.05 -4.32 -3.53 
2659 -4.03 -4.41 -3.53 
2660 -3.72 -4.45 -3.53 
2661 -3.88 -4.45 -3.53 
2662 -3.70 -4.41 -3.53 
2663 -3.71 -4.41 -3.53 
2664 -4.11 -4.41 -3.53 
2665 -3.89 -4.41 -3.53 
2666 -3.81 -4.41 -3.53 
2667 -3.88 -4.43 -3.53 
2668 -4.01 -4.43 -3.53 
2669 -3.81 -4.41 -3.53 
2670 -3.92 -4.47 -3.53 
2671 -3.94 -4.60 -3.53 
2672 -4.01 -4.62 -3.53 
2673 -3.80 -4.55 -3.53 
2674 -3.98 -4.42 -3.53 
2675 -3.85 -4.40 -3.53 
2676 -3.76 -4.42 -3.53 
2677 -3.96 -4.38 -3.53 
2678 -3.78 -4.38 -3.53 
2679 -4.01 -4.45 -3.53 
2680 -3.70 -4.34 -3.53 
2681 -3.70 -4.43 -3.53 
2682 -3.87 -4.39 -3.53 
2683 -3.73 -4.40 -3.53 
2684 -3.87 -4.34 -3.53 
2685 -3.93 -4.39 -3.53 
2686 -3.82 -4.50 -3.53 
2687 -3.97 -4.72 -3.53 
2688 -3.71 -4.79 -3.53 
2689 -3.71 -4.68 -3.53 
2690 -3.98 -4.65 -3.53 
2691 -3.78 -4.58 -3.53 
2692 -3.82 -4.82 -3.53 
2693 -3.92 -4.62 -3.53 
2694 -3.82 -4.53 -3.53 
2695 -4.02 -4.46 -3.53 
2696 -3.87 -4.54 -3.53 
2697 -3.88 -4.46 -3.53 
2698 -3.83 -4.72 -3.53 
2699 -3.82 -4.73 -3.53 
2700 -3.81 -4.64 -3.53 
2701 -3.74 -4.71 -3.53 
2702 -3.82 -4.64 -3.53 
2703 -4.04 -4.55 -3.53 
2704 -3.81 -4.47 -3.53 
2705 -3.73 -4.47 -3.53 
2706 -3.71 -4.63 -3.53 
2707 -3.98 -4.55 -3.53 
2708 -4.04 -4.43 -3.53 
2709 -3.79 -4.54 -3.53 
2710 -3.74 -4.69 -3.53 
2711 -3.80 -4.73 -3.53 
2712 -4.04 -4.72 -3.53 
2713 -3.73 -4.55 -3.53 
2714 -3.86 -4.45 -3.53 
2715 -3.87 -4.52 -3.53 
2716 -3.90 -4.49 -3.53 
2717 -3.73 -4.44 -3.53 
2718 -3.69 -4.42 -3.53 
2719 -3.72 -4.42 -3.53 
2720 -3.83 -4.43 -3.53 
2721 -3.79 -4.34 -3.53 
2722 -3.80 -4.50 -3.53 
2723 -3.88 -4.46 -3.53 
2724 -3.82 -4.45 -3.53 
2725 -3.71 -4.45 -3.53 
2726 -4.02 -4.43 -3.53 
2727 -3.84 -4.34 -3.53 
2728 -3.83 -4.44 -3.53 
2729 -3.78 -4.46 -3.53 
2730 -3.86 -4.44 -3.53 
2731 -3.80 -4.47 -3.53 
2732 -3.74 -4.44 -3.53 
2733 -3.64 -4.45 -3.53 
2734 -3.73 -4.46 -3.53 
2735 -3.77 -4.46 -3.53 
2736 -3.82 -4.46 -3.53 
2737 -3.85 -4.47 -3.53 
2738 -3.76 -4.48 -3.53 
2739 -3.99 -4.44 -3.53 
2740 -4.01 -4.44 -3.53 
2741 -3.70 -4.47 -3.53 
2742 -3.87 -4.47 -3.53 
2743 -4.07 -4.46 -3.53 
2744 -3.75 -4.43 -3.53 
2745 -3.90 -4.43 -3.53 
2746 -3.71 -4.46 -3.53 
2747 -3.79 -4.47 -3.53 
2748 -3.82 -4.51 -3.53 
2749 -3.83 -4.43 -3.53 
2750 -3.82 -4.35 -3.53 
2751 -3.74 -4.43 -3.53 
2752 -3.88 -4.42 -3.53 
2753 -3.70 -4.51 -3.53 
2754 -3.82 -4.52 -3.53 
2755 -3.70 -4.49 -3.53 
2756 -3.76 -4.43 -3.53 
2757 -3.86 -4.33 -3.53 
2758 -3.77 -4.35 -3.53 
2759 -3.85 -4.54 -3.53 
2760 -3.79 -4.44 -3.53 
2761 -3.82 -4.50 -3.53 
2762 -3.82 -4.40 -3.53 
2763 -3.87 -4.39 -3.53 
2764 -3.78 -4.43 -3.53 
2765 -3.72 -4.39 -3.53 
2766 -3.85 -4.58 -3.53 
2767 -3.94 -4.50 -3.53 
2768 -3.94 -4.66 -3.53 
2769 -4.00 -4.44 -3.53 
2770 -3.78 -4.46 -3.53 
2771 -3.89 -4.56 -3.53 
2772 -3.77 -4.37 -3.53 
2773 -4.13 -4.38 -3.53 
2774 -3.85 -4.59 -3.53 
2775 -3.83 -4.38 -3.53 
2776 -3.90 -4.54 -3.53 
2777 -3.64 -4.53 -3.53 
2778 -3.82 -4.46 -3.53 
2779 -3.70 -4.44 -3.53 
2780 -3.98 -4.53 -3.53 
2781 -3.80 -4.52 -3.53 
2782 -3.82 -4.51 -3.53 
2783 -3.57 -4.51 -3.53 
2784 -3.80 -4.50 -3.53 
2785 -3.94 -4.50 -3.53 
2786 -3.71 -4.51 -3.53 
2787 -3.70 -4.53 -3.53 
2788 -3.72 -4.58 -3.53 
2789 -3.63 -4.58 -3.53 
2790 -3.95 -4.58 -3.53 
2791 -3.63 -4.53 -3.53 
2792 -3.85 -4.53 -3.53 
2793 -3.79 -4.53 -3.53 
2794 -3.94 -4.51 -3.53 
2795 -3.99 -4.44 -3.53 
2796 -3.76 -4.43 -3.53 
2797 -3.67 -4.53 -3.53 
2798 -3.80 -4.46 -3.53 
2799 -3.86 -4.54 -3.53 
2800 -3.87 -4.54 -3.53 
2801 -3.78 -4.54 -3.53 
2802 -3.79 -4.46 -3.53 
2803 -3.79 -4.52 -3.53 
2804 -4.01 -4.56 -3.53 
2805 -3.81 -4.45 -3.53 
2806 -3.74 -4.45 -3.53 
2807 -3.80 -4.55 -3.53 
2808 -3.93 -4.66 -3.53 
2809 -3.87 -4.75 -3.53 
2810 -3.73 -4.76 -3.53 
2811 -3.90 -4.59 -3.53 
2812 -3.93 -4.67 -3.53 
2813 -3.71 -4.61 -3.53 
2814 -3.77 -4.68 -3.53 
2815 -3.85 -4.65 -3.53 
2816 -3.89 -4.76 -3.53 
2817 -3.78 -4.60 -3.53 
2818 -3.85 -4.57 -3.53 
2819 -3.90 -4.60 -3.53 
2820 -3.89 -4.42 -3.53 
2821 -3.82 -4.45 -3.53 
2822 -3.81 -4.64 -3.53 
2823 -4.04 -4.65 -3.53 
2824 -3.83 -4.55 -3.53 
2825 -3.80 -4.52 -3.53 
2826 -3.89 -4.48 -3.53 
2827 -3.79 -4.66 -3.53 
2828 -3.81 -4.52 -3.53 
2829 -3.79 -4.75 -3.53 
2830 -3.86 -4.69 -3.53 
2831 -4.05 -4.69 -3.53 
2832 -3.79 -4.52 -3.53 
2833 -3.94 -4.54 -3.53 
2834 -3.99 -4.52 -3.53 
2835 -3.68 -4.59 -3.53 
2836 -3.80 -4.43 -3.53 
2837 -3.68 -4.59 -3.53 
2838 -4.05 -4.58 -3.53 
2839 -3.78 -4.57 -3.53 
2840 -3.95 -4.57 -3.53 
2841 -3.99 -4.57 -3.53 
2842 -3.81 -4.48 -3.53 
2843 -3.99 -4.47 -3.53 
2844 -3.74 -4.44 -3.53 
2845 -3.76 -4.41 -3.53 
2846 -3.87 -4.41 -3.53 
2847 -3.68 -4.40 -3.53 
2848 -3.69 -4.42 -3.53 
2849 -3.92 -4.42 -3.53 
2850 -3.63 -4.42 -3.53 
2851 -3.81 -4.43 -3.53 
2852 -3.89 -4.47 -3.53 
2853 -3.80 -4.47 -3.53 
2854 -3.94 -4.48 -3.53 
2855 -3.91 -4.50 -3.53 
2856 -3.95 -4.50 -3.53 
2857 -3.82 -4.50 -3.53 
2858 -3.75 -4.50 -3.53 
2859 -3.75 -4.49 -3.53 
2860 -3.90 -4.46 -3.53 
2861 -3.76 -4.45 -3.53 
2862 -3.90 -4.48 -3.53 
2863 -3.78 -4.50 -3.53 
2864 -3.85 -4.49 -3.53 
2865 -4.02 -4.50 -3.53 
2866 -3.94 -4.47 -3.53 
2867 -3.88 -4.44 -3.53 
2868 -3.69 -4.38 -3.53 
2869 -3.77 -4.39 -3.53 
2870 -3.97 -4.43 -3.53 
2871 -3.87 -4.38 -3.53 
2872 -3.82 -4.38 -3.53 
2873 -3.80 -4.40 -3.53 
2874 -3.80 -4.40 -3.53 
2875 -4.01 -4.38 -3.53 
2876 -3.78 -4.50 -3.53 
2877 -3.81 -4.40 -3.53 
2878 -3.76 -4.46 -3.53 
2879 -3.81 -4.46 -3.53 
2880 -4.02 -4.46 -3.53 
2881 -3.87 -4.48 -3.53 
2882 -3.84 -4.44 -3.53 
2883 -3.85 -4.43 -3.53 
2884 -3.93 -4.49 -3.53 
2885 -3.83 -4.46 -3.53 
2886 -3.81 -4.47 -3.53 
2887 -3.88 -4.47 -3.53 
2888 -3.78 -4.42 -3.53 
2889 -3.87 -4.41 -3.53 
2890 -3.90 -4.44 -3.53 
2891 -3.91 -4.44 -3.53 
2892 -3.85 -4.48 -3.53 
2893 -3.96 -4.43 -3.53 
2894 -3.92 -4.42 -3.53 
2895 -3.94 -4.42 -3.53 
2896 -3.64 -4.49 -3.53 
2897 -3.78 -4.42 -3.53 
2898 -3.89 -4.50 -3.53 
2899 -3.81 -4.41 -3.53 
2900 -3.62 -4.41 -3.53 
2901 -3.67 -4.41 -3.53 
2902 -3.83 -4.44 -3.53 
2903 -3.84 -4.41 -3.53 
2904 -3.95 -4.53 -3.53 
2905 -3.62 -4.43 -3.53 
2906 -3.91 -4.44 -3.53 
2907 -3.89 -4.43 -3.53 
2908 -3.83 -4.44 -3.53 
2909 -3.98 -4.43 -3.53 
2910 -3.69 -4.49 -3.53 
2911 -3.69 -4.40 -3.53 
2912 -3.77 -4.46 -3.53 
2913 -3.76 -4.46 -3.53 
2914 -3.95 -4.56 -3.53 
2915 -3.90 -4.46 -3.53 
2916 -3.60 -4.46 -3.53 
2917 -3.78 -4.46 -3.53 
2918 -3.85 -4.46 -3.53 
2919 -3.77 -4.45 -3.53 
2920 -3.94 -4.46 -3.53 
2921 -3.99 -4.56 -3.53 
2922 -3.82 -4.55 -3.53 
2923 -4.07 -4.55 -3.53 
2924 -3.79 -4.54 -3.53 
2925 -3.80 -4.54 -3.53 
2926 -3.88 -4.54 -3.53 
2927 -3.77 -4.44 -3.53 
2928 -3.98 -4.43 -3.53 
2929 -3.78 -4.44 -3.53 
2930 -3.83 -4.44 -3.53 
2931 -3.84 -4.44 -3.53 
2932 -3.86 -4.45 -3.53 
2933 -3.84 -4.44 -3.53 
2934 -3.94 -4.45 -3.53 
2935 -3.70 -4.53 -3.53 
2936 -3.81 -4.40 -3.53 
2937 -3.81 -4.53 -3.53 
2938 -3.96 -4.43 -3.53 
2939 -3.82 -4.45 -3.53 
2940 -3.79 -4.53 -3.53 
2941 -3.79 -4.43 -3.53 
2942 -3.86 -4.45 -3.53 
2943 -3.86 -4.44 -3.53 
2944 -3.89 -4.46 -3.53 
2945 -3.99 -4.47 -3.53 
2946 -3.86 -4.46 -3.53 
2947 -3.93 -4.56 -3.53 
2948 -3.87 -4.44 -3.53 
2949 -3.63 -4.55 -3.53 
2950 -3.72 -4.45 -3.53 
2951 -3.69 -4.46 -3.53 
2952 -3.91 -4.46 -3.53 
2953 -3.73 -4.47 -3.53 
2954 -3.61 -4.46 -3.53 
2955 -3.70 -4.47 -3.53 
2956 -3.76 -4.47 -3.53 
2957 -3.87 -4.47 -3.53 
2958 -3.88 -4.47 -3.53 
2959 -3.68 -4.46 -3.53 
2960 -3.95 -4.48 -3.53 
2961 -3.69 -4.45 -3.53 
2962 -3.78 -4.49 -3.53 
2963 -4.02 -4.45 -3.53 
2964 -3.74 -4.46 -3.53 
2965 -3.78 -4.48 -3.53 
2966 -3.66 -4.49 -3.53 
2967 -3.85 -4.46 -3.53 
2968 -3.73 -4.47 -3.53 
2969 -3.81 -4.46 -3.53 
2970 -3.61 -4.49 -3.53 
2971 -3.90 -4.46 -3.53 
2972 -3.81 -4.46 -3.53 
2973 -3.78 -4.47 -3.53 
2974 -3.64 -4.46 -3.53 
2975 -3.91 -4.47 -3.53 
2976 -3.91 -4.47 -3.53 
2977 -3.81 -4.45 -3.53 
2978 -3.71 -4.45 -3.53 
2979 -3.86 -4.46 -3.53 
2980 -3.80 -4.44 -3.53 
2981 -3.88 -4.45 -3.53 
2982 -3.63 -4.45 -3.53 
2983 -3.72 -4.45 -3.53 
2984 -3.95 -4.45 -3.53 
2985 -3.80 -4.46 -3.53 
2986 -3.93 -4.49 -3.53 
2987 -3.80 -4.49 -3.53 
2988 -3.69 -4.49 -3.53 
2989 -3.69 -4.50 -3.53 
2990 -3.75 -4.49 -3.53 
2991 -3.83 -4.49 -3.53 
2992 -3.84 -4.50 -3.53 
2993 -3.62 -4.51 -3.53 
2994 -3.76 -4.50 -3.53 
2995 -3.70 -4.50 -3.53 
2996 -3.84 -4.50 -3.53 
2997 -3.79 -4.51 -3.53 
2998 -3.91 -4.50 -3.53 
2999 -3.82 -4.51 -3.53 
3000 -3.70 -4.51 -3.53 
3001 -3.72 -4.51 -3.53 
3002 -3.84 -4.48 -3.53 
3003 -3.78 -4.51 -3.53 
3004 -3.89 -4.51 -3.53 
3005 -3.86 -4.51 -3.53 
3006 -3.75 -4.50 -3.53 
3007 -3.88 -4.50 -3.53 
3008 -3.68 -4.49 -3.53 
3009 -3.83 -4.49 -3.53 
3010 -3.83 -4.49 -3.53 
3011 -3.83 -4.46 -3.53 
3012 -3.89 -4.50 -3.53 
3013 -3.74 -4.38 -3.53 
3014 -3.70 -4.48 -3.53 
3015 -3.79 -4.49 -3.53 
3016 -3.81 -4.49 -3.53 
3017 -3.91 -4.48 -3.53 
3018 -3.98 -4.45 -3.53 
3019 -3.99 -4.47 -3.53 
3020 -3.76 -4.47 -3.53 
3021 -3.70 -4.54 -3.53 
3022 -4.01 -4.44 -3.53 
3023 -3.52 -4.43 -3.53 
3024 -3.77 -4.41 -3.52 
3025 -3.84 -4.49 -3.52 
3026 -3.81 -4.50 -3.52 
3027 -3.85 -4.50 -3.52 
3028 -3.70 -4.55 -3.52 
3029 -3.67 -4.62 -3.52 
3030 -3.68 -4.46 -3.52 
3031 -3.82 -4.48 -3.52 
3032 -3.74 -4.54 -3.52 
3033 -3.73 -4.46 -3.52 
3034 -3.82 -4.47 -3.52 
3035 -3.87 -4.46 -3.52 
3036 -3.98 -4.61 -3.52 
3037 -3.97 -4.47 -3.52 
3038 -4.01 -4.62 -3.52 
3039 -3.80 -4.54 -3.52 
3040 -3.79 -4.63 -3.52 
3041 -3.91 -4.56 -3.52 
3042 -3.64 -4.46 -3.52 
3043 -3.80 -4.54 -3.52 
3044 -3.85 -4.53 -3.52 
3045 -3.95 -4.54 -3.52 
3046 -3.80 -4.38 -3.52 
3047 -3.94 -4.39 -3.52 
3048 -3.73 -4.42 -3.52 
3049 -3.68 -4.42 -3.52 
3050 -3.85 -4.42 -3.52 
3051 -3.86 -4.43 -3.52 
3052 -3.76 -4.42 -3.52 
3053 -3.87 -4.64 -3.52 
3054 -3.88 -4.47 -3.52 
3055 -3.94 -4.39 -3.52 
3056 -3.80 -4.38 -3.52 
3057 -3.85 -4.42 -3.52 
3058 -3.80 -4.42 -3.52 
3059 -3.73 -4.41 -3.52 
3060 -3.88 -4.42 -3.52 
3061 -3.85 -4.58 -3.52 
3062 -3.81 -4.66 -3.52 
3063 -3.81 -4.66 -3.52 
3064 -3.62 -4.66 -3.52 
3065 -3.89 -4.65 -3.52 
3066 -3.81 -4.65 -3.52 
3067 -3.76 -4.64 -3.52 
3068 -3.90 -4.64 -3.52 
3069 -3.74 -4.55 -3.52 
3070 -3.85 -4.71 -3.52 
3071 -3.84 -4.70 -3.52 
3072 -3.74 -4.68 -3.52 
3073 -3.86 -4.59 -3.52 
3074 -3.92 -4.59 -3.52 
3075 -3.80 -4.60 -3.52 
3076 -3.67 -4.59 -3.52 
3077 -3.82 -4.53 -3.52 
3078 -3.90 -4.72 -3.52 
3079 -3.86 -4.72 -3.52 
3080 -3.90 -4.72 -3.52 
3081 -3.90 -4.60 -3.52 
3082 -3.72 -4.78 -3.52 
3083 -3.85 -4.86 -3.52 
3084 -3.82 -4.61 -3.52 
3085 -3.72 -4.60 -3.52 
3086 -3.94 -4.61 -3.52 
3087 -3.67 -4.55 -3.52 
3088 -4.08 -4.55 -3.52 
3089 -3.84 -4.64 -3.52 
3090 -3.94 -4.55 -3.52 
3091 -4.07 -4.62 -3.52 
3092 -3.73 -4.62 -3.52 
3093 -3.89 -4.62 -3.52 
3094 -3.69 -4.69 -3.52 
3095 -3.81 -4.61 -3.52 
3096 -3.83 -4.55 -3.52 
3097 -3.75 -4.63 -3.52 
3098 -3.82 -4.53 -3.52 
3099 -3.77 -4.53 -3.52 
3100 -3.75 -4.52 -3.52 
3101 -4.02 -4.52 -3.52 
3102 -3.76 -4.60 -3.52 
3103 -3.91 -4.69 -3.52 
3104 -3.87 -4.52 -3.52 
3105 -3.64 -4.61 -3.52 
3106 -3.67 -4.53 -3.52 
3107 -3.81 -4.52 -3.52 
3108 -3.74 -4.54 -3.52 
3109 -3.81 -4.49 -3.52 
3110 -3.63 -4.49 -3.52 
3111 -3.72 -4.70 -3.52 
3112 -3.53 -4.77 -3.52 
3113 -3.79 -4.62 -3.52 
3114 -4.09 -4.61 -3.52 
3115 -3.63 -4.71 -3.52 
3116 -3.92 -4.63 -3.52 
3117 -3.83 -4.65 -3.52 
3118 -3.81 -4.58 -3.52 
3119 -3.88 -4.60 -3.52 
3120 -3.67 -4.53 -3.52 
3121 -3.77 -4.55 -3.52 
3122 -3.86 -4.49 -3.52 
3123 -3.77 -4.57 -3.52 
3124 -3.85 -4.48 -3.52 
3125 -3.74 -4.52 -3.52 
3126 -3.78 -4.65 -3.52 
3127 -3.99 -4.50 -3.52 
3128 -3.89 -4.49 -3.52 
3129 -3.83 -4.58 -3.52 
3130 -3.98 -4.50 -3.52 
3131 -3.88 -4.46 -3.52 
3132 -3.79 -4.62 -3.52 
3133 -3.78 -4.61 -3.52 
3134 -3.85 -4.45 -3.52 
3135 -3.76 -4.46 -3.52 
3136 -3.82 -4.44 -3.52 
3137 -3.99 -4.49 -3.52 
3138 -3.92 -4.57 -3.52 
3139 -3.71 -4.67 -3.52 
3140 -3.83 -4.70 -3.52 
3141 -3.83 -4.40 -3.52 
3142 -3.63 -4.40 -3.52 
3143 -3.84 -4.58 -3.52 
3144 -3.73 -4.54 -3.52 
3145 -3.84 -4.62 -3.52 
3146 -3.89 -4.43 -3.52 
3147 -3.93 -4.47 -3.52 
3148 -3.74 -4.48 -3.52 
3149 -3.74 -4.56 -3.52 
3150 -3.81 -4.48 -3.52 
3151 -3.94 -4.47 -3.52 
3152 -3.92 -4.71 -3.52 
3153 -3.63 -4.50 -3.52 
3154 -3.62 -4.43 -3.52 
3155 -4.06 -4.71 -3.52 
3156 -3.64 -4.56 -3.52 
3157 -3.96 -4.71 -3.52 
3158 -3.73 -4.65 -3.52 
3159 -3.86 -4.64 -3.52 
3160 -3.80 -4.64 -3.52 
3161 -3.85 -4.73 -3.52 
3162 -4.00 -4.79 -3.52 
3163 -4.04 -4.54 -3.52 
3164 -3.81 -4.60 -3.52 
3165 -3.90 -4.53 -3.52 
3166 -3.87 -4.71 -3.52 
3167 -3.73 -4.63 -3.52 
3168 -3.61 -4.64 -3.52 
3169 -3.89 -4.64 -3.52 
3170 -3.65 -4.53 -3.52 
3171 -3.82 -4.60 -3.52 
3172 -3.74 -4.65 -3.52 
3173 -3.82 -4.54 -3.52 
3174 -3.88 -4.55 -3.52 
3175 -3.73 -4.61 -3.52 
3176 -3.67 -4.71 -3.52 
3177 -3.98 -4.64 -3.52 
3178 -3.76 -4.56 -3.52 
3179 -3.82 -4.56 -3.52 
3180 -3.95 -4.55 -3.52 
3181 -3.91 -4.55 -3.52 
3182 -3.82 -4.56 -3.52 
3183 -3.98 -4.55 -3.52 
3184 -3.75 -4.55 -3.52 
3185 -3.77 -4.55 -3.52 
3186 -3.65 -4.65 -3.52 
3187 -3.61 -4.63 -3.52 
3188 -3.88 -4.60 -3.52 
3189 -3.96 -4.61 -3.52 
3190 -3.71 -4.61 -3.52 
3191 -3.83 -4.61 -3.52 
3192 -3.87 -4.60 -3.52 
3193 -3.90 -4.62 -3.52 
3194 -3.82 -4.65 -3.52 
3195 -3.66 -4.65 -3.52 
3196 -3.88 -4.54 -3.52 
3197 -3.82 -4.55 -3.52 
3198 -3.81 -4.54 -3.52 
3199 -3.82 -4.53 -3.52 
3200 -3.85 -4.54 -3.52 
3201 -3.82 -4.57 -3.52 
3202 -3.69 -4.49 -3.52 
3203 -3.86 -4.58 -3.52 
3204 -3.67 -4.62 -3.52 
3205 -3.99 -4.62 -3.52 
3206 -3.70 -4.63 -3.52 
3207 -3.75 -4.60 -3.52 
3208 -3.78 -4.61 -3.52 
3209 -3.78 -4.54 -3.52 
3210 -3.82 -4.54 -3.52 
3211 -3.99 -4.61 -3.52 
3212 -3.61 -4.61 -3.52 
3213 -3.90 -4.64 -3.52 
3214 -3.85 -4.63 -3.52 
3215 -3.89 -4.69 -3.52 
3216 -3.76 -4.69 -3.52 
3217 -3.71 -4.64 -3.52 
3218 -3.95 -4.63 -3.52 
3219 -3.82 -4.64 -3.52 
3220 -3.70 -4.70 -3.52 
3221 -3.90 -4.70 -3.52 
3222 -3.74 -4.65 -3.52 
3223 -3.98 -4.63 -3.52 
3224 -3.64 -4.65 -3.52 
3225 -4.01 -4.65 -3.52 
3226 -3.81 -4.65 -3.52 
3227 -3.62 -4.65 -3.52 
3228 -3.71 -4.65 -3.52 
3229 -3.76 -4.63 -3.52 
3230 -3.91 -4.61 -3.52 
3231 -3.85 -4.62 -3.52 
3232 -4.04 -4.61 -3.52 
3233 -3.95 -4.73 -3.52 
3234 -3.87 -4.88 -3.52 
3235 -4.00 -4.87 -3.52 
3236 -3.73 -4.86 -3.52 
3237 -3.80 -4.87 -3.52 
3238 -4.05 -4.88 -3.52 
3239 -3.99 -4.87 -3.52 
3240 -3.66 -4.80 -3.52 
3241 -3.85 -4.71 -3.52 
3242 -3.74 -4.62 -3.52 
3243 -3.74 -4.62 -3.52 
3244 -3.67 -4.62 -3.52 
3245 -3.92 -4.63 -3.52 
3246 -4.07 -4.72 -3.52 
3247 -4.12 -4.74 -3.52 
3248 -3.68 -4.74 -3.52 
3249 -3.87 -4.74 -3.52 
3250 -3.85 -4.65 -3.52 
3251 -3.74 -4.62 -3.52 
3252 -3.83 -4.70 -3.52 
3253 -3.77 -4.67 -3.52 
3254 -3.73 -4.68 -3.52 
3255 -3.74 -4.73 -3.52 
3256 -4.01 -4.64 -3.52 
3257 -3.89 -4.55 -3.52 
3258 -3.75 -4.57 -3.52 
3259 -3.88 -4.50 -3.52 
3260 -3.79 -4.52 -3.52 
3261 -3.86 -4.44 -3.52 
3262 -3.64 -4.45 -3.52 
3263 -3.69 -4.56 -3.52 
3264 -3.78 -4.47 -3.52 
3265 -3.68 -4.46 -3.52 
3266 -3.71 -4.56 -3.52 
3267 -3.65 -4.56 -3.52 
3268 -3.97 -4.63 -3.52 
3269 -3.81 -4.56 -3.52 
3270 -3.92 -4.53 -3.52 
3271 -3.89 -4.54 -3.52 
3272 -3.96 -4.48 -3.52 
3273 -3.79 -4.56 -3.52 
3274 -3.81 -4.56 -3.52 
3275 -4.02 -4.56 -3.52 
3276 -3.78 -4.56 -3.52 
3277 -3.89 -4.47 -3.52 
3278 -3.67 -4.48 -3.52 
3279 -3.71 -4.54 -3.52 
3280 -3.84 -4.54 -3.52 
3281 -3.83 -4.56 -3.52 
3282 -3.82 -4.47 -3.52 
3283 -3.75 -4.48 -3.52 
3284 -3.56 -4.48 -3.52 
3285 -3.99 -4.48 -3.52 
3286 -3.74 -4.48 -3.52 
3287 -3.82 -4.47 -3.52 
3288 -3.67 -4.46 -3.52 
3289 -3.69 -4.46 -3.52 
3290 -3.85 -4.46 -3.52 
3291 -3.66 -4.44 -3.52 
3292 -3.75 -4.46 -3.52 
3293 -3.71 -4.46 -3.52 
3294 -3.95 -4.47 -3.52 
3295 -3.87 -4.47 -3.52 
3296 -3.78 -4.45 -3.52 
3297 -3.96 -4.54 -3.52 
3298 -3.99 -4.63 -3.52 
3299 -3.91 -4.54 -3.52 
3300 -3.80 -4.54 -3.52 
3301 -3.75 -4.56 -3.52 
3302 -3.89 -4.56 -3.52 
3303 -3.75 -4.57 -3.52 
3304 -3.74 -4.47 -3.52 
3305 -3.94 -4.39 -3.52 
3306 -3.79 -4.38 -3.52 
3307 -3.82 -4.38 -3.52 
3308 -3.76 -4.48 -3.52 
3309 -3.79 -4.43 -3.52 
3310 -3.71 -4.48 -3.52 
3311 -3.78 -4.49 -3.52 
3312 -3.82 -4.47 -3.52 
3313 -3.84 -4.49 -3.52 
3314 -3.94 -4.39 -3.52 
3315 -3.89 -4.49 -3.52 
3316 -3.88 -4.46 -3.52 
3317 -3.85 -4.45 -3.52 
3318 -4.05 -4.47 -3.52 
3319 -3.80 -4.48 -3.52 
3320 -3.81 -4.39 -3.52 
3321 -3.83 -4.48 -3.52 
3322 -3.72 -4.47 -3.52 
3323 -3.94 -4.39 -3.52 
3324 -3.91 -4.39 -3.52 
3325 -3.89 -4.47 -3.52 
3326 -3.56 -4.56 -3.52 
3327 -3.73 -4.54 -3.52 
3328 -3.76 -4.54 -3.52 
3329 -3.81 -4.56 -3.52 
3330 -3.82 -4.56 -3.52 
3331 -4.01 -4.47 -3.52 
3332 -3.76 -4.47 -3.52 
3333 -3.76 -4.38 -3.52 
3334 -3.67 -4.38 -3.52 
3335 -3.84 -4.37 -3.52 
3336 -3.87 -4.38 -3.52 
3337 -3.95 -4.47 -3.52 
3338 -3.90 -4.39 -3.52 
3339 -3.70 -4.39 -3.52 
3340 -3.90 -4.38 -3.52 
3341 -3.71 -4.38 -3.52 
3342 -3.76 -4.51 -3.52 
3343 -3.69 -4.52 -3.52 
3344 -3.84 -4.54 -3.52 
3345 -3.88 -4.54 -3.52 
3346 -3.73 -4.63 -3.52 
3347 -3.94 -4.63 -3.52 
3348 -3.72 -4.63 -3.52 
3349 -3.69 -4.63 -3.52 
3350 -3.85 -4.63 -3.52 
3351 -3.73 -4.62 -3.52 
3352 -3.73 -4.62 -3.52 
3353 -3.64 -4.63 -3.52 
3354 -3.75 -4.46 -3.52 
3355 -3.72 -4.56 -3.52 
3356 -3.95 -4.53 -3.52 
3357 -3.75 -4.59 -3.52 
3358 -3.88 -4.60 -3.52 
3359 -3.73 -4.69 -3.52 
3360 -3.69 -4.69 -3.52 
3361 -3.71 -4.53 -3.52 
3362 -4.20 -4.71 -3.52 
3363 -4.08 -4.54 -3.52 
3364 -3.94 -4.59 -3.52 
3365 -3.85 -4.59 -3.52 
3366 -3.71 -4.60 -3.52 
3367 -3.75 -4.60 -3.52 
3368 -3.86 -4.68 -3.52 
3369 -3.82 -4.60 -3.52 
3370 -3.97 -4.68 -3.52 
3371 -3.83 -4.59 -3.52 
3372 -3.68 -4.59 -3.52 
3373 -3.80 -4.61 -3.52 
3374 -3.95 -4.63 -3.52 
3375 -3.82 -4.67 -3.52 
3376 -3.66 -4.76 -3.52 
3377 -3.94 -4.76 -3.52 
3378 -3.89 -4.77 -3.52 
3379 -3.76 -4.83 -3.52 
3380 -3.73 -4.87 -3.52 
3381 -3.79 -4.88 -3.52 
3382 -3.81 -4.91 -3.52 
3383 -3.76 -4.93 -3.52 
3384 -3.95 -4.86 -3.52 
3385 -3.94 -4.88 -3.52 
3386 -3.84 -4.88 -3.52 
3387 -3.93 -4.88 -3.52 
3388 -3.87 -4.88 -3.52 
3389 -3.74 -4.87 -3.52 
3390 -3.95 -4.88 -3.52 
3391 -3.94 -4.88 -3.52 
3392 -3.63 -4.89 -3.52 
3393 -3.61 -4.88 -3.52 
3394 -3.83 -4.73 -3.52 
3395 -3.85 -4.90 -3.52 
3396 -3.76 -4.88 -3.52 
3397 -3.84 -4.79 -3.52 
3398 -4.02 -4.74 -3.52 
3399 -3.57 -4.77 -3.52 
3400 -3.98 -4.87 -3.52 
3401 -4.00 -4.77 -3.52 
3402 -3.80 -4.69 -3.52 
3403 -3.57 -4.78 -3.52 
3404 -3.67 -4.88 -3.52 
3405 -3.57 -4.87 -3.52 
3406 -3.71 -4.88 -3.52 
3407 -3.83 -4.55 -3.52 
3408 -3.73 -4.56 -3.52 
3409 -3.67 -4.42 -3.52 
3410 -3.77 -4.60 -3.52 
3411 -3.89 -4.56 -3.52 
3412 -3.74 -4.49 -3.52 
3413 -3.67 -4.53 -3.52 
3414 -3.67 -4.43 -3.52 
3415 -3.91 -4.53 -3.52 
3416 -3.86 -4.43 -3.52 
3417 -3.90 -4.52 -3.52 
3418 -3.64 -4.43 -3.52 
3419 -3.88 -4.48 -3.52 
3420 -3.76 -4.50 -3.52 
3421 -3.70 -4.43 -3.52 
3422 -3.81 -4.43 -3.52 
3423 -3.71 -4.39 -3.52 
3424 -3.81 -4.63 -3.52 
3425 -3.99 -4.68 -3.52 
3426 -3.59 -4.41 -3.52 
3427 -3.94 -4.42 -3.52 
3428 -3.81 -4.44 -3.52 
3429 -3.61 -4.41 -3.52 
3430 -3.72 -4.48 -3.52 
3431 -3.76 -4.59 -3.52 
3432 -3.67 -4.42 -3.52 
3433 -3.81 -4.42 -3.52 
3434 -3.79 -4.39 -3.52 
3435 -3.84 -4.42 -3.52 
3436 -3.60 -4.39 -3.52 
3437 -3.79 -4.44 -3.52 
3438 -3.78 -4.42 -3.52 
3439 -3.78 -4.41 -3.52 
3440 -3.93 -4.41 -3.52 
3441 -3.69 -4.43 -3.52 
3442 -4.03 -4.43 -3.52 
3443 -3.73 -4.53 -3.52 
3444 -3.76 -4.44 -3.52 
3445 -3.89 -4.43 -3.52 
3446 -3.75 -4.45 -3.52 
3447 -3.66 -4.46 -3.52 
3448 -3.84 -4.46 -3.52 
3449 -3.62 -4.43 -3.52 
3450 -3.81 -4.43 -3.52 
3451 -3.78 -4.53 -3.52 
3452 -3.76 -4.53 -3.52 
3453 -3.88 -4.44 -3.52 
3454 -3.88 -4.46 -3.52 
3455 -3.68 -4.52 -3.52 
3456 -3.89 -4.52 -3.52 
3457 -3.91 -4.53 -3.52 
3458 -3.90 -4.52 -3.52 
3459 -3.97 -4.52 -3.52 
3460 -3.73 -4.52 -3.52 
3461 -3.78 -4.44 -3.52 
3462 -3.71 -4.44 -3.52 
3463 -3.86 -4.52 -3.52 
3464 -3.83 -4.53 -3.52 
3465 -3.79 -4.53 -3.52 
3466 -3.88 -4.45 -3.52 
3467 -3.74 -4.53 -3.52 
3468 -3.85 -4.54 -3.52 
3469 -3.77 -4.54 -3.52 
3470 -3.68 -4.54 -3.52 
3471 -3.69 -4.54 -3.52 
3472 -3.74 -4.50 -3.52 
3473 -3.81 -4.49 -3.52 
3474 -3.75 -4.46 -3.52 
3475 -3.60 -4.48 -3.52 
3476 -3.79 -4.54 -3.52 
3477 -3.78 -4.54 -3.52 
3478 -3.75 -4.54 -3.52 
3479 -3.75 -4.54 -3.52 
3480 -3.84 -4.46 -3.52 
3481 -3.86 -4.55 -3.52 
3482 -3.77 -4.55 -3.52 
3483 -3.95 -4.49 -3.52 
3484 -3.75 -4.47 -3.52 
3485 -3.88 -4.47 -3.52 
3486 -3.86 -4.57 -3.52 
3487 -3.83 -4.58 -3.52 
3488 -3.71 -4.56 -3.52 
3489 -3.63 -4.56 -3.52 
3490 -3.80 -4.56 -3.52 
3491 -3.76 -4.56 -3.52 
3492 -3.78 -4.58 -3.52 
3493 -3.93 -4.58 -3.52 
3494 -3.83 -4.57 -3.52 
3495 -3.71 -4.57 -3.52 
3496 -3.89 -4.59 -3.52 
3497 -3.79 -4.59 -3.52 
3498 -3.68 -4.60 -3.52 
3499 -3.96 -4.60 -3.52 
3500 -3.76 -4.58 -3.52 
3501 -3.68 -4.59 -3.52 
3502 -3.84 -4.60 -3.52 
3503 -3.93 -4.60 -3.52 
3504 -3.85 -4.60 -3.52 
3505 -3.85 -4.60 -3.52 
3506 -3.79 -4.59 -3.52 
3507 -3.81 -4.59 -3.52 
3508 -3.81 -4.59 -3.52 
3509 -3.78 -4.59 -3.52 
3510 -3.99 -4.60 -3.52 
3511 -3.92 -4.60 -3.52 
3512 -3.70 -4.60 -3.52 
3513 -3.81 -4.62 -3.52 
3514 -3.69 -4.62 -3.52 
3515 -3.70 -4.61 -3.52 
3516 -3.80 -4.62 -3.52 
3517 -3.74 -4.61 -3.52 
3518 -3.72 -4.61 -3.52 
3519 -3.73 -4.61 -3.52 
3520 -3.72 -4.61 -3.52 
3521 -3.81 -4.61 -3.52 
3522 -3.75 -4.61 -3.52 
3523 -3.79 -4.61 -3.52 
3524 -3.65 -4.61 -3.52 
3525 -4.00 -4.62 -3.52 
3526 -3.95 -4.61 -3.52 
3527 -3.71 -4.62 -3.52 
3528 -3.72 -4.59 -3.52 
3529 -3.84 -4.50 -3.52 
3530 -3.92 -4.60 -3.52 
3531 -3.81 -4.60 -3.52 
3532 -4.02 -4.60 -3.52 
3533 -3.87 -4.60 -3.52 
3534 -3.74 -4.60 -3.52 
3535 -3.74 -4.60 -3.52 
3536 -3.74 -4.59 -3.52 
3537 -3.72 -4.50 -3.52 
3538 -3.76 -4.50 -3.52 
3539 -3.93 -4.50 -3.52 
3540 -3.77 -4.49 -3.52 
3541 -3.76 -4.57 -3.52 
3542 -3.91 -4.50 -3.52 
3543 -3.80 -4.49 -3.52 
3544 -3.78 -4.49 -3.52 
3545 -3.76 -4.49 -3.52 
3546 -3.56 -4.50 -3.52 
3547 -3.89 -4.57 -3.52 
3548 -3.68 -4.57 -3.52 
3549 -4.05 -4.58 -3.52 
3550 -3.69 -4.58 -3.52 
3551 -3.75 -4.58 -3.52 
3552 -3.84 -4.59 -3.52 
3553 -3.78 -4.58 -3.52 
3554 -3.82 -4.58 -3.52 
3555 -3.78 -4.58 -3.52 
3556 -3.63 -4.59 -3.52 
3557 -3.72 -4.59 -3.52 
3558 -3.79 -4.59 -3.52 
3559 -3.86 -4.60 -3.52 
3560 -3.87 -4.59 -3.52 
3561 -3.75 -4.59 -3.52 
3562 -3.89 -4.58 -3.52 
3563 -3.70 -4.58 -3.52 
3564 -3.69 -4.59 -3.52 
3565 -3.83 -4.59 -3.52 
3566 -4.04 -4.58 -3.52 
3567 -3.75 -4.59 -3.52 
3568 -3.76 -4.59 -3.52 
3569 -3.96 -4.50 -3.52 
3570 -4.00 -4.51 -3.52 
3571 -3.88 -4.48 -3.52 
3572 -3.84 -4.45 -3.52 
3573 -3.64 -4.46 -3.52 
3574 -4.04 -4.46 -3.52 
3575 -3.79 -4.46 -3.52 
3576 -3.67 -4.46 -3.52 
3577 -3.90 -4.44 -3.52 
3578 -3.82 -4.45 -3.52 
3579 -3.95 -4.44 -3.52 
3580 -3.78 -4.47 -3.52 
3581 -3.79 -4.46 -3.52 
3582 -3.76 -4.47 -3.52 
3583 -3.77 -4.47 -3.52 
3584 -3.73 -4.48 -3.52 
3585 -3.73 -4.48 -3.52 
3586 -3.72 -4.48 -3.52 
3587 -3.82 -4.46 -3.52 
3588 -3.83 -4.45 -3.52 
3589 -3.72 -4.49 -3.52 
3590 -3.77 -4.48 -3.52 
3591 -3.84 -4.57 -3.52 
3592 -3.72 -4.55 -3.52 
3593 -3.85 -4.57 -3.52 
3594 -3.88 -4.56 -3.52 
3595 -3.76 -4.57 -3.52 
3596 -3.87 -4.44 -3.52 
3597 -3.73 -4.46 -3.52 
3598 -3.86 -4.46 -3.52 
3599 -3.72 -4.46 -3.52 
3600 -3.73 -4.47 -3.52 
3601 -3.82 -4.40 -3.52 
3602 -3.75 -4.41 -3.52 
3603 -3.90 -4.41 -3.52 
3604 -3.70 -4.40 -3.52 
3605 -3.69 -4.55 -3.52 
3606 -3.71 -4.46 -3.52 
3607 -3.89 -4.46 -3.52 
3608 -3.54 -4.56 -3.52 
3609 -3.83 -4.64 -3.52 
3610 -3.80 -4.61 -3.52 
3611 -3.81 -4.55 -3.52 
3612 -3.90 -4.55 -3.52 
3613 -3.87 -4.57 -3.52 
3614 -3.81 -4.47 -3.52 
3615 -3.63 -4.57 -3.52 
3616 -3.74 -4.46 -3.52 
3617 -3.87 -4.48 -3.52 
3618 -4.04 -4.56 -3.52 
3619 -3.77 -4.57 -3.52 
3620 -3.74 -4.65 -3.52 
3621 -3.80 -4.73 -3.52 
3622 -3.86 -4.65 -3.52 
3623 -3.95 -4.69 -3.52 
3624 -4.00 -4.67 -3.52 
3625 -3.56 -4.86 -3.52 
3626 -3.83 -4.80 -3.52 
3627 -3.87 -4.60 -3.52 
3628 -3.81 -4.59 -3.52 
3629 -3.56 -4.68 -3.52 
3630 -3.66 -4.61 -3.52 
3631 -3.87 -4.63 -3.52 
3632 -3.68 -4.66 -3.52 
3633 -3.90 -4.67 -3.52 
3634 -3.97 -4.77 -3.52 
3635 -3.97 -4.76 -3.52 
3636 -4.04 -4.69 -3.52 
3637 -3.66 -4.72 -3.52 
3638 -3.82 -4.69 -3.52 
3639 -3.96 -4.79 -3.52 
3640 -3.66 -4.72 -3.52 
3641 -3.93 -4.80 -3.52 
3642 -3.71 -4.73 -3.52 
3643 -3.76 -4.81 -3.52 
3644 -3.86 -4.68 -3.52 
3645 -3.88 -4.72 -3.52 
3646 -3.90 -4.62 -3.52 
3647 -3.82 -4.53 -3.52 
3648 -3.88 -4.54 -3.52 
3649 -3.81 -4.54 -3.52 
3650 -3.93 -4.63 -3.52 
3651 -3.86 -4.71 -3.52 
3652 -3.82 -4.58 -3.52 
3653 -3.87 -4.58 -3.52 
3654 -3.80 -4.58 -3.52 
3655 -3.84 -4.64 -3.52 
3656 -3.92 -4.64 -3.52 
3657 -3.97 -4.65 -3.52 
3658 -3.72 -4.62 -3.52 
3659 -3.94 -4.67 -3.52 
3660 -3.68 -4.64 -3.52 
3661 -4.01 -4.63 -3.52 
3662 -3.83 -4.60 -3.52 
3663 -3.87 -4.63 -3.52 
3664 -3.90 -4.53 -3.52 
3665 -3.79 -4.64 -3.52 
3666 -3.93 -4.56 -3.52 
3667 -3.60 -4.58 -3.52 
3668 -3.79 -4.56 -3.52 
3669 -3.85 -4.48 -3.52 
3670 -3.95 -4.58 -3.52 
3671 -3.60 -4.68 -3.52 
3672 -3.80 -4.48 -3.52 
3673 -3.78 -4.59 -3.52 
3674 -4.04 -4.65 -3.52 
3675 -3.74 -4.64 -3.52 
3676 -3.80 -4.55 -3.52 
3677 -3.66 -4.48 -3.52 
3678 -3.92 -4.63 -3.52 
3679 -3.83 -4.62 -3.52 
3680 -3.70 -4.71 -3.52 
3681 -3.83 -4.72 -3.52 
3682 -3.70 -4.72 -3.52 
3683 -3.83 -4.56 -3.52 
3684 -3.74 -4.47 -3.52 
3685 -3.79 -4.40 -3.52 
3686 -3.68 -4.55 -3.52 
3687 -3.79 -4.48 -3.52 
3688 -4.00 -4.50 -3.52 
3689 -3.91 -4.48 -3.52 
3690 -3.67 -4.50 -3.52 
3691 -3.69 -4.56 -3.52 
3692 -3.93 -4.55 -3.52 
3693 -3.79 -4.49 -3.52 
3694 -3.80 -4.57 -3.52 
3695 -3.56 -4.49 -3.52 
3696 -3.93 -4.65 -3.52 
3697 -3.93 -4.51 -3.52 
3698 -3.65 -4.60 -3.52 
3699 -3.84 -4.60 -3.52 
3700 -4.09 -4.51 -3.52 
3701 -3.89 -4.74 -3.52 
3702 -3.85 -4.67 -3.52 
3703 -3.83 -4.74 -3.52 
3704 -3.96 -4.59 -3.52 
3705 -3.79 -4.58 -3.52 
3706 -3.97 -4.66 -3.52 
3707 -3.82 -4.66 -3.52 
3708 -3.58 -4.65 -3.52 
3709 -3.87 -4.72 -3.52 
3710 -3.74 -4.59 -3.52 
3711 -3.91 -4.68 -3.52 
3712 -3.84 -4.54 -3.52 
3713 -3.76 -4.62 -3.52 
3714 -3.81 -4.55 -3.52 
3715 -3.78 -4.56 -3.52 
3716 -3.75 -4.64 -3.52 
3717 -3.84 -4.66 -3.52 
3718 -3.73 -4.67 -3.52 
3719 -3.80 -4.65 -3.52 
3720 -3.77 -4.54 -3.52 
3721 -3.76 -4.57 -3.52 
3722 -3.77 -4.67 -3.52 
3723 -3.84 -4.67 -3.52 
3724 -3.67 -4.48 -3.52 
3725 -3.81 -4.63 -3.52 
3726 -3.82 -4.76 -3.52 
3727 -3.74 -4.81 -3.52 
3728 -3.91 -4.77 -3.52 
3729 -3.88 -4.75 -3.52 
3730 -3.85 -4.72 -3.52 
3731 -3.92 -4.80 -3.52 
3732 -3.78 -4.78 -3.52 
3733 -3.67 -4.75 -3.52 
3734 -3.68 -4.59 -3.52 
3735 -3.71 -4.46 -3.52 
3736 -3.92 -4.56 -3.52 
3737 -3.72 -4.48 -3.52 
3738 -3.69 -4.47 -3.52 
3739 -3.81 -4.69 -3.52 
3740 -3.95 -4.69 -3.52 
3741 -3.92 -4.69 -3.52 
3742 -3.85 -4.69 -3.52 
3743 -4.19 -4.52 -3.52 
3744 -3.83 -4.70 -3.52 
3745 -3.94 -4.59 -3.52 
3746 -3.72 -4.65 -3.52 
3747 -3.83 -4.72 -3.52 
3748 -3.76 -4.61 -3.52 
3749 -3.86 -4.60 -3.52 
3750 -3.70 -4.62 -3.52 
3751 -3.73 -4.77 -3.52 
3752 -3.75 -4.77 -3.52 
3753 -4.00 -4.80 -3.52 
3754 -3.92 -4.81 -3.52 
3755 -3.98 -4.65 -3.52 
3756 -3.71 -4.56 -3.52 
3757 -3.62 -4.56 -3.52 
3758 -3.90 -4.56 -3.52 
3759 -3.80 -4.58 -3.52 
3760 -3.99 -4.63 -3.52 
3761 -3.76 -4.64 -3.52 
3762 -3.90 -4.62 -3.52 
3763 -3.88 -4.50 -3.52 
3764 -3.90 -4.48 -3.52 
3765 -3.58 -4.51 -3.52 
3766 -3.85 -4.52 -3.52 
3767 -3.67 -4.50 -3.52 
3768 -3.76 -4.49 -3.52 
3769 -3.83 -4.50 -3.52 
3770 -3.78 -4.49 -3.52 
3771 -3.74 -4.49 -3.52 
3772 -3.86 -4.53 -3.52 
3773 -3.88 -4.51 -3.52 
3774 -3.80 -4.52 -3.52 
3775 -3.96 -4.56 -3.52 
3776 -4.05 -4.56 -3.52 
3777 -4.00 -4.53 -3.52 
3778 -3.76 -4.55 -3.52 
3779 -3.95 -4.58 -3.52 
3780 -3.66 -4.60 -3.52 
3781 -3.88 -4.56 -3.52 
3782 -3.69 -4.54 -3.52 
3783 -3.77 -4.54 -3.52 
3784 -3.83 -4.55 -3.52 
3785 -3.86 -4.65 -3.52 
3786 -3.87 -4.54 -3.52 
3787 -3.75 -4.52 -3.52 
3788 -3.86 -4.53 -3.52 
3789 -3.59 -4.57 -3.52 
3790 -3.82 -4.60 -3.52 
3791 -3.79 -4.61 -3.52 
3792 -3.69 -4.47 -3.52 
3793 -3.82 -4.51 -3.52 
3794 -4.02 -4.56 -3.52 
3795 -3.77 -4.47 -3.52 
3796 -3.79 -4.54 -3.52 
3797 -3.56 -4.56 -3.52 
3798 -3.87 -4.67 -3.52 
3799 -3.84 -4.53 -3.52 
3800 -3.74 -4.51 -3.52 
3801 -3.91 -4.60 -3.52 
3802 -3.87 -4.59 -3.52 
3803 -4.01 -4.51 -3.52 
3804 -3.86 -4.62 -3.52 
3805 -3.79 -4.53 -3.52 
3806 -3.89 -4.62 -3.52 
3807 -3.89 -4.64 -3.52 
3808 -3.88 -4.65 -3.52 
3809 -3.92 -4.54 -3.52 
3810 -3.90 -4.57 -3.52 
3811 -3.73 -4.55 -3.52 
3812 -3.82 -4.52 -3.52 
3813 -3.77 -4.66 -3.52 
3814 -3.99 -4.51 -3.52 
3815 -3.84 -4.47 -3.52 
3816 -3.85 -4.42 -3.52 
3817 -3.79 -4.44 -3.52 
3818 -3.80 -4.41 -3.52 
3819 -3.84 -4.47 -3.52 
3820 -3.73 -4.39 -3.52 
3821 -3.62 -4.47 -3.52 
3822 -3.69 -4.51 -3.52 
3823 -3.91 -4.42 -3.52 
3824 -3.90 -4.42 -3.52 
3825 -3.84 -4.42 -3.52 
3826 -3.75 -4.41 -3.52 
3827 -3.90 -4.37 -3.52 
3828 -3.91 -4.43 -3.52 
3829 -3.86 -4.44 -3.52 
3830 -3.73 -4.47 -3.52 
3831 -3.92 -4.40 -3.52 
3832 -3.84 -4.45 -3.52 
3833 -3.73 -4.45 -3.52 
3834 -3.87 -4.45 -3.52 
3835 -3.70 -4.48 -3.52 
3836 -3.74 -4.49 -3.52 
3837 -3.90 -4.44 -3.52 
3838 -4.05 -4.45 -3.52 
3839 -3.90 -4.43 -3.52 
3840 -3.89 -4.44 -3.52 
3841 -3.88 -4.44 -3.52 
3842 -3.66 -4.54 -3.52 
3843 -3.75 -4.47 -3.52 
3844 -3.85 -4.54 -3.52 
3845 -3.98 -4.55 -3.52 
3846 -3.74 -4.47 -3.52 
3847 -3.75 -4.47 -3.52 
3848 -3.77 -4.46 -3.52 
3849 -3.83 -4.45 -3.52 
3850 -3.90 -4.52 -3.52 
3851 -3.66 -4.52 -3.52 
3852 -3.90 -4.51 -3.52 
3853 -3.71 -4.51 -3.52 
3854 -3.64 -4.50 -3.52 
3855 -4.04 -4.49 -3.52 
3856 -3.81 -4.38 -3.52 
3857 -3.67 -4.47 -3.52 
3858 -3.78 -4.47 -3.52 
3859 -3.82 -4.43 -3.52 
3860 -3.69 -4.47 -3.52 
3861 -3.90 -4.49 -3.52 
3862 -3.95 -4.49 -3.52 
3863 -3.99 -4.50 -3.52 
3864 -4.00 -4.50 -3.52 
3865 -3.77 -4.52 -3.52 
3866 -3.87 -4.50 -3.52 
3867 -3.74 -4.45 -3.52 
3868 -3.83 -4.43 -3.52 
3869 -3.77 -4.44 -3.52 
3870 -3.80 -4.43 -3.52 
3871 -3.79 -4.49 -3.52 
3872 -3.62 -4.48 -3.52 
3873 -3.82 -4.49 -3.52 
3874 -3.89 -4.48 -3.52 
3875 -3.89 -4.40 -3.52 
3876 -3.60 -4.43 -3.52 
3877 -3.97 -4.45 -3.52 
3878 -3.72 -4.42 -3.52 
3879 -3.75 -4.48 -3.52 
3880 -3.77 -4.45 -3.52 
3881 -3.78 -4.47 -3.52 
3882 -3.93 -4.45 -3.52 
3883 -3.98 -4.45 -3.52 
3884 -3.60 -4.44 -3.52 
3885 -3.81 -4.42 -3.52 
3886 -3.92 -4.42 -3.52 
3887 -3.93 -4.42 -3.52 
3888 -4.05 -4.42 -3.52 
3889 -3.87 -4.39 -3.52 
3890 -3.83 -4.39 -3.52 
3891 -3.82 -4.39 -3.52 
3892 -3.80 -4.37 -3.52 
3893 -3.83 -4.36 -3.52 
3894 -3.78 -4.45 -3.52 
3895 -3.93 -4.45 -3.52 
3896 -3.76 -4.46 -3.52 
3897 -3.82 -4.36 -3.52 
3898 -3.83 -4.38 -3.52 
3899 -3.94 -4.37 -3.52 
3900 -3.95 -4.38 -3.52 
3901 -3.94 -4.38 -3.52 
3902 -3.70 -4.41 -3.52 
3903 -3.89 -4.41 -3.52 
3904 -3.96 -4.52 -3.52 
3905 -3.75 -4.40 -3.52 
3906 -3.72 -4.44 -3.52 
3907 -3.88 -4.43 -3.52 
3908 -3.91 -4.43 -3.52 
3909 -3.66 -4.44 -3.52 
3910 -3.88 -4.43 -3.52 
3911 -3.80 -4.43 -3.52 
3912 -3.92 -4.42 -3.52 
3913 -3.73 -4.42 -3.52 
3914 -3.80 -4.44 -3.52 
3915 -3.76 -4.45 -3.52 
3916 -3.85 -4.48 -3.52 
3917 -3.78 -4.44 -3.52 
3918 -3.63 -4.46 -3.52 
3919 -3.82 -4.45 -3.52 
3920 -3.83 -4.47 -3.52 
3921 -4.08 -4.47 -3.52 
3922 -3.83 -4.47 -3.52 
3923 -3.73 -4.32 -3.52 
3924 -3.83 -4.39 -3.52 
3925 -3.85 -4.31 -3.52 
3926 -3.80 -4.47 -3.52 
3927 -4.03 -4.39 -3.52 
3928 -3.79 -4.39 -3.52 
3929 -3.97 -4.48 -3.52 
3930 -3.85 -4.50 -3.52 
3931 -3.63 -4.42 -3.52 
3932 -3.70 -4.49 -3.52 
3933 -3.86 -4.53 -3.52 
3934 -3.76 -4.50 -3.52 
3935 -3.84 -4.47 -3.52 
3936 -3.86 -4.47 -3.52 
3937 -3.86 -4.58 -3.52 
3938 -3.73 -4.59 -3.52 
3939 -4.04 -4.68 -3.52 
3940 -3.87 -4.54 -3.52 
3941 -3.83 -4.53 -3.52 
3942 -3.73 -4.45 -3.52 
3943 -3.93 -4.43 -3.52 
3944 -3.76 -4.49 -3.52 
3945 -3.71 -4.55 -3.52 
3946 -3.78 -4.60 -3.52 
3947 -3.64 -4.46 -3.52 
3948 -4.10 -4.59 -3.52 
3949 -3.92 -4.63 -3.52 
3950 -4.00 -4.58 -3.52 
3951 -3.78 -4.55 -3.52 
3952 -3.72 -4.57 -3.52 
3953 -3.74 -4.59 -3.52 
3954 -3.86 -4.57 -3.52 
3955 -3.87 -4.59 -3.52 
3956 -3.92 -4.52 -3.52 
3957 -3.75 -4.52 -3.52 
3958 -3.95 -4.60 -3.52 
3959 -3.85 -4.65 -3.52 
3960 -3.99 -4.40 -3.52 
3961 -3.88 -4.54 -3.52 
3962 -3.77 -4.72 -3.52 
3963 -3.85 -4.75 -3.52 
3964 -3.75 -4.57 -3.52 
3965 -3.76 -4.64 -3.52 
3966 -3.90 -4.58 -3.52 
3967 -3.94 -4.61 -3.52 
3968 -3.75 -4.60 -3.52 
3969 -3.83 -4.63 -3.52 
3970 -3.93 -4.59 -3.52 
3971 -3.91 -4.67 -3.52 
3972 -3.83 -4.59 -3.52 
3973 -3.80 -4.67 -3.52 
3974 -3.79 -4.61 -3.52 
3975 -3.81 -4.54 -3.52 
3976 -3.89 -4.54 -3.52 
3977 -3.89 -4.54 -3.52 
3978 -3.92 -4.55 -3.52 
3979 -3.89 -4.46 -3.52 
3980 -3.74 -4.44 -3.52 
3981 -3.79 -4.48 -3.52 
3982 -3.79 -4.49 -3.52 
3983 -4.08 -4.59 -3.52 
3984 -3.97 -4.68 -3.52 
3985 -3.89 -4.62 -3.52 
3986 -3.89 -4.56 -3.52 
3987 -3.83 -4.72 -3.52 
3988 -3.90 -4.62 -3.52 
3989 -3.95 -4.62 -3.52 
3990 -3.83 -4.54 -3.52 
3991 -3.76 -4.46 -3.52 
3992 -3.89 -4.60 -3.52 
3993 -3.77 -4.53 -3.52 
3994 -3.82 -4.51 -3.52 
3995 -3.79 -4.54 -3.52 
3996 -3.75 -4.56 -3.52 
3997 -3.99 -4.46 -3.52 
3998 -4.02 -4.46 -3.52 
3999 -3.76 -4.51 -3.52 
4000 -3.92 -4.39 -3.52 
4001 -3.83 -4.52 -3.52 
4002 -3.85 -4.50 -3.52 
4003 -3.92 -4.50 -3.52 
4004 -3.77 -4.66 -3.52 
4005 -3.95 -4.68 -3.52 
4006 -3.84 -4.68 -3.52 
4007 -4.06 -4.60 -3.52 
4008 -3.60 -4.58 -3.52 
4009 -3.72 -4.68 -3.52 
4010 -3.90 -4.50 -3.52 
4011 -3.88 -4.44 -3.52 
4012 -3.96 -4.57 -3.52 
4013 -3.59 -4.57 -3.52 
4014 -3.78 -4.66 -3.52 
4015 -3.93 -4.60 -3.52 
4016 -3.91 -4.51 -3.52 
4017 -3.86 -4.54 -3.52 
4018 -3.73 -4.45 -3.52 
4019 -3.97 -4.45 -3.52 
4020 -3.66 -4.48 -3.52 
4021 -3.84 -4.47 -3.52 
4022 -3.89 -4.56 -3.52 
4023 -3.76 -4.52 -3.52 
4024 -3.81 -4.50 -3.52 
4025 -3.90 -4.61 -3.52 
4026 -3.82 -4.61 -3.52 
4027 -3.98 -4.52 -3.52 
4028 -3.64 -4.60 -3.52 
4029 -3.69 -4.56 -3.52 
4030 -3.70 -4.57 -3.52 
4031 -3.78 -4.55 -3.52 
4032 -3.84 -4.54 -3.52 
4033 -4.03 -4.55 -3.52 
4034 -3.89 -4.47 -3.52 
4035 -3.82 -4.54 -3.52 
4036 -3.78 -4.53 -3.52 
4037 -3.73 -4.56 -3.52 
4038 -3.85 -4.56 -3.52 
4039 -3.90 -4.58 -3.52 
4040 -3.90 -4.48 -3.52 
4041 -3.80 -4.53 -3.52 
4042 -3.96 -4.52 -3.52 
4043 -4.01 -4.60 -3.52 
4044 -3.87 -4.66 -3.52 
4045 -3.85 -4.66 -3.52 
4046 -3.77 -4.58 -3.52 
4047 -3.77 -4.69 -3.52 
4048 -3.90 -4.67 -3.52 
4049 -3.80 -4.74 -3.52 
4050 -3.63 -4.66 -3.52 
4051 -3.80 -4.75 -3.52 
4052 -3.81 -4.69 -3.52 
4053 -3.95 -4.70 -3.52 
4054 -3.89 -4.62 -3.52 
4055 -3.76 -4.60 -3.52 
4056 -3.92 -4.59 -3.52 
4057 -3.89 -4.60 -3.52 
4058 -3.64 -4.61 -3.52 
4059 -3.87 -4.55 -3.52 
4060 -3.70 -4.63 -3.52 
4061 -3.84 -4.66 -3.52 
4062 -3.87 -4.63 -3.52 
4063 -3.91 -4.59 -3.52 
4064 -3.73 -4.67 -3.52 
4065 -3.83 -4.60 -3.52 
4066 -3.90 -4.65 -3.52 
4067 -3.83 -4.62 -3.52 
4068 -3.79 -4.64 -3.52 
4069 -3.75 -4.65 -3.52 
4070 -3.87 -4.63 -3.52 
4071 -3.94 -4.55 -3.52 
4072 -3.80 -4.62 -3.52 
4073 -3.74 -4.58 -3.52 
4074 -3.82 -4.69 -3.52 
4075 -3.78 -4.61 -3.52 
4076 -3.83 -4.57 -3.52 
4077 -3.71 -4.48 -3.52 
4078 -3.78 -4.46 -3.52 
4079 -3.71 -4.58 -3.52 
4080 -3.78 -4.49 -3.52 
4081 -4.01 -4.42 -3.52 
4082 -4.03 -4.45 -3.52 
4083 -3.75 -4.36 -3.52 
4084 -3.95 -4.65 -3.52 
4085 -3.76 -4.47 -3.52 
4086 -3.86 -4.69 -3.52 
4087 -4.11 -4.45 -3.52 
4088 -3.88 -4.30 -3.52 
4089 -3.77 -4.50 -3.52 
4090 -3.71 -4.61 -3.52 
4091 -3.96 -4.69 -3.52 
4092 -4.01 -4.70 -3.52 
4093 -3.67 -4.81 -3.52 
4094 -3.64 -4.40 -3.52 
4095 -4.01 -4.62 -3.52 
4096 -3.91 -4.70 -3.52 
4097 -3.99 -4.67 -3.52 
4098 -3.90 -4.65 -3.52 
4099 -3.81 -4.52 -3.52 
4100 -3.95 -4.58 -3.52 
4101 -3.80 -4.71 -3.52 
4102 -3.78 -4.68 -3.52 
4103 -3.93 -4.69 -3.52 
4104 -3.96 -4.70 -3.52 
4105 -3.83 -4.68 -3.52 
4106 -3.70 -4.62 -3.52 
4107 -3.67 -4.67 -3.52 
4108 -3.55 -4.64 -3.52 
4109 -3.76 -4.60 -3.52 
4110 -3.98 -4.69 -3.52 
4111 -3.78 -4.64 -3.52 
4112 -3.93 -4.66 -3.52 
4113 -4.02 -4.64 -3.52 
4114 -3.79 -4.70 -3.52 
4115 -3.90 -4.71 -3.52 
4116 -3.87 -4.54 -3.52 
4117 -3.75 -4.54 -3.52 
4118 -3.71 -4.63 -3.52 
4119 -3.93 -4.53 -3.52 
4120 -3.92 -4.53 -3.52 
4121 -3.95 -4.64 -3.52 
4122 -3.85 -4.60 -3.52 
4123 -3.94 -4.62 -3.52 
4124 -3.94 -4.65 -3.52 
4125 -3.75 -4.63 -3.52 
4126 -3.82 -4.66 -3.52 
4127 -3.72 -4.67 -3.52 
4128 -4.09 -4.66 -3.52 
4129 -3.80 -4.73 -3.52 
4130 -3.82 -4.63 -3.52 
4131 -3.79 -4.54 -3.52 
4132 -3.87 -4.60 -3.52 
4133 -3.81 -4.55 -3.52 
4134 -3.91 -4.65 -3.52 
4135 -3.94 -4.61 -3.52 
4136 -3.64 -4.66 -3.52 
4137 -3.99 -4.56 -3.52 
4138 -3.76 -4.62 -3.52 
4139 -3.87 -4.54 -3.52 
4140 -3.90 -4.65 -3.52 
4141 -3.77 -4.61 -3.52 
4142 -4.00 -4.61 -3.52 
4143 -3.76 -4.65 -3.52 
4144 -3.82 -4.64 -3.52 
4145 -3.84 -4.56 -3.52 
4146 -3.84 -4.57 -3.52 
4147 -3.92 -4.57 -3.52 
4148 -3.64 -4.57 -3.52 
4149 -3.79 -4.66 -3.52 
4150 -3.74 -4.59 -3.52 
4151 -4.03 -4.63 -3.52 
4152 -3.64 -4.64 -3.52 
4153 -4.14 -4.66 -3.52 
4154 -3.80 -4.67 -3.52 
4155 -3.69 -4.56 -3.52 
4156 -3.92 -4.53 -3.52 
4157 -3.81 -4.54 -3.52 
4158 -3.68 -4.53 -3.52 
4159 -3.99 -4.53 -3.52 
4160 -3.79 -4.54 -3.52 
4161 -3.70 -4.53 -3.52 
4162 -3.88 -4.64 -3.52 
4163 -3.79 -4.49 -3.52 
4164 -3.96 -4.55 -3.52 
4165 -3.88 -4.46 -3.52 
4166 -3.82 -4.53 -3.52 
4167 -3.82 -4.45 -3.52 
4168 -3.82 -4.66 -3.52 
4169 -3.69 -4.62 -3.52 
4170 -3.95 -4.62 -3.52 
4171 -3.98 -4.52 -3.52 
4172 -3.78 -4.59 -3.52 
4173 -3.91 -4.60 -3.52 
4174 -3.88 -4.66 -3.52 
4175 -3.86 -4.57 -3.52 
4176 -3.81 -4.67 -3.52 
4177 -3.87 -4.67 -3.52 
4178 -3.66 -4.56 -3.52 
4179 -3.69 -4.63 -3.52 
4180 -3.87 -4.65 -3.52 
4181 -3.80 -4.66 -3.52 
4182 -3.90 -4.67 -3.52 
4183 -3.66 -4.55 -3.52 
4184 -3.93 -4.55 -3.52 
4185 -3.87 -4.61 -3.52 
4186 -3.93 -4.51 -3.52 
4187 -3.93 -4.39 -3.52 
4188 -3.95 -4.62 -3.52 
4189 -3.82 -4.56 -3.52 
4190 -3.75 -4.56 -3.52 
4191 -4.00 -4.53 -3.52 
4192 -3.68 -4.43 -3.52 
4193 -3.93 -4.48 -3.52 
4194 -3.91 -4.41 -3.52 
4195 -3.90 -4.48 -3.52 
4196 -3.62 -4.47 -3.52 
4197 -3.78 -4.63 -3.52 
4198 -3.79 -4.62 -3.52 
4199 -3.77 -4.55 -3.52 
4200 -3.65 -4.52 -3.52 
4201 -3.79 -4.53 -3.52 
4202 -3.82 -4.53 -3.52 
4203 -4.08 -4.46 -3.52 
4204 -3.70 -4.54 -3.52 
4205 -3.81 -4.50 -3.52 
4206 -3.85 -4.44 -3.52 
4207 -3.66 -4.51 -3.52 
4208 -3.66 -4.52 -3.52 
4209 -3.86 -4.50 -3.52 
4210 -3.86 -4.44 -3.52 
4211 -3.58 -4.43 -3.52 
4212 -3.80 -4.54 -3.52 
4213 -3.87 -4.56 -3.52 
4214 -4.02 -4.49 -3.52 
4215 -4.18 -4.53 -3.52 
4216 -3.79 -4.48 -3.52 
4217 -4.05 -4.49 -3.52 
4218 -3.76 -4.47 -3.52 
4219 -3.81 -4.43 -3.52 
4220 -4.07 -4.45 -3.52 
4221 -3.94 -4.49 -3.52 
4222 -3.84 -4.54 -3.52 
4223 -3.68 -4.59 -3.52 
4224 -3.72 -4.53 -3.52 
4225 -3.73 -4.55 -3.52 
4226 -3.78 -4.47 -3.52 
4227 -3.80 -4.61 -3.52 
4228 -3.77 -4.59 -3.52 
4229 -3.80 -4.62 -3.52 
4230 -3.86 -4.64 -3.52 
4231 -3.57 -4.63 -3.52 
4232 -3.75 -4.63 -3.52 
4233 -4.00 -4.55 -3.52 
4234 -3.86 -4.62 -3.52 
4235 -3.68 -4.48 -3.52 
4236 -3.72 -4.48 -3.52 
4237 -3.69 -4.56 -3.52 
4238 -3.82 -4.47 -3.52 
4239 -3.80 -4.60 -3.52 
4240 -3.90 -4.55 -3.52 
4241 -3.99 -4.49 -3.52 
4242 -3.89 -4.55 -3.52 
4243 -3.73 -4.57 -3.52 
4244 -3.79 -4.72 -3.52 
4245 -4.08 -4.63 -3.52 
4246 -3.97 -4.55 -3.52 
4247 -3.72 -4.63 -3.52 
4248 -3.70 -4.58 -3.52 
4249 -3.95 -4.59 -3.52 
4250 -3.93 -4.51 -3.52 
4251 -4.10 -4.59 -3.52 
4252 -3.76 -4.50 -3.52 
4253 -3.89 -4.52 -3.52 
4254 -3.91 -4.60 -3.52 
4255 -3.68 -4.59 -3.52 
4256 -3.89 -4.60 -3.52 
4257 -3.78 -4.69 -3.52 
4258 -3.93 -4.67 -3.52 
4259 -3.95 -4.57 -3.52 
4260 -3.84 -4.59 -3.52 
4261 -3.79 -4.58 -3.52 
4262 -3.78 -4.59 -3.52 
4263 -3.82 -4.58 -3.52 
4264 -3.84 -4.56 -3.52 
4265 -3.82 -4.75 -3.52 
4266 -3.82 -4.75 -3.52 
4267 -3.65 -4.61 -3.52 
4268 -3.91 -4.60 -3.52 
4269 -3.84 -4.69 -3.52 
4270 -3.84 -4.78 -3.52 
4271 -3.76 -4.68 -3.52 
4272 -3.88 -4.61 -3.52 
4273 -3.94 -4.68 -3.52 
4274 -4.12 -4.64 -3.52 
4275 -3.84 -4.66 -3.52 
4276 -3.87 -4.73 -3.52 
4277 -3.94 -4.73 -3.52 
4278 -3.81 -4.65 -3.52 
4279 -3.68 -4.62 -3.52 
4280 -4.09 -4.59 -3.52 
4281 -3.62 -4.58 -3.52 
4282 -3.80 -4.57 -3.52 
4283 -3.80 -4.51 -3.52 
4284 -3.78 -4.61 -3.52 
4285 -3.93 -4.60 -3.52 
4286 -3.72 -4.59 -3.52 
4287 -3.69 -4.66 -3.52 
4288 -3.74 -4.66 -3.52 
4289 -3.87 -4.66 -3.52 
4290 -3.81 -4.66 -3.52 
4291 -3.94 -4.65 -3.52 
4292 -3.85 -4.66 -3.52 
4293 -3.72 -4.69 -3.52 
4294 -3.96 -4.58 -3.52 
4295 -4.00 -4.57 -3.52 
4296 -3.82 -4.58 -3.52 
4297 -3.78 -4.59 -3.52 
4298 -3.66 -4.59 -3.52 
4299 -3.72 -4.59 -3.52 
4300 -3.80 -4.49 -3.52 
4301 -3.82 -4.44 -3.52 
4302 -3.81 -4.42 -3.52 
4303 -3.65 -4.41 -3.52 
4304 -3.96 -4.50 -3.52 
4305 -3.81 -4.50 -3.52 
4306 -3.68 -4.50 -3.52 
4307 -3.95 -4.51 -3.52 
4308 -3.79 -4.55 -3.52 
4309 -3.68 -4.54 -3.52 
4310 -3.80 -4.58 -3.52 
4311 -3.93 -4.58 -3.52 
4312 -3.61 -4.58 -3.52 
4313 -3.84 -4.58 -3.52 
4314 -3.92 -4.59 -3.52 
4315 -3.90 -4.58 -3.52 
4316 -3.93 -4.58 -3.52 
4317 -3.76 -4.51 -3.52 
4318 -3.76 -4.58 -3.52 
4319 -3.69 -4.51 -3.52 
4320 -3.86 -4.59 -3.52 
4321 -3.87 -4.61 -3.52 
4322 -3.82 -4.61 -3.52 
4323 -3.82 -4.62 -3.52 
4324 -3.75 -4.66 -3.52 
4325 -3.71 -4.61 -3.52 
4326 -3.89 -4.61 -3.52 
4327 -3.75 -4.61 -3.52 
4328 -3.58 -4.62 -3.52 
4329 -3.72 -4.62 -3.52 
4330 -3.89 -4.62 -3.52 
4331 -3.82 -4.70 -3.52 
4332 -3.81 -4.66 -3.52 
4333 -3.61 -4.65 -3.52 
4334 -3.85 -4.70 -3.52 
4335 -3.81 -4.60 -3.52 
4336 -3.78 -4.67 -3.52 
4337 -3.83 -4.61 -3.52 
4338 -3.72 -4.61 -3.52 
4339 -3.97 -4.62 -3.52 
4340 -3.91 -4.62 -3.52 
4341 -3.96 -4.61 -3.52 
4342 -3.85 -4.62 -3.52 
4343 -3.78 -4.61 -3.52 
4344 -3.80 -4.61 -3.52 
4345 -3.82 -4.62 -3.52 
4346 -3.70 -4.62 -3.52 
4347 -3.73 -4.56 -3.52 
4348 -3.87 -4.57 -3.52 
4349 -3.85 -4.56 -3.52 
4350 -3.81 -4.57 -3.52 
4351 -3.84 -4.54 -3.52 
4352 -3.90 -4.54 -3.52 
4353 -3.63 -4.63 -3.52 
4354 -3.78 -4.61 -3.52 
4355 -3.68 -4.61 -3.52 
4356 -3.86 -4.70 -3.52 
4357 -3.75 -4.62 -3.52 
4358 -3.63 -4.55 -3.52 
4359 -3.83 -4.62 -3.52 
4360 -3.73 -4.70 -3.52 
4361 -3.82 -4.54 -3.52 
4362 -3.90 -4.62 -3.52 
4363 -3.88 -4.54 -3.52 
4364 -3.65 -4.61 -3.52 
4365 -3.86 -4.63 -3.52 
4366 -3.81 -4.70 -3.52 
4367 -3.87 -4.62 -3.52 
4368 -3.85 -4.68 -3.52 
4369 -3.86 -4.71 -3.52 
4370 -3.92 -4.71 -3.52 
4371 -3.89 -4.72 -3.52 
4372 -3.76 -4.65 -3.52 
4373 -3.92 -4.55 -3.52 
4374 -3.83 -4.56 -3.52 
4375 -3.89 -4.68 -3.52 
4376 -3.57 -4.68 -3.52 
4377 -3.79 -4.69 -3.52 
4378 -3.68 -4.64 -3.52 
4379 -3.82 -4.73 -3.52 
4380 -3.88 -4.68 -3.52 
4381 -3.68 -4.67 -3.52 
4382 -3.66 -4.67 -3.52 
4383 -3.86 -4.75 -3.52 
4384 -3.75 -4.67 -3.52 
4385 -3.73 -4.65 -3.52 
4386 -3.91 -4.65 -3.52 
4387 -3.83 -4.66 -3.52 
4388 -3.82 -4.59 -3.52 
4389 -3.66 -4.51 -3.52 
4390 -3.80 -4.53 -3.52 
4391 -3.69 -4.59 -3.52 
4392 -3.98 -4.60 -3.52 
4393 -3.81 -4.61 -3.52 
4394 -3.77 -4.56 -3.52 
4395 -3.82 -4.52 -3.52 
4396 -3.92 -4.61 -3.52 
4397 -3.76 -4.60 -3.52 
4398 -3.67 -4.60 -3.52 
4399 -3.71 -4.71 -3.52 
4400 -3.80 -4.68 -3.52 
4401 -3.71 -4.68 -3.52 
4402 -3.89 -4.70 -3.52 
4403 -3.82 -4.71 -3.52 
4404 -4.01 -4.67 -3.52 
4405 -3.89 -4.56 -3.52 
4406 -3.75 -4.60 -3.52 
4407 -3.86 -4.48 -3.52 
4408 -3.76 -4.64 -3.52 
4409 -3.66 -4.64 -3.52 
4410 -3.70 -4.64 -3.52 
4411 -3.89 -4.49 -3.52 
4412 -3.90 -4.60 -3.52 
4413 -3.81 -4.53 -3.52 
4414 -3.67 -4.61 -3.52 
4415 -3.66 -4.52 -3.52 
4416 -3.78 -4.60 -3.52 
4417 -3.98 -4.59 -3.52 
4418 -3.90 -4.55 -3.52 
4419 -3.74 -4.55 -3.52 
4420 -3.70 -4.54 -3.52 
4421 -3.86 -4.53 -3.52 
4422 -3.89 -4.68 -3.52 
4423 -3.88 -4.67 -3.52 
4424 -3.82 -4.60 -3.52 
4425 -3.96 -4.61 -3.52 
4426 -3.74 -4.68 -3.52 
4427 -3.82 -4.67 -3.52 
4428 -3.77 -4.68 -3.52 
4429 -3.78 -4.68 -3.52 
4430 -3.97 -4.69 -3.52 
4431 -3.92 -4.68 -3.52 
4432 -3.94 -4.66 -3.52 
4433 -3.82 -4.68 -3.52 
4434 -4.01 -4.63 -3.52 
4435 -3.89 -4.63 -3.52 
4436 -3.98 -4.69 -3.52 
4437 -3.99 -4.67 -3.52 
4438 -3.81 -4.67 -3.52 
4439 -3.80 -4.66 -3.52 
4440 -3.82 -4.73 -3.52 
4441 -3.85 -4.65 -3.52 
4442 -3.77 -4.75 -3.52 
4443 -3.99 -4.76 -3.52 
4444 -3.98 -4.68 -3.52 
4445 -3.73 -4.66 -3.52 
4446 -3.94 -4.69 -3.52 
4447 -4.03 -4.71 -3.52 
4448 -3.84 -4.79 -3.52 
4449 -3.92 -4.79 -3.52 
4450 -3.83 -4.72 -3.52 
4451 -4.06 -4.81 -3.52 
4452 -3.92 -4.65 -3.52 
4453 -3.91 -4.81 -3.52 
4454 -3.72 -4.81 -3.52 
4455 -3.74 -4.72 -3.52 
4456 -3.83 -4.72 -3.52 
4457 -4.06 -4.73 -3.52 
4458 -3.76 -4.74 -3.52 
4459 -3.82 -4.73 -3.52 
4460 -3.75 -4.81 -3.52 
4461 -3.89 -4.75 -3.52 
4462 -3.84 -4.76 -3.52 
4463 -3.83 -4.76 -3.52 
4464 -3.91 -4.79 -3.52 
4465 -3.56 -4.80 -3.52 
4466 -3.85 -4.78 -3.52 
4467 -3.81 -4.71 -3.52 
4468 -3.90 -4.79 -3.52 
4469 -3.82 -4.79 -3.52 
4470 -3.97 -4.79 -3.52 
4471 -3.99 -4.79 -3.52 
4472 -3.96 -4.81 -3.52 
4473 -3.86 -4.78 -3.52 
4474 -3.63 -4.77 -3.52 
4475 -3.78 -4.77 -3.52 
4476 -3.79 -4.66 -3.52 
4477 -3.90 -4.72 -3.52 
4478 -3.92 -4.65 -3.52 
4479 -3.63 -4.60 -3.52 
4480 -3.52 -4.63 -3.52 
4481 -3.78 -4.49 -3.52 
4482 -3.86 -4.57 -3.52 
4483 -4.00 -4.49 -3.52 
4484 -3.69 -4.64 -3.52 
4485 -3.74 -4.65 -3.52 
4486 -3.84 -4.64 -3.52 
4487 -3.73 -4.60 -3.52 
4488 -3.83 -4.71 -3.52 
4489 -4.03 -4.69 -3.52 
4490 -3.86 -4.61 -3.52 
4491 -3.82 -4.64 -3.52 
4492 -3.90 -4.64 -3.52 
4493 -3.93 -4.64 -3.52 
4494 -3.82 -4.55 -3.52 
4495 -3.67 -4.72 -3.52 
4496 -3.72 -4.52 -3.52 
4497 -3.90 -4.51 -3.52 
4498 -3.94 -4.58 -3.52 
4499 -3.95 -4.57 -3.52 
4500 -3.68 -4.68 -3.52 
4501 -3.79 -4.74 -3.52 
4502 -4.04 -4.64 -3.52 
4503 -3.85 -4.65 -3.52 
4504 -3.79 -4.57 -3.52 
4505 -3.73 -4.75 -3.52 
4506 -3.73 -4.59 -3.52 
4507 -3.88 -4.66 -3.52 
4508 -3.89 -4.64 -3.52 
4509 -3.98 -4.73 -3.52 
4510 -3.81 -4.74 -3.52 
4511 -3.68 -4.57 -3.52 
4512 -3.80 -4.66 -3.52 
4513 -3.65 -4.60 -3.52 
4514 -4.01 -4.67 -3.52 
4515 -3.88 -4.64 -3.52 
4516 -3.75 -4.58 -3.52 
4517 -3.76 -4.58 -3.52 
4518 -3.62 -4.57 -3.52 
4519 -3.94 -4.63 -3.52 
4520 -3.82 -4.63 -3.52 
4521 -3.84 -4.59 -3.52 
4522 -3.81 -4.64 -3.52 
4523 -3.68 -4.62 -3.52 
4524 -3.75 -4.63 -3.52 
4525 -3.85 -4.58 -3.52 
4526 -3.83 -4.57 -3.52 
4527 -3.70 -4.58 -3.52 
4528 -3.73 -4.58 -3.52 
4529 -3.87 -4.58 -3.52 
4530 -3.85 -4.70 -3.52 
4531 -4.01 -4.63 -3.52 
4532 -3.75 -4.62 -3.52 
4533 -3.79 -4.57 -3.52 
4534 -3.96 -4.57 -3.52 
4535 -3.82 -4.67 -3.52 
4536 -3.81 -4.58 -3.52 
4537 -3.80 -4.58 -3.52 
4538 -3.83 -4.58 -3.52 
4539 -3.77 -4.58 -3.52 
4540 -3.80 -4.59 -3.52 
4541 -3.71 -4.57 -3.52 
4542 -3.92 -4.59 -3.52 
4543 -3.77 -4.59 -3.52 
4544 -4.01 -4.65 -3.52 
4545 -3.71 -4.63 -3.52 
4546 -3.87 -4.63 -3.52 
4547 -3.80 -4.63 -3.52 
4548 -3.98 -4.56 -3.52 
4549 -3.74 -4.66 -3.52 
4550 -3.79 -4.75 -3.52 
4551 -3.78 -4.58 -3.52 
4552 -3.98 -4.56 -3.52 
4553 -3.95 -4.65 -3.52 
4554 -3.78 -4.49 -3.52 
4555 -3.87 -4.70 -3.52 
4556 -3.76 -4.63 -3.52 
4557 -3.79 -4.63 -3.52 
4558 -3.89 -4.70 -3.52 
4559 -3.72 -4.77 -3.52 
4560 -3.71 -4.62 -3.52 
4561 -3.93 -4.77 -3.52 
4562 -3.78 -4.71 -3.52 
4563 -3.77 -4.71 -3.52 
4564 -3.93 -4.63 -3.52 
4565 -3.88 -4.65 -3.52 
4566 -3.75 -4.69 -3.52 
4567 -3.80 -4.69 -3.52 
4568 -4.07 -4.67 -3.52 
4569 -3.84 -4.69 -3.52 
4570 -3.91 -4.65 -3.52 
4571 -4.04 -4.69 -3.52 
4572 -4.12 -4.68 -3.52 
4573 -3.98 -4.60 -3.52 
4574 -3.75 -4.68 -3.52 
4575 -3.70 -4.62 -3.52 
4576 -3.84 -4.67 -3.52 
4577 -3.79 -4.75 -3.52 
4578 -3.93 -4.66 -3.52 
4579 -3.87 -4.75 -3.52 
4580 -3.83 -4.73 -3.52 
4581 -3.78 -4.74 -3.52 
4582 -3.92 -4.75 -3.52 
4583 -3.92 -4.75 -3.52 
4584 -3.75 -4.65 -3.52 
4585 -3.60 -4.74 -3.52 
4586 -3.80 -4.74 -3.52 
4587 -3.87 -4.72 -3.52 
4588 -3.73 -4.72 -3.52 
4589 -3.66 -4.65 -3.52 
4590 -3.91 -4.65 -3.52 
4591 -3.95 -4.64 -3.52 
4592 -4.00 -4.65 -3.52 
4593 -3.59 -4.66 -3.52 
4594 -3.80 -4.67 -3.52 
4595 -3.58 -4.66 -3.52 
4596 -3.98 -4.66 -3.52 
4597 -3.81 -4.67 -3.52 
4598 -3.61 -4.62 -3.52 
4599 -3.61 -4.60 -3.52 
4600 -3.93 -4.61 -3.52 
4601 -3.96 -4.62 -3.52 
4602 -4.06 -4.61 -3.52 
4603 -3.83 -4.61 -3.52 
4604 -3.78 -4.61 -3.52 
4605 -3.84 -4.61 -3.52 
4606 -3.84 -4.65 -3.52 
4607 -3.93 -4.66 -3.52 
4608 -3.77 -4.65 -3.52 
4609 -3.97 -4.62 -3.52 
4610 -3.77 -4.63 -3.52 
4611 -3.96 -4.74 -3.52 
4612 -3.83 -4.62 -3.52 
4613 -3.77 -4.73 -3.52 
4614 -3.61 -4.67 -3.52 
4615 -3.74 -4.65 -3.52 
4616 -4.03 -4.73 -3.52 
4617 -3.69 -4.70 -3.52 
4618 -3.91 -4.84 -3.52 
4619 -3.71 -4.83 -3.52 
4620 -3.91 -4.84 -3.52 
4621 -3.74 -4.90 -3.52 
4622 -3.84 -4.78 -3.52 
4623 -3.76 -4.78 -3.52 
4624 -3.86 -4.78 -3.52 
4625 -3.64 -4.80 -3.52 
4626 -3.73 -4.79 -3.52 
4627 -3.82 -4.81 -3.52 
4628 -3.86 -4.79 -3.52 
4629 -3.68 -4.72 -3.52 
4630 -3.73 -4.64 -3.52 
4631 -3.80 -4.82 -3.52 
4632 -3.88 -4.83 -3.52 
4633 -3.72 -4.64 -3.52 
4634 -3.80 -4.72 -3.52 
4635 -3.91 -4.85 -3.52 
4636 -3.67 -4.72 -3.52 
4637 -3.85 -4.65 -3.52 
4638 -3.93 -4.66 -3.52 
4639 -3.81 -4.65 -3.52 
4640 -3.64 -4.64 -3.52 
4641 -3.72 -4.65 -3.52 
4642 -3.69 -4.64 -3.52 
4643 -3.75 -4.65 -3.52 
4644 -3.77 -4.69 -3.52 
4645 -3.85 -4.78 -3.52 
4646 -3.79 -4.89 -3.52 
4647 -3.91 -4.69 -3.52 
4648 -3.83 -4.69 -3.52 
4649 -3.81 -4.79 -3.52 
4650 -3.71 -4.82 -3.52 
4651 -3.74 -4.71 -3.52 
4652 -3.75 -4.75 -3.52 
4653 -3.73 -4.72 -3.52 
4654 -3.92 -4.71 -3.52 
4655 -3.80 -4.72 -3.52 
4656 -3.75 -4.71 -3.52 
4657 -3.91 -4.72 -3.52 
4658 -3.81 -4.74 -3.52 
4659 -3.81 -4.70 -3.52 
4660 -3.97 -4.70 -3.52 
4661 -3.77 -4.70 -3.52 
4662 -3.93 -4.61 -3.52 
4663 -3.95 -4.69 -3.52 
4664 -4.09 -4.72 -3.52 
4665 -3.95 -4.72 -3.52 
4666 -3.82 -4.84 -3.52 
4667 -3.83 -4.81 -3.52 
4668 -3.89 -4.69 -3.52 
4669 -3.67 -4.68 -3.52 
4670 -3.74 -4.69 -3.52 
4671 -3.87 -4.60 -3.52 
4672 -3.87 -4.67 -3.52 
4673 -3.89 -4.78 -3.52 
4674 -3.83 -4.86 -3.52 
4675 -4.00 -4.88 -3.52 
4676 -3.93 -4.81 -3.52 
4677 -3.93 -4.77 -3.52 
4678 -3.80 -4.80 -3.52 
4679 -3.87 -4.79 -3.52 
4680 -3.83 -4.80 -3.52 
4681 -3.83 -4.82 -3.52 
4682 -3.80 -4.73 -3.52 
4683 -3.82 -4.53 -3.52 
4684 -3.83 -4.82 -3.52 
4685 -3.99 -4.81 -3.52 
4686 -3.69 -4.64 -3.52 
4687 -3.71 -4.82 -3.52 
4688 -3.59 -4.82 -3.52 
4689 -3.99 -4.70 -3.52 
4690 -3.78 -4.49 -3.52 
4691 -3.67 -4.79 -3.52 
4692 -3.69 -4.76 -3.52 
4693 -3.83 -4.78 -3.52 
4694 -3.76 -4.65 -3.52 
4695 -3.80 -4.66 -3.52 
4696 -3.78 -4.75 -3.52 
4697 -3.88 -4.82 -3.52 
4698 -3.74 -4.67 -3.52 
4699 -3.72 -4.85 -3.52 
4700 -3.82 -4.69 -3.52 
4701 -3.77 -4.75 -3.52 
4702 -3.88 -4.76 -3.52 
4703 -4.01 -4.76 -3.52 
4704 -3.89 -4.74 -3.52 
4705 -3.71 -4.75 -3.52 
4706 -3.92 -4.82 -3.52 
4707 -3.80 -4.81 -3.52 
4708 -3.94 -4.74 -3.52 
4709 -3.74 -4.80 -3.52 
4710 -3.69 -4.75 -3.52 
4711 -3.88 -4.81 -3.52 
4712 -3.72 -4.53 -3.52 
4713 -3.74 -4.53 -3.52 
4714 -3.97 -4.69 -3.52 
4715 -3.70 -4.69 -3.52 
4716 -3.78 -4.88 -3.52 
4717 -3.81 -4.80 -3.52 
4718 -3.77 -4.73 -3.52 
4719 -3.66 -4.73 -3.52 
4720 -3.66 -4.68 -3.52 
4721 -3.99 -4.78 -3.52 
4722 -3.70 -4.69 -3.52 
4723 -3.91 -4.78 -3.52 
4724 -3.71 -4.64 -3.52 
4725 -3.74 -4.69 -3.52 
4726 -3.75 -4.71 -3.52 
4727 -3.71 -4.62 -3.52 
4728 -3.86 -4.70 -3.52 
4729 -3.94 -4.79 -3.52 
4730 -4.08 -4.68 -3.52 
4731 -3.74 -4.69 -3.52 
4732 -3.91 -4.78 -3.52 
4733 -3.90 -4.70 -3.52 
4734 -3.83 -4.78 -3.52 
4735 -3.79 -4.56 -3.52 
4736 -3.96 -4.69 -3.52 
4737 -3.91 -4.69 -3.52 
4738 -3.83 -4.68 -3.52 
4739 -3.63 -4.68 -3.52 
4740 -3.97 -4.78 -3.52 
4741 -3.74 -4.77 -3.52 
4742 -3.77 -4.77 -3.52 
4743 -3.78 -4.67 -3.52 
4744 -3.68 -4.78 -3.52 
4745 -3.95 -4.77 -3.52 
4746 -3.91 -4.78 -3.52 
4747 -3.65 -4.68 -3.52 
4748 -3.80 -4.57 -3.52 
4749 -3.81 -4.63 -3.52 
4750 -3.83 -4.63 -3.52 
4751 -4.01 -4.64 -3.52 
4752 -3.96 -4.64 -3.52 
4753 -3.91 -4.66 -3.52 
4754 -3.68 -4.66 -3.52 
4755 -3.56 -4.66 -3.52 
4756 -4.04 -4.56 -3.52 
4757 -4.15 -4.57 -3.52 
4758 -3.75 -4.57 -3.52 
4759 -4.02 -4.57 -3.52 
4760 -3.92 -4.57 -3.52 
4761 -3.96 -4.57 -3.52 
4762 -3.93 -4.47 -3.52 
4763 -3.69 -4.47 -3.52 
4764 -3.91 -4.57 -3.52 
4765 -3.81 -4.58 -3.52 
4766 -3.82 -4.58 -3.52 
4767 -3.68 -4.57 -3.52 
4768 -3.72 -4.54 -3.52 
4769 -3.85 -4.56 -3.52 
4770 -3.88 -4.48 -3.52 
4771 -3.89 -4.57 -3.52 
4772 -3.77 -4.65 -3.52 
4773 -3.64 -4.64 -3.52 
4774 -3.72 -4.64 -3.52 
4775 -3.78 -4.65 -3.52 
4776 -3.74 -4.64 -3.52 
4777 -3.81 -4.55 -3.52 
4778 -3.85 -4.56 -3.52 
4779 -3.85 -4.57 -3.52 
4780 -3.77 -4.65 -3.52 
4781 -3.64 -4.65 -3.52 
4782 -3.95 -4.70 -3.52 
4783 -3.90 -4.64 -3.52 
4784 -3.82 -4.74 -3.52 
4785 -3.64 -4.73 -3.52 
4786 -3.79 -4.60 -3.52 
4787 -3.82 -4.69 -3.52 
4788 -3.74 -4.51 -3.52 
4789 -3.91 -4.69 -3.52 
4790 -3.73 -4.76 -3.52 
4791 -3.79 -4.77 -3.52 
4792 -3.87 -4.59 -3.52 
4793 -3.63 -4.58 -3.52 
4794 -3.68 -4.69 -3.52 
4795 -3.81 -4.68 -3.52 
4796 -3.91 -4.68 -3.52 
4797 -3.84 -4.59 -3.52 
4798 -3.70 -4.57 -3.52 
4799 -3.65 -4.58 -3.52 
4800 -3.70 -4.68 -3.52 
4801 -3.75 -4.57 -3.52 
4802 -3.78 -4.57 -3.52 
4803 -3.68 -4.57 -3.52 
4804 -3.70 -4.66 -3.52 
4805 -3.84 -4.65 -3.52 
4806 -3.66 -4.74 -3.52 
4807 -3.80 -4.74 -3.52 
4808 -3.75 -4.65 -3.52 
4809 -3.68 -4.65 -3.52 
4810 -3.95 -4.75 -3.52 
4811 -3.58 -4.65 -3.52 
4812 -3.92 -4.71 -3.52 
4813 -3.77 -4.73 -3.52 
4814 -3.85 -4.64 -3.52 
4815 -3.90 -4.79 -3.52 
4816 -3.87 -4.66 -3.52 
4817 -3.67 -4.65 -3.52 
4818 -3.67 -4.71 -3.52 
4819 -3.81 -4.72 -3.52 
4820 -3.84 -4.71 -3.52 
4821 -3.81 -4.67 -3.52 
4822 -3.73 -4.66 -3.52 
4823 -3.83 -4.70 -3.52 
4824 -3.89 -4.72 -3.52 
4825 -3.88 -4.67 -3.52 
4826 -3.87 -4.67 -3.52 
4827 -3.62 -4.67 -3.52 
4828 -3.68 -4.66 -3.52 
4829 -3.72 -4.67 -3.52 
4830 -3.89 -4.67 -3.52 
4831 -3.85 -4.60 -3.52 
4832 -3.82 -4.65 -3.52 
4833 -3.76 -4.65 -3.52 
4834 -3.71 -4.62 -3.52 
4835 -3.79 -4.66 -3.52 
4836 -3.87 -4.66 -3.52 
4837 -3.87 -4.66 -3.52 
4838 -3.90 -4.63 -3.52 
4839 -3.58 -4.64 -3.52 
4840 -3.96 -4.66 -3.52 
4841 -3.78 -4.64 -3.52 
4842 -3.85 -4.65 -3.52 
4843 -3.70 -4.64 -3.52 
4844 -3.83 -4.63 -3.52 
4845 -3.86 -4.62 -3.52 
4846 -3.63 -4.60 -3.52 
4847 -3.69 -4.60 -3.52 
4848 -3.94 -4.58 -3.52 
4849 -3.84 -4.53 -3.52 
4850 -3.85 -4.61 -3.52 
4851 -3.87 -4.61 -3.52 
4852 -3.76 -4.63 -3.52 
4853 -3.89 -4.46 -3.52 
4854 -3.67 -4.55 -3.52 
4855 -3.76 -4.47 -3.52 
4856 -4.06 -4.48 -3.52 
4857 -3.89 -4.46 -3.52 
4858 -3.84 -4.45 -3.52 
4859 -3.77 -4.55 -3.52 
4860 -3.79 -4.52 -3.52 
4861 -3.80 -4.48 -3.52 
4862 -3.69 -4.47 -3.52 
4863 -3.78 -4.58 -3.52 
4864 -3.82 -4.52 -3.52 
4865 -3.68 -4.57 -3.52 
4866 -3.56 -4.49 -3.52 
4867 -3.87 -4.69 -3.52 
4868 -3.94 -4.60 -3.52 
4869 -3.72 -4.61 -3.52 
4870 -3.60 -4.61 -3.52 
4871 -3.71 -4.53 -3.52 
4872 -3.74 -4.53 -3.52 
4873 -3.95 -4.53 -3.52 
4874 -3.80 -4.53 -3.52 
4875 -3.90 -4.64 -3.52 
4876 -3.97 -4.60 -3.52 
4877 -3.68 -4.61 -3.52 
4878 -3.91 -4.63 -3.52 
4879 -3.90 -4.46 -3.52 
4880 -3.85 -4.52 -3.52 
4881 -3.60 -4.53 -3.52 
4882 -3.80 -4.61 -3.52 
4883 -3.63 -4.52 -3.52 
4884 -3.86 -4.52 -3.52 
4885 -3.74 -4.52 -3.52 
4886 -3.90 -4.52 -3.52 
4887 -3.72 -4.53 -3.52 
4888 -3.68 -4.66 -3.52 
4889 -3.72 -4.47 -3.52 
4890 -3.83 -4.66 -3.52 
4891 -3.66 -4.57 -3.52 
4892 -3.73 -4.58 -3.52 
4893 -3.80 -4.51 -3.52 
4894 -3.86 -4.50 -3.52 
4895 -3.82 -4.58 -3.52 
4896 -3.90 -4.70 -3.52 
4897 -3.88 -4.58 -3.52 
4898 -3.88 -4.62 -3.52 
4899 -3.75 -4.65 -3.52 
4900 -3.80 -4.69 -3.52 
4901 -3.72 -4.59 -3.52 
4902 -3.68 -4.58 -3.52 
4903 -3.80 -4.60 -3.52 
4904 -3.65 -4.60 -3.52 
4905 -3.89 -4.67 -3.52 
4906 -3.72 -4.68 -3.52 
4907 -3.71 -4.71 -3.52 
4908 -3.82 -4.62 -3.52 
4909 -3.80 -4.62 -3.52 
4910 -3.79 -4.60 -3.52 
4911 -3.79 -4.60 -3.52 
4912 -3.87 -4.58 -3.52 
4913 -3.76 -4.50 -3.52 
4914 -3.87 -4.50 -3.52 
4915 -3.72 -4.57 -3.52 
4916 -3.74 -4.51 -3.52 
4917 -3.81 -4.59 -3.52 
4918 -3.78 -4.59 -3.52 
4919 -3.84 -4.59 -3.52 
4920 -3.70 -4.54 -3.52 
4921 -3.95 -4.54 -3.52 
4922 -3.84 -4.63 -3.52 
4923 -3.85 -4.62 -3.52 
4924 -3.68 -4.64 -3.52 
4925 -3.80 -4.63 -3.52 
4926 -3.86 -4.73 -3.52 
4927 -3.85 -4.63 -3.52 
4928 -3.77 -4.71 -3.52 
4929 -3.50 -4.70 -3.52 
4930 -3.96 -4.62 -3.50 
4931 -3.83 -4.60 -3.50 
4932 -3.91 -4.60 -3.50 
4933 -3.69 -4.51 -3.50 
4934 -3.83 -4.61 -3.50 
4935 -3.86 -4.61 -3.50 
4936 -3.94 -4.50 -3.50 
4937 -3.64 -4.67 -3.50 
4938 -3.91 -4.66 -3.50 
4939 -3.93 -4.66 -3.50 
4940 -3.83 -4.65 -3.50 
4941 -3.88 -4.66 -3.50 
4942 -3.85 -4.67 -3.50 
4943 -3.87 -4.66 -3.50 
4944 -3.81 -4.67 -3.50 
4945 -3.85 -4.68 -3.50 
4946 -3.85 -4.71 -3.50 
4947 -3.82 -4.63 -3.50 
4948 -3.90 -4.65 -3.50 
4949 -3.97 -4.66 -3.50 
4950 -3.91 -4.65 -3.50 
4951 -3.83 -4.66 -3.50 
4952 -3.86 -4.59 -3.50 
4953 -3.91 -4.68 -3.50 
4954 -3.89 -4.59 -3.50 
4955 -3.72 -4.58 -3.50 
4956 -3.86 -4.58 -3.50 
4957 -3.77 -4.66 -3.50 
4958 -3.85 -4.64 -3.50 
4959 -3.72 -4.65 -3.50 
4960 -3.86 -4.66 -3.50 
4961 -3.64 -4.65 -3.50 
4962 -3.85 -4.67 -3.50 
4963 -3.87 -4.68 -3.50 
4964 -3.75 -4.76 -3.50 
4965 -3.88 -4.76 -3.50 
4966 -3.89 -4.75 -3.50 
4967 -3.92 -4.75 -3.50 
4968 -3.66 -4.75 -3.50 
4969 -3.97 -4.66 -3.50 
4970 -3.61 -4.69 -3.50 
4971 -3.87 -4.65 -3.50 
4972 -3.79 -4.72 -3.50 
4973 -3.88 -4.63 -3.50 
4974 -3.77 -4.62 -3.50 
4975 -3.99 -4.72 -3.50 
4976 -3.97 -4.63 -3.50 
4977 -3.82 -4.55 -3.50 
4978 -3.74 -4.73 -3.50 
4979 -3.95 -4.62 -3.50 
4980 -3.79 -4.59 -3.50 
4981 -3.90 -4.61 -3.50 
4982 -3.76 -4.62 -3.50 
4983 -3.96 -4.69 -3.50 
4984 -3.76 -4.51 -3.50 
4985 -3.78 -4.70 -3.50 
4986 -3.89 -4.66 -3.50 
4987 -3.66 -4.64 -3.50 
4988 -3.67 -4.59 -3.50 
4989 -3.62 -4.66 -3.50 
4990 -3.86 -4.67 -3.50 
4991 -3.66 -4.67 -3.50 
4992 -3.79 -4.70 -3.50 
4993 -3.67 -4.70 -3.50 
4994 -3.70 -4.71 -3.50 
4995 -3.90 -4.69 -3.50 
