Iter | Sampling Pol | Evaluation Pol | Best (Sampled) 
   0 -6.01 -107.49 -100000000.00 
   1 67.86 -70.18 -6.01 
   2 181.70 133.22 67.86 
   3 240.73 247.61 181.70 
   4 338.60 514.75 240.73 
   5 373.08 529.26 338.60 
   6 425.58 544.81 373.08 
   7 462.88 544.32 425.58 
   8 491.33 551.29 462.88 
   9 555.25 601.19 491.33 
  10 574.95 626.97 555.25 
  11 578.63 647.91 574.95 
  12 597.97 675.53 578.63 
  13 629.05 680.39 597.97 
  14 633.42 686.52 629.05 
  15 626.22 690.32 633.42 
  16 649.12 690.69 633.42 
  17 658.07 700.45 649.12 
  18 653.44 705.82 658.07 
  19 684.08 700.66 658.07 
  20 663.67 707.05 684.08 
  21 681.90 712.21 684.08 
  22 678.40 717.19 684.08 
  23 688.18 717.94 684.08 
  24 686.06 720.55 688.18 
  25 696.77 721.12 688.18 
  26 689.55 723.66 696.77 
  27 695.91 724.25 696.77 
  28 700.79 725.90 696.77 
  29 703.58 725.12 700.79 
  30 710.01 727.60 703.58 
  31 709.65 729.56 710.01 
  32 712.85 729.82 710.01 
  33 715.84 729.83 712.85 
  34 712.47 728.80 715.84 
  35 715.19 724.80 715.84 
  36 711.07 724.83 715.84 
  37 712.80 726.09 715.84 
  38 716.43 728.56 715.84 
  39 719.41 729.93 716.43 
  40 722.33 730.12 719.41 
  41 722.76 727.91 722.33 
  42 723.10 727.50 722.76 
  43 718.71 730.01 723.10 
  44 721.18 731.04 723.10 
  45 720.14 731.33 723.10 
  46 728.85 731.83 723.10 
  47 722.06 733.97 728.85 
  48 732.28 734.32 728.85 
  49 720.70 736.23 732.28 
  50 725.18 735.82 732.28 
  51 730.24 736.15 732.28 
  52 729.50 735.98 732.28 
  53 727.72 735.88 732.28 
  54 730.28 736.77 732.28 
  55 728.20 735.81 732.28 
  56 734.51 737.75 732.28 
  57 734.02 738.27 734.51 
  58 737.38 738.39 734.51 
  59 729.71 738.11 737.38 
  60 728.87 739.51 737.38 
  61 733.29 739.81 737.38 
  62 731.57 741.00 737.38 
  63 735.55 741.53 737.38 
  64 740.38 741.20 737.38 
  65 739.25 740.66 740.38 
  66 735.07 739.85 740.38 
  67 739.99 740.87 740.38 
  68 743.50 741.18 740.38 
  69 738.57 741.00 743.50 
  70 736.45 740.83 743.50 
  71 738.33 741.62 743.50 
  72 738.30 741.72 743.50 
  73 745.82 741.37 743.50 
  74 743.63 741.48 745.82 
  75 744.12 743.85 745.82 
  76 743.09 742.48 745.82 
  77 741.94 743.12 745.82 
  78 746.68 743.46 745.82 
  79 740.69 743.69 746.68 
  80 747.79 742.61 746.68 
  81 740.35 742.53 747.79 
  82 739.65 741.77 747.79 
  83 744.15 741.14 747.79 
  84 746.80 741.11 747.79 
  85 746.92 741.69 747.79 
  86 743.85 741.14 747.79 
  87 752.27 742.34 747.79 
  88 746.18 742.15 752.27 
  89 753.42 742.57 752.27 
  90 747.65 741.93 753.42 
  91 744.58 741.35 753.42 
  92 739.43 743.48 753.42 
  93 746.55 742.94 753.42 
  94 745.89 742.06 753.42 
  95 749.41 739.24 753.42 
  96 741.58 738.26 753.42 
  97 746.78 739.19 753.42 
  98 744.85 739.77 753.42 
  99 746.59 741.57 753.42 
 100 745.47 741.15 753.42 
 101 747.37 741.88 753.42 
 102 750.09 743.63 753.42 
 103 746.93 744.10 753.42 
 104 747.97 743.73 753.42 
 105 748.88 744.86 753.42 
 106 749.50 743.80 753.42 
 107 747.64 745.11 753.42 
 108 742.04 744.87 753.42 
 109 745.41 744.86 753.42 
 110 749.38 745.05 753.42 
 111 751.07 744.82 753.42 
 112 751.40 745.30 753.42 
 113 750.28 744.96 753.42 
 114 746.37 743.97 753.42 
 115 749.55 744.24 753.42 
 116 751.18 744.04 753.42 
 117 751.96 744.47 753.42 
 118 754.45 744.80 753.42 
 119 753.96 744.73 754.45 
 120 748.54 745.43 754.45 
 121 750.04 745.33 754.45 
 122 749.65 745.36 754.45 
 123 748.54 745.69 754.45 
 124 755.95 746.01 754.45 
 125 750.46 745.61 755.95 
 126 754.01 746.14 755.95 
 127 751.30 745.95 755.95 
 128 750.19 745.59 755.95 
 129 747.96 745.03 755.95 
 130 748.74 744.49 755.95 
 131 751.00 744.99 755.95 
 132 749.87 745.06 755.95 
 133 747.51 744.63 755.95 
 134 747.99 744.23 755.95 
 135 746.24 743.31 755.95 
 136 751.75 742.98 755.95 
 137 745.74 742.16 755.95 
 138 751.37 743.08 755.95 
 139 749.86 743.71 755.95 
 140 751.74 743.65 755.95 
 141 748.82 743.05 755.95 
 142 750.82 743.46 755.95 
 143 749.66 743.33 755.95 
 144 752.38 744.02 755.95 
 145 748.04 743.29 755.95 
 146 748.53 742.31 755.95 
 147 740.80 742.31 755.95 
 148 749.50 742.01 755.95 
 149 753.32 742.42 755.95 
 150 753.35 740.52 755.95 
 151 750.36 741.82 755.95 
 152 747.70 742.52 755.95 
 153 748.59 743.80 755.95 
 154 751.50 741.81 755.95 
 155 749.55 742.08 755.95 
 156 749.21 743.11 755.95 
 157 752.04 742.18 755.95 
 158 751.19 742.52 755.95 
 159 749.77 742.11 755.95 
 160 747.91 741.85 755.95 
 161 752.23 743.46 755.95 
 162 753.68 742.95 755.95 
 163 753.62 743.64 755.95 
 164 751.83 743.83 755.95 
 165 751.27 744.56 755.95 
 166 745.64 744.57 755.95 
 167 749.44 745.11 755.95 
 168 753.41 744.49 755.95 
 169 747.83 744.27 755.95 
 170 750.93 744.53 755.95 
 171 756.83 743.96 755.95 
 172 749.82 745.16 756.83 
 173 755.09 745.61 756.83 
 174 754.56 744.68 756.83 
 175 744.00 744.79 756.83 
 176 750.70 744.03 756.83 
 177 752.56 744.19 756.83 
 178 749.44 743.95 756.83 
 179 743.70 743.81 756.83 
 180 747.50 743.56 756.83 
 181 751.44 743.25 756.83 
 182 748.44 742.59 756.83 
 183 752.88 742.68 756.83 
 184 751.21 743.61 756.83 
 185 751.81 744.26 756.83 
 186 751.63 743.44 756.83 
 187 757.50 744.51 756.83 
 188 746.18 744.57 757.50 
 189 754.09 744.49 757.50 
 190 753.03 745.02 757.50 
 191 752.09 743.91 757.50 
 192 757.00 743.68 757.50 
 193 752.22 744.08 757.50 
 194 753.52 743.67 757.50 
 195 748.66 743.46 757.50 
 196 752.72 743.40 757.50 
 197 756.66 742.71 757.50 
 198 750.13 742.74 757.50 
 199 751.78 743.59 757.50 
 200 752.48 743.86 757.50 
 201 753.88 743.31 757.50 
 202 752.28 743.58 757.50 
 203 752.50 744.50 757.50 
 204 758.82 745.18 757.50 
 205 755.47 744.90 758.82 
 206 753.38 744.83 758.82 
 207 747.85 745.72 758.82 
 208 754.36 745.84 758.82 
 209 750.60 744.71 758.82 
 210 756.39 744.56 758.82 
 211 748.23 744.50 758.82 
 212 753.79 745.16 758.82 
 213 753.46 745.30 758.82 
 214 754.40 744.57 758.82 
 215 759.49 744.06 758.82 
 216 751.30 744.68 759.49 
 217 752.96 744.00 759.49 
 218 751.77 743.87 759.49 
 219 757.12 743.74 759.49 
 220 754.77 742.71 759.49 
 221 752.55 743.51 759.49 
 222 754.21 743.94 759.49 
 223 748.79 743.60 759.49 
 224 749.03 743.30 759.49 
 225 753.87 742.66 759.49 
 226 759.22 742.45 759.49 
 227 759.92 742.21 759.49 
 228 749.08 742.70 759.92 
 229 751.27 743.19 759.92 
 230 754.76 742.82 759.92 
 231 751.52 742.47 759.92 
 232 752.92 744.09 759.92 
 233 757.31 743.42 759.92 
 234 748.86 744.08 759.92 
 235 751.86 743.85 759.92 
 236 754.21 743.81 759.92 
 237 751.98 742.30 759.92 
 238 754.46 744.37 759.92 
 239 757.14 744.05 759.92 
 240 757.21 744.41 759.92 
 241 751.94 744.97 759.92 
 242 745.69 744.78 759.92 
 243 753.20 744.35 759.92 
 244 749.23 744.07 759.92 
 245 747.35 743.89 759.92 
 246 748.53 744.30 759.92 
 247 756.96 744.47 759.92 
 248 752.01 744.22 759.92 
 249 752.81 744.98 759.92 
 250 752.67 744.20 759.92 
 251 755.51 744.65 759.92 
 252 749.00 744.63 759.92 
 253 753.03 744.41 759.92 
 254 755.07 743.86 759.92 
 255 752.06 743.82 759.92 
 256 754.67 744.43 759.92 
 257 748.66 743.43 759.92 
 258 754.29 743.48 759.92 
 259 753.22 743.80 759.92 
 260 755.07 744.24 759.92 
 261 752.70 743.94 759.92 
 262 751.08 743.39 759.92 
 263 754.72 742.97 759.92 
 264 750.25 743.75 759.92 
 265 756.10 744.20 759.92 
 266 754.02 743.50 759.92 
 267 756.62 743.62 759.92 
 268 750.68 743.36 759.92 
 269 753.43 742.52 759.92 
 270 758.25 743.72 759.92 
 271 750.87 744.16 759.92 
 272 753.29 744.83 759.92 
 273 756.73 744.55 759.92 
 274 752.29 744.76 759.92 
 275 752.48 744.45 759.92 
 276 755.58 745.15 759.92 
 277 748.82 744.46 759.92 
 278 753.61 743.51 759.92 
 279 749.42 744.55 759.92 
 280 757.08 744.55 759.92 
 281 754.79 744.01 759.92 
 282 754.85 744.96 759.92 
 283 757.88 745.13 759.92 
 284 754.36 745.07 759.92 
 285 755.13 745.05 759.92 
 286 755.42 745.05 759.92 
 287 763.73 745.03 759.92 
 288 764.30 744.83 763.73 
 289 750.15 743.96 764.30 
 290 756.17 744.97 764.30 
 291 754.68 745.10 764.30 
 292 755.27 745.18 764.30 
 293 754.17 745.08 764.30 
 294 755.46 745.51 764.30 
 295 755.85 745.28 764.30 
 296 747.88 745.57 764.30 
 297 755.72 745.73 764.30 
 298 749.36 744.92 764.30 
 299 744.44 744.85 764.30 
 300 752.23 745.51 764.30 
 301 753.09 745.36 764.30 
 302 756.80 745.72 764.30 
 303 757.49 745.89 764.30 
 304 753.34 745.85 764.30 
 305 756.73 745.86 764.30 
 306 749.00 745.23 764.30 
 307 752.50 745.27 764.30 
 308 757.89 745.11 764.30 
 309 754.01 744.89 764.30 
 310 754.98 744.30 764.30 
 311 754.07 744.15 764.30 
 312 751.67 744.66 764.30 
 313 755.34 744.25 764.30 
 314 750.34 744.41 764.30 
 315 758.97 744.39 764.30 
 316 758.20 743.80 764.30 
 317 759.70 742.99 764.30 
 318 752.08 743.55 764.30 
 319 751.56 743.14 764.30 
 320 747.40 743.62 764.30 
 321 751.76 743.39 764.30 
 322 756.15 744.77 764.30 
 323 758.39 744.59 764.30 
 324 761.88 744.94 764.30 
 325 752.61 745.11 764.30 
 326 749.42 744.92 764.30 
 327 754.02 743.92 764.30 
 328 756.09 743.69 764.30 
 329 751.41 744.98 764.30 
 330 755.22 744.66 764.30 
 331 756.60 745.13 764.30 
 332 750.74 744.66 764.30 
 333 755.77 745.46 764.30 
 334 752.53 744.74 764.30 
 335 751.37 744.70 764.30 
 336 757.68 745.32 764.30 
 337 754.78 745.05 764.30 
 338 754.79 745.40 764.30 
 339 754.17 745.13 764.30 
 340 758.01 745.27 764.30 
 341 750.77 745.48 764.30 
 342 757.45 745.38 764.30 
 343 750.12 745.17 764.30 
 344 757.90 745.34 764.30 
 345 751.62 745.10 764.30 
 346 758.42 745.01 764.30 
 347 751.02 745.30 764.30 
 348 751.36 744.71 764.30 
 349 751.38 744.83 764.30 
 350 752.70 745.35 764.30 
 351 757.80 744.81 764.30 
 352 761.11 744.48 764.30 
 353 754.89 744.39 764.30 
 354 748.88 744.34 764.30 
 355 751.07 744.29 764.30 
 356 754.34 744.46 764.30 
 357 757.09 744.56 764.30 
 358 753.28 744.51 764.30 
 359 758.53 745.20 764.30 
 360 759.71 745.41 764.30 
 361 759.07 745.22 764.30 
 362 754.30 745.48 764.30 
 363 755.17 745.11 764.30 
 364 755.59 744.68 764.30 
 365 758.45 745.67 764.30 
 366 754.65 745.13 764.30 
 367 751.06 745.98 764.30 
 368 759.85 746.33 764.30 
 369 754.34 745.97 764.30 
 370 749.19 746.15 764.30 
 371 755.38 746.00 764.30 
 372 757.18 745.82 764.30 
 373 757.86 745.66 764.30 
 374 758.32 745.91 764.30 
 375 756.05 745.56 764.30 
 376 758.06 745.40 764.30 
 377 752.17 744.50 764.30 
 378 759.91 744.45 764.30 
 379 753.74 744.83 764.30 
 380 755.29 744.54 764.30 
 381 756.04 744.67 764.30 
 382 757.22 745.02 764.30 
 383 757.79 744.28 764.30 
 384 747.08 743.85 764.30 
 385 754.33 742.99 764.30 
 386 751.37 743.32 764.30 
 387 756.27 743.14 764.30 
 388 749.14 742.80 764.30 
 389 753.97 743.06 764.30 
 390 757.99 742.65 764.30 
 391 754.98 743.19 764.30 
 392 758.34 744.04 764.30 
 393 755.82 744.06 764.30 
 394 757.70 743.60 764.30 
 395 751.14 743.78 764.30 
 396 757.62 743.59 764.30 
 397 749.13 743.43 764.30 
 398 755.01 743.16 764.30 
 399 754.09 742.49 764.30 
 400 747.86 742.73 764.30 
 401 748.63 742.74 764.30 
 402 753.70 742.95 764.30 
 403 747.61 743.20 764.30 
 404 753.23 743.02 764.30 
 405 757.79 741.99 764.30 
 406 753.29 741.80 764.30 
 407 755.46 743.16 764.30 
 408 755.89 743.28 764.30 
 409 758.84 743.77 764.30 
 410 754.24 743.75 764.30 
 411 748.44 743.77 764.30 
 412 753.74 742.87 764.30 
 413 747.68 743.34 764.30 
 414 758.28 743.46 764.30 
 415 753.82 742.57 764.30 
 416 751.99 743.54 764.30 
 417 749.57 743.39 764.30 
 418 753.01 743.35 764.30 
 419 756.14 742.99 764.30 
 420 754.37 743.28 764.30 
 421 749.50 743.38 764.30 
 422 754.57 744.08 764.30 
 423 753.47 743.08 764.30 
 424 754.66 742.87 764.30 
 425 752.81 742.56 764.30 
 426 751.21 743.11 764.30 
 427 754.09 741.69 764.30 
 428 751.13 741.92 764.30 
 429 751.42 741.63 764.30 
 430 753.21 741.61 764.30 
 431 749.89 742.42 764.30 
 432 754.66 743.23 764.30 
 433 753.78 743.66 764.30 
 434 754.00 743.49 764.30 
 435 751.67 743.99 764.30 
 436 750.40 744.04 764.30 
 437 754.19 744.04 764.30 
 438 747.09 743.47 764.30 
 439 754.61 744.15 764.30 
 440 759.26 744.42 764.30 
 441 753.32 744.16 764.30 
 442 750.20 744.18 764.30 
 443 752.71 744.11 764.30 
 444 755.66 744.15 764.30 
 445 762.50 744.19 764.30 
 446 751.87 744.14 764.30 
 447 756.41 744.10 764.30 
 448 752.17 744.49 764.30 
 449 755.14 744.22 764.30 
 450 754.19 744.54 764.30 
 451 755.51 744.77 764.30 
 452 754.55 744.98 764.30 
 453 756.57 744.64 764.30 
 454 758.61 744.56 764.30 
 455 753.27 744.05 764.30 
 456 758.84 744.61 764.30 
 457 752.09 744.92 764.30 
 458 756.38 744.91 764.30 
 459 756.38 745.09 764.30 
 460 750.56 744.76 764.30 
 461 755.06 745.04 764.30 
 462 753.07 744.48 764.30 
 463 754.81 744.90 764.30 
 464 755.90 744.72 764.30 
 465 754.18 744.84 764.30 
 466 756.19 744.54 764.30 
 467 759.73 745.03 764.30 
 468 748.59 744.65 764.30 
 469 755.95 743.57 764.30 
 470 742.74 743.06 764.30 
 471 757.99 744.43 764.30 
 472 749.91 743.46 764.30 
 473 756.34 743.74 764.30 
 474 757.21 744.00 764.30 
 475 750.75 744.66 764.30 
 476 751.66 745.07 764.30 
 477 749.32 744.76 764.30 
 478 750.15 744.60 764.30 
 479 755.14 744.71 764.30 
 480 752.57 744.08 764.30 
 481 756.14 743.38 764.30 
 482 754.96 745.41 764.30 
 483 757.51 745.63 764.30 
 484 758.02 745.22 764.30 
 485 752.94 744.66 764.30 
 486 754.52 744.78 764.30 
 487 757.44 744.35 764.30 
 488 757.84 743.76 764.30 
 489 760.25 744.40 764.30 
 490 749.32 744.61 764.30 
 491 758.49 744.52 764.30 
 492 755.22 744.71 764.30 
 493 751.12 744.86 764.30 
 494 753.06 744.60 764.30 
 495 759.78 743.75 764.30 
 496 753.39 744.17 764.30 
 497 749.12 744.27 764.30 
 498 754.89 744.22 764.30 
 499 754.78 744.22 764.30 
 500 756.95 744.83 764.30 
 501 752.75 744.01 764.30 
 502 759.87 744.22 764.30 
 503 749.18 744.73 764.30 
 504 759.96 744.16 764.30 
 505 756.48 745.12 764.30 
 506 755.88 744.52 764.30 
 507 755.27 744.90 764.30 
 508 754.08 744.41 764.30 
 509 755.40 744.82 764.30 
 510 759.22 744.89 764.30 
 511 753.10 744.86 764.30 
 512 752.28 745.26 764.30 
 513 754.11 745.32 764.30 
 514 757.15 744.57 764.30 
 515 760.51 745.23 764.30 
 516 756.59 745.55 764.30 
 517 754.71 745.02 764.30 
 518 753.07 744.69 764.30 
 519 755.58 744.84 764.30 
 520 755.45 744.83 764.30 
 521 757.10 744.86 764.30 
 522 756.30 744.82 764.30 
 523 758.52 744.55 764.30 
 524 753.78 744.53 764.30 
 525 753.58 744.70 764.30 
 526 753.69 744.65 764.30 
 527 750.48 744.59 764.30 
 528 752.55 744.62 764.30 
 529 755.98 744.88 764.30 
 530 756.57 744.37 764.30 
 531 756.36 744.26 764.30 
 532 750.24 744.72 764.30 
 533 753.79 744.95 764.30 
 534 753.08 744.59 764.30 
 535 756.08 745.08 764.30 
 536 755.47 744.86 764.30 
 537 759.78 744.56 764.30 
 538 752.65 744.56 764.30 
 539 752.31 744.85 764.30 
 540 755.74 744.93 764.30 
 541 754.18 744.39 764.30 
 542 758.13 744.79 764.30 
 543 753.34 744.47 764.30 
 544 755.42 743.24 764.30 
 545 752.51 743.58 764.30 
 546 754.25 743.16 764.30 
 547 754.81 743.36 764.30 
 548 751.98 743.22 764.30 
 549 760.69 743.21 764.30 
 550 750.07 743.59 764.30 
 551 753.44 743.75 764.30 
 552 752.13 743.93 764.30 
 553 754.21 744.30 764.30 
 554 748.26 743.28 764.30 
 555 759.41 743.97 764.30 
 556 753.41 743.20 764.30 
 557 753.69 743.16 764.30 
 558 747.44 743.43 764.30 
 559 755.56 743.46 764.30 
 560 755.16 743.36 764.30 
 561 757.72 743.90 764.30 
 562 750.97 743.58 764.30 
 563 752.99 742.51 764.30 
 564 748.72 743.88 764.30 
 565 750.30 743.75 764.30 
 566 758.04 743.47 764.30 
 567 754.01 743.73 764.30 
 568 754.32 743.98 764.30 
 569 756.45 743.17 764.30 
 570 758.42 743.50 764.30 
 571 755.23 743.44 764.30 
 572 754.03 743.78 764.30 
 573 753.39 744.09 764.30 
 574 753.84 743.98 764.30 
 575 752.62 743.74 764.30 
 576 758.13 742.73 764.30 
 577 753.84 742.86 764.30 
 578 751.54 740.31 764.30 
 579 754.83 741.70 764.30 
 580 756.31 742.08 764.30 
 581 758.93 742.66 764.30 
 582 757.05 743.74 764.30 
 583 754.63 743.54 764.30 
 584 750.23 743.82 764.30 
 585 751.10 743.32 764.30 
 586 754.80 743.37 764.30 
 587 753.13 743.63 764.30 
 588 757.96 744.24 764.30 
 589 753.69 743.94 764.30 
 590 752.04 743.75 764.30 
 591 755.75 743.78 764.30 
 592 751.92 743.58 764.30 
 593 751.37 743.13 764.30 
 594 750.20 744.04 764.30 
 595 753.37 742.94 764.30 
 596 755.05 743.31 764.30 
 597 751.81 744.54 764.30 
 598 755.20 744.45 764.30 
 599 755.98 744.21 764.30 
 600 750.88 744.51 764.30 
 601 753.34 744.59 764.30 
 602 759.82 744.09 764.30 
 603 756.02 743.51 764.30 
 604 753.72 743.36 764.30 
 605 752.96 744.14 764.30 
 606 757.29 743.90 764.30 
 607 756.63 744.05 764.30 
 608 749.79 743.26 764.30 
 609 754.41 742.22 764.30 
 610 755.88 742.76 764.30 
 611 754.12 743.51 764.30 
 612 755.09 743.15 764.30 
 613 753.35 744.27 764.30 
 614 753.82 744.34 764.30 
 615 752.72 745.06 764.30 
 616 751.68 744.23 764.30 
 617 749.50 744.60 764.30 
 618 754.16 745.24 764.30 
 619 751.70 745.28 764.30 
 620 748.95 744.67 764.30 
 621 761.36 744.50 764.30 
 622 757.26 745.10 764.30 
 623 760.61 744.14 764.30 
 624 750.49 744.36 764.30 
 625 751.95 743.90 764.30 
 626 753.42 745.28 764.30 
 627 752.85 743.84 764.30 
 628 758.60 744.24 764.30 
 629 754.93 744.30 764.30 
 630 754.78 744.60 764.30 
 631 757.58 744.97 764.30 
 632 758.90 744.94 764.30 
 633 750.98 744.86 764.30 
 634 758.73 744.19 764.30 
 635 754.78 743.84 764.30 
 636 748.67 743.60 764.30 
 637 755.17 742.98 764.30 
 638 756.48 743.70 764.30 
 639 758.49 742.63 764.30 
 640 748.24 742.62 764.30 
 641 754.25 743.68 764.30 
 642 756.23 743.80 764.30 
 643 754.08 743.57 764.30 
 644 754.01 743.55 764.30 
 645 751.84 743.33 764.30 
 646 752.64 743.36 764.30 
 647 748.96 743.49 764.30 
 648 756.22 743.30 764.30 
 649 752.93 742.74 764.30 
 650 753.44 742.95 764.30 
 651 755.02 743.23 764.30 
 652 753.98 742.22 764.30 
 653 761.40 742.75 764.30 
 654 757.68 742.98 764.30 
 655 751.95 742.57 764.30 
 656 760.35 744.75 764.30 
 657 752.82 744.21 764.30 
 658 752.22 744.20 764.30 
 659 755.64 744.54 764.30 
 660 754.13 743.98 764.30 
 661 753.59 744.52 764.30 
 662 755.85 744.62 764.30 
 663 751.17 744.39 764.30 
 664 749.80 744.15 764.30 
 665 749.39 744.44 764.30 
 666 752.68 744.16 764.30 
 667 753.33 744.00 764.30 
 668 751.60 744.37 764.30 
 669 757.09 744.79 764.30 
 670 755.51 744.41 764.30 
 671 758.33 744.45 764.30 
 672 754.95 743.78 764.30 
 673 748.18 744.07 764.30 
 674 749.98 743.60 764.30 
 675 752.15 744.66 764.30 
 676 760.67 745.26 764.30 
 677 759.36 744.82 764.30 
 678 752.18 744.65 764.30 
 679 750.19 744.57 764.30 
 680 756.40 744.54 764.30 
 681 751.85 745.08 764.30 
 682 753.81 745.21 764.30 
 683 756.01 745.10 764.30 
 684 758.77 745.35 764.30 
 685 757.95 745.43 764.30 
 686 755.43 745.53 764.30 
 687 759.74 744.76 764.30 
 688 754.18 744.86 764.30 
 689 752.79 744.77 764.30 
 690 757.31 745.29 764.30 
 691 751.23 745.23 764.30 
 692 756.80 745.01 764.30 
 693 755.06 745.25 764.30 
 694 749.12 744.85 764.30 
 695 757.98 744.91 764.30 
 696 757.14 744.99 764.30 
 697 757.40 745.17 764.30 
 698 760.61 745.11 764.30 
 699 756.71 744.74 764.30 
 700 757.46 745.06 764.30 
 701 753.67 744.81 764.30 
 702 753.91 744.74 764.30 
 703 755.73 744.74 764.30 
 704 751.11 744.88 764.30 
 705 752.95 744.98 764.30 
 706 754.23 744.73 764.30 
 707 755.10 744.75 764.30 
 708 751.90 745.05 764.30 
 709 758.16 744.84 764.30 
 710 751.99 745.15 764.30 
 711 753.63 745.24 764.30 
 712 751.22 744.68 764.30 
 713 756.72 744.81 764.30 
 714 749.45 745.13 764.30 
 715 761.07 745.10 764.30 
 716 756.30 745.08 764.30 
 717 756.50 745.05 764.30 
 718 752.47 745.06 764.30 
 719 753.86 745.10 764.30 
 720 756.92 745.06 764.30 
 721 750.77 745.04 764.30 
 722 752.66 744.98 764.30 
 723 755.52 744.79 764.30 
 724 752.58 745.12 764.30 
 725 746.37 745.28 764.30 
 726 756.89 745.09 764.30 
 727 762.42 745.05 764.30 
 728 755.04 745.06 764.30 
 729 757.12 745.14 764.30 
 730 757.62 745.22 764.30 
 731 753.10 745.05 764.30 
 732 757.58 745.13 764.30 
 733 756.15 745.12 764.30 
 734 752.58 745.53 764.30 
 735 755.11 744.77 764.30 
 736 751.90 744.73 764.30 
 737 756.31 744.81 764.30 
 738 755.68 744.79 764.30 
 739 759.85 744.98 764.30 
 740 754.13 745.13 764.30 
 741 755.13 745.15 764.30 
 742 756.05 745.33 764.30 
 743 758.31 744.65 764.30 
 744 756.65 744.76 764.30 
 745 758.81 745.31 764.30 
 746 750.42 744.94 764.30 
 747 752.33 744.50 764.30 
 748 754.94 745.30 764.30 
 749 754.07 744.98 764.30 
 750 754.59 745.14 764.30 
 751 753.79 744.46 764.30 
 752 756.67 745.20 764.30 
 753 750.68 744.69 764.30 
 754 749.97 744.33 764.30 
 755 754.03 744.36 764.30 
 756 754.44 744.20 764.30 
 757 755.80 744.99 764.30 
 758 756.28 745.26 764.30 
 759 757.44 744.61 764.30 
 760 751.80 744.93 764.30 
 761 758.26 745.44 764.30 
 762 759.69 745.57 764.30 
 763 754.85 745.36 764.30 
 764 753.42 745.18 764.30 
 765 754.20 745.56 764.30 
 766 752.23 745.38 764.30 
 767 757.10 745.73 764.30 
 768 749.85 745.62 764.30 
 769 755.40 745.33 764.30 
 770 756.60 745.41 764.30 
 771 756.31 744.75 764.30 
 772 756.54 745.47 764.30 
 773 761.25 745.58 764.30 
 774 754.65 745.51 764.30 
 775 754.29 745.53 764.30 
 776 755.11 745.15 764.30 
 777 757.78 745.81 764.30 
 778 759.38 745.39 764.30 
 779 759.14 744.94 764.30 
 780 756.68 745.04 764.30 
 781 753.15 745.94 764.30 
 782 755.22 745.92 764.30 
 783 756.20 745.97 764.30 
 784 756.56 746.01 764.30 
 785 759.46 745.58 764.30 
 786 754.66 745.96 764.30 
 787 753.83 745.41 764.30 
 788 754.87 745.52 764.30 
 789 756.14 745.60 764.30 
 790 751.61 745.56 764.30 
 791 752.70 745.38 764.30 
 792 753.78 745.12 764.30 
 793 756.15 745.22 764.30 
 794 754.62 745.14 764.30 
 795 755.68 745.17 764.30 
 796 754.12 745.82 764.30 
 797 755.23 745.68 764.30 
 798 748.80 744.22 764.30 
 799 755.16 743.92 764.30 
 800 758.79 744.54 764.30 
 801 753.25 744.86 764.30 
 802 757.58 745.55 764.30 
 803 754.26 745.41 764.30 
 804 752.69 745.19 764.30 
 805 757.58 745.46 764.30 
 806 748.57 745.07 764.30 
 807 755.11 744.92 764.30 
 808 760.06 744.08 764.30 
 809 753.55 743.73 764.30 
 810 755.12 743.74 764.30 
 811 759.40 744.67 764.30 
 812 752.31 744.04 764.30 
 813 756.39 745.06 764.30 
 814 752.64 744.49 764.30 
 815 753.83 744.00 764.30 
 816 754.90 744.36 764.30 
 817 759.37 743.80 764.30 
 818 751.97 744.70 764.30 
 819 753.62 744.63 764.30 
 820 752.16 744.44 764.30 
 821 752.13 744.40 764.30 
 822 752.91 744.30 764.30 
 823 753.83 744.39 764.30 
 824 753.23 744.52 764.30 
 825 757.57 744.36 764.30 
 826 751.90 744.33 764.30 
 827 756.47 743.86 764.30 
 828 752.71 744.16 764.30 
 829 754.33 744.04 764.30 
 830 757.10 743.93 764.30 
 831 754.95 744.09 764.30 
 832 755.51 744.15 764.30 
 833 754.97 744.37 764.30 
 834 749.93 744.33 764.30 
 835 756.29 744.60 764.30 
 836 753.41 744.22 764.30 
 837 752.52 744.23 764.30 
 838 755.17 744.43 764.30 
 839 753.93 744.19 764.30 
 840 753.96 744.39 764.30 
 841 753.26 744.13 764.30 
 842 754.20 744.15 764.30 
 843 753.67 744.19 764.30 
 844 756.30 744.34 764.30 
 845 748.75 743.84 764.30 
 846 750.44 743.90 764.30 
 847 751.97 743.73 764.30 
 848 751.11 744.46 764.30 
 849 756.48 744.73 764.30 
 850 756.26 744.24 764.30 
 851 753.00 744.59 764.30 
 852 752.47 744.11 764.30 
 853 751.43 744.21 764.30 
 854 755.62 744.46 764.30 
 855 756.92 743.99 764.30 
 856 747.17 743.98 764.30 
 857 755.85 743.82 764.30 
 858 751.45 743.78 764.30 
 859 747.32 743.74 764.30 
 860 757.08 744.49 764.30 
 861 754.02 744.22 764.30 
 862 750.97 744.29 764.30 
 863 756.28 744.47 764.30 
 864 755.55 744.40 764.30 
 865 754.14 744.50 764.30 
 866 752.57 744.50 764.30 
 867 750.15 744.51 764.30 
 868 750.30 744.78 764.30 
 869 751.64 745.15 764.30 
 870 753.30 744.70 764.30 
 871 755.29 745.11 764.30 
 872 752.92 744.83 764.30 
 873 747.97 745.14 764.30 
 874 753.43 745.05 764.30 
 875 757.42 744.88 764.30 
 876 752.95 745.17 764.30 
 877 756.69 744.89 764.30 
 878 756.69 744.89 764.30 
 879 756.03 744.69 764.30 
 880 750.76 744.69 764.30 
 881 754.56 745.43 764.30 
 882 757.56 745.74 764.30 
 883 755.24 745.79 764.30 
 884 758.26 745.77 764.30 
 885 749.35 745.67 764.30 
 886 754.31 745.88 764.30 
 887 761.87 746.01 764.30 
 888 756.02 745.76 764.30 
 889 755.63 746.03 764.30 
 890 750.20 745.65 764.30 
 891 752.26 745.90 764.30 
 892 756.81 745.65 764.30 
 893 752.20 745.74 764.30 
 894 756.65 745.75 764.30 
 895 753.01 744.86 764.30 
 896 751.99 745.30 764.30 
 897 753.18 745.62 764.30 
 898 759.31 744.92 764.30 
 899 755.48 745.15 764.30 
 900 756.19 745.23 764.30 
 901 751.84 745.41 764.30 
 902 758.73 745.33 764.30 
 903 755.14 745.34 764.30 
 904 753.64 744.17 764.30 
 905 753.93 745.30 764.30 
 906 745.20 744.99 764.30 
 907 750.80 745.29 764.30 
 908 754.01 745.74 764.30 
 909 759.55 745.68 764.30 
 910 755.58 745.49 764.30 
 911 756.31 745.41 764.30 
 912 748.12 745.56 764.30 
 913 752.89 744.83 764.30 
 914 756.49 744.89 764.30 
 915 755.00 745.38 764.30 
 916 751.12 745.08 764.30 
 917 753.32 744.82 764.30 
 918 752.53 745.25 764.30 
 919 750.27 745.14 764.30 
 920 752.71 745.19 764.30 
 921 748.69 745.18 764.30 
 922 760.14 744.90 764.30 
 923 757.15 745.07 764.30 
 924 758.82 744.86 764.30 
 925 750.91 745.06 764.30 
 926 759.15 744.84 764.30 
 927 755.99 744.75 764.30 
 928 751.05 744.82 764.30 
 929 752.09 744.80 764.30 
 930 751.65 745.00 764.30 
 931 753.22 745.08 764.30 
 932 759.17 745.43 764.30 
 933 758.12 745.40 764.30 
 934 754.92 745.13 764.30 
 935 753.65 744.69 764.30 
 936 755.54 744.44 764.30 
 937 751.82 744.66 764.30 
 938 758.16 743.59 764.30 
 939 757.14 743.76 764.30 
 940 752.20 744.27 764.30 
 941 749.93 743.52 764.30 
 942 752.13 744.47 764.30 
 943 759.70 744.72 764.30 
 944 751.15 745.05 764.30 
 945 756.38 745.17 764.30 
 946 754.04 744.95 764.30 
 947 760.63 744.93 764.30 
 948 755.38 744.74 764.30 
 949 754.93 744.67 764.30 
 950 752.95 744.48 764.30 
 951 762.14 744.45 764.30 
 952 758.05 744.31 764.30 
 953 757.34 744.30 764.30 
 954 756.83 744.70 764.30 
 955 751.04 744.45 764.30 
 956 752.44 744.32 764.30 
 957 751.26 744.22 764.30 
 958 754.16 744.45 764.30 
 959 754.44 744.08 764.30 
 960 749.87 744.42 764.30 
 961 759.41 745.12 764.30 
 962 753.87 744.90 764.30 
 963 754.81 745.27 764.30 
 964 758.97 745.07 764.30 
 965 755.66 743.98 764.30 
 966 754.86 744.32 764.30 
 967 748.87 744.02 764.30 
 968 756.86 744.46 764.30 
 969 754.28 744.50 764.30 
 970 753.15 744.35 764.30 
 971 757.20 743.84 764.30 
 972 749.74 743.67 764.30 
 973 750.87 743.50 764.30 
 974 754.32 743.86 764.30 
 975 751.84 743.80 764.30 
 976 756.61 744.37 764.30 
 977 752.42 744.34 764.30 
 978 758.46 744.25 764.30 
 979 755.16 744.17 764.30 
 980 754.70 743.78 764.30 
 981 755.60 744.07 764.30 
 982 750.89 743.80 764.30 
 983 757.96 744.39 764.30 
 984 754.49 744.79 764.30 
 985 758.48 745.38 764.30 
 986 756.91 745.21 764.30 
 987 756.15 745.08 764.30 
 988 752.65 745.35 764.30 
 989 753.91 745.72 764.30 
 990 754.29 745.61 764.30 
 991 759.38 745.28 764.30 
 992 748.66 745.36 764.30 
 993 758.49 744.92 764.30 
 994 750.60 745.01 764.30 
 995 748.80 744.35 764.30 
 996 750.07 744.87 764.30 
 997 753.95 744.89 764.30 
 998 754.20 744.73 764.30 
 999 757.38 744.68 764.30 
1000 753.10 744.40 764.30 
1001 756.66 744.46 764.30 
1002 755.84 744.07 764.30 
1003 758.44 744.04 764.30 
1004 755.58 743.62 764.30 
1005 757.35 743.97 764.30 
1006 753.61 743.94 764.30 
1007 754.56 744.14 764.30 
1008 763.13 744.32 764.30 
1009 756.37 744.03 764.30 
1010 756.92 744.36 764.30 
1011 759.81 744.06 764.30 
1012 754.08 744.33 764.30 
1013 756.80 744.42 764.30 
1014 765.27 743.70 764.30 
1015 754.61 743.64 765.27 
1016 758.99 743.31 765.27 
1017 753.38 743.48 765.27 
1018 754.79 743.24 765.27 
1019 754.26 743.00 765.27 
1020 754.92 742.96 765.27 
1021 753.52 743.14 765.27 
1022 754.38 743.09 765.27 
1023 755.74 742.88 765.27 
1024 758.35 743.00 765.27 
1025 749.06 743.11 765.27 
1026 747.16 742.90 765.27 
1027 754.26 742.88 765.27 
1028 751.20 742.94 765.27 
1029 749.34 742.97 765.27 
1030 749.75 742.67 765.27 
1031 756.13 742.82 765.27 
1032 752.22 743.07 765.27 
1033 746.33 743.17 765.27 
1034 753.23 743.08 765.27 
1035 755.12 743.17 765.27 
1036 748.28 742.90 765.27 
1037 756.06 742.93 765.27 
1038 753.47 742.89 765.27 
1039 755.70 743.18 765.27 
1040 756.44 743.07 765.27 
1041 744.50 742.72 765.27 
1042 751.70 743.29 765.27 
1043 754.90 743.08 765.27 
1044 752.94 743.33 765.27 
1045 752.94 742.93 765.27 
1046 760.27 742.72 765.27 
1047 755.69 743.39 765.27 
1048 749.57 743.39 765.27 
1049 752.74 742.65 765.27 
1050 752.22 742.97 765.27 
1051 755.16 742.67 765.27 
1052 755.36 742.99 765.27 
1053 756.06 742.66 765.27 
1054 759.04 742.56 765.27 
1055 743.12 742.60 765.27 
1056 753.57 742.61 765.27 
1057 752.55 742.67 765.27 
1058 752.09 742.42 765.27 
1059 754.86 742.37 765.27 
1060 754.77 742.20 765.27 
1061 751.38 742.21 765.27 
1062 750.58 741.66 765.27 
1063 750.11 742.24 765.27 
1064 752.16 742.02 765.27 
1065 753.26 741.89 765.27 
1066 751.46 741.90 765.27 
1067 754.42 741.67 765.27 
1068 753.82 741.61 765.27 
1069 752.46 742.38 765.27 
1070 753.86 742.48 765.27 
1071 750.23 742.53 765.27 
1072 748.51 742.26 765.27 
1073 753.15 742.08 765.27 
1074 751.79 742.39 765.27 
1075 747.50 742.22 765.27 
1076 746.82 742.03 765.27 
1077 753.11 742.37 765.27 
1078 752.96 741.97 765.27 
1079 752.90 741.71 765.27 
1080 752.49 741.46 765.27 
1081 751.58 741.04 765.27 
1082 753.55 741.22 765.27 
1083 750.10 740.67 765.27 
1084 754.23 740.53 765.27 
1085 753.16 740.75 765.27 
1086 752.65 740.75 765.27 
1087 752.18 741.03 765.27 
1088 748.25 741.14 765.27 
1089 755.53 741.19 765.27 
1090 757.23 741.01 765.27 
1091 752.61 740.97 765.27 
1092 752.71 740.98 765.27 
1093 753.11 741.24 765.27 
1094 753.48 741.17 765.27 
1095 752.62 741.14 765.27 
1096 751.75 741.42 765.27 
1097 753.68 741.75 765.27 
1098 749.01 741.66 765.27 
1099 751.91 741.70 765.27 
1100 754.69 742.05 765.27 
1101 754.40 742.16 765.27 
1102 752.85 741.47 765.27 
1103 754.86 742.03 765.27 
1104 753.82 742.39 765.27 
1105 754.28 741.76 765.27 
1106 750.29 741.79 765.27 
1107 750.32 741.60 765.27 
1108 752.83 741.57 765.27 
1109 752.38 741.62 765.27 
1110 753.20 741.46 765.27 
1111 755.80 741.64 765.27 
1112 756.53 742.10 765.27 
1113 752.70 741.21 765.27 
1114 758.96 741.15 765.27 
1115 751.95 741.16 765.27 
1116 748.36 741.49 765.27 
1117 756.08 741.75 765.27 
1118 748.77 741.42 765.27 
1119 748.54 741.77 765.27 
1120 758.43 741.39 765.27 
1121 750.70 741.55 765.27 
1122 753.93 741.64 765.27 
1123 749.47 742.02 765.27 
1124 746.93 742.14 765.27 
1125 753.01 742.14 765.27 
1126 754.82 742.14 765.27 
1127 751.94 741.98 765.27 
1128 753.95 741.47 765.27 
1129 755.00 741.76 765.27 
1130 751.82 741.51 765.27 
1131 750.23 741.26 765.27 
1132 756.55 741.28 765.27 
1133 749.06 741.28 765.27 
1134 753.09 741.45 765.27 
1135 750.88 740.92 765.27 
1136 750.76 740.97 765.27 
1137 751.06 740.84 765.27 
1138 753.65 741.04 765.27 
1139 754.15 741.43 765.27 
1140 752.92 740.88 765.27 
1141 755.71 740.90 765.27 
1142 752.86 741.22 765.27 
1143 744.29 740.18 765.27 
1144 746.61 741.16 765.27 
1145 749.85 741.20 765.27 
1146 750.08 741.92 765.27 
1147 758.42 741.78 765.27 
1148 754.96 742.17 765.27 
1149 750.49 742.24 765.27 
1150 751.51 742.46 765.27 
1151 752.22 742.22 765.27 
1152 749.33 741.58 765.27 
1153 750.15 741.71 765.27 
1154 751.84 741.66 765.27 
1155 752.79 741.50 765.27 
1156 749.97 741.54 765.27 
1157 750.78 741.89 765.27 
1158 755.82 741.99 765.27 
1159 754.38 741.75 765.27 
1160 755.95 741.45 765.27 
1161 755.01 741.64 765.27 
1162 754.61 741.29 765.27 
1163 755.45 741.25 765.27 
1164 749.91 741.75 765.27 
1165 751.29 742.08 765.27 
1166 753.86 741.99 765.27 
1167 751.21 741.78 765.27 
1168 755.65 742.03 765.27 
1169 755.16 742.39 765.27 
1170 753.24 742.45 765.27 
1171 751.80 742.31 765.27 
1172 753.91 742.51 765.27 
1173 751.95 742.82 765.27 
1174 754.47 742.38 765.27 
1175 754.34 741.44 765.27 
1176 753.59 741.51 765.27 
1177 752.52 741.64 765.27 
1178 754.08 741.27 765.27 
1179 751.19 741.35 765.27 
1180 755.55 741.39 765.27 
1181 753.21 742.36 765.27 
1182 753.95 742.50 765.27 
1183 756.27 742.42 765.27 
1184 756.07 742.63 765.27 
1185 753.23 741.96 765.27 
1186 748.55 741.74 765.27 
1187 751.05 742.41 765.27 
1188 754.00 742.38 765.27 
1189 752.36 741.69 765.27 
1190 749.51 742.08 765.27 
1191 750.02 741.94 765.27 
1192 755.71 742.25 765.27 
1193 753.14 742.27 765.27 
1194 751.12 742.13 765.27 
1195 753.97 742.14 765.27 
1196 752.90 741.84 765.27 
1197 751.21 741.59 765.27 
1198 757.95 741.37 765.27 
1199 755.30 741.96 765.27 
1200 756.40 741.95 765.27 
1201 753.22 742.00 765.27 
1202 749.56 742.03 765.27 
1203 753.44 742.14 765.27 
1204 753.39 742.20 765.27 
1205 756.54 742.13 765.27 
1206 755.07 742.11 765.27 
1207 750.64 742.33 765.27 
1208 756.87 742.18 765.27 
1209 754.15 742.32 765.27 
1210 755.13 742.62 765.27 
1211 756.67 742.57 765.27 
1212 750.11 742.66 765.27 
1213 753.16 742.66 765.27 
1214 758.34 743.13 765.27 
1215 752.48 743.26 765.27 
1216 753.48 743.20 765.27 
1217 754.72 743.40 765.27 
1218 756.81 743.04 765.27 
1219 758.74 743.22 765.27 
1220 755.36 743.24 765.27 
1221 755.62 743.65 765.27 
1222 756.62 743.11 765.27 
1223 751.77 743.48 765.27 
1224 758.17 743.67 765.27 
1225 757.63 743.74 765.27 
1226 748.15 743.46 765.27 
1227 753.59 743.72 765.27 
1228 756.29 743.39 765.27 
1229 751.66 743.68 765.27 
1230 750.93 743.64 765.27 
1231 753.39 743.92 765.27 
1232 756.47 743.47 765.27 
1233 750.98 743.62 765.27 
1234 755.97 743.48 765.27 
1235 750.32 743.24 765.27 
1236 754.32 743.15 765.27 
1237 749.89 743.11 765.27 
1238 751.42 742.90 765.27 
1239 751.88 742.51 765.27 
1240 755.12 742.42 765.27 
1241 752.49 742.43 765.27 
1242 761.26 742.48 765.27 
1243 752.50 742.29 765.27 
1244 759.83 742.59 765.27 
1245 755.75 742.19 765.27 
1246 761.44 741.95 765.27 
1247 748.60 742.40 765.27 
1248 751.97 742.01 765.27 
1249 753.60 741.97 765.27 
1250 751.14 741.75 765.27 
1251 756.40 741.72 765.27 
1252 753.92 741.72 765.27 
1253 756.62 741.90 765.27 
1254 744.96 740.90 765.27 
1255 753.91 740.78 765.27 
1256 758.24 740.23 765.27 
1257 752.24 740.22 765.27 
1258 755.66 740.52 765.27 
1259 751.02 740.61 765.27 
1260 753.85 739.96 765.27 
1261 752.46 740.42 765.27 
1262 755.38 740.13 765.27 
1263 754.38 740.04 765.27 
1264 754.58 740.23 765.27 
1265 755.76 739.89 765.27 
1266 749.38 740.77 765.27 
1267 755.42 741.30 765.27 
1268 756.18 741.32 765.27 
1269 762.96 741.18 765.27 
1270 760.53 741.58 765.27 
1271 752.56 741.63 765.27 
1272 751.21 742.00 765.27 
1273 753.54 742.09 765.27 
1274 756.73 741.34 765.27 
1275 752.53 741.37 765.27 
1276 753.10 741.60 765.27 
1277 747.80 740.68 765.27 
1278 752.47 740.97 765.27 
1279 747.81 740.39 765.27 
1280 757.43 740.90 765.27 
1281 754.31 740.38 765.27 
1282 743.47 740.74 765.27 
1283 752.58 740.41 765.27 
1284 751.65 741.14 765.27 
1285 754.31 741.41 765.27 
1286 748.13 741.15 765.27 
1287 749.91 741.56 765.27 
1288 752.40 741.04 765.27 
1289 758.82 741.74 765.27 
1290 752.62 741.55 765.27 
1291 749.32 740.94 765.27 
1292 754.94 740.81 765.27 
1293 756.31 740.50 765.27 
1294 751.10 740.61 765.27 
1295 753.46 741.20 765.27 
1296 751.27 740.53 765.27 
1297 751.61 740.60 765.27 
1298 759.52 740.73 765.27 
1299 751.40 741.45 765.27 
1300 751.68 741.62 765.27 
1301 751.89 741.61 765.27 
1302 752.95 741.56 765.27 
1303 753.43 741.46 765.27 
1304 753.25 740.77 765.27 
1305 748.26 740.87 765.27 
1306 754.40 740.59 765.27 
1307 752.86 740.93 765.27 
1308 754.91 741.05 765.27 
1309 755.26 740.49 765.27 
1310 755.31 740.59 765.27 
1311 752.04 740.76 765.27 
1312 751.75 741.32 765.27 
1313 750.61 742.29 765.27 
1314 756.15 742.13 765.27 
1315 752.69 741.56 765.27 
1316 757.62 742.09 765.27 
1317 750.27 741.62 765.27 
1318 753.39 742.39 765.27 
1319 756.57 742.22 765.27 
1320 752.83 741.96 765.27 
1321 750.35 742.38 765.27 
1322 751.92 741.52 765.27 
1323 753.02 741.59 765.27 
1324 756.57 741.70 765.27 
1325 749.57 741.33 765.27 
1326 749.83 741.72 765.27 
1327 757.25 741.73 765.27 
1328 751.82 740.72 765.27 
1329 749.56 741.91 765.27 
1330 750.89 742.05 765.27 
1331 751.79 742.31 765.27 
1332 753.40 742.43 765.27 
1333 755.06 742.26 765.27 
1334 753.38 741.87 765.27 
1335 750.20 740.09 765.27 
1336 750.19 740.37 765.27 
1337 755.37 741.60 765.27 
1338 757.10 739.53 765.27 
1339 753.72 738.12 765.27 
1340 754.74 739.73 765.27 
1341 743.56 741.07 765.27 
1342 754.01 741.48 765.27 
1343 751.05 741.72 765.27 
1344 754.51 740.91 765.27 
1345 753.09 742.00 765.27 
1346 752.14 741.80 765.27 
1347 750.58 741.40 765.27 
1348 754.17 741.14 765.27 
1349 749.17 741.45 765.27 
1350 747.84 741.67 765.27 
1351 755.62 741.66 765.27 
1352 749.66 741.99 765.27 
1353 755.54 742.03 765.27 
1354 747.78 742.14 765.27 
1355 743.40 743.54 765.27 
1356 752.44 743.22 765.27 
1357 756.35 743.37 765.27 
1358 754.21 741.83 765.27 
1359 752.24 742.72 765.27 
1360 746.69 741.37 765.27 
1361 751.81 741.77 765.27 
1362 752.40 740.40 765.27 
1363 752.77 740.29 765.27 
1364 756.93 742.29 765.27 
1365 751.68 741.69 765.27 
1366 752.38 742.48 765.27 
1367 746.43 742.34 765.27 
1368 750.10 741.83 765.27 
1369 751.61 742.28 765.27 
1370 752.60 743.12 765.27 
1371 752.74 743.14 765.27 
1372 750.46 742.00 765.27 
1373 752.97 742.69 765.27 
1374 747.53 743.15 765.27 
1375 751.45 743.40 765.27 
1376 752.70 743.75 765.27 
1377 752.36 743.11 765.27 
1378 752.11 742.67 765.27 
1379 751.39 743.03 765.27 
1380 747.77 743.00 765.27 
1381 747.79 743.14 765.27 
1382 750.48 743.48 765.27 
1383 755.90 743.60 765.27 
1384 757.55 743.19 765.27 
1385 756.07 743.16 765.27 
1386 755.12 742.83 765.27 
1387 752.41 743.21 765.27 
1388 750.33 743.45 765.27 
1389 746.94 743.26 765.27 
1390 749.57 743.34 765.27 
1391 754.77 743.40 765.27 
1392 750.07 743.69 765.27 
1393 751.16 743.30 765.27 
1394 752.50 743.37 765.27 
1395 742.54 743.77 765.27 
1396 754.76 743.37 765.27 
1397 753.33 742.14 765.27 
1398 753.43 742.84 765.27 
1399 752.88 742.34 765.27 
1400 753.80 740.50 765.27 
1401 755.81 742.62 765.27 
1402 754.44 743.41 765.27 
1403 752.02 742.52 765.27 
1404 750.44 743.32 765.27 
1405 757.74 742.95 765.27 
1406 750.85 743.36 765.27 
1407 752.69 742.76 765.27 
1408 747.72 742.62 765.27 
1409 750.78 742.94 765.27 
1410 755.71 743.86 765.27 
1411 749.38 743.81 765.27 
1412 749.35 743.68 765.27 
1413 753.25 743.99 765.27 
1414 751.93 743.35 765.27 
1415 753.03 744.11 765.27 
1416 751.95 743.97 765.27 
1417 753.85 743.74 765.27 
1418 750.59 743.93 765.27 
1419 753.05 743.83 765.27 
1420 750.88 743.99 765.27 
1421 752.30 743.86 765.27 
1422 752.52 743.90 765.27 
1423 753.92 743.76 765.27 
1424 754.89 743.95 765.27 
1425 755.41 744.24 765.27 
1426 755.18 744.20 765.27 
1427 752.08 744.14 765.27 
1428 750.44 743.70 765.27 
1429 757.58 743.89 765.27 
1430 752.72 744.17 765.27 
1431 756.59 744.08 765.27 
1432 757.49 744.37 765.27 
1433 747.62 744.12 765.27 
1434 751.01 744.36 765.27 
1435 754.75 744.26 765.27 
1436 754.72 744.34 765.27 
1437 756.90 744.23 765.27 
1438 747.36 744.46 765.27 
1439 756.49 744.12 765.27 
1440 750.80 744.50 765.27 
1441 755.32 744.47 765.27 
1442 755.87 744.50 765.27 
1443 753.04 744.52 765.27 
1444 754.13 744.36 765.27 
1445 754.22 744.49 765.27 
1446 755.27 744.24 765.27 
1447 747.13 744.49 765.27 
1448 756.71 744.53 765.27 
1449 750.74 744.26 765.27 
1450 754.35 744.26 765.27 
1451 759.13 744.09 765.27 
1452 754.55 743.72 765.27 
1453 752.70 743.70 765.27 
1454 749.11 743.65 765.27 
1455 753.06 743.75 765.27 
1456 752.98 744.45 765.27 
1457 744.34 744.18 765.27 
1458 758.49 744.26 765.27 
1459 755.38 744.28 765.27 
1460 751.99 744.41 765.27 
1461 750.65 744.45 765.27 
1462 754.27 744.60 765.27 
1463 750.52 744.66 765.27 
1464 752.52 744.27 765.27 
1465 753.55 744.04 765.27 
1466 754.96 743.26 765.27 
1467 756.12 742.52 765.27 
1468 754.83 742.58 765.27 
1469 750.41 743.39 765.27 
1470 753.23 743.02 765.27 
1471 751.45 742.13 765.27 
1472 754.57 742.02 765.27 
1473 755.29 741.35 765.27 
1474 755.06 743.17 765.27 
1475 748.42 743.94 765.27 
1476 748.72 743.97 765.27 
1477 755.53 743.76 765.27 
1478 755.08 743.37 765.27 
1479 751.48 743.85 765.27 
1480 751.01 744.05 765.27 
1481 752.77 743.82 765.27 
1482 753.87 743.77 765.27 
1483 756.76 742.93 765.27 
1484 752.60 743.31 765.27 
1485 751.74 742.16 765.27 
1486 748.38 743.55 765.27 
1487 749.81 743.65 765.27 
1488 748.21 745.10 765.27 
1489 750.04 743.85 765.27 
1490 755.03 743.82 765.27 
1491 749.55 743.34 765.27 
1492 754.33 744.33 765.27 
1493 751.80 743.70 765.27 
1494 750.83 743.44 765.27 
1495 755.54 742.25 765.27 
1496 751.68 742.12 765.27 
1497 749.14 742.79 765.27 
1498 753.85 740.68 765.27 
1499 749.37 739.92 765.27 
1500 753.46 740.60 765.27 
1501 756.12 740.77 765.27 
1502 749.00 741.03 765.27 
1503 754.59 742.18 765.27 
1504 753.54 743.47 765.27 
1505 751.78 743.23 765.27 
1506 752.14 743.71 765.27 
1507 751.75 742.89 765.27 
1508 751.99 743.36 765.27 
1509 756.80 743.02 765.27 
1510 755.64 743.48 765.27 
1511 748.84 743.21 765.27 
1512 748.64 744.26 765.27 
1513 751.30 743.84 765.27 
1514 752.19 743.80 765.27 
1515 751.05 743.97 765.27 
1516 750.73 743.56 765.27 
1517 754.26 743.63 765.27 
1518 752.91 743.59 765.27 
1519 749.45 743.24 765.27 
1520 753.71 743.42 765.27 
1521 750.51 743.75 765.27 
1522 752.50 743.76 765.27 
1523 753.57 743.35 765.27 
1524 756.61 743.38 765.27 
1525 752.89 743.32 765.27 
1526 751.17 743.38 765.27 
1527 756.48 743.41 765.27 
1528 750.67 743.50 765.27 
1529 755.88 743.21 765.27 
1530 751.98 743.16 765.27 
1531 750.84 743.61 765.27 
1532 754.46 743.18 765.27 
1533 752.61 742.36 765.27 
1534 744.58 742.06 765.27 
1535 748.85 742.70 765.27 
1536 750.88 743.11 765.27 
1537 745.97 743.55 765.27 
1538 752.62 743.27 765.27 
1539 750.04 743.30 765.27 
1540 757.09 743.36 765.27 
1541 749.74 742.53 765.27 
1542 746.61 742.58 765.27 
1543 754.35 743.45 765.27 
1544 753.74 743.17 765.27 
1545 752.75 743.49 765.27 
1546 752.67 743.65 765.27 
1547 753.47 744.39 765.27 
1548 752.13 744.46 765.27 
1549 748.51 744.39 765.27 
1550 751.08 744.04 765.27 
1551 755.23 744.23 765.27 
1552 753.24 743.24 765.27 
1553 754.91 743.67 765.27 
1554 745.08 743.31 765.27 
1555 749.28 743.14 765.27 
1556 751.60 743.72 765.27 
1557 745.89 743.70 765.27 
1558 753.51 742.74 765.27 
1559 750.55 742.47 765.27 
1560 756.57 742.40 765.27 
1561 752.72 742.23 765.27 
1562 752.38 742.44 765.27 
1563 757.99 742.47 765.27 
1564 753.34 742.83 765.27 
1565 749.60 743.31 765.27 
1566 748.06 743.43 765.27 
1567 748.93 743.15 765.27 
1568 752.09 743.62 765.27 
1569 756.25 743.43 765.27 
1570 755.16 743.36 765.27 
1571 752.96 743.65 765.27 
1572 748.53 743.55 765.27 
1573 752.86 743.78 765.27 
1574 754.17 743.77 765.27 
1575 749.47 743.22 765.27 
1576 750.74 742.62 765.27 
1577 754.96 742.80 765.27 
1578 752.96 742.90 765.27 
1579 757.06 742.89 765.27 
1580 751.38 743.32 765.27 
1581 754.06 743.30 765.27 
1582 749.83 743.48 765.27 
1583 753.19 743.19 765.27 
1584 750.27 742.33 765.27 
1585 752.13 743.61 765.27 
1586 754.46 743.37 765.27 
1587 750.31 742.98 765.27 
1588 755.65 743.12 765.27 
1589 749.97 743.30 765.27 
1590 755.37 743.13 765.27 
1591 754.35 743.28 765.27 
1592 756.00 743.89 765.27 
1593 752.61 743.75 765.27 
1594 750.24 743.83 765.27 
1595 760.11 743.84 765.27 
1596 752.87 743.76 765.27 
1597 760.13 743.47 765.27 
1598 751.21 743.15 765.27 
1599 753.33 742.63 765.27 
1600 750.37 743.08 765.27 
1601 752.56 743.45 765.27 
1602 755.48 743.34 765.27 
1603 750.49 743.67 765.27 
1604 755.24 743.82 765.27 
1605 753.48 743.68 765.27 
1606 753.10 743.78 765.27 
1607 748.11 743.71 765.27 
1608 752.43 743.59 765.27 
1609 758.74 743.36 765.27 
1610 756.04 743.41 765.27 
1611 751.79 743.22 765.27 
1612 750.58 743.08 765.27 
1613 751.44 743.02 765.27 
1614 755.96 743.57 765.27 
1615 752.28 744.00 765.27 
1616 753.96 744.07 765.27 
1617 749.00 743.60 765.27 
1618 752.96 743.30 765.27 
1619 754.36 743.95 765.27 
1620 750.81 744.06 765.27 
1621 755.97 743.57 765.27 
1622 759.18 743.60 765.27 
1623 751.71 743.54 765.27 
1624 754.30 743.93 765.27 
1625 752.61 743.70 765.27 
1626 748.71 743.98 765.27 
1627 752.11 743.83 765.27 
1628 751.97 743.86 765.27 
1629 758.82 743.97 765.27 
1630 750.01 743.35 765.27 
1631 754.14 744.13 765.27 
1632 753.27 744.09 765.27 
1633 752.39 744.11 765.27 
1634 750.28 743.94 765.27 
1635 755.45 744.12 765.27 
1636 755.93 744.20 765.27 
1637 758.86 744.33 765.27 
1638 756.19 744.41 765.27 
1639 751.92 744.33 765.27 
1640 751.40 744.31 765.27 
1641 751.48 743.74 765.27 
1642 747.51 743.71 765.27 
1643 756.30 743.79 765.27 
1644 755.82 743.93 765.27 
1645 750.91 743.81 765.27 
1646 757.17 743.62 765.27 
1647 747.91 743.62 765.27 
1648 755.05 743.82 765.27 
1649 754.28 743.82 765.27 
1650 750.80 743.68 765.27 
1651 753.75 743.72 765.27 
1652 750.63 743.80 765.27 
1653 753.40 743.61 765.27 
1654 753.55 743.77 765.27 
1655 758.49 743.78 765.27 
1656 750.08 743.73 765.27 
1657 751.10 743.44 765.27 
1658 747.12 742.91 765.27 
1659 755.50 743.03 765.27 
1660 752.92 743.40 765.27 
1661 751.29 744.14 765.27 
1662 746.85 743.46 765.27 
1663 751.03 743.98 765.27 
1664 753.30 743.84 765.27 
1665 755.54 744.01 765.27 
1666 754.54 743.50 765.27 
1667 756.76 743.71 765.27 
1668 751.80 743.81 765.27 
1669 752.94 743.65 765.27 
1670 752.14 743.46 765.27 
1671 753.10 743.48 765.27 
1672 752.46 743.00 765.27 
1673 755.79 742.95 765.27 
1674 751.38 743.33 765.27 
1675 752.97 742.99 765.27 
1676 753.23 743.29 765.27 
1677 758.83 743.41 765.27 
1678 756.95 743.21 765.27 
1679 752.04 743.22 765.27 
1680 753.88 743.42 765.27 
1681 747.15 743.68 765.27 
1682 754.61 743.53 765.27 
1683 757.42 743.21 765.27 
1684 750.68 742.69 765.27 
1685 758.64 742.68 765.27 
1686 749.44 742.50 765.27 
1687 751.67 742.53 765.27 
1688 754.91 742.55 765.27 
1689 754.54 742.36 765.27 
1690 755.55 742.72 765.27 
1691 757.02 742.76 765.27 
1692 750.52 742.70 765.27 
1693 753.07 742.62 765.27 
1694 748.69 742.60 765.27 
1695 750.06 742.43 765.27 
1696 755.08 742.50 765.27 
1697 752.99 742.26 765.27 
1698 757.10 742.55 765.27 
1699 747.70 742.93 765.27 
1700 754.38 742.97 765.27 
1701 755.02 742.92 765.27 
1702 753.87 742.89 765.27 
1703 755.81 743.09 765.27 
1704 746.61 743.09 765.27 
1705 752.18 742.99 765.27 
1706 752.43 743.26 765.27 
1707 755.48 743.27 765.27 
1708 752.58 742.91 765.27 
1709 758.52 742.76 765.27 
1710 749.52 742.68 765.27 
1711 752.16 741.99 765.27 
1712 751.78 742.07 765.27 
1713 750.10 742.08 765.27 
1714 755.15 742.34 765.27 
1715 750.06 742.02 765.27 
1716 754.74 741.82 765.27 
1717 753.86 742.21 765.27 
1718 752.72 742.01 765.27 
1719 754.18 741.91 765.27 
1720 757.38 742.44 765.27 
1721 757.21 742.36 765.27 
1722 760.12 742.10 765.27 
1723 762.29 742.51 765.27 
1724 752.73 743.05 765.27 
1725 755.11 742.52 765.27 
1726 752.75 742.21 765.27 
1727 752.22 742.92 765.27 
1728 755.62 742.88 765.27 
1729 754.60 742.68 765.27 
1730 757.07 742.50 765.27 
1731 753.25 742.66 765.27 
1732 755.06 742.74 765.27 
1733 753.57 742.65 765.27 
1734 756.11 743.14 765.27 
1735 755.95 743.03 765.27 
1736 753.41 742.90 765.27 
1737 753.48 743.22 765.27 
1738 753.10 743.27 765.27 
1739 752.70 743.31 765.27 
1740 756.47 743.13 765.27 
1741 752.34 743.62 765.27 
1742 750.35 743.63 765.27 
1743 751.97 743.48 765.27 
1744 754.66 743.24 765.27 
1745 755.00 743.04 765.27 
1746 754.61 743.40 765.27 
1747 755.81 743.29 765.27 
1748 754.36 742.87 765.27 
1749 757.57 742.84 765.27 
1750 754.24 742.80 765.27 
1751 750.92 743.40 765.27 
1752 749.33 743.03 765.27 
1753 751.56 742.96 765.27 
1754 751.73 743.24 765.27 
1755 756.75 742.72 765.27 
1756 753.71 742.61 765.27 
1757 751.20 743.44 765.27 
1758 751.12 743.39 765.27 
1759 754.36 743.33 765.27 
1760 753.85 743.28 765.27 
1761 755.91 743.69 765.27 
1762 751.90 743.41 765.27 
1763 755.15 743.38 765.27 
1764 751.41 743.29 765.27 
1765 750.82 743.90 765.27 
1766 751.74 743.74 765.27 
1767 751.24 743.71 765.27 
1768 756.37 743.68 765.27 
1769 758.19 743.30 765.27 
1770 755.41 742.93 765.27 
1771 751.56 742.78 765.27 
1772 750.49 743.31 765.27 
1773 754.05 743.27 765.27 
1774 752.62 743.06 765.27 
1775 750.27 743.41 765.27 
1776 751.34 743.18 765.27 
1777 758.11 743.39 765.27 
1778 756.89 743.17 765.27 
1779 754.97 743.32 765.27 
1780 756.58 743.35 765.27 
1781 753.81 742.84 765.27 
1782 755.77 742.94 765.27 
1783 750.47 743.10 765.27 
1784 753.16 743.22 765.27 
1785 754.34 743.59 765.27 
1786 760.90 742.96 765.27 
1787 755.21 743.29 765.27 
1788 751.40 742.95 765.27 
1789 749.27 742.77 765.27 
1790 752.98 743.16 765.27 
1791 752.37 743.09 765.27 
1792 749.93 742.52 765.27 
1793 755.56 742.60 765.27 
1794 755.99 742.88 765.27 
1795 748.99 742.46 765.27 
1796 751.14 742.38 765.27 
1797 753.93 742.46 765.27 
1798 756.68 742.10 765.27 
1799 750.00 742.24 765.27 
1800 751.77 742.24 765.27 
1801 753.34 742.14 765.27 
1802 754.93 742.21 765.27 
1803 753.52 742.23 765.27 
1804 754.36 741.67 765.27 
1805 755.59 742.12 765.27 
1806 752.60 741.56 765.27 
1807 754.81 742.25 765.27 
1808 756.25 742.17 765.27 
1809 751.40 741.60 765.27 
1810 752.81 741.96 765.27 
1811 754.45 741.22 765.27 
1812 757.12 741.51 765.27 
1813 753.43 741.63 765.27 
1814 754.28 741.74 765.27 
1815 758.74 741.60 765.27 
1816 752.58 741.56 765.27 
1817 752.42 741.42 765.27 
1818 751.96 741.75 765.27 
1819 754.32 741.67 765.27 
1820 756.90 742.05 765.27 
1821 746.93 742.18 765.27 
1822 756.56 741.96 765.27 
1823 754.96 742.16 765.27 
1824 753.97 742.16 765.27 
1825 753.45 741.97 765.27 
1826 753.20 741.80 765.27 
1827 754.96 741.43 765.27 
1828 751.48 741.82 765.27 
1829 752.12 741.95 765.27 
1830 745.21 741.97 765.27 
1831 742.23 742.24 765.27 
1832 756.34 741.91 765.27 
1833 754.63 742.49 765.27 
1834 754.80 743.00 765.27 
1835 758.67 743.29 765.27 
1836 751.93 743.32 765.27 
1837 754.22 743.15 765.27 
1838 751.76 743.46 765.27 
1839 754.01 743.46 765.27 
1840 753.59 743.53 765.27 
1841 756.92 743.47 765.27 
1842 752.94 743.35 765.27 
1843 751.11 743.31 765.27 
1844 750.77 743.32 765.27 
1845 756.44 743.04 765.27 
1846 753.58 742.80 765.27 
1847 751.61 743.49 765.27 
1848 751.01 743.35 765.27 
1849 755.30 743.58 765.27 
1850 750.85 743.73 765.27 
1851 752.17 743.31 765.27 
1852 753.66 743.67 765.27 
1853 755.38 743.27 765.27 
1854 753.23 743.55 765.27 
1855 753.63 743.25 765.27 
1856 757.80 742.84 765.27 
1857 751.93 742.54 765.27 
1858 753.41 742.21 765.27 
1859 750.65 742.64 765.27 
1860 757.52 742.67 765.27 
1861 756.41 742.49 765.27 
1862 754.66 742.03 765.27 
1863 755.19 741.89 765.27 
1864 753.16 742.84 765.27 
1865 755.92 742.28 765.27 
1866 755.57 742.08 765.27 
1867 755.91 741.95 765.27 
1868 756.26 742.21 765.27 
1869 750.49 743.26 765.27 
1870 756.18 742.81 765.27 
1871 756.85 743.11 765.27 
1872 758.83 742.79 765.27 
1873 752.90 741.99 765.27 
1874 759.36 740.79 765.27 
1875 751.65 740.67 765.27 
1876 749.69 740.83 765.27 
1877 754.42 740.87 765.27 
1878 753.92 739.32 765.27 
1879 754.55 739.27 765.27 
1880 752.80 740.53 765.27 
1881 755.35 740.37 765.27 
1882 751.81 740.31 765.27 
1883 749.79 740.54 765.27 
1884 754.23 740.66 765.27 
1885 750.12 741.16 765.27 
1886 756.87 742.13 765.27 
1887 755.57 742.13 765.27 
1888 748.47 742.17 765.27 
1889 751.53 742.90 765.27 
1890 752.51 743.05 765.27 
1891 758.71 742.53 765.27 
1892 752.36 742.75 765.27 
1893 756.48 743.36 765.27 
1894 752.61 743.28 765.27 
1895 750.96 743.11 765.27 
1896 758.32 742.82 765.27 
1897 751.54 742.63 765.27 
1898 753.81 742.03 765.27 
1899 753.22 741.96 765.27 
1900 755.31 741.71 765.27 
1901 757.95 740.97 765.27 
1902 751.55 740.96 765.27 
1903 751.10 741.91 765.27 
1904 762.55 741.65 765.27 
1905 753.91 740.96 765.27 
1906 755.57 741.14 765.27 
1907 756.36 740.87 765.27 
1908 755.91 741.31 765.27 
1909 755.78 741.17 765.27 
1910 750.51 741.61 765.27 
1911 752.62 741.42 765.27 
1912 757.71 741.19 765.27 
1913 759.43 741.65 765.27 
1914 755.72 741.37 765.27 
1915 754.18 742.35 765.27 
1916 758.17 741.32 765.27 
1917 757.79 740.66 765.27 
1918 758.53 741.00 765.27 
1919 755.91 740.76 765.27 
1920 751.65 740.68 765.27 
1921 752.18 742.01 765.27 
1922 750.78 741.96 765.27 
1923 755.57 741.60 765.27 
1924 758.24 742.30 765.27 
1925 754.78 741.15 765.27 
1926 754.41 739.97 765.27 
1927 748.03 741.08 765.27 
1928 752.38 741.30 765.27 
1929 753.16 740.16 765.27 
1930 752.71 739.93 765.27 
1931 751.19 740.97 765.27 
1932 749.53 742.39 765.27 
1933 749.92 742.16 765.27 
1934 757.05 743.93 765.27 
1935 749.03 743.12 765.27 
1936 757.43 743.25 765.27 
1937 752.25 742.88 765.27 
1938 754.80 742.80 765.27 
1939 751.98 742.92 765.27 
1940 753.85 741.06 765.27 
1941 757.24 741.45 765.27 
1942 756.60 741.18 765.27 
1943 754.99 741.45 765.27 
1944 752.70 742.05 765.27 
1945 755.10 741.22 765.27 
1946 754.83 742.48 765.27 
1947 754.29 742.93 765.27 
1948 755.90 743.71 765.27 
1949 754.32 744.10 765.27 
1950 754.41 744.34 765.27 
1951 756.16 744.43 765.27 
1952 757.91 744.30 765.27 
1953 755.61 745.31 765.27 
1954 748.77 745.05 765.27 
1955 756.54 744.83 765.27 
1956 750.94 745.03 765.27 
1957 753.02 744.99 765.27 
1958 754.29 744.69 765.27 
1959 756.27 744.65 765.27 
1960 756.40 744.48 765.27 
1961 755.61 744.62 765.27 
1962 758.12 743.98 765.27 
1963 751.99 744.08 765.27 
1964 754.70 743.50 765.27 
1965 755.39 743.37 765.27 
1966 754.34 743.45 765.27 
1967 756.78 743.45 765.27 
1968 751.02 743.46 765.27 
1969 753.43 743.53 765.27 
1970 750.08 743.55 765.27 
1971 754.38 742.94 765.27 
1972 754.32 743.14 765.27 
1973 748.84 742.97 765.27 
1974 759.79 743.49 765.27 
1975 757.04 742.91 765.27 
1976 754.50 743.23 765.27 
1977 754.83 743.40 765.27 
1978 753.54 742.77 765.27 
1979 756.90 743.47 765.27 
1980 748.44 743.31 765.27 
1981 755.13 744.02 765.27 
1982 753.29 743.76 765.27 
1983 752.51 743.95 765.27 
1984 756.21 743.92 765.27 
1985 755.58 744.25 765.27 
1986 753.79 744.16 765.27 
1987 747.41 744.32 765.27 
1988 750.75 744.52 765.27 
1989 752.78 744.57 765.27 
1990 756.57 744.71 765.27 
1991 756.08 744.94 765.27 
1992 755.88 744.74 765.27 
1993 748.46 744.62 765.27 
1994 753.93 745.06 765.27 
1995 754.05 744.30 765.27 
1996 757.26 744.75 765.27 
1997 753.87 744.08 765.27 
1998 752.64 743.97 765.27 
1999 757.43 744.63 765.27 
2000 753.72 743.44 765.27 
2001 759.14 744.15 765.27 
2002 753.87 743.68 765.27 
2003 754.96 743.10 765.27 
2004 756.74 742.75 765.27 
2005 753.18 742.83 765.27 
2006 755.00 743.04 765.27 
2007 754.15 743.07 765.27 
2008 757.67 743.57 765.27 
2009 753.66 742.59 765.27 
2010 754.03 743.22 765.27 
2011 750.29 743.14 765.27 
2012 758.42 741.81 765.27 
2013 747.58 742.66 765.27 
2014 757.63 741.85 765.27 
2015 749.10 742.25 765.27 
2016 756.38 742.30 765.27 
2017 753.60 742.95 765.27 
2018 752.90 742.98 765.27 
2019 754.13 743.17 765.27 
2020 753.58 743.42 765.27 
2021 753.60 743.71 765.27 
2022 753.87 743.88 765.27 
2023 753.75 743.83 765.27 
2024 758.05 743.40 765.27 
2025 755.39 743.78 765.27 
2026 750.55 743.57 765.27 
2027 755.25 743.43 765.27 
2028 749.74 743.35 765.27 
2029 752.49 743.35 765.27 
2030 753.84 743.25 765.27 
2031 757.82 743.14 765.27 
2032 753.66 743.24 765.27 
2033 748.07 743.61 765.27 
2034 756.12 743.62 765.27 
2035 752.22 743.66 765.27 
2036 751.59 743.86 765.27 
2037 748.41 744.03 765.27 
2038 748.27 743.44 765.27 
2039 756.29 742.92 765.27 
2040 751.32 742.43 765.27 
2041 757.26 741.98 765.27 
2042 752.16 743.20 765.27 
2043 751.74 743.04 765.27 
2044 753.70 742.48 765.27 
2045 752.32 741.73 765.27 
2046 753.40 743.09 765.27 
2047 755.89 742.47 765.27 
2048 751.15 742.30 765.27 
2049 747.06 742.84 765.27 
2050 753.66 743.40 765.27 
2051 758.37 743.67 765.27 
2052 754.08 742.95 765.27 
2053 751.08 743.23 765.27 
2054 757.06 743.15 765.27 
2055 752.78 742.94 765.27 
2056 753.57 743.49 765.27 
2057 749.90 742.75 765.27 
2058 755.19 743.00 765.27 
2059 753.99 743.21 765.27 
2060 756.59 743.78 765.27 
2061 757.86 743.80 765.27 
2062 751.65 744.00 765.27 
2063 753.61 743.68 765.27 
2064 749.25 743.73 765.27 
2065 750.25 743.60 765.27 
2066 755.45 744.01 765.27 
2067 755.80 743.89 765.27 
2068 751.81 743.82 765.27 
2069 752.67 743.77 765.27 
2070 753.28 743.41 765.27 
2071 747.88 743.63 765.27 
2072 756.23 743.56 765.27 
2073 753.14 743.82 765.27 
2074 758.50 743.69 765.27 
2075 752.96 743.66 765.27 
2076 753.87 743.37 765.27 
2077 758.30 742.38 765.27 
2078 757.48 742.14 765.27 
2079 752.70 742.55 765.27 
2080 752.74 743.06 765.27 
2081 760.49 742.78 765.27 
2082 745.61 742.80 765.27 
2083 757.78 743.12 765.27 
2084 753.91 742.71 765.27 
2085 751.36 742.47 765.27 
2086 756.41 742.29 765.27 
2087 755.54 742.03 765.27 
2088 758.55 742.10 765.27 
2089 758.22 742.50 765.27 
2090 756.81 742.74 765.27 
2091 757.72 742.71 765.27 
2092 754.05 742.51 765.27 
2093 759.72 742.58 765.27 
2094 758.67 742.72 765.27 
2095 749.40 742.52 765.27 
2096 754.77 742.89 765.27 
2097 751.35 743.02 765.27 
2098 753.24 743.14 765.27 
2099 751.65 742.74 765.27 
2100 751.11 743.13 765.27 
2101 758.45 743.70 765.27 
2102 753.58 743.58 765.27 
2103 754.26 743.66 765.27 
2104 755.57 743.33 765.27 
2105 752.18 743.74 765.27 
2106 755.37 742.64 765.27 
2107 753.78 743.67 765.27 
2108 758.92 743.52 765.27 
2109 757.06 742.33 765.27 
2110 755.24 741.63 765.27 
2111 757.49 742.94 765.27 
2112 756.75 743.40 765.27 
2113 757.05 743.24 765.27 
2114 755.89 743.09 765.27 
2115 756.17 742.87 765.27 
2116 754.77 742.44 765.27 
2117 748.64 742.10 765.27 
2118 752.28 742.25 765.27 
2119 754.41 743.22 765.27 
2120 754.78 743.59 765.27 
2121 755.18 743.50 765.27 
2122 751.87 743.29 765.27 
2123 752.46 743.91 765.27 
2124 757.51 743.52 765.27 
2125 759.29 743.86 765.27 
2126 752.92 744.00 765.27 
2127 758.71 743.80 765.27 
2128 748.92 743.86 765.27 
2129 759.20 743.76 765.27 
2130 758.54 743.98 765.27 
2131 751.79 743.84 765.27 
2132 756.41 743.58 765.27 
2133 752.72 743.02 765.27 
2134 755.68 742.42 765.27 
2135 756.70 742.03 765.27 
2136 749.17 741.67 765.27 
2137 752.68 742.75 765.27 
2138 753.90 741.80 765.27 
2139 755.18 741.96 765.27 
2140 757.46 742.07 765.27 
2141 756.09 742.23 765.27 
2142 754.44 742.33 765.27 
2143 753.89 742.20 765.27 
2144 756.66 742.13 765.27 
2145 758.88 741.94 765.27 
2146 754.58 742.02 765.27 
2147 752.65 742.23 765.27 
2148 750.93 741.06 765.27 
2149 755.34 741.88 765.27 
2150 745.65 741.27 765.27 
2151 758.42 742.18 765.27 
2152 750.58 741.95 765.27 
2153 755.87 741.97 765.27 
2154 751.04 741.61 765.27 
2155 755.01 741.49 765.27 
2156 751.69 741.35 765.27 
2157 754.11 741.55 765.27 
2158 753.10 742.62 765.27 
2159 757.83 742.62 765.27 
2160 755.46 742.19 765.27 
2161 756.96 742.66 765.27 
2162 747.74 742.18 765.27 
2163 751.59 742.18 765.27 
2164 753.51 743.26 765.27 
2165 751.14 743.05 765.27 
2166 757.00 742.94 765.27 
2167 747.44 742.14 765.27 
2168 758.27 741.80 765.27 
2169 754.93 741.93 765.27 
2170 751.91 741.75 765.27 
2171 754.60 742.31 765.27 
2172 755.37 742.49 765.27 
2173 760.82 742.33 765.27 
2174 748.92 741.17 765.27 
2175 756.36 741.49 765.27 
2176 754.80 742.26 765.27 
2177 758.22 741.33 765.27 
2178 750.22 740.42 765.27 
2179 758.75 740.90 765.27 
2180 753.76 740.75 765.27 
2181 753.66 740.44 765.27 
2182 754.77 741.27 765.27 
2183 755.03 741.79 765.27 
2184 750.43 741.96 765.27 
2185 750.97 741.89 765.27 
2186 758.46 741.25 765.27 
2187 760.31 743.01 765.27 
2188 756.84 743.24 765.27 
2189 753.70 742.93 765.27 
2190 754.57 743.81 765.27 
2191 754.99 744.05 765.27 
2192 758.03 743.28 765.27 
2193 752.90 742.48 765.27 
2194 754.55 742.27 765.27 
2195 756.94 742.75 765.27 
2196 750.36 743.50 765.27 
2197 757.13 743.22 765.27 
2198 751.72 742.80 765.27 
2199 752.40 743.49 765.27 
2200 752.81 743.18 765.27 
2201 757.19 742.37 765.27 
2202 750.55 742.46 765.27 
2203 754.23 742.31 765.27 
2204 756.47 742.62 765.27 
2205 756.02 742.46 765.27 
2206 751.57 742.21 765.27 
2207 749.81 742.42 765.27 
2208 747.83 741.79 765.27 
2209 750.67 741.57 765.27 
2210 759.70 742.25 765.27 
2211 755.53 743.40 765.27 
2212 753.26 742.78 765.27 
2213 758.05 743.48 765.27 
2214 754.49 742.96 765.27 
2215 758.18 743.25 765.27 
2216 753.99 743.78 765.27 
2217 760.19 743.46 765.27 
2218 754.31 743.81 765.27 
2219 748.66 743.75 765.27 
2220 757.07 743.49 765.27 
2221 751.27 743.23 765.27 
2222 749.13 743.14 765.27 
2223 755.50 743.14 765.27 
2224 752.60 742.85 765.27 
2225 750.81 743.29 765.27 
2226 749.11 743.92 765.27 
2227 756.68 744.05 765.27 
2228 749.54 743.88 765.27 
2229 756.17 744.05 765.27 
2230 749.50 744.58 765.27 
2231 747.37 744.81 765.27 
2232 749.05 744.94 765.27 
2233 751.63 744.29 765.27 
2234 755.06 744.17 765.27 
2235 750.02 744.60 765.27 
2236 747.60 744.85 765.27 
2237 754.16 744.81 765.27 
2238 758.28 745.08 765.27 
2239 759.91 744.48 765.27 
2240 753.35 744.00 765.27 
2241 752.82 743.85 765.27 
2242 752.76 744.32 765.27 
2243 749.72 744.18 765.27 
2244 754.08 743.68 765.27 
2245 755.28 743.36 765.27 
2246 755.11 743.47 765.27 
2247 753.93 743.55 765.27 
2248 762.30 743.41 765.27 
2249 761.25 743.35 765.27 
2250 754.64 743.18 765.27 
2251 753.30 742.94 765.27 
2252 751.64 743.51 765.27 
2253 756.68 742.19 765.27 
2254 753.93 743.14 765.27 
2255 751.25 743.23 765.27 
2256 752.61 743.64 765.27 
2257 756.23 743.81 765.27 
2258 749.30 743.83 765.27 
2259 752.87 744.74 765.27 
2260 753.28 743.94 765.27 
2261 757.08 744.39 765.27 
2262 752.24 744.24 765.27 
2263 755.04 745.28 765.27 
2264 757.80 745.74 765.27 
2265 757.56 745.76 765.27 
2266 760.49 746.00 765.27 
2267 758.27 746.03 765.27 
2268 754.72 744.42 765.27 
2269 751.41 745.42 765.27 
2270 754.51 745.39 765.27 
2271 755.20 744.96 765.27 
2272 755.91 745.01 765.27 
2273 754.76 744.97 765.27 
2274 753.26 745.20 765.27 
2275 749.26 744.99 765.27 
2276 750.14 744.57 765.27 
2277 753.61 745.17 765.27 
2278 752.23 744.26 765.27 
2279 750.24 743.70 765.27 
2280 752.33 743.47 765.27 
2281 751.78 743.98 765.27 
2282 755.32 744.40 765.27 
2283 752.20 744.22 765.27 
2284 754.73 744.20 765.27 
2285 753.66 744.12 765.27 
2286 754.60 743.97 765.27 
2287 754.90 744.45 765.27 
2288 760.05 744.03 765.27 
2289 753.46 744.07 765.27 
2290 749.60 744.83 765.27 
2291 756.32 744.68 765.27 
2292 752.25 745.20 765.27 
2293 750.44 744.76 765.27 
2294 751.95 746.11 765.27 
2295 759.15 745.63 765.27 
2296 747.53 745.68 765.27 
2297 759.68 745.86 765.27 
2298 753.59 745.29 765.27 
2299 754.89 745.04 765.27 
2300 753.27 744.74 765.27 
2301 754.91 744.24 765.27 
2302 751.55 744.09 765.27 
2303 755.66 744.19 765.27 
2304 754.35 744.21 765.27 
2305 760.54 744.26 765.27 
2306 754.61 744.26 765.27 
2307 757.30 745.13 765.27 
2308 755.06 744.61 765.27 
2309 751.69 745.06 765.27 
2310 755.87 745.30 765.27 
2311 750.27 745.27 765.27 
2312 756.24 745.32 765.27 
2313 757.16 744.50 765.27 
2314 752.30 744.63 765.27 
2315 757.29 744.46 765.27 
2316 751.62 744.57 765.27 
2317 754.93 744.50 765.27 
2318 756.56 745.06 765.27 
2319 750.75 744.62 765.27 
2320 757.41 744.83 765.27 
2321 752.79 744.66 765.27 
2322 759.70 744.28 765.27 
2323 757.49 744.62 765.27 
2324 749.96 744.99 765.27 
2325 758.08 744.43 765.27 
2326 751.71 744.49 765.27 
2327 749.51 743.94 765.27 
2328 752.69 744.13 765.27 
2329 753.75 743.35 765.27 
2330 747.41 744.13 765.27 
2331 755.07 744.36 765.27 
2332 750.75 745.10 765.27 
2333 751.58 745.30 765.27 
2334 755.95 744.90 765.27 
2335 746.95 744.76 765.27 
2336 751.32 744.45 765.27 
2337 756.72 744.25 765.27 
2338 758.24 744.53 765.27 
2339 751.45 744.47 765.27 
2340 755.36 744.28 765.27 
2341 750.60 744.26 765.27 
2342 756.16 743.27 765.27 
2343 754.04 742.95 765.27 
2344 752.33 743.07 765.27 
2345 754.47 743.15 765.27 
2346 754.46 742.41 765.27 
2347 750.71 742.41 765.27 
2348 752.61 742.02 765.27 
2349 758.55 742.04 765.27 
2350 753.86 742.02 765.27 
2351 747.53 741.87 765.27 
2352 756.60 741.65 765.27 
2353 747.21 741.17 765.27 
2354 758.62 740.62 765.27 
2355 749.99 740.31 765.27 
2356 747.42 740.16 765.27 
2357 759.02 740.28 765.27 
2358 751.08 740.73 765.27 
2359 752.46 741.51 765.27 
2360 752.37 741.33 765.27 
2361 755.61 740.96 765.27 
2362 749.85 740.80 765.27 
2363 754.40 740.62 765.27 
2364 747.54 741.93 765.27 
2365 756.79 741.62 765.27 
2366 754.69 741.50 765.27 
2367 753.09 741.27 765.27 
2368 749.62 741.58 765.27 
2369 757.13 741.68 765.27 
2370 754.26 742.00 765.27 
2371 755.55 741.94 765.27 
2372 751.03 741.73 765.27 
2373 752.23 741.57 765.27 
2374 757.37 741.59 765.27 
2375 753.75 741.62 765.27 
2376 750.34 741.71 765.27 
2377 751.29 741.65 765.27 
2378 752.68 741.70 765.27 
2379 757.05 742.03 765.27 
2380 758.03 742.05 765.27 
2381 753.02 742.28 765.27 
2382 751.22 742.54 765.27 
2383 751.64 742.33 765.27 
2384 753.63 742.43 765.27 
2385 752.99 742.42 765.27 
2386 749.25 742.53 765.27 
2387 755.90 742.61 765.27 
2388 756.33 743.12 765.27 
2389 750.38 743.20 765.27 
2390 750.46 742.87 765.27 
2391 751.89 743.81 765.27 
2392 756.12 743.10 765.27 
2393 755.94 743.55 765.27 
2394 756.67 743.38 765.27 
2395 752.54 743.06 765.27 
2396 755.72 743.09 765.27 
2397 757.60 743.00 765.27 
2398 750.46 743.27 765.27 
2399 755.46 743.50 765.27 
2400 757.91 743.81 765.27 
2401 756.59 742.59 765.27 
2402 755.63 743.67 765.27 
2403 755.12 743.13 765.27 
2404 754.47 743.94 765.27 
2405 752.80 744.13 765.27 
2406 757.54 743.61 765.27 
2407 753.80 743.84 765.27 
2408 755.72 743.19 765.27 
2409 753.50 743.26 765.27 
2410 753.77 743.46 765.27 
2411 752.88 743.12 765.27 
2412 753.43 743.27 765.27 
2413 758.27 743.34 765.27 
2414 752.64 743.31 765.27 
2415 755.21 743.07 765.27 
2416 760.38 742.12 765.27 
2417 756.78 743.78 765.27 
2418 751.92 743.30 765.27 
2419 759.42 742.92 765.27 
2420 754.77 743.30 765.27 
2421 753.73 743.08 765.27 
2422 755.34 742.84 765.27 
2423 755.96 741.85 765.27 
2424 750.18 742.74 765.27 
2425 756.01 741.78 765.27 
2426 755.16 740.71 765.27 
2427 756.33 738.59 765.27 
2428 754.34 738.71 765.27 
2429 756.04 742.06 765.27 
2430 754.02 742.17 765.27 
2431 757.97 741.59 765.27 
2432 758.22 740.47 765.27 
2433 757.49 738.27 765.27 
2434 746.55 739.02 765.27 
2435 754.74 739.93 765.27 
2436 750.99 741.36 765.27 
2437 753.38 741.79 765.27 
2438 752.14 740.85 765.27 
2439 754.60 741.07 765.27 
2440 757.07 742.53 765.27 
2441 754.46 743.15 765.27 
2442 752.06 742.95 765.27 
2443 758.14 742.47 765.27 
2444 757.71 741.85 765.27 
2445 757.17 742.28 765.27 
2446 750.62 742.68 765.27 
2447 753.26 742.80 765.27 
2448 749.26 742.48 765.27 
2449 752.87 742.51 765.27 
2450 757.26 742.32 765.27 
2451 753.18 742.92 765.27 
2452 751.78 743.20 765.27 
2453 754.76 743.05 765.27 
2454 752.24 743.33 765.27 
2455 760.04 743.79 765.27 
2456 757.51 743.76 765.27 
2457 760.32 743.20 765.27 
2458 753.97 743.55 765.27 
2459 755.63 743.77 765.27 
2460 754.91 743.77 765.27 
2461 758.27 743.85 765.27 
2462 752.76 743.25 765.27 
2463 754.81 743.36 765.27 
2464 753.64 742.59 765.27 
2465 753.92 742.27 765.27 
2466 751.81 743.11 765.27 
2467 748.77 743.19 765.27 
2468 749.30 743.06 765.27 
2469 757.18 742.44 765.27 
2470 755.14 743.39 765.27 
2471 756.47 743.50 765.27 
2472 754.47 743.14 765.27 
2473 752.29 743.11 765.27 
2474 756.43 743.15 765.27 
2475 759.38 743.07 765.27 
2476 754.47 743.44 765.27 
2477 751.48 743.13 765.27 
2478 751.90 742.95 765.27 
2479 752.13 743.02 765.27 
2480 755.97 742.88 765.27 
2481 756.11 742.85 765.27 
2482 747.36 743.13 765.27 
2483 763.48 743.04 765.27 
2484 756.85 743.22 765.27 
2485 756.44 743.35 765.27 
2486 750.65 743.71 765.27 
2487 757.63 743.72 765.27 
2488 751.79 743.50 765.27 
2489 754.02 743.62 765.27 
2490 757.67 743.78 765.27 
2491 751.22 743.21 765.27 
2492 756.28 742.80 765.27 
2493 753.55 743.32 765.27 
2494 756.37 743.19 765.27 
2495 751.97 743.14 765.27 
2496 758.26 743.32 765.27 
2497 754.26 743.40 765.27 
2498 760.71 743.60 765.27 
2499 749.60 743.74 765.27 
2500 758.11 743.76 765.27 
2501 754.85 743.87 765.27 
2502 755.98 743.53 765.27 
2503 753.37 743.82 765.27 
2504 753.93 743.67 765.27 
2505 755.84 743.42 765.27 
2506 757.80 744.11 765.27 
2507 756.95 743.97 765.27 
2508 756.47 744.01 765.27 
2509 761.60 744.03 765.27 
2510 749.63 744.33 765.27 
2511 757.55 743.91 765.27 
2512 754.89 744.25 765.27 
2513 751.55 743.82 765.27 
2514 752.96 743.41 765.27 
2515 754.85 743.29 765.27 
2516 756.73 743.10 765.27 
2517 750.90 743.18 765.27 
2518 755.37 743.21 765.27 
2519 753.73 743.38 765.27 
2520 753.29 743.28 765.27 
2521 752.96 743.97 765.27 
2522 756.60 743.95 765.27 
2523 753.99 744.34 765.27 
2524 757.67 743.79 765.27 
2525 746.71 743.83 765.27 
2526 750.88 743.03 765.27 
2527 757.90 743.10 765.27 
2528 749.97 743.34 765.27 
2529 754.09 743.14 765.27 
2530 754.11 742.56 765.27 
2531 751.24 742.73 765.27 
2532 757.56 742.98 765.27 
2533 748.97 742.35 765.27 
2534 750.30 742.75 765.27 
2535 749.49 742.60 765.27 
2536 754.73 743.14 765.27 
2537 745.40 742.89 765.27 
2538 757.57 743.23 765.27 
2539 751.72 742.80 765.27 
2540 754.63 742.65 765.27 
2541 758.69 743.06 765.27 
2542 748.93 743.05 765.27 
2543 751.20 742.74 765.27 
2544 753.13 741.90 765.27 
2545 759.35 741.98 765.27 
2546 750.53 741.30 765.27 
2547 757.30 741.68 765.27 
2548 748.72 740.99 765.27 
2549 746.07 742.05 765.27 
2550 752.28 742.47 765.27 
2551 754.45 741.98 765.27 
2552 753.57 741.53 765.27 
2553 754.55 740.81 765.27 
2554 746.35 741.86 765.27 
2555 751.53 741.48 765.27 
2556 751.37 741.93 765.27 
2557 753.22 741.74 765.27 
2558 753.39 741.97 765.27 
2559 753.18 741.45 765.27 
2560 749.93 742.20 765.27 
2561 747.04 743.50 765.27 
2562 754.55 741.91 765.27 
2563 754.31 742.66 765.27 
2564 751.89 742.12 765.27 
2565 756.73 742.72 765.27 
2566 754.30 742.70 765.27 
2567 754.58 742.60 765.27 
2568 749.65 742.45 765.27 
2569 754.67 742.50 765.27 
2570 748.76 742.68 765.27 
2571 753.87 742.69 765.27 
2572 752.05 742.26 765.27 
2573 753.00 742.05 765.27 
2574 755.38 741.79 765.27 
2575 755.50 742.27 765.27 
2576 758.92 742.63 765.27 
2577 753.97 743.29 765.27 
2578 754.70 742.80 765.27 
2579 750.92 742.44 765.27 
2580 752.03 742.25 765.27 
2581 758.75 743.21 765.27 
2582 753.20 743.14 765.27 
2583 759.51 743.03 765.27 
2584 755.56 742.87 765.27 
2585 748.87 743.54 765.27 
2586 753.54 743.68 765.27 
2587 752.95 743.89 765.27 
2588 757.28 743.47 765.27 
2589 752.87 743.70 765.27 
2590 751.08 743.54 765.27 
2591 750.80 744.02 765.27 
2592 754.47 744.60 765.27 
2593 751.42 744.63 765.27 
2594 748.90 744.85 765.27 
2595 754.64 744.61 765.27 
2596 754.92 744.52 765.27 
2597 755.28 744.75 765.27 
2598 753.16 744.93 765.27 
2599 756.57 745.34 765.27 
2600 754.61 745.63 765.27 
2601 747.13 745.32 765.27 
2602 752.11 745.26 765.27 
2603 750.81 745.49 765.27 
2604 750.11 744.59 765.27 
2605 754.09 744.10 765.27 
2606 761.77 744.32 765.27 
2607 757.00 744.81 765.27 
2608 755.93 744.36 765.27 
2609 757.56 744.29 765.27 
2610 752.61 744.38 765.27 
2611 758.42 744.78 765.27 
2612 757.12 744.63 765.27 
2613 749.37 745.03 765.27 
2614 753.65 744.91 765.27 
2615 761.00 744.82 765.27 
2616 754.33 744.68 765.27 
2617 752.36 744.64 765.27 
2618 757.17 744.64 765.27 
2619 758.81 744.84 765.27 
2620 754.74 744.59 765.27 
2621 758.54 744.80 765.27 
2622 754.70 744.65 765.27 
2623 750.25 744.91 765.27 
2624 754.29 744.81 765.27 
2625 755.05 744.82 765.27 
2626 756.32 744.98 765.27 
2627 759.25 745.17 765.27 
2628 752.18 745.55 765.27 
2629 760.07 744.73 765.27 
2630 747.28 745.28 765.27 
2631 757.26 744.96 765.27 
2632 754.28 745.19 765.27 
2633 749.51 745.18 765.27 
2634 749.68 745.05 765.27 
2635 756.51 744.82 765.27 
2636 754.93 744.56 765.27 
2637 750.49 744.49 765.27 
2638 760.48 744.28 765.27 
2639 756.44 744.65 765.27 
2640 752.49 744.63 765.27 
2641 755.64 744.20 765.27 
2642 757.07 744.68 765.27 
2643 756.34 744.54 765.27 
2644 755.52 744.26 765.27 
2645 750.66 744.53 765.27 
2646 758.81 744.82 765.27 
2647 750.01 744.59 765.27 
2648 753.19 744.26 765.27 
2649 760.36 744.39 765.27 
2650 755.96 743.81 765.27 
2651 756.13 743.68 765.27 
2652 753.30 743.93 765.27 
2653 755.74 744.33 765.27 
2654 754.58 743.98 765.27 
2655 749.11 744.03 765.27 
2656 747.71 743.84 765.27 
2657 753.01 744.22 765.27 
2658 747.79 744.20 765.27 
2659 757.00 744.08 765.27 
2660 755.56 743.43 765.27 
2661 755.48 743.38 765.27 
2662 753.00 743.19 765.27 
2663 751.91 743.10 765.27 
2664 755.92 743.38 765.27 
2665 754.78 743.34 765.27 
2666 758.55 743.40 765.27 
2667 757.61 743.32 765.27 
2668 758.00 743.43 765.27 
2669 747.74 743.50 765.27 
2670 754.31 743.53 765.27 
2671 750.85 743.47 765.27 
2672 755.14 743.33 765.27 
2673 755.71 743.53 765.27 
2674 755.97 743.72 765.27 
2675 757.21 743.34 765.27 
2676 755.84 743.43 765.27 
2677 754.44 743.43 765.27 
2678 757.42 743.25 765.27 
2679 753.18 743.22 765.27 
2680 758.77 743.62 765.27 
2681 756.14 743.99 765.27 
2682 753.59 744.01 765.27 
2683 762.10 744.20 765.27 
2684 755.08 744.12 765.27 
2685 755.61 743.83 765.27 
2686 758.10 744.00 765.27 
2687 755.47 744.15 765.27 
2688 750.00 744.33 765.27 
2689 756.05 744.58 765.27 
2690 751.72 744.62 765.27 
2691 756.19 744.88 765.27 
2692 763.89 744.89 765.27 
2693 755.77 744.70 765.27 
2694 753.28 744.35 765.27 
2695 754.91 744.35 765.27 
2696 752.04 744.06 765.27 
2697 757.42 744.15 765.27 
2698 751.73 744.17 765.27 
2699 751.75 744.39 765.27 
2700 750.19 744.45 765.27 
2701 750.67 743.99 765.27 
2702 755.52 743.99 765.27 
2703 747.53 743.97 765.27 
2704 757.06 744.13 765.27 
2705 754.38 743.68 765.27 
2706 755.39 743.85 765.27 
2707 751.47 743.82 765.27 
2708 754.78 743.45 765.27 
2709 759.70 743.51 765.27 
2710 757.61 743.43 765.27 
2711 751.69 743.53 765.27 
2712 751.62 743.73 765.27 
2713 757.17 743.63 765.27 
2714 755.14 743.66 765.27 
2715 753.53 743.31 765.27 
2716 749.62 743.28 765.27 
2717 758.21 743.57 765.27 
2718 756.58 743.61 765.27 
2719 751.21 743.92 765.27 
2720 756.58 743.68 765.27 
2721 756.83 743.74 765.27 
2722 758.59 743.94 765.27 
2723 751.77 743.97 765.27 
2724 752.74 743.90 765.27 
2725 754.46 743.60 765.27 
2726 746.62 743.48 765.27 
2727 755.36 743.73 765.27 
2728 756.97 743.78 765.27 
2729 752.72 743.62 765.27 
2730 750.69 743.55 765.27 
2731 755.58 743.72 765.27 
2732 754.51 743.08 765.27 
2733 749.58 742.89 765.27 
2734 751.95 742.48 765.27 
2735 752.18 741.79 765.27 
2736 751.87 742.22 765.27 
2737 749.71 742.15 765.27 
2738 757.73 741.92 765.27 
2739 756.21 742.37 765.27 
2740 754.80 741.89 765.27 
2741 747.74 742.32 765.27 
2742 759.11 742.96 765.27 
2743 754.63 741.97 765.27 
2744 753.12 741.83 765.27 
2745 749.69 741.83 765.27 
2746 759.33 741.98 765.27 
2747 755.96 742.48 765.27 
2748 757.53 743.40 765.27 
2749 754.26 743.22 765.27 
2750 753.06 743.49 765.27 
2751 751.09 743.51 765.27 
2752 754.24 743.48 765.27 
2753 753.56 743.60 765.27 
2754 755.57 743.82 765.27 
2755 753.13 743.96 765.27 
2756 756.80 743.83 765.27 
2757 749.96 743.99 765.27 
2758 755.32 743.95 765.27 
2759 747.17 743.96 765.27 
2760 755.03 743.95 765.27 
2761 758.48 743.89 765.27 
2762 759.79 744.11 765.27 
2763 756.94 744.15 765.27 
2764 750.61 744.08 765.27 
2765 758.34 743.96 765.27 
2766 754.24 743.96 765.27 
2767 753.20 743.21 765.27 
2768 752.33 742.86 765.27 
2769 755.01 742.18 765.27 
2770 761.19 743.48 765.27 
2771 750.16 743.11 765.27 
2772 750.40 743.82 765.27 
2773 754.97 744.15 765.27 
2774 757.09 744.31 765.27 
2775 751.77 744.36 765.27 
2776 752.98 744.43 765.27 
2777 751.44 744.52 765.27 
2778 757.85 744.51 765.27 
2779 751.74 744.49 765.27 
2780 747.70 744.53 765.27 
2781 755.46 744.26 765.27 
2782 754.96 744.24 765.27 
2783 752.52 744.21 765.27 
2784 753.82 744.12 765.27 
2785 757.87 744.36 765.27 
2786 749.82 744.24 765.27 
2787 753.57 744.49 765.27 
2788 757.12 744.46 765.27 
2789 754.81 744.25 765.27 
2790 753.83 744.32 765.27 
2791 757.42 744.44 765.27 
2792 754.38 744.18 765.27 
2793 753.24 743.63 765.27 
2794 750.96 743.50 765.27 
2795 753.13 743.38 765.27 
2796 756.12 742.59 765.27 
2797 751.94 743.45 765.27 
2798 751.87 744.12 765.27 
2799 748.66 744.25 765.27 
2800 756.12 744.33 765.27 
2801 754.15 744.74 765.27 
2802 753.63 743.71 765.27 
2803 747.77 743.02 765.27 
2804 749.63 744.12 765.27 
2805 754.22 744.14 765.27 
2806 758.79 743.89 765.27 
2807 748.82 744.25 765.27 
2808 758.51 744.48 765.27 
2809 751.54 743.95 765.27 
2810 750.91 741.86 765.27 
2811 751.51 743.60 765.27 
2812 753.61 744.73 765.27 
2813 761.07 744.68 765.27 
2814 758.23 744.86 765.27 
2815 748.29 744.80 765.27 
2816 757.16 744.83 765.27 
2817 756.11 744.55 765.27 
2818 755.47 744.44 765.27 
2819 753.14 744.89 765.27 
2820 756.12 745.17 765.27 
2821 753.05 745.35 765.27 
2822 755.10 745.14 765.27 
2823 752.60 745.11 765.27 
2824 757.74 745.17 765.27 
2825 747.78 744.64 765.27 
2826 758.84 744.41 765.27 
2827 755.84 744.41 765.27 
2828 759.03 744.03 765.27 
2829 746.28 743.94 765.27 
2830 751.73 744.34 765.27 
2831 754.09 744.93 765.27 
2832 751.63 745.05 765.27 
2833 757.32 744.89 765.27 
2834 757.77 744.78 765.27 
2835 752.40 744.72 765.27 
2836 750.88 744.97 765.27 
2837 752.99 744.90 765.27 
2838 752.37 744.83 765.27 
2839 754.52 744.90 765.27 
2840 756.91 745.00 765.27 
2841 755.54 744.95 765.27 
2842 754.95 745.18 765.27 
2843 752.08 745.09 765.27 
2844 754.75 744.60 765.27 
2845 758.62 745.12 765.27 
2846 756.12 744.98 765.27 
2847 756.48 745.10 765.27 
2848 748.66 745.13 765.27 
2849 750.77 745.13 765.27 
2850 752.63 745.17 765.27 
2851 748.23 745.11 765.27 
2852 755.67 745.11 765.27 
2853 752.94 745.19 765.27 
2854 751.72 745.16 765.27 
2855 752.04 744.87 765.27 
2856 755.87 744.52 765.27 
2857 759.67 744.45 765.27 
2858 758.68 744.29 765.27 
2859 751.25 744.35 765.27 
2860 754.28 744.61 765.27 
2861 747.35 744.23 765.27 
2862 751.00 744.27 765.27 
2863 750.79 744.62 765.27 
2864 754.50 744.64 765.27 
2865 759.54 744.40 765.27 
2866 757.13 744.45 765.27 
2867 754.02 744.43 765.27 
2868 757.20 744.41 765.27 
2869 752.36 744.17 765.27 
2870 753.78 744.10 765.27 
2871 757.32 744.25 765.27 
2872 756.07 744.20 765.27 
2873 749.78 743.96 765.27 
2874 752.37 743.74 765.27 
2875 752.04 744.16 765.27 
2876 753.95 744.07 765.27 
2877 756.88 744.13 765.27 
2878 757.27 744.35 765.27 
2879 755.86 744.08 765.27 
2880 750.20 743.97 765.27 
2881 754.42 744.05 765.27 
2882 758.77 743.71 765.27 
2883 755.85 744.13 765.27 
2884 757.82 743.81 765.27 
2885 749.87 743.85 765.27 
2886 756.63 743.86 765.27 
2887 756.58 744.23 765.27 
2888 749.43 744.19 765.27 
2889 753.50 744.41 765.27 
2890 753.78 744.47 765.27 
2891 754.55 744.46 765.27 
2892 756.27 744.43 765.27 
2893 754.84 744.66 765.27 
2894 754.35 744.20 765.27 
2895 754.13 744.23 765.27 
2896 757.73 744.11 765.27 
2897 753.03 744.35 765.27 
2898 746.83 744.45 765.27 
2899 748.26 744.33 765.27 
2900 753.42 744.49 765.27 
2901 754.73 744.51 765.27 
2902 754.94 744.19 765.27 
2903 754.75 744.33 765.27 
2904 752.15 744.24 765.27 
2905 746.80 744.03 765.27 
2906 753.91 743.83 765.27 
2907 751.40 743.64 765.27 
2908 753.74 744.16 765.27 
2909 753.80 744.01 765.27 
2910 753.51 744.20 765.27 
2911 754.86 743.94 765.27 
2912 747.69 743.92 765.27 
2913 757.62 744.04 765.27 
2914 751.81 744.08 765.27 
2915 752.92 743.78 765.27 
2916 750.56 743.71 765.27 
2917 757.67 743.86 765.27 
2918 750.07 743.86 765.27 
2919 751.09 743.56 765.27 
2920 758.86 743.67 765.27 
2921 760.80 743.33 765.27 
2922 753.32 743.37 765.27 
2923 756.65 743.58 765.27 
2924 755.06 743.76 765.27 
2925 755.12 743.28 765.27 
2926 757.98 743.54 765.27 
2927 754.07 743.73 765.27 
2928 753.97 742.98 765.27 
2929 752.78 743.33 765.27 
2930 753.03 743.10 765.27 
2931 755.40 743.50 765.27 
2932 753.73 743.66 765.27 
2933 753.38 743.82 765.27 
2934 754.92 743.74 765.27 
2935 754.69 743.26 765.27 
2936 749.77 743.27 765.27 
2937 752.38 743.96 765.27 
2938 756.39 743.29 765.27 
2939 751.73 743.87 765.27 
2940 752.19 744.02 765.27 
2941 750.22 744.58 765.27 
2942 749.81 744.60 765.27 
2943 749.89 743.62 765.27 
2944 754.81 744.44 765.27 
2945 755.56 743.99 765.27 
2946 756.06 743.92 765.27 
2947 749.74 743.64 765.27 
2948 754.57 744.38 765.27 
2949 755.33 744.34 765.27 
2950 748.39 744.10 765.27 
2951 749.65 744.82 765.27 
2952 752.28 744.59 765.27 
2953 753.38 744.36 765.27 
2954 752.23 744.50 765.27 
2955 758.70 744.48 765.27 
2956 751.16 743.39 765.27 
2957 757.05 742.55 765.27 
2958 758.07 742.64 765.27 
2959 751.42 742.58 765.27 
2960 756.00 742.69 765.27 
2961 750.50 742.48 765.27 
2962 749.35 743.20 765.27 
2963 752.88 742.80 765.27 
2964 755.49 742.07 765.27 
2965 757.07 743.04 765.27 
2966 757.66 741.63 765.27 
2967 749.48 741.62 765.27 
2968 752.59 741.71 765.27 
2969 756.38 741.41 765.27 
2970 754.64 743.28 765.27 
2971 752.85 743.45 765.27 
2972 755.18 742.78 765.27 
2973 758.01 743.01 765.27 
2974 758.13 743.73 765.27 
2975 749.80 742.01 765.27 
2976 755.41 742.45 765.27 
2977 755.46 743.43 765.27 
2978 753.75 742.79 765.27 
2979 756.55 742.77 765.27 
2980 757.33 743.47 765.27 
2981 749.74 742.69 765.27 
2982 751.92 741.46 765.27 
2983 759.09 741.59 765.27 
2984 756.89 741.74 765.27 
2985 754.86 742.68 765.27 
2986 757.39 742.61 765.27 
2987 752.20 742.10 765.27 
2988 755.99 742.11 765.27 
2989 754.04 741.89 765.27 
2990 756.96 742.24 765.27 
2991 753.76 741.67 765.27 
2992 748.19 741.73 765.27 
2993 752.66 741.34 765.27 
2994 750.84 741.46 765.27 
2995 756.58 742.50 765.27 
2996 749.87 742.25 765.27 
2997 748.78 742.20 765.27 
2998 752.52 742.19 765.27 
2999 743.88 741.83 765.27 
3000 751.74 740.94 765.27 
3001 758.36 741.44 765.27 
3002 747.05 741.27 765.27 
3003 759.47 742.26 765.27 
3004 752.10 743.18 765.27 
3005 745.69 743.45 765.27 
3006 756.15 743.71 765.27 
3007 758.00 744.19 765.27 
3008 753.89 743.85 765.27 
3009 755.84 743.54 765.27 
3010 755.05 744.50 765.27 
3011 754.51 744.39 765.27 
3012 754.32 744.30 765.27 
3013 758.13 744.85 765.27 
3014 762.01 744.96 765.27 
3015 755.94 744.40 765.27 
3016 754.72 744.89 765.27 
3017 752.50 744.36 765.27 
3018 750.89 745.00 765.27 
3019 749.81 744.95 765.27 
3020 752.45 743.95 765.27 
3021 756.05 744.01 765.27 
3022 754.56 744.75 765.27 
3023 754.86 745.13 765.27 
3024 749.51 744.62 765.27 
3025 757.16 744.25 765.27 
3026 760.11 743.65 765.27 
3027 751.74 743.78 765.27 
3028 751.30 744.88 765.27 
3029 750.90 745.39 765.27 
3030 752.56 745.31 765.27 
3031 753.18 745.38 765.27 
3032 756.69 745.33 765.27 
3033 749.75 745.34 765.27 
3034 749.42 745.15 765.27 
3035 747.81 744.94 765.27 
3036 752.13 745.26 765.27 
3037 751.53 745.30 765.27 
3038 746.22 745.05 765.27 
3039 750.96 745.26 765.27 
3040 758.15 745.02 765.27 
3041 755.32 744.94 765.27 
3042 749.96 745.03 765.27 
3043 752.82 745.01 765.27 
3044 746.22 744.97 765.27 
3045 753.35 744.94 765.27 
3046 757.00 744.72 765.27 
3047 753.96 745.03 765.27 
3048 755.04 744.76 765.27 
3049 752.03 744.55 765.27 
3050 751.01 744.76 765.27 
3051 754.82 744.49 765.27 
3052 759.93 745.04 765.27 
3053 755.98 744.90 765.27 
3054 755.72 744.88 765.27 
3055 748.70 744.86 765.27 
3056 755.59 744.76 765.27 
3057 754.47 744.79 765.27 
3058 756.14 744.94 765.27 
3059 751.62 745.00 765.27 
3060 747.75 744.90 765.27 
3061 748.85 745.02 765.27 
3062 755.76 745.06 765.27 
3063 754.11 744.91 765.27 
3064 752.13 744.88 765.27 
3065 757.73 744.74 765.27 
3066 756.76 744.84 765.27 
3067 752.04 744.90 765.27 
3068 752.55 744.89 765.27 
3069 751.15 744.81 765.27 
3070 755.51 744.78 765.27 
3071 754.85 744.84 765.27 
3072 754.06 744.96 765.27 
3073 757.97 744.78 765.27 
3074 754.47 744.77 765.27 
3075 747.07 744.55 765.27 
3076 754.86 744.71 765.27 
3077 754.12 744.64 765.27 
3078 750.93 744.82 765.27 
3079 755.73 744.83 765.27 
3080 755.94 744.55 765.27 
3081 754.12 744.72 765.27 
3082 756.08 744.54 765.27 
3083 753.87 744.64 765.27 
3084 754.74 744.90 765.27 
3085 746.69 744.38 765.27 
3086 750.42 744.26 765.27 
3087 759.27 744.30 765.27 
3088 750.07 744.18 765.27 
3089 752.04 744.12 765.27 
3090 750.96 744.08 765.27 
3091 754.97 744.06 765.27 
3092 753.10 744.01 765.27 
3093 750.55 743.84 765.27 
3094 746.44 743.89 765.27 
3095 754.82 743.93 765.27 
3096 751.94 743.90 765.27 
3097 750.31 743.95 765.27 
3098 755.66 743.78 765.27 
3099 756.94 743.90 765.27 
3100 750.61 744.18 765.27 
3101 749.28 743.98 765.27 
3102 743.27 744.02 765.27 
3103 754.09 743.84 765.27 
3104 752.00 743.90 765.27 
3105 755.76 744.22 765.27 
3106 750.67 744.06 765.27 
3107 755.56 743.96 765.27 
3108 752.50 744.11 765.27 
3109 753.15 744.08 765.27 
3110 762.79 744.19 765.27 
3111 752.34 744.24 765.27 
3112 758.19 744.09 765.27 
3113 751.20 744.47 765.27 
3114 752.46 744.41 765.27 
3115 749.39 744.48 765.27 
3116 754.82 744.46 765.27 
3117 751.82 744.43 765.27 
3118 751.69 744.42 765.27 
3119 755.52 744.58 765.27 
3120 755.87 744.60 765.27 
3121 754.36 744.57 765.27 
3122 751.58 744.77 765.27 
3123 748.03 744.49 765.27 
3124 756.58 744.62 765.27 
3125 756.90 744.68 765.27 
3126 750.57 744.70 765.27 
3127 745.92 745.03 765.27 
3128 752.73 745.03 765.27 
3129 750.77 744.89 765.27 
3130 756.92 744.83 765.27 
3131 755.07 744.72 765.27 
3132 749.67 744.69 765.27 
3133 757.51 744.82 765.27 
3134 754.29 744.91 765.27 
3135 755.49 744.93 765.27 
3136 755.61 744.64 765.27 
3137 753.27 744.87 765.27 
3138 754.49 745.04 765.27 
3139 758.66 744.82 765.27 
3140 753.23 745.10 765.27 
3141 750.47 744.83 765.27 
3142 754.52 745.09 765.27 
3143 755.05 745.08 765.27 
3144 753.69 745.08 765.27 
3145 751.40 744.85 765.27 
3146 752.31 744.72 765.27 
3147 753.99 744.72 765.27 
3148 754.58 744.59 765.27 
3149 751.30 745.01 765.27 
3150 747.48 745.29 765.27 
3151 758.27 744.68 765.27 
3152 748.91 745.04 765.27 
3153 752.60 744.51 765.27 
3154 755.63 744.87 765.27 
3155 747.08 744.97 765.27 
3156 751.80 744.79 765.27 
3157 752.00 744.94 765.27 
3158 753.34 744.80 765.27 
3159 750.18 744.84 765.27 
3160 753.00 744.58 765.27 
3161 752.94 744.50 765.27 
3162 758.38 744.51 765.27 
3163 755.47 744.75 765.27 
3164 758.76 743.88 765.27 
3165 750.19 743.86 765.27 
3166 754.55 744.54 765.27 
3167 754.83 744.04 765.27 
3168 752.51 744.01 765.27 
3169 751.77 743.85 765.27 
3170 754.62 743.52 765.27 
3171 746.53 744.48 765.27 
3172 753.97 744.64 765.27 
3173 753.57 745.08 765.27 
3174 750.48 744.87 765.27 
3175 750.22 745.13 765.27 
3176 757.45 744.84 765.27 
3177 753.13 744.16 765.27 
3178 747.63 744.34 765.27 
3179 762.27 744.49 765.27 
3180 749.89 743.85 765.27 
3181 758.09 744.33 765.27 
3182 756.90 744.33 765.27 
3183 750.09 744.13 765.27 
3184 752.65 744.03 765.27 
3185 749.93 743.87 765.27 
3186 752.40 743.59 765.27 
3187 750.47 743.91 765.27 
3188 750.52 743.85 765.27 
3189 758.94 743.96 765.27 
3190 754.58 744.07 765.27 
3191 757.47 744.39 765.27 
3192 752.17 744.31 765.27 
3193 756.46 744.33 765.27 
3194 750.21 744.44 765.27 
3195 757.90 744.80 765.27 
3196 758.98 744.25 765.27 
3197 756.64 744.75 765.27 
3198 751.93 744.91 765.27 
3199 753.84 744.82 765.27 
3200 750.84 744.72 765.27 
3201 756.82 744.66 765.27 
3202 754.64 744.66 765.27 
3203 756.82 744.60 765.27 
3204 756.41 744.40 765.27 
3205 752.21 744.57 765.27 
3206 751.00 744.71 765.27 
3207 755.18 744.42 765.27 
3208 755.57 744.34 765.27 
3209 750.45 744.27 765.27 
3210 751.61 744.41 765.27 
3211 752.77 744.33 765.27 
3212 752.21 744.30 765.27 
3213 747.50 744.34 765.27 
3214 753.90 744.06 765.27 
3215 750.67 744.36 765.27 
3216 753.39 743.80 765.27 
3217 753.52 743.76 765.27 
3218 745.67 743.66 765.27 
3219 749.36 743.36 765.27 
3220 754.03 743.55 765.27 
3221 755.22 743.66 765.27 
3222 755.46 743.43 765.27 
3223 760.48 743.43 765.27 
3224 756.75 743.54 765.27 
3225 750.42 742.93 765.27 
3226 748.08 743.47 765.27 
3227 751.61 743.06 765.27 
3228 759.09 742.91 765.27 
3229 750.41 743.05 765.27 
3230 746.93 743.16 765.27 
3231 744.90 743.28 765.27 
3232 744.56 743.22 765.27 
3233 751.14 743.26 765.27 
3234 750.78 743.43 765.27 
3235 755.16 743.46 765.27 
3236 752.15 743.92 765.27 
3237 754.51 744.21 765.27 
3238 752.27 744.42 765.27 
3239 749.07 744.54 765.27 
3240 754.99 744.37 765.27 
3241 751.96 743.63 765.27 
3242 755.12 744.47 765.27 
3243 757.68 744.16 765.27 
3244 755.19 744.05 765.27 
3245 751.73 743.96 765.27 
3246 752.54 743.84 765.27 
3247 753.24 743.89 765.27 
3248 753.12 743.99 765.27 
3249 753.90 743.57 765.27 
3250 747.69 743.43 765.27 
3251 752.49 743.09 765.27 
3252 754.77 743.61 765.27 
3253 752.36 743.43 765.27 
3254 756.74 743.51 765.27 
3255 751.49 743.55 765.27 
3256 749.34 743.95 765.27 
3257 750.96 744.64 765.27 
3258 753.57 744.53 765.27 
3259 751.38 744.69 765.27 
3260 755.84 744.91 765.27 
3261 751.78 744.90 765.27 
3262 756.29 744.78 765.27 
3263 751.22 745.12 765.27 
3264 751.45 745.04 765.27 
3265 752.37 745.21 765.27 
3266 751.56 745.18 765.27 
3267 759.21 745.17 765.27 
3268 751.14 745.32 765.27 
3269 756.64 745.58 765.27 
3270 750.49 745.79 765.27 
3271 754.11 745.83 765.27 
3272 753.43 745.93 765.27 
3273 751.38 745.45 765.27 
3274 755.12 745.25 765.27 
3275 753.36 745.79 765.27 
3276 752.07 745.72 765.27 
3277 758.83 745.91 765.27 
3278 759.48 745.36 765.27 
3279 760.97 745.56 765.27 
3280 749.53 745.30 765.27 
3281 759.13 745.69 765.27 
3282 754.31 745.76 765.27 
3283 750.78 746.10 765.27 
3284 757.02 745.92 765.27 
3285 751.45 746.33 765.27 
3286 756.06 746.16 765.27 
3287 749.60 745.99 765.27 
3288 751.64 746.29 765.27 
3289 750.75 745.79 765.27 
3290 756.06 745.78 765.27 
3291 749.95 745.45 765.27 
3292 751.85 745.56 765.27 
3293 751.25 745.68 765.27 
3294 746.70 745.59 765.27 
3295 755.05 746.05 765.27 
3296 755.18 746.15 765.27 
3297 755.17 746.02 765.27 
3298 752.68 745.99 765.27 
3299 756.28 745.55 765.27 
3300 753.52 745.67 765.27 
3301 752.80 745.76 765.27 
3302 754.02 745.70 765.27 
3303 755.34 745.72 765.27 
3304 750.83 745.73 765.27 
3305 749.58 745.43 765.27 
3306 758.39 745.37 765.27 
3307 755.32 745.37 765.27 
3308 751.63 745.41 765.27 
3309 753.46 745.46 765.27 
3310 754.56 745.40 765.27 
3311 756.03 745.36 765.27 
3312 755.32 745.37 765.27 
3313 751.18 745.36 765.27 
3314 751.37 745.39 765.27 
3315 753.54 745.61 765.27 
3316 750.81 745.28 765.27 
3317 754.16 745.31 765.27 
3318 750.50 745.39 765.27 
3319 753.23 745.00 765.27 
3320 749.43 745.04 765.27 
3321 754.64 744.75 765.27 
3322 751.77 744.67 765.27 
3323 754.51 744.50 765.27 
3324 750.06 745.02 765.27 
3325 753.99 744.63 765.27 
3326 749.95 745.12 765.27 
3327 748.83 745.19 765.27 
3328 752.66 744.99 765.27 
3329 750.67 744.85 765.27 
3330 754.20 744.92 765.27 
3331 750.15 745.00 765.27 
3332 751.83 745.25 765.27 
3333 752.34 745.28 765.27 
3334 754.13 745.35 765.27 
3335 754.51 745.30 765.27 
3336 745.81 745.40 765.27 
3337 757.19 745.40 765.27 
3338 750.09 745.41 765.27 
3339 754.92 745.44 765.27 
3340 752.82 745.67 765.27 
3341 753.90 745.60 765.27 
3342 749.26 745.69 765.27 
3343 754.97 745.53 765.27 
3344 746.46 745.62 765.27 
3345 757.91 745.37 765.27 
3346 751.18 745.41 765.27 
3347 752.16 745.41 765.27 
3348 751.08 745.24 765.27 
3349 756.87 745.53 765.27 
3350 750.37 745.63 765.27 
3351 758.27 745.55 765.27 
3352 756.09 745.54 765.27 
3353 758.05 745.45 765.27 
3354 753.97 745.43 765.27 
3355 752.96 745.52 765.27 
3356 753.62 745.15 765.27 
3357 759.36 745.32 765.27 
3358 753.62 745.02 765.27 
3359 747.54 744.97 765.27 
3360 759.22 745.17 765.27 
3361 753.20 745.10 765.27 
3362 757.93 744.97 765.27 
3363 749.46 744.85 765.27 
3364 750.66 744.76 765.27 
3365 750.93 744.83 765.27 
3366 752.58 744.77 765.27 
3367 752.43 744.73 765.27 
3368 751.05 745.06 765.27 
3369 756.16 744.69 765.27 
3370 751.82 744.68 765.27 
3371 751.01 744.66 765.27 
3372 749.67 744.51 765.27 
3373 753.43 744.57 765.27 
3374 749.01 744.38 765.27 
3375 755.70 744.67 765.27 
3376 748.19 744.59 765.27 
3377 755.33 744.49 765.27 
3378 752.13 744.62 765.27 
3379 751.96 744.39 765.27 
3380 750.82 744.67 765.27 
3381 754.14 743.96 765.27 
3382 750.91 743.82 765.27 
3383 751.09 744.33 765.27 
3384 746.91 744.65 765.27 
3385 748.82 744.66 765.27 
3386 751.77 744.52 765.27 
3387 752.13 744.60 765.27 
3388 751.54 744.58 765.27 
3389 757.13 744.51 765.27 
3390 751.14 744.31 765.27 
3391 753.90 744.64 765.27 
3392 753.89 744.29 765.27 
3393 757.09 744.66 765.27 
3394 752.15 744.98 765.27 
3395 750.31 744.59 765.27 
3396 752.75 744.91 765.27 
3397 756.98 744.95 765.27 
3398 754.88 745.00 765.27 
3399 758.20 744.97 765.27 
3400 753.01 745.23 765.27 
3401 755.97 745.57 765.27 
3402 754.90 745.32 765.27 
3403 755.45 745.27 765.27 
3404 751.78 745.30 765.27 
3405 757.64 744.90 765.27 
3406 758.50 745.09 765.27 
3407 751.86 744.86 765.27 
3408 748.73 744.36 765.27 
3409 753.29 744.44 765.27 
3410 751.48 744.46 765.27 
3411 756.86 744.42 765.27 
3412 756.90 744.16 765.27 
3413 757.60 744.10 765.27 
3414 749.11 744.20 765.27 
3415 751.41 744.35 765.27 
3416 753.83 744.08 765.27 
3417 753.33 744.29 765.27 
3418 755.80 744.45 765.27 
3419 752.02 744.47 765.27 
3420 758.03 744.73 765.27 
3421 752.31 744.57 765.27 
3422 750.73 744.62 765.27 
3423 756.44 744.55 765.27 
3424 755.13 744.76 765.27 
3425 755.93 744.68 765.27 
3426 755.24 744.54 765.27 
3427 759.44 744.92 765.27 
3428 758.06 744.77 765.27 
3429 754.15 744.82 765.27 
3430 755.20 744.90 765.27 
3431 753.37 744.95 765.27 
3432 753.43 744.91 765.27 
3433 750.62 744.76 765.27 
3434 753.86 744.94 765.27 
3435 759.86 744.68 765.27 
3436 749.30 745.01 765.27 
3437 759.78 744.78 765.27 
3438 754.77 744.15 765.27 
3439 756.42 744.35 765.27 
3440 756.44 745.17 765.27 
3441 762.26 744.70 765.27 
3442 759.58 745.16 765.27 
3443 755.38 745.17 765.27 
3444 751.56 745.27 765.27 
3445 754.33 745.26 765.27 
3446 753.57 745.35 765.27 
3447 752.69 745.37 765.27 
3448 760.32 744.96 765.27 
3449 754.21 744.72 765.27 
3450 757.25 744.16 765.27 
3451 755.43 744.43 765.27 
3452 754.28 744.53 765.27 
3453 752.90 744.53 765.27 
3454 751.39 744.44 765.27 
3455 757.98 744.79 765.27 
3456 756.79 745.12 765.27 
3457 757.74 744.66 765.27 
3458 757.70 745.00 765.27 
3459 750.31 744.44 765.27 
3460 756.21 744.30 765.27 
3461 753.40 745.53 765.27 
3462 759.60 745.56 765.27 
3463 758.13 745.22 765.27 
3464 753.78 744.38 765.27 
3465 753.69 744.66 765.27 
3466 757.90 744.97 765.27 
3467 755.83 744.43 765.27 
3468 750.94 744.52 765.27 
3469 749.38 744.27 765.27 
3470 759.91 744.89 765.27 
3471 753.40 745.27 765.27 
3472 755.39 745.35 765.27 
3473 752.18 745.07 765.27 
3474 754.19 745.17 765.27 
3475 755.73 745.34 765.27 
3476 756.65 745.33 765.27 
3477 761.18 745.20 765.27 
3478 750.78 745.16 765.27 
3479 756.53 745.21 765.27 
3480 751.98 745.33 765.27 
3481 758.85 745.27 765.27 
3482 757.70 745.36 765.27 
3483 755.33 745.32 765.27 
3484 752.89 745.28 765.27 
3485 748.67 744.95 765.27 
3486 751.41 745.02 765.27 
3487 757.20 745.21 765.27 
3488 756.84 745.35 765.27 
3489 752.42 745.31 765.27 
3490 753.93 745.56 765.27 
3491 757.10 745.54 765.27 
3492 752.55 745.54 765.27 
3493 756.65 746.01 765.27 
3494 753.86 745.70 765.27 
3495 757.63 745.54 765.27 
3496 754.72 745.67 765.27 
3497 756.87 745.71 765.27 
3498 748.97 745.99 765.27 
3499 756.11 745.97 765.27 
3500 752.52 746.06 765.27 
3501 754.67 746.13 765.27 
3502 753.58 745.69 765.27 
3503 751.20 745.89 765.27 
3504 755.61 745.89 765.27 
3505 754.79 746.09 765.27 
3506 759.83 746.19 765.27 
3507 748.55 746.35 765.27 
3508 755.10 746.23 765.27 
3509 753.71 745.72 765.27 
3510 756.36 746.39 765.27 
3511 752.01 746.16 765.27 
3512 760.41 746.00 765.27 
3513 758.61 744.58 765.27 
3514 749.36 744.55 765.27 
3515 750.60 744.61 765.27 
3516 754.71 745.87 765.27 
3517 753.63 745.42 765.27 
3518 750.94 745.31 765.27 
3519 755.18 745.24 765.27 
3520 753.36 745.48 765.27 
3521 752.94 745.91 765.27 
3522 758.40 745.56 765.27 
3523 755.19 745.90 765.27 
3524 754.24 745.62 765.27 
3525 753.13 746.06 765.27 
3526 750.83 745.70 765.27 
3527 754.18 745.81 765.27 
3528 758.86 745.78 765.27 
3529 753.57 745.04 765.27 
3530 755.70 745.23 765.27 
3531 758.38 745.88 765.27 
3532 750.45 745.91 765.27 
3533 749.16 745.76 765.27 
3534 753.85 744.67 765.27 
3535 750.84 745.74 765.27 
3536 756.35 745.72 765.27 
3537 755.28 745.67 765.27 
3538 747.68 746.20 765.27 
3539 750.34 745.80 765.27 
3540 755.07 746.39 765.27 
3541 758.19 746.62 765.27 
3542 750.42 746.32 765.27 
3543 754.54 746.21 765.27 
3544 753.61 746.24 765.27 
3545 756.57 746.20 765.27 
3546 754.54 746.18 765.27 
3547 754.56 746.03 765.27 
3548 755.95 745.93 765.27 
3549 754.84 745.93 765.27 
3550 758.26 745.59 765.27 
3551 757.18 746.00 765.27 
3552 759.21 745.81 765.27 
3553 754.64 745.66 765.27 
3554 759.43 745.62 765.27 
3555 753.95 745.84 765.27 
3556 753.07 745.92 765.27 
3557 757.02 746.14 765.27 
3558 755.89 746.59 765.27 
3559 759.75 746.08 765.27 
3560 754.38 746.14 765.27 
3561 750.56 745.88 765.27 
3562 753.03 745.81 765.27 
3563 754.36 745.77 765.27 
3564 763.39 745.58 765.27 
3565 751.59 745.58 765.27 
3566 753.99 745.26 765.27 
3567 750.89 745.93 765.27 
3568 749.51 745.88 765.27 
3569 751.19 746.11 765.27 
3570 760.05 746.15 765.27 
3571 756.23 746.21 765.27 
3572 754.06 746.01 765.27 
3573 754.63 746.29 765.27 
3574 755.97 746.20 765.27 
3575 756.86 746.23 765.27 
3576 751.53 745.82 765.27 
3577 751.74 745.65 765.27 
3578 752.68 745.65 765.27 
3579 751.57 745.68 765.27 
3580 757.80 745.45 765.27 
3581 754.40 745.37 765.27 
3582 757.18 745.31 765.27 
3583 755.58 745.02 765.27 
3584 751.27 745.50 765.27 
3585 757.82 745.15 765.27 
3586 753.95 745.42 765.27 
3587 755.80 745.43 765.27 
3588 757.40 745.52 765.27 
3589 752.17 745.35 765.27 
3590 754.15 745.82 765.27 
3591 756.95 745.08 765.27 
3592 756.55 745.77 765.27 
3593 755.22 745.36 765.27 
3594 751.04 745.79 765.27 
3595 755.34 745.67 765.27 
3596 757.07 745.52 765.27 
3597 755.79 745.30 765.27 
3598 754.88 745.18 765.27 
3599 749.97 745.15 765.27 
3600 764.77 745.26 765.27 
3601 757.97 745.28 765.27 
3602 756.96 745.34 765.27 
3603 757.07 744.84 765.27 
3604 754.43 745.06 765.27 
3605 756.04 744.81 765.27 
3606 752.96 745.07 765.27 
3607 752.40 745.33 765.27 
3608 755.09 745.47 765.27 
3609 751.90 745.46 765.27 
3610 754.26 745.52 765.27 
3611 747.94 745.16 765.27 
3612 752.44 745.31 765.27 
3613 756.51 745.29 765.27 
3614 756.21 745.21 765.27 
3615 751.80 745.42 765.27 
3616 750.90 745.49 765.27 
3617 754.37 745.54 765.27 
3618 761.23 745.59 765.27 
3619 752.06 745.53 765.27 
3620 756.54 745.52 765.27 
3621 755.90 745.34 765.27 
3622 757.04 745.39 765.27 
3623 757.62 744.72 765.27 
3624 754.44 744.77 765.27 
3625 754.53 745.30 765.27 
3626 754.09 745.29 765.27 
3627 754.97 745.43 765.27 
3628 758.66 745.15 765.27 
3629 756.61 745.15 765.27 
3630 752.79 744.73 765.27 
3631 756.64 744.92 765.27 
3632 764.61 744.97 765.27 
3633 755.41 745.12 765.27 
3634 753.27 745.51 765.27 
3635 758.38 745.35 765.27 
3636 753.04 745.28 765.27 
3637 754.31 745.11 765.27 
3638 756.92 745.13 765.27 
3639 750.50 745.15 765.27 
3640 751.70 745.30 765.27 
3641 755.14 745.32 765.27 
3642 755.60 745.49 765.27 
3643 764.07 745.49 765.27 
3644 752.38 745.10 765.27 
3645 754.77 745.52 765.27 
3646 749.25 745.52 765.27 
3647 757.60 745.47 765.27 
3648 757.59 745.47 765.27 
3649 753.13 745.31 765.27 
3650 753.86 745.39 765.27 
3651 758.18 745.35 765.27 
3652 757.13 745.31 765.27 
3653 757.11 745.02 765.27 
3654 754.01 745.29 765.27 
3655 753.31 744.95 765.27 
3656 754.17 744.97 765.27 
3657 756.38 745.08 765.27 
3658 756.64 745.34 765.27 
3659 753.53 745.38 765.27 
3660 753.60 745.37 765.27 
3661 749.65 745.39 765.27 
3662 748.86 745.39 765.27 
3663 753.43 745.09 765.27 
3664 752.53 745.14 765.27 
3665 756.19 745.26 765.27 
3666 753.58 744.91 765.27 
3667 755.35 744.88 765.27 
3668 758.46 745.00 765.27 
3669 753.97 744.63 765.27 
3670 754.09 744.89 765.27 
3671 757.38 744.88 765.27 
3672 748.26 744.80 765.27 
3673 758.24 744.91 765.27 
3674 758.41 744.99 765.27 
3675 748.51 744.88 765.27 
3676 757.66 744.86 765.27 
3677 749.73 744.86 765.27 
3678 754.39 744.78 765.27 
3679 751.21 744.27 765.27 
3680 751.13 744.32 765.27 
3681 756.20 744.41 765.27 
3682 755.54 745.33 765.27 
3683 755.29 744.89 765.27 
3684 759.24 744.97 765.27 
3685 756.30 744.94 765.27 
3686 757.73 744.91 765.27 
3687 755.24 744.77 765.27 
3688 750.50 745.12 765.27 
3689 747.57 744.83 765.27 
3690 754.41 744.51 765.27 
3691 751.50 744.61 765.27 
3692 751.33 745.02 765.27 
3693 750.16 745.02 765.27 
3694 758.99 744.98 765.27 
3695 755.44 745.18 765.27 
3696 756.15 745.24 765.27 
3697 757.84 745.25 765.27 
3698 758.91 745.50 765.27 
3699 756.80 745.51 765.27 
3700 752.35 745.46 765.27 
3701 759.67 745.58 765.27 
3702 757.94 745.45 765.27 
3703 755.39 745.64 765.27 
3704 753.07 745.67 765.27 
3705 752.94 745.77 765.27 
3706 753.62 745.44 765.27 
3707 752.36 745.40 765.27 
3708 760.35 745.28 765.27 
3709 755.57 745.26 765.27 
3710 758.88 745.18 765.27 
3711 758.54 745.58 765.27 
3712 755.09 745.25 765.27 
3713 754.07 745.46 765.27 
3714 748.20 744.90 765.27 
3715 750.08 745.24 765.27 
3716 755.21 745.24 765.27 
3717 754.26 745.17 765.27 
3718 753.22 745.30 765.27 
3719 758.61 745.26 765.27 
3720 760.34 745.72 765.27 
3721 750.81 745.02 765.27 
3722 760.59 745.58 765.27 
3723 760.37 745.42 765.27 
3724 750.51 745.56 765.27 
3725 756.42 745.32 765.27 
3726 753.05 745.71 765.27 
3727 749.87 745.88 765.27 
3728 753.09 745.75 765.27 
3729 757.10 745.00 765.27 
3730 752.82 745.57 765.27 
3731 756.10 745.20 765.27 
3732 748.54 745.16 765.27 
3733 753.55 745.50 765.27 
3734 753.34 746.43 765.27 
3735 755.45 746.14 765.27 
3736 755.78 746.26 765.27 
3737 751.57 746.51 765.27 
3738 758.15 746.31 765.27 
3739 754.56 746.45 765.27 
3740 756.10 746.61 765.27 
3741 753.71 746.53 765.27 
3742 755.79 746.62 765.27 
3743 757.71 746.62 765.27 
3744 755.34 746.52 765.27 
3745 754.62 746.15 765.27 
3746 750.87 746.34 765.27 
3747 758.17 746.33 765.27 
3748 751.60 746.59 765.27 
3749 757.23 746.75 765.27 
3750 756.23 746.66 765.27 
3751 755.56 746.52 765.27 
3752 753.93 746.49 765.27 
3753 756.65 746.67 765.27 
3754 753.69 746.32 765.27 
3755 750.94 746.53 765.27 
3756 755.07 746.61 765.27 
3757 753.46 746.59 765.27 
3758 756.99 746.47 765.27 
3759 756.31 746.55 765.27 
3760 756.48 746.68 765.27 
3761 753.31 746.47 765.27 
3762 755.04 746.59 765.27 
3763 755.75 746.46 765.27 
3764 752.32 746.68 765.27 
3765 753.42 745.93 765.27 
3766 757.26 746.84 765.27 
3767 755.55 746.38 765.27 
3768 757.68 745.86 765.27 
3769 751.32 746.24 765.27 
3770 757.80 746.14 765.27 
3771 752.74 745.78 765.27 
3772 750.01 745.15 765.27 
3773 757.28 745.11 765.27 
3774 750.91 746.06 765.27 
3775 750.61 745.59 765.27 
3776 756.06 744.58 765.27 
3777 759.56 745.04 765.27 
3778 752.07 745.90 765.27 
3779 756.68 745.64 765.27 
3780 753.98 745.29 765.27 
3781 754.10 745.26 765.27 
3782 751.69 745.16 765.27 
3783 756.94 745.77 765.27 
3784 750.52 745.96 765.27 
3785 757.97 746.20 765.27 
3786 757.26 746.59 765.27 
3787 752.30 745.45 765.27 
3788 757.17 745.87 765.27 
3789 749.24 745.64 765.27 
3790 757.18 745.60 765.27 
3791 746.50 745.69 765.27 
3792 754.76 745.83 765.27 
3793 760.47 746.20 765.27 
3794 752.50 745.16 765.27 
3795 759.42 746.14 765.27 
3796 759.30 745.84 765.27 
3797 755.23 745.42 765.27 
3798 757.76 745.24 765.27 
3799 762.04 745.92 765.27 
3800 755.26 745.91 765.27 
3801 753.87 745.88 765.27 
3802 756.68 745.91 765.27 
3803 757.33 745.88 765.27 
3804 752.17 745.93 765.27 
3805 751.46 745.92 765.27 
3806 751.32 745.86 765.27 
3807 754.27 745.73 765.27 
3808 754.83 745.53 765.27 
3809 752.41 745.62 765.27 
3810 755.52 745.58 765.27 
3811 754.33 745.69 765.27 
3812 749.60 745.47 765.27 
3813 753.60 745.45 765.27 
3814 756.90 745.42 765.27 
3815 756.98 745.44 765.27 
3816 754.54 745.46 765.27 
3817 754.47 745.43 765.27 
3818 752.63 745.27 765.27 
3819 755.71 745.41 765.27 
3820 753.21 744.71 765.27 
3821 757.31 745.67 765.27 
3822 753.51 745.72 765.27 
3823 758.36 745.68 765.27 
3824 755.78 745.63 765.27 
3825 752.36 745.88 765.27 
3826 751.68 745.98 765.27 
3827 751.02 746.05 765.27 
3828 755.97 745.96 765.27 
3829 755.33 746.00 765.27 
3830 758.16 746.14 765.27 
3831 753.17 746.04 765.27 
3832 761.92 746.18 765.27 
3833 758.78 746.29 765.27 
3834 755.97 745.73 765.27 
3835 750.43 745.07 765.27 
3836 750.27 745.18 765.27 
3837 753.43 745.50 765.27 
3838 751.18 744.94 765.27 
3839 754.12 745.12 765.27 
3840 755.05 744.59 765.27 
3841 756.31 744.14 765.27 
3842 755.13 743.69 765.27 
3843 756.24 743.23 765.27 
3844 752.89 743.45 765.27 
3845 752.54 742.99 765.27 
3846 752.82 741.47 765.27 
3847 751.83 742.71 765.27 
3848 749.67 743.60 765.27 
3849 752.04 743.16 765.27 
3850 753.52 744.66 765.27 
3851 750.66 744.71 765.27 
3852 751.35 744.75 765.27 
3853 756.36 744.10 765.27 
3854 760.02 743.14 765.27 
3855 757.77 742.38 765.27 
3856 751.25 742.91 765.27 
3857 755.55 741.30 765.27 
3858 755.47 741.24 765.27 
3859 751.60 741.05 765.27 
3860 756.81 740.84 765.27 
3861 754.32 742.16 765.27 
3862 755.65 741.63 765.27 
3863 756.84 740.61 765.27 
3864 748.71 741.75 765.27 
3865 755.80 742.43 765.27 
3866 751.97 742.02 765.27 
3867 754.30 741.69 765.27 
3868 751.96 741.99 765.27 
3869 752.61 742.04 765.27 
3870 753.48 742.69 765.27 
3871 753.15 742.68 765.27 
3872 751.88 742.73 765.27 
3873 752.69 742.83 765.27 
3874 753.62 743.01 765.27 
3875 755.07 743.16 765.27 
3876 754.24 741.96 765.27 
3877 751.91 741.33 765.27 
3878 752.14 742.77 765.27 
3879 755.21 743.01 765.27 
3880 754.04 745.30 765.27 
3881 758.25 746.08 765.27 
3882 751.39 745.59 765.27 
3883 751.52 745.46 765.27 
3884 756.47 745.31 765.27 
3885 752.46 745.28 765.27 
3886 754.64 745.14 765.27 
3887 752.12 745.04 765.27 
3888 752.94 745.56 765.27 
3889 756.54 745.76 765.27 
3890 757.96 745.27 765.27 
3891 749.48 745.48 765.27 
3892 749.65 745.55 765.27 
3893 752.76 745.59 765.27 
3894 752.93 745.73 765.27 
3895 751.73 745.66 765.27 
3896 754.10 745.39 765.27 
3897 753.21 745.30 765.27 
3898 755.72 745.43 765.27 
3899 750.68 745.18 765.27 
3900 757.82 745.08 765.27 
3901 752.65 745.12 765.27 
3902 758.69 745.41 765.27 
3903 753.48 745.18 765.27 
3904 754.08 745.38 765.27 
3905 759.22 745.59 765.27 
3906 751.91 745.52 765.27 
3907 753.97 745.52 765.27 
3908 752.44 745.41 765.27 
3909 754.71 745.24 765.27 
3910 755.55 745.51 765.27 
3911 749.83 745.33 765.27 
3912 753.48 745.64 765.27 
3913 756.82 745.37 765.27 
3914 753.29 745.21 765.27 
3915 752.44 744.95 765.27 
3916 753.72 745.26 765.27 
3917 746.49 745.39 765.27 
3918 756.25 745.54 765.27 
3919 753.97 745.27 765.27 
3920 749.86 745.15 765.27 
3921 757.43 745.19 765.27 
3922 752.42 745.01 765.27 
3923 753.74 745.28 765.27 
3924 753.36 745.18 765.27 
3925 751.21 745.34 765.27 
3926 753.23 745.30 765.27 
3927 753.48 745.43 765.27 
3928 747.56 745.52 765.27 
3929 757.40 745.60 765.27 
3930 756.19 745.49 765.27 
3931 753.67 745.61 765.27 
3932 757.70 745.61 765.27 
3933 753.47 745.57 765.27 
3934 752.39 745.59 765.27 
3935 753.41 745.62 765.27 
3936 752.64 745.62 765.27 
3937 753.61 745.73 765.27 
3938 757.69 745.70 765.27 
3939 755.57 745.77 765.27 
3940 751.29 745.70 765.27 
3941 756.09 745.70 765.27 
3942 754.97 745.44 765.27 
3943 753.24 745.30 765.27 
3944 755.32 745.38 765.27 
3945 751.54 745.48 765.27 
3946 761.88 745.73 765.27 
3947 758.18 745.79 765.27 
3948 755.14 745.94 765.27 
3949 749.78 745.89 765.27 
3950 758.43 746.03 765.27 
3951 758.96 745.84 765.27 
3952 752.72 746.14 765.27 
3953 756.89 746.01 765.27 
3954 755.11 745.96 765.27 
3955 753.18 746.10 765.27 
3956 752.55 746.20 765.27 
3957 752.97 746.34 765.27 
3958 749.44 746.19 765.27 
3959 750.47 745.82 765.27 
3960 753.40 745.86 765.27 
3961 754.88 746.04 765.27 
3962 753.17 746.12 765.27 
3963 756.54 746.34 765.27 
3964 754.81 746.34 765.27 
3965 758.79 746.21 765.27 
3966 755.41 746.13 765.27 
3967 752.69 745.94 765.27 
3968 750.02 746.00 765.27 
3969 756.98 746.12 765.27 
3970 755.44 746.17 765.27 
3971 757.12 746.06 765.27 
3972 757.04 746.17 765.27 
3973 750.14 746.19 765.27 
3974 756.50 746.09 765.27 
3975 752.39 745.94 765.27 
3976 748.73 745.37 765.27 
3977 748.49 745.76 765.27 
3978 754.18 745.60 765.27 
3979 752.17 745.79 765.27 
3980 754.32 745.91 765.27 
3981 757.59 745.70 765.27 
3982 752.74 745.73 765.27 
3983 756.64 745.72 765.27 
3984 753.59 746.02 765.27 
3985 751.68 745.90 765.27 
3986 756.84 745.91 765.27 
3987 754.95 746.41 765.27 
3988 752.68 746.30 765.27 
3989 765.33 746.35 765.27 
3990 751.40 746.23 765.33 
3991 753.47 745.50 765.33 
3992 755.12 746.00 765.33 
3993 753.46 746.15 765.33 
3994 755.76 746.08 765.33 
3995 754.79 745.82 765.33 
3996 755.19 745.74 765.33 
3997 763.93 745.65 765.33 
3998 755.80 745.59 765.33 
3999 757.44 745.36 765.33 
4000 748.95 746.20 765.33 
4001 757.74 746.21 765.33 
4002 755.16 745.84 765.33 
4003 751.04 746.32 765.33 
4004 752.92 746.26 765.33 
4005 756.84 746.09 765.33 
4006 751.60 746.14 765.33 
4007 761.31 746.20 765.33 
4008 755.65 746.20 765.33 
4009 754.71 745.98 765.33 
4010 748.21 745.79 765.33 
4011 750.94 745.96 765.33 
4012 753.48 746.02 765.33 
4013 757.44 746.03 765.33 
4014 753.74 746.07 765.33 
4015 759.41 746.07 765.33 
4016 755.57 746.15 765.33 
4017 758.32 745.97 765.33 
4018 750.67 745.94 765.33 
4019 760.35 745.80 765.33 
4020 753.17 745.72 765.33 
4021 754.76 745.72 765.33 
4022 753.02 745.89 765.33 
4023 753.86 746.04 765.33 
4024 754.97 745.69 765.33 
4025 756.76 745.78 765.33 
4026 755.67 745.78 765.33 
4027 755.50 745.78 765.33 
4028 761.13 745.76 765.33 
4029 750.26 745.72 765.33 
4030 754.81 745.76 765.33 
4031 754.00 745.59 765.33 
4032 755.59 745.64 765.33 
4033 751.16 745.50 765.33 
4034 748.81 745.36 765.33 
4035 752.54 744.79 765.33 
4036 748.38 745.47 765.33 
4037 752.28 745.19 765.33 
4038 754.36 745.33 765.33 
4039 750.38 745.28 765.33 
4040 752.80 745.13 765.33 
4041 755.75 745.16 765.33 
4042 755.84 745.41 765.33 
4043 756.64 744.84 765.33 
4044 748.00 744.84 765.33 
4045 753.37 745.63 765.33 
4046 757.14 745.63 765.33 
4047 752.43 745.74 765.33 
4048 757.74 745.45 765.33 
4049 757.84 743.46 765.33 
4050 756.86 743.99 765.33 
4051 751.85 744.19 765.33 
4052 753.63 743.31 765.33 
4053 752.27 742.22 765.33 
4054 751.90 743.01 765.33 
4055 755.64 742.69 765.33 
4056 750.97 745.49 765.33 
4057 752.19 745.51 765.33 
4058 754.13 744.73 765.33 
4059 755.49 745.59 765.33 
4060 749.77 745.52 765.33 
4061 751.40 745.52 765.33 
4062 747.66 745.22 765.33 
4063 758.63 744.40 765.33 
4064 752.67 745.20 765.33 
4065 760.71 742.55 765.33 
4066 754.44 743.54 765.33 
4067 752.08 744.34 765.33 
4068 755.94 743.74 765.33 
4069 754.89 744.18 765.33 
4070 754.22 744.52 765.33 
4071 748.41 743.18 765.33 
4072 752.52 743.60 765.33 
4073 749.83 744.34 765.33 
4074 753.15 743.54 765.33 
4075 755.66 743.64 765.33 
4076 759.64 742.55 765.33 
4077 747.01 743.79 765.33 
4078 753.32 743.95 765.33 
4079 753.40 744.15 765.33 
4080 759.19 743.79 765.33 
4081 751.38 744.13 765.33 
4082 755.35 744.22 765.33 
4083 753.78 744.13 765.33 
4084 754.43 744.52 765.33 
4085 753.75 744.39 765.33 
4086 754.65 744.07 765.33 
4087 753.25 744.08 765.33 
4088 751.56 744.61 765.33 
4089 752.10 744.71 765.33 
4090 757.76 744.84 765.33 
4091 753.05 744.80 765.33 
4092 752.89 744.91 765.33 
4093 755.24 744.74 765.33 
4094 755.97 744.84 765.33 
4095 757.84 744.90 765.33 
4096 759.69 744.38 765.33 
4097 755.77 744.44 765.33 
4098 757.14 744.60 765.33 
4099 754.67 744.26 765.33 
4100 749.79 744.49 765.33 
4101 751.68 744.29 765.33 
4102 757.08 744.23 765.33 
4103 748.25 744.31 765.33 
4104 755.39 744.31 765.33 
4105 750.26 744.36 765.33 
4106 746.72 744.30 765.33 
4107 754.50 744.85 765.33 
4108 748.21 744.27 765.33 
4109 748.32 744.35 765.33 
4110 745.19 744.53 765.33 
4111 748.74 744.39 765.33 
4112 753.17 744.45 765.33 
4113 753.02 744.76 765.33 
4114 753.36 744.99 765.33 
4115 755.43 744.69 765.33 
4116 755.67 744.53 765.33 
4117 751.17 744.76 765.33 
4118 748.42 744.80 765.33 
4119 753.93 744.82 765.33 
4120 756.14 744.68 765.33 
4121 750.03 744.62 765.33 
4122 751.05 744.75 765.33 
4123 751.95 744.64 765.33 
4124 753.88 744.32 765.33 
4125 751.10 744.64 765.33 
4126 750.51 744.53 765.33 
4127 753.43 744.80 765.33 
4128 753.80 744.56 765.33 
4129 751.74 744.82 765.33 
4130 757.17 744.97 765.33 
4131 745.94 744.95 765.33 
4132 753.42 744.87 765.33 
4133 748.92 744.38 765.33 
4134 752.27 744.43 765.33 
4135 757.73 744.15 765.33 
4136 751.08 744.29 765.33 
4137 749.96 744.26 765.33 
4138 750.32 744.25 765.33 
4139 753.00 744.33 765.33 
4140 758.66 744.47 765.33 
4141 755.31 744.57 765.33 
4142 747.39 744.64 765.33 
4143 756.55 744.61 765.33 
4144 749.49 744.55 765.33 
4145 748.64 744.63 765.33 
4146 750.54 744.62 765.33 
4147 749.93 744.73 765.33 
4148 759.03 744.64 765.33 
4149 752.88 744.85 765.33 
4150 753.71 744.78 765.33 
4151 749.95 744.81 765.33 
4152 754.89 744.84 765.33 
4153 747.95 744.86 765.33 
4154 757.36 744.91 765.33 
4155 752.23 744.92 765.33 
4156 757.62 744.78 765.33 
4157 748.47 744.76 765.33 
4158 753.43 744.83 765.33 
4159 747.51 744.79 765.33 
4160 752.63 744.80 765.33 
4161 756.58 744.77 765.33 
4162 753.32 743.99 765.33 
4163 758.40 744.71 765.33 
4164 755.37 744.71 765.33 
4165 751.51 744.74 765.33 
4166 753.26 744.71 765.33 
4167 754.34 744.72 765.33 
4168 754.56 744.75 765.33 
4169 753.66 744.77 765.33 
4170 747.88 744.83 765.33 
4171 756.86 744.52 765.33 
4172 752.30 744.58 765.33 
4173 752.31 744.58 765.33 
4174 757.93 744.52 765.33 
4175 754.53 744.56 765.33 
4176 753.87 744.59 765.33 
4177 753.14 744.54 765.33 
4178 753.79 744.56 765.33 
4179 750.56 744.46 765.33 
4180 758.24 744.58 765.33 
4181 760.15 744.49 765.33 
4182 752.32 744.42 765.33 
4183 751.77 744.50 765.33 
4184 755.42 744.38 765.33 
4185 752.20 744.30 765.33 
4186 755.69 744.39 765.33 
4187 756.38 744.38 765.33 
4188 760.74 744.34 765.33 
4189 752.06 744.37 765.33 
4190 754.21 744.44 765.33 
4191 751.85 744.42 765.33 
4192 756.70 744.48 765.33 
4193 751.52 744.51 765.33 
4194 751.56 744.53 765.33 
4195 747.35 744.50 765.33 
4196 757.89 744.50 765.33 
4197 746.85 744.47 765.33 
4198 755.84 744.49 765.33 
4199 751.95 744.18 765.33 
4200 752.12 744.41 765.33 
4201 756.08 744.39 765.33 
4202 753.53 744.43 765.33 
4203 743.91 744.49 765.33 
4204 743.01 744.43 765.33 
4205 753.23 744.59 765.33 
4206 752.09 744.34 765.33 
4207 756.86 744.33 765.33 
4208 755.31 744.47 765.33 
4209 754.33 744.48 765.33 
4210 748.68 744.53 765.33 
4211 747.94 744.74 765.33 
4212 754.38 744.55 765.33 
4213 750.79 744.50 765.33 
4214 750.68 744.50 765.33 
4215 749.16 744.50 765.33 
4216 751.81 744.72 765.33 
4217 751.99 744.67 765.33 
4218 751.37 744.40 765.33 
4219 758.77 744.38 765.33 
4220 746.32 744.42 765.33 
4221 750.06 744.68 765.33 
4222 751.67 744.62 765.33 
4223 757.50 744.55 765.33 
4224 754.41 744.59 765.33 
4225 749.62 744.61 765.33 
4226 754.08 744.73 765.33 
4227 751.40 744.67 765.33 
4228 756.69 744.68 765.33 
4229 751.39 744.64 765.33 
4230 756.29 744.66 765.33 
4231 753.15 744.57 765.33 
4232 752.90 744.40 765.33 
4233 753.81 744.49 765.33 
4234 748.24 744.77 765.33 
4235 751.81 744.58 765.33 
4236 748.56 744.70 765.33 
4237 756.09 744.74 765.33 
4238 752.22 744.72 765.33 
4239 749.13 744.73 765.33 
4240 753.29 744.47 765.33 
4241 756.91 744.83 765.33 
4242 755.95 744.55 765.33 
4243 749.83 744.29 765.33 
4244 750.98 744.27 765.33 
4245 753.94 744.11 765.33 
4246 753.99 744.11 765.33 
4247 758.79 744.34 765.33 
4248 750.14 744.14 765.33 
4249 753.06 744.17 765.33 
4250 756.01 744.21 765.33 
4251 752.45 744.21 765.33 
4252 752.24 744.26 765.33 
4253 750.11 744.24 765.33 
4254 750.14 744.07 765.33 
4255 750.66 744.00 765.33 
4256 756.91 743.96 765.33 
4257 749.10 744.19 765.33 
4258 754.20 744.17 765.33 
4259 756.64 744.14 765.33 
4260 752.80 744.18 765.33 
4261 754.49 744.19 765.33 
4262 757.77 744.09 765.33 
4263 750.93 744.39 765.33 
4264 752.09 744.15 765.33 
4265 751.17 744.22 765.33 
4266 753.54 743.89 765.33 
4267 750.52 743.97 765.33 
4268 756.49 744.03 765.33 
4269 755.85 743.83 765.33 
4270 757.11 744.32 765.33 
4271 749.31 744.14 765.33 
4272 757.98 743.88 765.33 
4273 748.23 743.58 765.33 
4274 754.63 743.88 765.33 
4275 754.01 744.19 765.33 
4276 752.57 743.95 765.33 
4277 750.10 744.02 765.33 
4278 749.01 744.47 765.33 
4279 746.71 744.41 765.33 
4280 752.56 744.41 765.33 
4281 754.72 744.38 765.33 
4282 756.47 744.53 765.33 
4283 757.07 744.57 765.33 
4284 753.11 744.61 765.33 
4285 756.59 744.56 765.33 
4286 756.04 744.54 765.33 
4287 746.71 744.40 765.33 
4288 748.96 744.53 765.33 
4289 749.30 744.30 765.33 
4290 759.83 744.50 765.33 
4291 748.41 744.60 765.33 
4292 760.07 744.52 765.33 
4293 746.54 744.42 765.33 
4294 747.19 744.40 765.33 
4295 750.66 744.41 765.33 
4296 752.63 744.56 765.33 
4297 751.49 744.48 765.33 
4298 748.78 744.44 765.33 
4299 750.21 744.29 765.33 
4300 756.02 744.35 765.33 
4301 750.27 744.22 765.33 
4302 752.57 744.39 765.33 
4303 754.49 744.41 765.33 
4304 749.80 744.35 765.33 
4305 756.43 744.25 765.33 
4306 750.40 744.33 765.33 
4307 754.61 744.21 765.33 
4308 756.15 744.18 765.33 
4309 746.71 744.20 765.33 
4310 754.38 744.20 765.33 
4311 752.94 744.28 765.33 
4312 757.02 744.41 765.33 
4313 754.62 744.94 765.33 
4314 755.43 744.78 765.33 
4315 755.68 744.78 765.33 
4316 755.00 744.80 765.33 
4317 754.38 744.81 765.33 
4318 753.33 744.49 765.33 
4319 755.96 745.08 765.33 
4320 754.00 744.82 765.33 
4321 757.93 744.54 765.33 
4322 748.28 744.57 765.33 
4323 750.29 744.40 765.33 
4324 754.10 744.80 765.33 
4325 749.36 744.88 765.33 
4326 757.20 744.70 765.33 
4327 753.87 744.51 765.33 
4328 749.24 744.89 765.33 
4329 751.21 744.78 765.33 
4330 748.18 744.68 765.33 
4331 752.68 744.66 765.33 
4332 753.16 744.96 765.33 
4333 755.58 744.97 765.33 
4334 751.74 744.65 765.33 
4335 750.56 744.44 765.33 
4336 754.11 744.23 765.33 
4337 757.47 744.10 765.33 
4338 755.65 743.98 765.33 
4339 755.41 743.74 765.33 
4340 751.70 744.49 765.33 
4341 751.34 744.33 765.33 
4342 755.29 744.27 765.33 
4343 750.94 744.59 765.33 
4344 756.00 745.32 765.33 
4345 751.08 745.08 765.33 
4346 744.98 745.59 765.33 
4347 757.50 745.46 765.33 
4348 749.13 745.28 765.33 
4349 748.28 745.25 765.33 
4350 755.96 745.01 765.33 
4351 749.38 745.08 765.33 
4352 751.16 745.37 765.33 
4353 751.31 745.07 765.33 
4354 747.81 745.24 765.33 
4355 754.82 745.10 765.33 
4356 756.47 745.05 765.33 
4357 750.11 745.11 765.33 
4358 751.85 745.12 765.33 
4359 752.36 745.35 765.33 
4360 751.94 745.08 765.33 
4361 756.57 745.05 765.33 
4362 755.59 744.97 765.33 
4363 751.69 745.24 765.33 
4364 751.45 745.23 765.33 
4365 755.76 744.75 765.33 
4366 749.73 744.98 765.33 
4367 751.81 745.02 765.33 
4368 754.29 745.05 765.33 
4369 746.25 745.02 765.33 
4370 756.63 745.24 765.33 
4371 750.54 745.35 765.33 
4372 757.39 745.31 765.33 
4373 754.88 745.11 765.33 
4374 753.66 745.13 765.33 
4375 753.48 745.16 765.33 
4376 749.01 745.15 765.33 
4377 752.87 745.12 765.33 
4378 753.25 745.10 765.33 
4379 755.79 745.06 765.33 
4380 756.92 745.03 765.33 
4381 750.56 745.02 765.33 
4382 752.07 744.98 765.33 
4383 749.32 744.91 765.33 
4384 748.25 744.88 765.33 
4385 751.39 744.83 765.33 
4386 757.10 744.79 765.33 
4387 750.43 744.78 765.33 
4388 748.35 744.54 765.33 
4389 752.51 744.65 765.33 
4390 752.73 744.83 765.33 
4391 753.72 745.02 765.33 
4392 750.84 744.84 765.33 
4393 751.70 745.02 765.33 
4394 751.78 744.28 765.33 
4395 751.53 744.17 765.33 
4396 754.76 744.88 765.33 
4397 748.48 744.88 765.33 
4398 753.50 745.07 765.33 
4399 749.95 745.10 765.33 
4400 756.56 744.90 765.33 
4401 752.58 744.91 765.33 
4402 752.54 744.85 765.33 
4403 756.13 744.92 765.33 
4404 754.93 744.88 765.33 
4405 755.26 744.80 765.33 
4406 757.60 744.83 765.33 
4407 758.28 744.79 765.33 
4408 748.94 744.76 765.33 
4409 758.77 744.80 765.33 
4410 751.63 744.87 765.33 
4411 757.25 744.99 765.33 
4412 750.88 744.78 765.33 
4413 750.77 745.24 765.33 
4414 754.56 744.98 765.33 
4415 751.85 744.93 765.33 
4416 753.46 745.08 765.33 
4417 758.23 745.04 765.33 
4418 753.63 745.16 765.33 
4419 754.86 745.12 765.33 
4420 749.45 744.99 765.33 
4421 752.78 744.71 765.33 
4422 758.37 745.18 765.33 
4423 752.62 745.15 765.33 
4424 754.20 745.08 765.33 
4425 746.25 744.83 765.33 
4426 752.73 744.90 765.33 
4427 751.53 744.69 765.33 
4428 747.73 744.91 765.33 
4429 756.05 744.43 765.33 
4430 756.11 744.65 765.33 
4431 756.09 745.14 765.33 
4432 750.99 744.34 765.33 
4433 755.39 744.71 765.33 
4434 753.54 745.03 765.33 
4435 752.27 745.11 765.33 
4436 754.24 745.18 765.33 
4437 752.26 744.14 765.33 
4438 749.17 745.17 765.33 
4439 758.63 744.82 765.33 
4440 752.46 744.84 765.33 
4441 754.90 744.69 765.33 
