Iter | Sampling Pol | Evaluation Pol | Best (Sampled) 
   0 12.09 -64.24 -100000000.00 
   1 242.54 -3.26 12.09 
   2 421.68 391.39 242.54 
   3 526.96 395.69 421.68 
   4 630.03 727.91 526.96 
   5 684.98 739.82 630.03 
   6 709.10 754.95 684.98 
   7 730.63 758.81 709.10 
   8 742.04 757.12 730.63 
   9 734.05 759.99 742.04 
  10 744.03 761.04 742.04 
  11 738.30 763.13 744.03 
  12 743.96 761.79 744.03 
  13 747.53 768.11 744.03 
  14 748.27 766.81 747.53 
  15 752.82 769.44 748.27 
  16 752.06 769.05 752.82 
  17 753.45 769.98 752.82 
  18 756.58 770.15 753.45 
  19 752.47 770.11 756.58 
  20 755.39 770.23 756.58 
  21 754.91 770.62 756.58 
  22 758.28 770.42 756.58 
  23 756.57 770.15 758.28 
  24 758.83 770.51 758.28 
  25 752.14 770.43 758.83 
  26 756.74 770.39 758.83 
  27 756.97 770.06 758.83 
  28 757.36 770.27 758.83 
  29 760.53 770.16 758.83 
  30 765.21 770.13 760.53 
  31 760.20 769.94 765.21 
  32 761.20 770.08 765.21 
  33 757.82 770.26 765.21 
  34 756.40 770.35 765.21 
  35 759.00 770.42 765.21 
  36 757.19 770.51 765.21 
  37 764.59 770.25 765.21 
  38 760.77 770.43 765.21 
  39 759.43 770.57 765.21 
  40 760.55 770.60 765.21 
  41 759.31 770.79 765.21 
  42 762.17 770.67 765.21 
  43 763.14 770.66 765.21 
  44 761.30 770.89 765.21 
  45 759.61 770.89 765.21 
  46 762.26 770.94 765.21 
  47 758.78 771.04 765.21 
  48 760.42 771.10 765.21 
  49 754.16 771.20 765.21 
  50 759.09 771.24 765.21 
  51 764.72 771.26 765.21 
  52 761.96 771.22 765.21 
  53 764.55 771.27 765.21 
  54 765.54 771.28 765.21 
  55 761.18 771.23 765.54 
  56 760.38 771.25 765.54 
  57 761.28 771.28 765.54 
  58 760.85 771.34 765.54 
  59 764.66 771.42 765.54 
  60 763.10 771.44 765.54 
  61 762.75 771.45 765.54 
  62 761.51 771.43 765.54 
  63 759.99 771.49 765.54 
  64 760.15 771.30 765.54 
  65 763.25 771.35 765.54 
  66 762.38 771.46 765.54 
  67 762.82 771.69 765.54 
  68 759.82 771.70 765.54 
  69 763.67 771.72 765.54 
  70 765.47 771.42 765.54 
  71 764.40 771.48 765.54 
  72 760.89 771.48 765.54 
  73 761.58 771.70 765.54 
  74 761.36 771.69 765.54 
  75 763.31 771.60 765.54 
  76 762.51 771.39 765.54 
  77 760.99 771.70 765.54 
  78 759.69 771.56 765.54 
  79 762.22 771.38 765.54 
  80 757.69 771.39 765.54 
  81 762.72 771.65 765.54 
  82 763.20 771.74 765.54 
  83 762.61 771.71 765.54 
  84 758.95 771.71 765.54 
  85 761.75 771.75 765.54 
  86 760.01 771.69 765.54 
  87 763.10 771.66 765.54 
  88 763.64 771.58 765.54 
  89 760.67 771.58 765.54 
  90 761.37 771.60 765.54 
  91 762.68 771.67 765.54 
  92 764.64 771.65 765.54 
  93 761.94 771.68 765.54 
  94 762.19 771.78 765.54 
  95 762.22 771.83 765.54 
  96 764.09 771.84 765.54 
  97 759.85 771.84 765.54 
  98 764.86 771.80 765.54 
  99 762.67 771.81 765.54 
 100 759.83 771.87 765.54 
 101 762.11 771.85 765.54 
 102 763.87 771.77 765.54 
 103 763.24 771.70 765.54 
 104 761.80 771.97 765.54 
 105 760.69 771.73 765.54 
 106 763.97 771.77 765.54 
 107 761.33 771.75 765.54 
 108 764.07 771.78 765.54 
 109 763.75 771.73 765.54 
 110 760.99 771.82 765.54 
 111 760.25 771.91 765.54 
 112 764.25 771.85 765.54 
 113 763.44 771.86 765.54 
 114 764.06 771.81 765.54 
 115 764.53 771.83 765.54 
 116 761.19 771.73 765.54 
 117 762.57 771.74 765.54 
 118 762.68 771.84 765.54 
 119 759.90 771.88 765.54 
 120 761.45 771.87 765.54 
 121 764.31 771.61 765.54 
 122 763.36 772.11 765.54 
 123 765.93 771.91 765.54 
 124 763.15 771.91 765.93 
 125 763.41 772.05 765.93 
 126 763.13 771.91 765.93 
 127 763.47 772.11 765.93 
 128 765.06 772.04 765.93 
 129 760.55 771.98 765.93 
 130 763.80 771.97 765.93 
 131 764.46 771.99 765.93 
 132 765.69 771.84 765.93 
 133 762.12 771.96 765.93 
 134 762.57 772.07 765.93 
 135 763.08 772.23 765.93 
 136 762.56 772.18 765.93 
 137 764.29 772.24 765.93 
 138 760.98 772.24 765.93 
 139 763.96 772.25 765.93 
 140 762.90 772.42 765.93 
 141 765.26 772.30 765.93 
 142 760.96 772.48 765.93 
 143 760.79 772.39 765.93 
 144 758.89 772.40 765.93 
 145 767.80 772.42 765.93 
 146 759.21 772.53 767.80 
 147 762.25 772.53 767.80 
 148 760.60 772.43 767.80 
 149 764.31 772.38 767.80 
 150 761.94 772.56 767.80 
 151 764.64 772.45 767.80 
 152 761.65 772.60 767.80 
 153 762.43 772.38 767.80 
 154 764.62 772.45 767.80 
 155 760.55 772.38 767.80 
 156 764.70 772.34 767.80 
 157 762.41 772.52 767.80 
 158 763.83 772.29 767.80 
 159 763.54 772.44 767.80 
 160 764.42 772.17 767.80 
 161 765.35 772.31 767.80 
 162 761.93 772.21 767.80 
 163 762.58 772.31 767.80 
 164 760.03 772.29 767.80 
 165 762.61 772.27 767.80 
 166 765.71 772.21 767.80 
 167 763.64 772.20 767.80 
 168 760.22 772.20 767.80 
 169 762.31 772.19 767.80 
 170 765.68 772.14 767.80 
 171 763.55 772.02 767.80 
 172 762.14 771.99 767.80 
 173 760.11 772.07 767.80 
 174 764.43 772.04 767.80 
 175 765.98 772.08 767.80 
 176 766.54 771.73 767.80 
 177 765.30 771.93 767.80 
 178 764.38 771.97 767.80 
 179 765.47 772.01 767.80 
 180 763.41 771.96 767.80 
 181 763.32 771.68 767.80 
 182 766.77 771.85 767.80 
 183 766.02 771.82 767.80 
 184 761.80 771.77 767.80 
 185 760.61 771.71 767.80 
 186 766.89 771.75 767.80 
 187 761.56 771.73 767.80 
 188 764.31 771.70 767.80 
 189 763.21 771.75 767.80 
 190 764.78 771.82 767.80 
 191 762.12 771.77 767.80 
 192 761.56 771.71 767.80 
 193 760.86 771.68 767.80 
 194 761.96 771.77 767.80 
 195 764.40 771.79 767.80 
 196 764.79 771.83 767.80 
 197 764.30 771.81 767.80 
 198 759.18 771.78 767.80 
 199 766.50 771.78 767.80 
 200 768.59 771.70 767.80 
 201 764.35 771.70 768.59 
 202 759.56 771.63 768.59 
 203 760.98 771.74 768.59 
 204 761.26 771.61 768.59 
 205 763.65 771.76 768.59 
 206 764.42 771.57 768.59 
 207 763.63 771.59 768.59 
 208 761.76 771.77 768.59 
 209 762.77 771.65 768.59 
 210 763.09 771.73 768.59 
 211 763.09 771.81 768.59 
 212 762.68 771.66 768.59 
 213 763.73 771.60 768.59 
 214 766.60 771.63 768.59 
 215 762.82 771.52 768.59 
 216 765.40 771.51 768.59 
 217 765.43 771.47 768.59 
 218 766.24 771.46 768.59 
 219 759.94 771.48 768.59 
 220 767.50 771.46 768.59 
 221 766.48 771.40 768.59 
 222 765.53 771.37 768.59 
 223 763.95 771.44 768.59 
 224 761.06 771.44 768.59 
 225 763.66 771.50 768.59 
 226 756.84 771.45 768.59 
 227 763.42 771.37 768.59 
 228 761.65 771.37 768.59 
 229 763.59 771.30 768.59 
 230 762.46 771.33 768.59 
 231 764.19 771.38 768.59 
 232 762.73 771.41 768.59 
 233 762.21 771.43 768.59 
 234 764.96 771.59 768.59 
 235 768.02 771.64 768.59 
 236 761.04 771.62 768.59 
 237 761.72 771.44 768.59 
 238 763.87 771.51 768.59 
 239 757.51 771.52 768.59 
 240 761.16 771.55 768.59 
 241 766.59 771.54 768.59 
 242 760.68 771.56 768.59 
 243 763.97 771.75 768.59 
 244 761.94 771.85 768.59 
 245 763.84 771.51 768.59 
 246 762.81 771.58 768.59 
 247 760.23 771.63 768.59 
 248 762.31 771.60 768.59 
 249 762.09 771.69 768.59 
 250 761.39 771.78 768.59 
 251 768.25 771.86 768.59 
 252 764.10 771.87 768.59 
 253 762.34 771.74 768.59 
 254 762.93 771.75 768.59 
 255 762.25 771.72 768.59 
 256 764.85 771.65 768.59 
 257 761.43 771.73 768.59 
 258 760.85 771.63 768.59 
 259 761.70 771.74 768.59 
 260 763.58 771.67 768.59 
 261 761.99 771.65 768.59 
 262 765.58 771.73 768.59 
 263 762.56 771.78 768.59 
 264 765.66 771.78 768.59 
 265 762.04 771.86 768.59 
 266 761.28 771.84 768.59 
 267 766.31 771.83 768.59 
 268 760.93 771.98 768.59 
 269 763.52 772.19 768.59 
 270 763.34 772.20 768.59 
 271 761.97 772.06 768.59 
 272 762.97 771.97 768.59 
 273 761.74 771.92 768.59 
 274 759.95 772.22 768.59 
 275 761.27 772.20 768.59 
 276 760.05 771.92 768.59 
 277 764.60 771.85 768.59 
 278 761.81 771.91 768.59 
 279 764.47 771.90 768.59 
 280 762.69 771.87 768.59 
 281 762.36 771.91 768.59 
 282 759.58 771.95 768.59 
 283 759.81 772.16 768.59 
 284 763.63 772.24 768.59 
 285 766.99 772.18 768.59 
 286 766.28 771.98 768.59 
 287 759.19 772.36 768.59 
 288 761.92 772.29 768.59 
 289 768.60 772.62 768.59 
 290 759.25 772.49 768.60 
 291 764.99 772.04 768.60 
 292 763.40 772.09 768.60 
 293 764.89 772.40 768.60 
 294 763.60 772.10 768.60 
 295 765.15 772.13 768.60 
 296 760.88 771.96 768.60 
 297 762.78 771.89 768.60 
 298 764.75 771.80 768.60 
 299 765.60 772.08 768.60 
 300 767.08 772.02 768.60 
 301 767.05 772.08 768.60 
 302 763.35 771.96 768.60 
 303 761.20 772.14 768.60 
 304 764.19 772.11 768.60 
 305 764.52 771.84 768.60 
 306 760.42 771.85 768.60 
 307 763.90 771.98 768.60 
 308 765.87 772.02 768.60 
 309 764.94 771.99 768.60 
 310 759.87 771.72 768.60 
 311 761.04 772.03 768.60 
 312 761.18 771.74 768.60 
 313 759.39 771.80 768.60 
 314 763.63 771.92 768.60 
 315 761.87 772.06 768.60 
 316 762.96 772.35 768.60 
 317 762.71 772.35 768.60 
 318 761.67 772.27 768.60 
 319 759.54 772.15 768.60 
 320 763.80 771.97 768.60 
 321 763.17 772.14 768.60 
 322 762.00 772.02 768.60 
 323 763.37 771.86 768.60 
 324 762.24 771.93 768.60 
 325 761.77 772.01 768.60 
 326 762.80 772.23 768.60 
 327 764.02 772.36 768.60 
 328 762.58 772.40 768.60 
 329 763.75 772.43 768.60 
 330 763.22 772.46 768.60 
 331 762.78 772.56 768.60 
 332 765.84 772.38 768.60 
 333 763.32 772.55 768.60 
 334 759.94 772.17 768.60 
 335 760.99 772.26 768.60 
 336 762.08 772.52 768.60 
 337 765.26 772.41 768.60 
 338 764.01 772.31 768.60 
 339 763.22 772.39 768.60 
 340 762.25 772.28 768.60 
 341 763.77 772.29 768.60 
 342 762.11 772.30 768.60 
 343 766.05 772.28 768.60 
 344 763.89 772.44 768.60 
 345 761.97 772.42 768.60 
 346 762.85 772.19 768.60 
 347 764.53 772.20 768.60 
 348 762.67 772.22 768.60 
 349 764.54 772.41 768.60 
 350 762.47 772.27 768.60 
 351 760.56 772.33 768.60 
 352 761.39 772.16 768.60 
 353 760.72 772.00 768.60 
 354 764.38 771.92 768.60 
 355 764.81 771.86 768.60 
 356 760.52 771.88 768.60 
 357 761.03 771.92 768.60 
 358 761.77 771.99 768.60 
 359 762.38 772.01 768.60 
 360 762.31 771.89 768.60 
 361 763.31 771.88 768.60 
 362 763.23 771.92 768.60 
 363 762.78 771.96 768.60 
 364 763.71 772.00 768.60 
 365 760.96 772.11 768.60 
 366 761.59 772.12 768.60 
 367 762.03 772.14 768.60 
 368 763.91 772.05 768.60 
 369 761.72 771.81 768.60 
 370 763.08 771.87 768.60 
 371 763.38 771.75 768.60 
 372 760.37 771.78 768.60 
 373 764.31 771.85 768.60 
 374 766.47 771.85 768.60 
 375 762.97 771.94 768.60 
 376 762.43 771.79 768.60 
 377 761.55 771.79 768.60 
 378 760.00 771.77 768.60 
 379 764.68 771.67 768.60 
 380 763.12 771.88 768.60 
 381 767.36 771.74 768.60 
 382 766.53 771.68 768.60 
 383 763.00 771.69 768.60 
 384 766.32 771.49 768.60 
 385 765.31 771.41 768.60 
 386 765.96 771.43 768.60 
 387 762.61 771.60 768.60 
 388 761.10 771.77 768.60 
 389 762.03 771.85 768.60 
 390 767.44 771.88 768.60 
 391 760.65 772.04 768.60 
 392 761.54 771.89 768.60 
 393 761.68 772.06 768.60 
 394 761.52 771.94 768.60 
 395 767.20 772.13 768.60 
 396 767.78 771.90 768.60 
 397 762.93 771.98 768.60 
 398 761.45 771.76 768.60 
 399 763.83 771.77 768.60 
 400 764.41 771.80 768.60 
 401 762.48 771.94 768.60 
 402 764.87 772.03 768.60 
 403 766.39 771.84 768.60 
 404 763.09 772.05 768.60 
 405 761.83 772.03 768.60 
 406 762.33 772.05 768.60 
 407 765.48 772.12 768.60 
 408 769.26 771.88 768.60 
 409 761.61 772.20 769.26 
 410 764.32 772.07 769.26 
 411 765.21 772.18 769.26 
 412 762.79 772.27 769.26 
 413 765.15 772.08 769.26 
 414 763.26 772.06 769.26 
 415 764.62 771.92 769.26 
 416 760.73 771.87 769.26 
 417 765.80 772.00 769.26 
 418 765.13 772.12 769.26 
 419 760.27 772.12 769.26 
 420 762.80 772.14 769.26 
 421 764.31 771.96 769.26 
 422 761.19 771.89 769.26 
 423 767.07 771.82 769.26 
 424 765.75 771.57 769.26 
 425 762.25 771.43 769.26 
 426 761.34 771.21 769.26 
 427 762.46 771.68 769.26 
 428 766.44 771.76 769.26 
 429 763.04 771.84 769.26 
 430 762.34 771.71 769.26 
 431 765.73 772.15 769.26 
 432 762.72 772.16 769.26 
 433 763.93 771.90 769.26 
 434 760.73 772.09 769.26 
 435 765.81 772.20 769.26 
 436 764.64 772.43 769.26 
 437 762.38 772.35 769.26 
 438 762.71 772.51 769.26 
 439 763.44 772.16 769.26 
 440 762.96 772.47 769.26 
 441 765.22 772.23 769.26 
 442 763.98 772.32 769.26 
 443 765.95 772.40 769.26 
 444 763.09 772.39 769.26 
 445 760.20 772.01 769.26 
 446 763.08 772.24 769.26 
 447 764.76 771.95 769.26 
 448 767.03 772.19 769.26 
 449 760.93 772.03 769.26 
 450 759.80 772.52 769.26 
 451 766.20 772.53 769.26 
 452 762.09 772.21 769.26 
 453 759.89 772.11 769.26 
 454 760.99 772.35 769.26 
 455 763.35 772.13 769.26 
 456 762.78 771.86 769.26 
 457 765.59 772.21 769.26 
 458 761.30 772.16 769.26 
 459 758.10 772.28 769.26 
 460 765.03 772.03 769.26 
 461 759.46 772.14 769.26 
 462 765.27 772.02 769.26 
 463 759.21 771.93 769.26 
 464 762.09 771.99 769.26 
 465 761.70 772.00 769.26 
 466 764.06 772.07 769.26 
 467 766.37 772.24 769.26 
 468 764.30 772.24 769.26 
 469 764.37 772.18 769.26 
 470 765.27 771.84 769.26 
 471 762.66 771.93 769.26 
 472 758.48 772.01 769.26 
 473 763.29 772.09 769.26 
 474 767.32 772.07 769.26 
 475 765.12 772.18 769.26 
 476 765.00 772.44 769.26 
 477 763.72 772.20 769.26 
 478 766.26 772.21 769.26 
 479 765.51 772.21 769.26 
 480 763.77 772.38 769.26 
 481 761.65 772.31 769.26 
 482 761.37 772.56 769.26 
 483 760.69 772.56 769.26 
 484 765.47 772.41 769.26 
 485 762.98 772.49 769.26 
 486 765.26 772.51 769.26 
 487 764.17 772.43 769.26 
 488 763.64 772.67 769.26 
 489 763.11 772.64 769.26 
 490 765.34 772.51 769.26 
 491 766.01 772.58 769.26 
 492 761.10 772.51 769.26 
 493 764.77 772.57 769.26 
 494 763.46 772.63 769.26 
 495 763.25 772.47 769.26 
 496 765.71 772.39 769.26 
 497 768.57 772.38 769.26 
 498 762.40 772.42 769.26 
 499 760.44 772.86 769.26 
 500 765.54 772.81 769.26 
 501 765.62 772.84 769.26 
 502 762.14 772.65 769.26 
 503 764.70 772.94 769.26 
 504 765.05 772.59 769.26 
 505 761.57 772.62 769.26 
 506 765.99 772.72 769.26 
 507 764.68 772.58 769.26 
 508 766.63 772.57 769.26 
 509 761.36 772.60 769.26 
 510 763.39 772.56 769.26 
 511 764.27 772.54 769.26 
 512 762.60 772.67 769.26 
 513 758.78 772.65 769.26 
 514 765.22 772.54 769.26 
 515 760.29 772.42 769.26 
 516 764.78 772.73 769.26 
 517 761.75 772.86 769.26 
 518 764.83 773.07 769.26 
 519 763.03 773.04 769.26 
 520 764.40 773.03 769.26 
 521 765.05 772.83 769.26 
 522 763.98 772.75 769.26 
 523 762.64 772.68 769.26 
 524 761.33 772.52 769.26 
 525 761.22 772.72 769.26 
 526 766.41 772.66 769.26 
 527 763.73 772.82 769.26 
 528 762.88 772.42 769.26 
 529 764.26 772.68 769.26 
 530 762.69 772.78 769.26 
 531 761.32 772.88 769.26 
 532 766.18 772.94 769.26 
 533 762.71 772.83 769.26 
 534 763.24 772.71 769.26 
 535 761.04 772.56 769.26 
 536 759.24 772.86 769.26 
 537 765.44 772.60 769.26 
 538 762.42 772.59 769.26 
 539 766.52 772.55 769.26 
 540 765.04 772.68 769.26 
 541 764.41 772.72 769.26 
 542 762.55 772.94 769.26 
 543 767.00 772.99 769.26 
 544 764.89 773.01 769.26 
 545 766.01 772.93 769.26 
 546 765.51 772.79 769.26 
 547 763.16 772.71 769.26 
 548 767.35 773.00 769.26 
 549 759.27 773.01 769.26 
 550 764.96 773.02 769.26 
 551 766.74 773.01 769.26 
 552 764.69 773.04 769.26 
 553 765.11 773.02 769.26 
 554 763.56 773.08 769.26 
 555 762.96 773.05 769.26 
 556 766.12 773.07 769.26 
 557 764.60 772.98 769.26 
 558 766.06 773.08 769.26 
 559 764.24 773.04 769.26 
 560 762.71 773.13 769.26 
 561 757.37 773.10 769.26 
 562 766.11 773.02 769.26 
 563 761.82 773.13 769.26 
 564 761.85 773.07 769.26 
 565 767.53 773.12 769.26 
 566 766.45 773.16 769.26 
 567 762.65 773.18 769.26 
 568 762.99 773.02 769.26 
 569 759.46 773.01 769.26 
 570 764.73 772.54 769.26 
 571 767.01 772.92 769.26 
 572 759.38 772.91 769.26 
 573 761.92 772.89 769.26 
 574 764.53 773.02 769.26 
 575 765.33 773.04 769.26 
 576 761.17 772.99 769.26 
 577 761.53 773.05 769.26 
 578 761.23 773.04 769.26 
 579 763.79 773.04 769.26 
 580 765.64 773.09 769.26 
 581 763.22 773.07 769.26 
 582 762.42 772.99 769.26 
 583 761.28 773.03 769.26 
 584 767.89 772.99 769.26 
 585 764.62 772.97 769.26 
 586 761.11 773.07 769.26 
 587 762.22 773.06 769.26 
 588 762.60 773.16 769.26 
 589 762.64 773.06 769.26 
 590 766.50 773.10 769.26 
 591 762.59 773.15 769.26 
 592 763.73 773.08 769.26 
 593 764.30 773.08 769.26 
 594 764.75 772.93 769.26 
 595 764.46 773.15 769.26 
 596 763.44 772.80 769.26 
 597 760.46 773.00 769.26 
 598 766.03 772.95 769.26 
 599 761.45 772.91 769.26 
 600 766.50 773.09 769.26 
 601 761.48 773.18 769.26 
 602 761.43 773.13 769.26 
 603 766.28 773.16 769.26 
 604 764.71 773.10 769.26 
 605 762.70 772.90 769.26 
 606 762.54 773.19 769.26 
 607 761.45 772.90 769.26 
 608 765.96 772.83 769.26 
 609 764.06 772.84 769.26 
 610 763.97 772.94 769.26 
 611 761.96 772.83 769.26 
 612 761.46 772.82 769.26 
 613 766.21 772.79 769.26 
 614 759.81 772.78 769.26 
 615 763.35 772.84 769.26 
 616 764.58 772.84 769.26 
 617 765.21 772.72 769.26 
 618 765.87 772.70 769.26 
 619 764.49 772.69 769.26 
 620 762.33 772.73 769.26 
 621 762.41 772.52 769.26 
 622 762.17 772.41 769.26 
 623 761.57 772.49 769.26 
 624 762.10 772.74 769.26 
 625 766.52 772.69 769.26 
 626 765.93 772.47 769.26 
 627 766.67 772.51 769.26 
 628 767.01 772.56 769.26 
 629 765.30 772.37 769.26 
 630 761.67 772.51 769.26 
 631 764.40 772.64 769.26 
 632 765.57 772.55 769.26 
 633 765.38 772.50 769.26 
 634 762.85 772.38 769.26 
 635 763.24 772.38 769.26 
 636 764.46 772.33 769.26 
 637 760.05 772.30 769.26 
 638 765.73 772.20 769.26 
 639 766.34 772.30 769.26 
 640 763.30 771.95 769.26 
 641 763.90 771.88 769.26 
 642 763.10 771.90 769.26 
 643 763.11 771.82 769.26 
 644 762.28 772.02 769.26 
 645 764.29 771.91 769.26 
 646 761.29 771.93 769.26 
 647 766.43 772.21 769.26 
 648 767.95 772.18 769.26 
 649 762.86 772.19 769.26 
 650 759.93 772.12 769.26 
 651 763.55 772.20 769.26 
 652 762.22 772.23 769.26 
 653 761.56 772.28 769.26 
 654 762.85 772.34 769.26 
 655 762.21 772.17 769.26 
 656 765.42 772.12 769.26 
 657 765.46 772.29 769.26 
 658 766.23 772.29 769.26 
 659 761.62 772.17 769.26 
 660 762.64 772.21 769.26 
 661 763.10 772.14 769.26 
 662 760.87 772.04 769.26 
 663 766.65 772.03 769.26 
 664 758.97 771.95 769.26 
 665 762.64 771.99 769.26 
 666 762.28 772.01 769.26 
 667 765.83 772.18 769.26 
 668 765.27 772.30 769.26 
 669 761.14 772.29 769.26 
 670 763.38 772.42 769.26 
 671 763.85 772.25 769.26 
 672 767.26 772.19 769.26 
 673 768.45 772.47 769.26 
 674 764.09 772.39 769.26 
 675 765.95 772.50 769.26 
 676 758.87 772.48 769.26 
 677 764.45 772.37 769.26 
 678 763.69 772.51 769.26 
 679 761.87 772.47 769.26 
 680 764.52 772.53 769.26 
 681 763.90 772.43 769.26 
 682 763.70 772.53 769.26 
 683 760.60 772.44 769.26 
 684 764.30 772.76 769.26 
 685 763.24 773.10 769.26 
 686 761.66 772.90 769.26 
 687 764.92 772.99 769.26 
 688 764.29 772.41 769.26 
 689 762.93 772.40 769.26 
 690 764.20 772.57 769.26 
 691 764.68 772.45 769.26 
 692 766.84 772.06 769.26 
 693 762.61 772.28 769.26 
 694 765.25 772.26 769.26 
 695 763.14 771.99 769.26 
 696 764.59 771.89 769.26 
 697 764.95 771.87 769.26 
 698 762.08 771.60 769.26 
 699 762.83 771.70 769.26 
 700 764.30 771.88 769.26 
 701 765.57 772.17 769.26 
 702 762.89 772.12 769.26 
 703 761.64 772.28 769.26 
 704 767.04 772.53 769.26 
 705 763.41 772.54 769.26 
 706 763.66 772.46 769.26 
 707 761.82 772.19 769.26 
 708 762.48 772.25 769.26 
 709 760.99 772.24 769.26 
 710 762.89 772.26 769.26 
 711 764.37 772.33 769.26 
 712 762.50 772.54 769.26 
 713 763.72 772.56 769.26 
 714 764.53 772.23 769.26 
 715 758.89 772.03 769.26 
 716 760.95 772.03 769.26 
 717 758.16 772.02 769.26 
 718 763.92 771.98 769.26 
 719 761.60 771.98 769.26 
 720 761.39 772.18 769.26 
 721 760.26 772.44 769.26 
 722 765.97 772.61 769.26 
 723 759.29 772.45 769.26 
 724 764.87 772.57 769.26 
 725 762.86 773.14 769.26 
 726 761.18 773.05 769.26 
 727 761.58 772.84 769.26 
 728 760.34 772.91 769.26 
 729 761.68 772.89 769.26 
 730 762.03 772.88 769.26 
 731 759.63 773.07 769.26 
 732 760.16 772.99 769.26 
 733 757.31 773.01 769.26 
 734 761.93 772.69 769.26 
 735 763.43 772.61 769.26 
 736 760.25 772.99 769.26 
 737 764.16 773.03 769.26 
 738 763.72 773.15 769.26 
 739 761.49 773.13 769.26 
 740 763.63 773.06 769.26 
 741 763.82 773.09 769.26 
 742 762.30 773.10 769.26 
 743 762.13 773.06 769.26 
 744 763.46 773.10 769.26 
 745 761.60 773.06 769.26 
 746 766.39 772.92 769.26 
 747 765.69 773.09 769.26 
 748 764.17 773.17 769.26 
 749 762.77 773.22 769.26 
 750 765.79 773.01 769.26 
 751 763.33 773.12 769.26 
 752 763.09 772.90 769.26 
 753 761.38 773.20 769.26 
 754 760.86 772.90 769.26 
 755 766.42 773.21 769.26 
 756 763.93 773.17 769.26 
 757 764.78 773.12 769.26 
 758 760.21 773.22 769.26 
 759 764.24 773.35 769.26 
 760 766.48 773.27 769.26 
 761 761.66 773.23 769.26 
 762 762.22 773.20 769.26 
 763 767.16 773.18 769.26 
 764 766.22 773.23 769.26 
 765 762.21 773.08 769.26 
 766 765.92 773.23 769.26 
 767 758.94 773.23 769.26 
 768 765.95 773.21 769.26 
 769 763.74 773.18 769.26 
 770 764.03 773.13 769.26 
 771 761.82 773.18 769.26 
 772 761.52 773.13 769.26 
 773 765.80 773.19 769.26 
 774 764.80 773.08 769.26 
 775 762.65 773.09 769.26 
 776 764.76 773.11 769.26 
 777 761.91 773.13 769.26 
 778 764.77 773.15 769.26 
 779 761.36 773.11 769.26 
 780 763.66 773.14 769.26 
 781 761.75 773.13 769.26 
 782 764.14 773.10 769.26 
 783 761.98 773.11 769.26 
 784 768.95 773.12 769.26 
 785 760.11 773.03 769.26 
 786 767.19 773.03 769.26 
 787 762.85 773.05 769.26 
 788 764.46 773.02 769.26 
 789 761.59 773.03 769.26 
 790 765.58 773.06 769.26 
 791 767.12 773.04 769.26 
 792 763.81 773.06 769.26 
 793 765.09 773.12 769.26 
 794 763.71 773.08 769.26 
 795 764.84 773.04 769.26 
 796 764.53 773.04 769.26 
 797 765.70 773.03 769.26 
 798 766.26 773.05 769.26 
 799 760.08 773.01 769.26 
 800 762.12 773.07 769.26 
 801 764.73 773.10 769.26 
 802 765.44 773.11 769.26 
 803 764.64 773.07 769.26 
 804 763.27 773.07 769.26 
 805 766.16 773.11 769.26 
 806 767.88 773.06 769.26 
 807 764.80 773.11 769.26 
 808 763.22 773.17 769.26 
 809 766.00 773.18 769.26 
 810 763.24 773.17 769.26 
 811 763.29 773.18 769.26 
 812 762.37 773.14 769.26 
 813 762.55 773.17 769.26 
 814 765.06 773.10 769.26 
 815 762.66 773.09 769.26 
 816 764.74 773.11 769.26 
 817 760.83 773.14 769.26 
 818 764.37 773.19 769.26 
 819 763.13 773.15 769.26 
 820 762.95 773.23 769.26 
 821 762.53 773.23 769.26 
 822 763.97 773.21 769.26 
 823 761.25 773.18 769.26 
 824 761.65 773.15 769.26 
 825 763.51 773.23 769.26 
 826 760.80 773.19 769.26 
 827 759.52 773.23 769.26 
 828 765.86 773.14 769.26 
 829 763.55 773.16 769.26 
 830 764.68 773.07 769.26 
 831 765.63 773.08 769.26 
 832 764.99 773.04 769.26 
 833 765.27 772.98 769.26 
 834 760.66 773.07 769.26 
 835 760.36 773.02 769.26 
 836 765.03 772.97 769.26 
 837 765.04 773.03 769.26 
 838 763.04 772.95 769.26 
 839 759.50 772.97 769.26 
 840 762.19 773.01 769.26 
 841 760.87 772.87 769.26 
 842 762.67 772.76 769.26 
 843 762.06 772.85 769.26 
 844 763.36 772.74 769.26 
 845 763.05 772.69 769.26 
 846 759.95 772.79 769.26 
 847 764.47 772.72 769.26 
 848 760.93 772.96 769.26 
 849 761.53 772.98 769.26 
 850 758.28 772.95 769.26 
 851 763.70 773.06 769.26 
 852 768.22 773.03 769.26 
 853 763.49 773.13 769.26 
 854 760.29 773.14 769.26 
 855 763.84 773.10 769.26 
 856 761.76 773.12 769.26 
 857 764.42 773.06 769.26 
 858 762.29 773.13 769.26 
 859 765.88 773.04 769.26 
 860 760.24 773.11 769.26 
 861 761.77 773.12 769.26 
 862 764.92 773.18 769.26 
 863 760.68 773.17 769.26 
 864 762.72 773.19 769.26 
 865 766.73 773.42 769.26 
 866 761.12 773.44 769.26 
 867 761.74 773.39 769.26 
 868 766.70 773.39 769.26 
 869 763.14 773.42 769.26 
 870 768.14 773.36 769.26 
 871 762.55 773.27 769.26 
 872 764.42 773.05 769.26 
 873 762.73 773.03 769.26 
 874 762.57 773.29 769.26 
 875 765.82 773.10 769.26 
 876 762.65 773.11 769.26 
 877 766.37 773.12 769.26 
 878 766.02 773.31 769.26 
 879 762.85 773.08 769.26 
 880 758.88 773.09 769.26 
 881 765.93 773.26 769.26 
 882 764.39 773.07 769.26 
 883 759.52 773.08 769.26 
 884 767.26 773.06 769.26 
 885 766.02 773.08 769.26 
 886 762.20 773.08 769.26 
 887 761.12 773.15 769.26 
 888 762.41 773.12 769.26 
 889 761.97 773.16 769.26 
 890 765.52 773.16 769.26 
 891 765.46 773.10 769.26 
 892 761.87 773.14 769.26 
 893 765.27 773.39 769.26 
 894 761.36 773.34 769.26 
 895 760.29 773.14 769.26 
 896 765.44 773.23 769.26 
 897 763.60 773.18 769.26 
 898 761.73 773.21 769.26 
 899 765.10 773.39 769.26 
 900 760.28 773.40 769.26 
 901 762.98 773.17 769.26 
 902 763.37 773.17 769.26 
 903 761.33 773.15 769.26 
 904 767.61 773.12 769.26 
 905 764.68 773.15 769.26 
 906 765.47 773.17 769.26 
 907 762.94 773.15 769.26 
 908 762.25 773.16 769.26 
 909 762.89 773.18 769.26 
 910 764.27 773.12 769.26 
 911 765.39 773.33 769.26 
 912 767.35 773.12 769.26 
 913 767.20 773.16 769.26 
 914 764.48 773.13 769.26 
 915 764.93 773.18 769.26 
 916 763.92 773.39 769.26 
 917 766.03 773.42 769.26 
 918 767.05 773.42 769.26 
 919 762.51 773.34 769.26 
 920 764.05 773.34 769.26 
 921 761.79 773.36 769.26 
 922 761.64 773.35 769.26 
 923 766.42 773.37 769.26 
 924 762.01 773.36 769.26 
 925 765.68 773.26 769.26 
 926 764.52 773.31 769.26 
 927 764.18 773.28 769.26 
 928 761.96 773.28 769.26 
 929 760.18 773.27 769.26 
 930 765.71 773.34 769.26 
 931 762.90 773.34 769.26 
 932 761.63 773.29 769.26 
 933 761.75 773.27 769.26 
 934 758.87 773.23 769.26 
 935 766.18 773.28 769.26 
 936 761.16 773.31 769.26 
 937 761.46 773.28 769.26 
 938 762.04 773.28 769.26 
 939 764.34 773.30 769.26 
 940 762.40 773.18 769.26 
 941 766.84 773.22 769.26 
 942 766.18 773.23 769.26 
 943 764.59 773.28 769.26 
 944 764.66 773.24 769.26 
 945 764.47 773.27 769.26 
 946 763.33 773.22 769.26 
 947 759.57 773.17 769.26 
 948 764.24 773.27 769.26 
 949 763.03 773.25 769.26 
 950 762.63 773.28 769.26 
 951 763.60 773.05 769.26 
 952 759.67 773.02 769.26 
 953 764.62 773.01 769.26 
 954 766.82 772.96 769.26 
 955 765.50 772.98 769.26 
 956 766.28 772.92 769.26 
 957 765.63 773.26 769.26 
 958 761.82 773.25 769.26 
 959 762.78 773.20 769.26 
 960 762.34 773.03 769.26 
 961 763.88 773.01 769.26 
 962 764.41 773.10 769.26 
 963 762.75 773.06 769.26 
 964 764.61 773.00 769.26 
 965 766.64 773.11 769.26 
 966 763.81 773.10 769.26 
 967 764.35 773.11 769.26 
 968 763.99 773.40 769.26 
 969 762.37 773.41 769.26 
 970 764.50 773.39 769.26 
 971 760.71 773.41 769.26 
 972 762.25 773.29 769.26 
 973 763.68 773.27 769.26 
 974 765.27 773.25 769.26 
 975 762.50 773.28 769.26 
 976 762.64 773.31 769.26 
 977 763.34 773.21 769.26 
 978 766.55 773.28 769.26 
 979 761.65 773.29 769.26 
 980 763.44 773.29 769.26 
 981 764.08 773.33 769.26 
 982 761.90 773.26 769.26 
 983 765.83 773.29 769.26 
 984 761.71 773.31 769.26 
 985 760.85 773.35 769.26 
 986 761.75 773.23 769.26 
 987 761.19 773.30 769.26 
 988 764.50 773.24 769.26 
 989 764.01 773.29 769.26 
 990 766.61 773.29 769.26 
 991 762.87 773.26 769.26 
 992 765.10 773.29 769.26 
 993 760.72 773.36 769.26 
 994 762.21 773.29 769.26 
 995 764.44 773.27 769.26 
 996 762.99 773.35 769.26 
 997 769.99 773.37 769.26 
 998 762.54 773.37 769.99 
 999 763.06 773.37 769.99 
1000 763.89 773.28 769.99 
1001 765.55 773.29 769.99 
1002 763.16 773.29 769.99 
1003 761.90 773.30 769.99 
1004 762.88 773.37 769.99 
1005 759.78 773.32 769.99 
1006 767.72 773.38 769.99 
1007 764.77 773.31 769.99 
1008 765.66 773.25 769.99 
1009 764.79 773.33 769.99 
1010 762.99 773.26 769.99 
1011 762.40 773.27 769.99 
1012 767.50 773.31 769.99 
1013 759.75 773.28 769.99 
1014 762.21 773.31 769.99 
1015 765.55 773.29 769.99 
1016 765.37 773.27 769.99 
1017 764.33 773.00 769.99 
1018 765.81 773.08 769.99 
1019 762.06 773.02 769.99 
1020 765.21 773.07 769.99 
1021 765.10 773.08 769.99 
1022 764.46 773.08 769.99 
1023 764.00 773.06 769.99 
1024 761.80 773.11 769.99 
1025 763.95 773.01 769.99 
1026 762.64 773.10 769.99 
1027 765.01 773.05 769.99 
1028 761.91 773.05 769.99 
1029 764.49 773.11 769.99 
1030 762.05 773.03 769.99 
1031 764.25 773.05 769.99 
1032 762.74 772.92 769.99 
1033 762.86 773.06 769.99 
1034 765.96 773.33 769.99 
1035 762.57 773.32 769.99 
1036 763.15 773.27 769.99 
1037 763.31 772.93 769.99 
1038 761.04 773.09 769.99 
1039 766.25 773.07 769.99 
1040 761.03 773.07 769.99 
1041 766.63 773.10 769.99 
1042 763.96 773.06 769.99 
1043 765.33 772.99 769.99 
1044 764.44 772.91 769.99 
1045 767.13 772.79 769.99 
1046 764.17 772.87 769.99 
1047 763.29 772.86 769.99 
1048 764.73 772.91 769.99 
1049 761.74 773.00 769.99 
1050 764.61 772.97 769.99 
1051 763.92 772.93 769.99 
1052 764.07 772.98 769.99 
1053 761.91 773.02 769.99 
1054 763.34 773.02 769.99 
1055 765.09 773.01 769.99 
1056 763.28 773.01 769.99 
1057 765.48 773.10 769.99 
1058 761.11 773.05 769.99 
1059 764.45 773.10 769.99 
1060 764.56 773.02 769.99 
1061 763.91 772.99 769.99 
1062 766.64 773.02 769.99 
1063 763.50 773.15 769.99 
1064 765.14 773.19 769.99 
1065 760.76 773.08 769.99 
1066 766.45 772.97 769.99 
1067 762.10 773.04 769.99 
1068 765.80 772.94 769.99 
1069 762.43 773.12 769.99 
1070 761.70 773.03 769.99 
1071 763.95 773.03 769.99 
1072 767.18 773.10 769.99 
1073 760.99 773.08 769.99 
1074 763.06 773.05 769.99 
1075 765.04 773.15 769.99 
1076 766.14 773.14 769.99 
1077 765.50 773.10 769.99 
1078 762.33 773.17 769.99 
1079 763.30 773.14 769.99 
1080 763.58 773.09 769.99 
1081 765.19 773.13 769.99 
1082 764.93 773.05 769.99 
1083 766.55 773.15 769.99 
1084 766.56 773.32 769.99 
1085 762.79 773.38 769.99 
1086 761.04 773.31 769.99 
1087 759.97 773.31 769.99 
1088 762.73 773.14 769.99 
1089 763.01 773.15 769.99 
1090 764.27 773.31 769.99 
1091 763.35 773.33 769.99 
1092 760.64 773.30 769.99 
1093 764.42 773.37 769.99 
1094 761.85 773.30 769.99 
1095 761.98 773.33 769.99 
1096 766.84 773.30 769.99 
1097 763.09 773.34 769.99 
1098 760.02 773.36 769.99 
1099 763.61 773.59 769.99 
1100 761.15 773.57 769.99 
1101 765.05 773.56 769.99 
1102 760.21 773.52 769.99 
1103 762.62 773.52 769.99 
1104 762.19 773.54 769.99 
1105 763.89 773.28 769.99 
1106 766.28 773.50 769.99 
1107 764.53 773.19 769.99 
1108 764.48 773.26 769.99 
1109 765.18 773.51 769.99 
1110 764.60 773.47 769.99 
1111 761.99 773.42 769.99 
1112 763.44 773.17 769.99 
1113 765.86 773.22 769.99 
1114 760.75 773.22 769.99 
1115 762.40 773.23 769.99 
1116 765.13 773.17 769.99 
1117 762.40 773.11 769.99 
1118 760.83 773.23 769.99 
1119 762.34 773.11 769.99 
1120 763.72 773.16 769.99 
1121 764.46 773.19 769.99 
1122 766.30 773.12 769.99 
1123 764.95 773.16 769.99 
1124 763.55 773.21 769.99 
1125 768.97 773.25 769.99 
1126 765.15 773.25 769.99 
1127 764.37 773.23 769.99 
1128 760.38 773.27 769.99 
1129 760.69 773.22 769.99 
1130 765.25 773.27 769.99 
1131 760.62 773.27 769.99 
1132 764.91 773.28 769.99 
1133 761.95 773.24 769.99 
1134 761.68 773.29 769.99 
1135 762.99 773.48 769.99 
1136 761.95 773.29 769.99 
1137 762.50 773.29 769.99 
1138 762.15 773.26 769.99 
1139 760.97 773.29 769.99 
1140 766.03 773.28 769.99 
1141 763.12 773.20 769.99 
1142 761.60 773.25 769.99 
1143 765.14 773.31 769.99 
1144 761.37 773.31 769.99 
1145 763.28 773.24 769.99 
1146 762.60 773.45 769.99 
1147 763.10 773.28 769.99 
1148 760.48 773.48 769.99 
1149 764.26 773.23 769.99 
1150 764.66 773.51 769.99 
1151 762.64 773.45 769.99 
1152 764.15 773.18 769.99 
1153 764.74 773.13 769.99 
1154 764.17 773.20 769.99 
1155 766.44 773.22 769.99 
1156 765.76 773.18 769.99 
1157 764.69 773.16 769.99 
1158 764.24 773.23 769.99 
1159 763.43 773.20 769.99 
1160 761.48 773.20 769.99 
1161 766.96 773.20 769.99 
1162 765.12 773.17 769.99 
1163 757.90 773.25 769.99 
1164 765.20 773.19 769.99 
1165 761.62 773.15 769.99 
1166 763.25 773.14 769.99 
1167 765.78 773.21 769.99 
1168 759.68 773.25 769.99 
1169 763.55 773.15 769.99 
1170 760.53 773.20 769.99 
1171 767.07 773.26 769.99 
1172 765.21 773.30 769.99 
1173 760.62 773.01 769.99 
1174 768.63 772.98 769.99 
1175 762.78 773.25 769.99 
1176 767.90 773.24 769.99 
1177 764.65 773.24 769.99 
1178 763.14 773.40 769.99 
1179 764.90 773.29 769.99 
1180 763.67 773.24 769.99 
1181 764.55 773.29 769.99 
1182 762.67 773.25 769.99 
1183 761.98 773.28 769.99 
1184 762.97 773.29 769.99 
1185 764.41 773.29 769.99 
1186 763.62 773.38 769.99 
1187 764.45 773.34 769.99 
1188 765.64 773.30 769.99 
1189 761.17 773.40 769.99 
1190 762.45 773.31 769.99 
1191 763.56 773.35 769.99 
1192 763.17 773.34 769.99 
1193 767.55 773.30 769.99 
1194 764.35 773.21 769.99 
1195 763.04 773.18 769.99 
1196 763.81 773.27 769.99 
1197 762.68 773.18 769.99 
1198 761.57 773.33 769.99 
1199 765.83 773.26 769.99 
1200 760.79 773.26 769.99 
1201 762.10 773.19 769.99 
1202 764.89 773.28 769.99 
1203 761.80 773.01 769.99 
1204 765.57 773.03 769.99 
1205 762.57 772.99 769.99 
1206 765.97 773.28 769.99 
1207 762.73 773.30 769.99 
1208 762.92 773.17 769.99 
1209 763.39 773.18 769.99 
1210 760.88 773.29 769.99 
1211 767.09 773.05 769.99 
1212 760.79 773.28 769.99 
1213 763.77 773.32 769.99 
1214 762.60 773.27 769.99 
1215 762.25 773.33 769.99 
1216 764.21 773.28 769.99 
1217 761.23 773.31 769.99 
1218 767.59 773.19 769.99 
1219 764.39 773.22 769.99 
1220 762.14 773.24 769.99 
1221 763.98 773.29 769.99 
1222 763.49 773.10 769.99 
1223 764.09 773.20 769.99 
1224 765.83 773.27 769.99 
1225 762.74 773.23 769.99 
1226 763.62 773.33 769.99 
1227 765.89 773.30 769.99 
1228 762.79 773.30 769.99 
1229 765.11 773.15 769.99 
1230 767.56 773.12 769.99 
1231 765.76 773.22 769.99 
1232 761.56 773.26 769.99 
1233 766.98 773.25 769.99 
1234 767.07 773.28 769.99 
1235 761.31 773.05 769.99 
1236 760.53 773.24 769.99 
1237 764.44 773.28 769.99 
1238 765.45 773.21 769.99 
1239 761.54 773.27 769.99 
1240 762.90 772.96 769.99 
1241 764.30 773.23 769.99 
1242 761.74 773.21 769.99 
1243 761.98 773.27 769.99 
1244 762.84 773.30 769.99 
1245 761.80 773.15 769.99 
1246 761.35 773.30 769.99 
1247 766.57 773.28 769.99 
1248 767.04 773.30 769.99 
1249 765.56 773.22 769.99 
1250 764.26 773.26 769.99 
1251 762.66 773.27 769.99 
1252 761.30 773.24 769.99 
1253 765.29 773.26 769.99 
1254 766.28 773.25 769.99 
1255 760.03 773.26 769.99 
1256 762.56 773.29 769.99 
1257 764.14 773.25 769.99 
1258 763.09 773.21 769.99 
1259 765.56 773.15 769.99 
1260 764.40 773.22 769.99 
1261 767.00 773.16 769.99 
1262 762.26 772.94 769.99 
1263 763.42 772.89 769.99 
1264 761.53 772.88 769.99 
1265 763.96 773.12 769.99 
1266 763.64 772.90 769.99 
1267 763.76 772.93 769.99 
1268 764.87 772.88 769.99 
1269 759.94 772.91 769.99 
1270 760.29 773.14 769.99 
1271 765.44 773.05 769.99 
1272 764.12 773.12 769.99 
1273 762.24 773.31 769.99 
1274 760.68 773.15 769.99 
1275 761.84 773.23 769.99 
1276 765.38 772.98 769.99 
1277 765.15 773.02 769.99 
1278 763.29 773.03 769.99 
1279 764.03 773.05 769.99 
1280 764.52 772.82 769.99 
1281 763.43 772.68 769.99 
1282 764.72 773.12 769.99 
1283 766.43 773.07 769.99 
1284 760.05 772.81 769.99 
1285 763.51 773.02 769.99 
1286 761.60 773.10 769.99 
1287 765.40 772.93 769.99 
1288 762.08 773.02 769.99 
1289 760.68 773.07 769.99 
1290 766.03 773.05 769.99 
1291 764.74 773.05 769.99 
1292 764.24 773.22 769.99 
1293 762.36 773.03 769.99 
1294 765.32 773.06 769.99 
1295 764.53 772.93 769.99 
1296 757.47 772.71 769.99 
1297 762.95 772.74 769.99 
1298 761.23 772.90 769.99 
1299 764.52 773.04 769.99 
1300 765.03 772.87 769.99 
1301 761.97 773.04 769.99 
1302 758.06 772.99 769.99 
1303 764.28 773.10 769.99 
1304 766.15 773.09 769.99 
1305 762.89 773.19 769.99 
1306 761.55 773.04 769.99 
1307 767.96 772.91 769.99 
1308 762.93 772.88 769.99 
1309 765.08 773.16 769.99 
1310 763.77 772.83 769.99 
1311 766.13 772.90 769.99 
1312 764.80 772.81 769.99 
1313 763.02 773.12 769.99 
1314 763.46 773.29 769.99 
1315 762.37 773.34 769.99 
1316 761.81 773.45 769.99 
1317 764.61 773.29 769.99 
1318 761.66 773.01 769.99 
1319 761.02 773.22 769.99 
1320 766.83 773.04 769.99 
1321 763.58 773.02 769.99 
1322 762.73 773.04 769.99 
1323 763.04 773.02 769.99 
1324 764.32 772.99 769.99 
1325 763.07 773.21 769.99 
1326 762.32 773.21 769.99 
1327 762.67 773.36 769.99 
1328 765.43 773.43 769.99 
1329 764.97 773.42 769.99 
1330 763.82 773.46 769.99 
1331 763.81 773.44 769.99 
1332 765.50 773.46 769.99 
1333 766.35 773.43 769.99 
1334 761.54 773.48 769.99 
1335 761.80 773.40 769.99 
1336 765.26 773.43 769.99 
1337 762.58 773.45 769.99 
1338 759.23 773.47 769.99 
1339 763.94 773.12 769.99 
1340 762.99 773.00 769.99 
1341 763.62 773.19 769.99 
1342 761.45 773.17 769.99 
1343 763.70 773.11 769.99 
1344 762.34 773.25 769.99 
1345 762.32 773.27 769.99 
1346 760.42 773.26 769.99 
1347 764.91 773.25 769.99 
1348 766.04 773.32 769.99 
1349 763.85 773.30 769.99 
1350 760.92 773.23 769.99 
1351 761.75 773.27 769.99 
1352 761.78 773.04 769.99 
1353 763.73 773.24 769.99 
1354 762.41 773.26 769.99 
1355 765.67 773.31 769.99 
1356 762.92 773.24 769.99 
1357 763.06 773.30 769.99 
1358 762.75 773.30 769.99 
1359 764.93 773.21 769.99 
1360 764.51 773.28 769.99 
1361 764.76 773.58 769.99 
1362 764.31 773.33 769.99 
1363 762.93 773.57 769.99 
1364 762.15 773.33 769.99 
1365 761.91 773.34 769.99 
1366 764.07 773.48 769.99 
1367 763.48 773.40 769.99 
1368 764.96 773.06 769.99 
1369 762.61 773.39 769.99 
1370 763.40 773.20 769.99 
1371 767.72 773.37 769.99 
1372 766.59 773.39 769.99 
1373 763.39 773.14 769.99 
1374 763.52 773.20 769.99 
1375 762.89 773.42 769.99 
1376 762.75 773.35 769.99 
1377 762.97 773.57 769.99 
1378 761.11 773.55 769.99 
1379 765.50 773.53 769.99 
1380 762.55 773.52 769.99 
1381 762.78 773.49 769.99 
1382 759.20 773.50 769.99 
1383 765.00 772.98 769.99 
1384 761.28 772.99 769.99 
1385 766.07 773.01 769.99 
1386 761.65 773.05 769.99 
1387 765.06 773.01 769.99 
1388 763.65 772.87 769.99 
1389 763.72 773.01 769.99 
1390 763.71 773.02 769.99 
1391 760.37 772.94 769.99 
1392 764.36 773.03 769.99 
1393 765.79 773.00 769.99 
1394 761.14 773.04 769.99 
1395 763.17 773.06 769.99 
1396 763.06 773.09 769.99 
1397 766.04 773.08 769.99 
1398 763.91 773.11 769.99 
1399 765.72 773.33 769.99 
1400 761.57 773.57 769.99 
1401 763.83 773.05 769.99 
1402 762.56 773.10 769.99 
1403 764.38 773.34 769.99 
1404 766.02 772.99 769.99 
1405 762.96 772.96 769.99 
1406 760.63 773.00 769.99 
1407 767.55 773.01 769.99 
1408 763.59 773.00 769.99 
1409 763.04 773.04 769.99 
1410 765.48 772.98 769.99 
1411 765.76 773.00 769.99 
1412 767.58 773.07 769.99 
1413 762.10 772.94 769.99 
1414 765.07 773.55 769.99 
1415 759.45 773.53 769.99 
1416 764.33 773.52 769.99 
1417 764.21 773.46 769.99 
1418 762.46 773.53 769.99 
1419 761.37 773.59 769.99 
1420 764.48 773.30 769.99 
1421 762.40 773.03 769.99 
1422 763.91 773.00 769.99 
1423 762.18 773.02 769.99 
1424 763.60 773.03 769.99 
1425 763.01 773.05 769.99 
1426 764.31 773.28 769.99 
1427 760.57 773.29 769.99 
1428 765.21 773.51 769.99 
1429 761.88 773.40 769.99 
1430 762.88 773.43 769.99 
1431 763.92 773.55 769.99 
1432 764.87 773.55 769.99 
1433 765.63 773.44 769.99 
1434 762.10 773.46 769.99 
1435 763.16 773.53 769.99 
1436 761.13 773.40 769.99 
1437 765.05 773.41 769.99 
1438 763.27 773.36 769.99 
1439 763.12 773.34 769.99 
1440 762.24 773.40 769.99 
1441 759.15 773.43 769.99 
1442 760.39 773.32 769.99 
1443 761.31 773.19 769.99 
1444 762.19 773.28 769.99 
1445 765.85 773.00 769.99 
1446 760.83 772.85 769.99 
1447 762.87 772.91 769.99 
1448 763.71 773.04 769.99 
1449 764.34 772.93 769.99 
1450 762.34 772.47 769.99 
1451 763.39 772.54 769.99 
1452 761.80 772.40 769.99 
1453 764.81 773.14 769.99 
1454 761.61 773.21 769.99 
1455 762.28 772.95 769.99 
1456 763.96 772.95 769.99 
1457 767.52 773.08 769.99 
1458 761.97 773.01 769.99 
1459 762.93 773.07 769.99 
1460 768.87 772.74 769.99 
1461 764.65 772.83 769.99 
1462 763.62 772.79 769.99 
1463 765.12 772.62 769.99 
1464 766.20 772.41 769.99 
1465 764.07 772.63 769.99 
1466 766.57 772.82 769.99 
1467 766.95 772.98 769.99 
1468 758.90 773.06 769.99 
1469 764.33 773.13 769.99 
1470 762.47 773.29 769.99 
1471 764.63 773.30 769.99 
1472 762.22 773.18 769.99 
1473 759.32 773.33 769.99 
1474 764.13 773.33 769.99 
1475 765.84 773.29 769.99 
1476 762.08 773.25 769.99 
1477 760.72 773.27 769.99 
1478 759.14 773.30 769.99 
1479 765.42 773.32 769.99 
1480 761.95 773.05 769.99 
1481 761.41 773.11 769.99 
1482 764.39 772.98 769.99 
1483 762.79 773.30 769.99 
1484 763.81 773.20 769.99 
1485 766.58 773.25 769.99 
1486 768.04 772.98 769.99 
1487 764.04 773.12 769.99 
1488 766.03 773.21 769.99 
1489 766.78 773.32 769.99 
1490 762.26 773.21 769.99 
1491 764.21 773.15 769.99 
1492 759.96 772.99 769.99 
1493 762.14 773.15 769.99 
1494 766.81 772.84 769.99 
1495 767.32 772.79 769.99 
1496 762.36 772.98 769.99 
1497 765.12 773.16 769.99 
1498 764.30 773.14 769.99 
1499 767.69 773.24 769.99 
1500 760.96 773.31 769.99 
1501 760.96 773.32 769.99 
1502 761.16 773.28 769.99 
1503 761.76 773.30 769.99 
1504 765.51 773.25 769.99 
1505 762.26 773.24 769.99 
1506 761.25 773.21 769.99 
1507 761.54 773.28 769.99 
1508 759.57 773.20 769.99 
1509 764.20 773.24 769.99 
1510 763.86 773.22 769.99 
1511 764.93 773.20 769.99 
1512 763.32 773.24 769.99 
1513 761.84 773.27 769.99 
1514 758.94 773.27 769.99 
1515 763.19 773.31 769.99 
1516 765.53 773.32 769.99 
1517 764.58 773.28 769.99 
1518 765.87 773.16 769.99 
1519 763.33 773.00 769.99 
1520 761.58 773.18 769.99 
1521 766.91 773.20 769.99 
1522 763.21 773.09 769.99 
1523 763.70 773.06 769.99 
1524 764.69 773.18 769.99 
1525 763.60 773.21 769.99 
1526 760.84 773.32 769.99 
1527 762.92 773.16 769.99 
1528 761.01 773.25 769.99 
1529 762.36 773.22 769.99 
1530 761.72 773.21 769.99 
1531 762.64 773.23 769.99 
1532 760.69 773.28 769.99 
1533 769.33 773.30 769.99 
1534 768.59 773.29 769.99 
1535 766.17 772.92 769.99 
1536 761.78 773.20 769.99 
1537 766.68 773.22 769.99 
1538 764.72 773.23 769.99 
1539 762.27 772.92 769.99 
1540 767.19 773.11 769.99 
1541 763.30 773.19 769.99 
1542 763.31 772.93 769.99 
1543 762.52 773.23 769.99 
1544 765.35 773.23 769.99 
1545 764.08 773.25 769.99 
1546 761.86 773.24 769.99 
1547 764.17 773.16 769.99 
1548 765.14 773.17 769.99 
1549 765.79 773.21 769.99 
1550 765.22 773.21 769.99 
1551 761.05 772.98 769.99 
1552 761.46 773.02 769.99 
1553 762.53 772.98 769.99 
1554 761.51 773.22 769.99 
1555 765.01 773.28 769.99 
1556 764.77 772.94 769.99 
1557 760.72 773.24 769.99 
1558 763.79 773.17 769.99 
1559 764.36 773.17 769.99 
1560 763.91 773.18 769.99 
1561 763.04 773.28 769.99 
1562 762.44 773.29 769.99 
1563 764.80 773.21 769.99 
1564 763.54 773.32 769.99 
1565 765.18 773.33 769.99 
1566 766.96 773.37 769.99 
1567 763.01 773.27 769.99 
1568 763.05 773.39 769.99 
1569 764.58 773.36 769.99 
1570 762.24 773.37 769.99 
1571 765.83 773.29 769.99 
1572 764.57 772.89 769.99 
1573 762.74 772.95 769.99 
1574 762.67 772.99 769.99 
1575 764.84 773.19 769.99 
1576 763.42 773.36 769.99 
1577 762.88 773.33 769.99 
1578 764.59 773.25 769.99 
1579 765.05 773.30 769.99 
1580 764.43 773.14 769.99 
1581 764.33 773.14 769.99 
1582 764.91 772.91 769.99 
1583 767.17 773.12 769.99 
1584 763.36 772.93 769.99 
1585 763.45 773.00 769.99 
1586 762.47 773.03 769.99 
1587 764.40 773.23 769.99 
1588 765.19 772.80 769.99 
1589 765.08 773.03 769.99 
1590 764.78 772.96 769.99 
1591 766.47 772.54 769.99 
1592 763.32 772.81 769.99 
1593 765.14 773.10 769.99 
1594 761.88 772.90 769.99 
1595 762.74 773.28 769.99 
1596 762.58 772.98 769.99 
1597 766.43 773.01 769.99 
1598 764.14 773.30 769.99 
1599 763.80 773.32 769.99 
1600 763.22 773.28 769.99 
1601 764.17 773.26 769.99 
1602 767.52 773.33 769.99 
1603 764.45 773.30 769.99 
1604 763.17 773.34 769.99 
1605 764.08 773.06 769.99 
1606 762.23 773.29 769.99 
1607 765.56 773.02 769.99 
1608 765.08 773.04 769.99 
1609 761.68 773.01 769.99 
1610 765.80 773.11 769.99 
1611 760.93 773.09 769.99 
1612 765.83 773.31 769.99 
1613 765.27 773.29 769.99 
1614 763.97 773.30 769.99 
1615 761.50 773.29 769.99 
1616 763.02 773.31 769.99 
1617 766.90 773.31 769.99 
1618 764.59 773.28 769.99 
1619 760.00 773.28 769.99 
1620 762.52 773.30 769.99 
1621 764.49 773.29 769.99 
1622 760.84 773.21 769.99 
1623 762.55 773.31 769.99 
1624 762.02 773.33 769.99 
1625 762.98 773.27 769.99 
1626 761.72 772.95 769.99 
1627 762.65 773.10 769.99 
1628 765.14 773.09 769.99 
1629 764.53 773.23 769.99 
1630 763.12 773.07 769.99 
1631 764.68 773.13 769.99 
1632 767.55 773.04 769.99 
1633 764.89 773.03 769.99 
1634 763.65 773.06 769.99 
1635 766.70 772.99 769.99 
1636 765.44 773.11 769.99 
1637 765.80 773.10 769.99 
1638 761.33 773.24 769.99 
1639 760.63 773.31 769.99 
1640 761.01 773.08 769.99 
1641 766.63 773.29 769.99 
1642 765.04 773.42 769.99 
1643 763.82 773.33 769.99 
1644 764.81 773.30 769.99 
1645 765.06 773.25 769.99 
1646 762.48 773.33 769.99 
1647 766.78 772.96 769.99 
1648 762.13 773.07 769.99 
1649 763.85 773.12 769.99 
1650 763.96 773.20 769.99 
1651 766.36 772.92 769.99 
1652 760.85 773.19 769.99 
1653 759.87 773.31 769.99 
1654 762.89 773.07 769.99 
1655 765.18 772.94 769.99 
1656 764.57 772.76 769.99 
1657 761.32 772.80 769.99 
1658 763.61 772.72 769.99 
1659 763.85 772.81 769.99 
1660 761.83 772.71 769.99 
1661 762.40 772.71 769.99 
1662 764.52 772.74 769.99 
1663 765.16 772.78 769.99 
1664 760.66 772.78 769.99 
1665 763.99 772.64 769.99 
1666 763.11 772.56 769.99 
1667 762.76 772.68 769.99 
1668 761.49 772.72 769.99 
1669 764.01 772.62 769.99 
1670 763.94 772.71 769.99 
1671 762.21 772.74 769.99 
1672 761.02 772.69 769.99 
1673 767.77 772.60 769.99 
1674 763.15 772.56 769.99 
1675 767.35 772.61 769.99 
1676 766.96 772.49 769.99 
1677 763.21 772.58 769.99 
1678 763.88 772.60 769.99 
1679 763.75 772.56 769.99 
1680 763.84 772.77 769.99 
1681 765.39 772.54 769.99 
1682 763.30 772.67 769.99 
1683 766.36 772.62 769.99 
1684 761.40 772.57 769.99 
1685 761.63 772.49 769.99 
1686 766.04 772.59 769.99 
1687 757.36 772.71 769.99 
1688 764.67 772.94 769.99 
1689 763.26 772.63 769.99 
1690 762.29 772.74 769.99 
1691 762.61 772.89 769.99 
1692 767.72 772.89 769.99 
1693 762.20 772.89 769.99 
1694 766.84 772.64 769.99 
1695 762.04 772.77 769.99 
1696 761.37 772.99 769.99 
1697 765.85 773.04 769.99 
1698 765.52 772.99 769.99 
1699 762.67 772.80 769.99 
1700 761.44 772.78 769.99 
1701 762.70 772.94 769.99 
1702 762.38 772.68 769.99 
1703 760.69 772.79 769.99 
1704 768.43 772.82 769.99 
1705 763.02 772.67 769.99 
1706 764.61 772.83 769.99 
1707 765.37 772.77 769.99 
1708 762.64 772.68 769.99 
1709 762.98 772.82 769.99 
1710 763.95 772.70 769.99 
1711 761.64 772.96 769.99 
1712 762.29 772.73 769.99 
1713 763.03 772.59 769.99 
1714 765.07 772.73 769.99 
1715 763.63 772.54 769.99 
1716 766.42 772.80 769.99 
1717 763.76 772.69 769.99 
1718 764.77 772.64 769.99 
1719 761.92 772.89 769.99 
1720 766.44 773.18 769.99 
1721 761.32 773.12 769.99 
1722 764.34 773.10 769.99 
1723 761.12 773.30 769.99 
1724 765.91 773.27 769.99 
1725 763.54 772.91 769.99 
1726 763.32 772.87 769.99 
1727 764.31 772.53 769.99 
1728 762.93 772.72 769.99 
1729 766.23 772.51 769.99 
1730 766.02 773.06 769.99 
1731 761.73 772.84 769.99 
1732 764.03 772.80 769.99 
1733 768.80 772.53 769.99 
1734 764.68 772.49 769.99 
1735 763.85 772.64 769.99 
1736 762.76 773.06 769.99 
1737 763.89 773.03 769.99 
1738 765.25 772.86 769.99 
1739 766.08 772.92 769.99 
1740 761.07 772.79 769.99 
1741 763.18 773.02 769.99 
1742 761.95 773.12 769.99 
1743 762.67 773.11 769.99 
1744 764.93 772.89 769.99 
1745 766.16 772.99 769.99 
1746 759.97 773.11 769.99 
1747 764.15 772.79 769.99 
1748 760.39 772.63 769.99 
1749 765.17 772.86 769.99 
1750 764.57 772.86 769.99 
1751 763.67 772.97 769.99 
1752 763.30 772.86 769.99 
1753 764.73 773.11 769.99 
1754 761.17 772.86 769.99 
1755 763.67 773.09 769.99 
1756 764.00 772.98 769.99 
1757 762.21 773.01 769.99 
1758 763.01 772.70 769.99 
1759 762.28 772.87 769.99 
1760 764.53 773.00 769.99 
1761 759.62 772.90 769.99 
1762 759.62 772.92 769.99 
1763 761.44 772.80 769.99 
1764 763.78 772.90 769.99 
1765 765.19 772.77 769.99 
1766 764.42 772.98 769.99 
1767 763.84 772.87 769.99 
1768 762.98 773.03 769.99 
1769 762.09 773.24 769.99 
1770 765.52 773.02 769.99 
1771 762.61 773.08 769.99 
1772 763.28 773.09 769.99 
1773 762.10 773.03 769.99 
1774 762.08 773.13 769.99 
1775 759.72 773.05 769.99 
1776 765.08 773.15 769.99 
1777 761.69 773.12 769.99 
1778 765.45 773.13 769.99 
1779 765.99 773.16 769.99 
1780 765.41 773.14 769.99 
1781 763.39 773.24 769.99 
1782 766.01 773.13 769.99 
1783 766.74 773.24 769.99 
1784 766.39 773.28 769.99 
1785 764.14 773.14 769.99 
1786 763.68 773.10 769.99 
1787 766.03 773.27 769.99 
1788 765.70 773.13 769.99 
1789 763.76 773.14 769.99 
1790 761.95 773.23 769.99 
1791 766.26 773.16 769.99 
1792 767.53 773.30 769.99 
1793 762.47 773.23 769.99 
1794 764.98 773.21 769.99 
1795 765.42 773.17 769.99 
1796 765.01 773.15 769.99 
1797 763.01 773.14 769.99 
1798 762.29 773.28 769.99 
1799 767.63 773.22 769.99 
1800 766.48 773.16 769.99 
1801 766.22 773.18 769.99 
1802 761.08 773.12 769.99 
1803 763.87 773.14 769.99 
1804 763.09 773.10 769.99 
1805 764.16 773.17 769.99 
1806 764.34 773.13 769.99 
1807 764.74 773.09 769.99 
1808 758.37 773.03 769.99 
1809 764.46 772.80 769.99 
1810 765.62 772.73 769.99 
1811 760.74 772.84 769.99 
1812 760.13 772.89 769.99 
1813 761.19 772.79 769.99 
1814 760.40 772.80 769.99 
1815 760.99 772.76 769.99 
1816 765.19 772.71 769.99 
1817 763.04 772.70 769.99 
1818 761.09 772.63 769.99 
1819 765.57 772.65 769.99 
1820 765.60 772.71 769.99 
1821 763.85 772.79 769.99 
1822 764.65 772.84 769.99 
1823 762.60 772.94 769.99 
1824 763.13 772.89 769.99 
1825 759.89 772.84 769.99 
1826 764.09 772.52 769.99 
1827 765.43 772.79 769.99 
1828 763.07 772.83 769.99 
1829 766.22 772.85 769.99 
1830 765.60 772.88 769.99 
1831 767.05 772.85 769.99 
1832 759.78 772.92 769.99 
1833 762.59 772.82 769.99 
1834 761.66 772.79 769.99 
1835 760.45 772.82 769.99 
1836 761.86 772.92 769.99 
1837 764.23 772.95 769.99 
1838 766.45 773.03 769.99 
1839 764.17 772.97 769.99 
1840 759.60 772.91 769.99 
1841 763.15 772.76 769.99 
1842 762.32 772.84 769.99 
1843 763.59 772.74 769.99 
1844 763.01 772.87 769.99 
1845 762.00 772.58 769.99 
1846 764.15 772.93 769.99 
1847 765.02 772.70 769.99 
1848 760.87 772.58 769.99 
1849 766.29 772.80 769.99 
1850 764.02 772.69 769.99 
1851 762.75 772.82 769.99 
1852 764.31 772.76 769.99 
1853 760.76 772.95 769.99 
1854 765.87 772.90 769.99 
1855 762.80 772.93 769.99 
1856 763.14 772.95 769.99 
1857 764.89 772.84 769.99 
1858 762.25 773.13 769.99 
1859 761.48 773.12 769.99 
1860 769.45 773.09 769.99 
1861 762.87 773.02 769.99 
1862 761.93 773.17 769.99 
1863 766.48 773.18 769.99 
1864 764.14 773.23 769.99 
1865 762.89 773.18 769.99 
1866 765.01 773.19 769.99 
1867 763.24 773.11 769.99 
1868 764.19 773.08 769.99 
1869 763.56 773.15 769.99 
1870 759.42 772.96 769.99 
1871 764.09 773.09 769.99 
1872 762.22 773.20 769.99 
1873 763.75 772.98 769.99 
1874 761.09 773.18 769.99 
1875 764.63 773.19 769.99 
1876 763.28 773.16 769.99 
1877 763.44 773.19 769.99 
1878 763.91 773.17 769.99 
1879 760.77 773.21 769.99 
1880 765.23 773.24 769.99 
1881 763.29 773.24 769.99 
1882 761.83 773.24 769.99 
1883 767.00 773.21 769.99 
1884 765.92 773.02 769.99 
1885 767.31 773.01 769.99 
1886 765.42 773.07 769.99 
1887 762.71 773.08 769.99 
1888 761.79 773.11 769.99 
1889 763.67 773.14 769.99 
1890 765.60 773.14 769.99 
1891 763.39 773.13 769.99 
1892 763.34 773.16 769.99 
1893 762.82 773.16 769.99 
1894 761.89 773.16 769.99 
1895 765.97 773.19 769.99 
1896 762.19 773.18 769.99 
1897 765.60 773.19 769.99 
1898 765.25 773.15 769.99 
1899 764.43 773.14 769.99 
1900 762.99 773.10 769.99 
1901 765.88 773.21 769.99 
1902 762.04 773.19 769.99 
1903 761.23 773.18 769.99 
1904 765.43 773.14 769.99 
1905 764.09 773.13 769.99 
1906 762.51 773.11 769.99 
1907 765.20 773.13 769.99 
1908 761.44 773.21 769.99 
1909 763.54 773.18 769.99 
1910 763.26 773.23 769.99 
1911 765.52 773.16 769.99 
1912 764.75 773.19 769.99 
1913 764.51 773.19 769.99 
1914 764.73 773.09 769.99 
1915 764.54 773.15 769.99 
1916 763.26 773.13 769.99 
1917 763.43 773.13 769.99 
1918 761.12 773.08 769.99 
1919 763.12 773.14 769.99 
1920 762.89 773.10 769.99 
1921 762.70 773.17 769.99 
1922 764.75 773.16 769.99 
1923 761.54 773.16 769.99 
1924 767.37 773.16 769.99 
1925 763.29 773.09 769.99 
1926 764.72 773.02 769.99 
1927 761.46 773.04 769.99 
1928 764.84 773.05 769.99 
1929 767.29 773.02 769.99 
1930 762.22 773.27 769.99 
1931 759.14 773.05 769.99 
1932 762.64 773.11 769.99 
1933 764.30 773.05 769.99 
1934 763.48 773.09 769.99 
1935 758.66 773.37 769.99 
1936 760.45 773.30 769.99 
1937 763.63 773.24 769.99 
1938 767.99 773.27 769.99 
1939 762.60 773.29 769.99 
1940 760.72 773.37 769.99 
1941 762.87 773.26 769.99 
1942 763.56 773.33 769.99 
1943 762.52 773.37 769.99 
1944 763.22 773.10 769.99 
1945 763.84 773.03 769.99 
1946 760.76 773.05 769.99 
1947 763.86 773.08 769.99 
1948 764.70 773.10 769.99 
1949 764.13 773.34 769.99 
1950 762.07 773.33 769.99 
1951 764.46 773.35 769.99 
1952 761.12 773.11 769.99 
1953 761.98 773.06 769.99 
1954 761.95 773.12 769.99 
1955 763.15 773.13 769.99 
1956 761.47 773.18 769.99 
1957 763.59 773.04 769.99 
1958 764.87 773.10 769.99 
1959 767.58 773.29 769.99 
1960 760.35 773.27 769.99 
1961 764.88 773.40 769.99 
1962 765.72 773.34 769.99 
1963 765.90 773.09 769.99 
1964 765.67 773.14 769.99 
1965 764.10 773.08 769.99 
1966 762.87 773.03 769.99 
1967 762.25 773.02 769.99 
1968 764.81 772.96 769.99 
1969 761.16 773.04 769.99 
1970 759.45 773.22 769.99 
1971 761.40 772.98 769.99 
1972 765.25 772.97 769.99 
1973 763.22 773.12 769.99 
1974 762.59 773.12 769.99 
1975 764.02 772.94 769.99 
1976 766.56 772.96 769.99 
1977 763.57 772.86 769.99 
1978 763.17 772.89 769.99 
1979 766.45 772.93 769.99 
1980 762.72 772.81 769.99 
1981 762.06 772.92 769.99 
1982 762.10 772.92 769.99 
1983 763.47 772.95 769.99 
1984 761.60 772.92 769.99 
1985 763.86 772.96 769.99 
1986 764.86 772.86 769.99 
1987 763.14 772.81 769.99 
1988 764.42 772.96 769.99 
1989 764.18 772.90 769.99 
1990 760.11 773.05 769.99 
1991 764.10 772.86 769.99 
1992 760.92 772.91 769.99 
1993 763.36 772.86 769.99 
1994 762.04 772.86 769.99 
1995 760.81 772.99 769.99 
1996 764.39 772.93 769.99 
1997 762.82 772.89 769.99 
1998 763.87 772.80 769.99 
1999 762.48 773.07 769.99 
2000 762.66 773.11 769.99 
2001 763.06 773.07 769.99 
2002 764.64 773.03 769.99 
2003 760.79 773.05 769.99 
2004 761.01 773.22 769.99 
2005 765.57 773.11 769.99 
2006 762.42 772.94 769.99 
2007 763.00 772.97 769.99 
2008 764.11 772.98 769.99 
2009 763.82 772.96 769.99 
2010 761.20 772.98 769.99 
2011 764.60 773.22 769.99 
2012 760.42 773.06 769.99 
2013 760.73 773.12 769.99 
2014 762.57 773.20 769.99 
2015 766.86 773.07 769.99 
2016 764.03 773.10 769.99 
2017 760.66 773.17 769.99 
2018 764.27 773.02 769.99 
2019 766.71 773.19 769.99 
2020 764.51 773.07 769.99 
2021 764.95 773.18 769.99 
2022 765.08 773.11 769.99 
2023 767.43 773.15 769.99 
2024 758.76 773.03 769.99 
2025 763.03 773.11 769.99 
2026 763.09 773.12 769.99 
2027 763.10 773.13 769.99 
2028 761.86 773.43 769.99 
2029 761.96 773.52 769.99 
2030 761.89 773.44 769.99 
2031 765.23 773.25 769.99 
2032 761.98 773.10 769.99 
2033 762.80 773.19 769.99 
2034 763.49 773.15 769.99 
2035 763.10 773.15 769.99 
2036 764.40 773.18 769.99 
2037 760.82 773.07 769.99 
2038 764.31 773.17 769.99 
2039 767.27 773.23 769.99 
2040 760.70 773.20 769.99 
2041 763.50 773.22 769.99 
2042 765.02 773.22 769.99 
2043 762.18 773.16 769.99 
2044 763.40 773.16 769.99 
2045 763.52 773.22 769.99 
2046 764.38 773.28 769.99 
2047 765.97 773.14 769.99 
2048 766.81 773.20 769.99 
2049 765.33 773.22 769.99 
2050 762.93 773.21 769.99 
2051 760.10 773.21 769.99 
2052 766.50 773.29 769.99 
2053 763.18 773.22 769.99 
2054 765.35 773.19 769.99 
2055 762.20 773.20 769.99 
2056 765.42 773.22 769.99 
2057 764.50 773.18 769.99 
2058 764.29 773.30 769.99 
2059 763.74 773.23 769.99 
2060 764.13 773.24 769.99 
2061 761.23 773.28 769.99 
2062 763.55 773.20 769.99 
2063 765.40 773.21 769.99 
2064 766.75 773.29 769.99 
2065 763.15 773.29 769.99 
2066 763.97 773.25 769.99 
2067 764.81 773.28 769.99 
2068 761.39 773.28 769.99 
2069 761.12 773.31 769.99 
2070 762.43 773.30 769.99 
2071 765.80 773.30 769.99 
2072 764.85 773.24 769.99 
2073 765.82 773.28 769.99 
2074 765.32 773.22 769.99 
2075 766.10 773.19 769.99 
2076 761.81 773.26 769.99 
2077 761.06 773.17 769.99 
2078 764.42 773.30 769.99 
2079 766.55 773.36 769.99 
2080 765.23 773.31 769.99 
2081 762.96 773.30 769.99 
2082 763.62 773.29 769.99 
2083 765.77 773.28 769.99 
2084 763.28 773.26 769.99 
2085 759.99 773.34 769.99 
2086 763.54 773.31 769.99 
2087 761.25 773.35 769.99 
2088 764.34 773.37 769.99 
2089 762.64 773.31 769.99 
2090 761.14 773.35 769.99 
2091 763.60 773.32 769.99 
2092 766.02 773.28 769.99 
2093 763.98 773.29 769.99 
2094 764.91 773.31 769.99 
2095 765.60 773.03 769.99 
2096 765.62 773.22 769.99 
2097 763.66 773.20 769.99 
2098 763.89 773.31 769.99 
2099 764.02 773.02 769.99 
2100 767.01 772.73 769.99 
2101 762.94 773.05 769.99 
2102 761.80 772.80 769.99 
2103 759.81 773.03 769.99 
2104 761.36 772.98 769.99 
2105 761.43 773.33 769.99 
2106 761.65 773.24 769.99 
2107 768.27 773.29 769.99 
2108 761.06 773.31 769.99 
2109 761.67 773.20 769.99 
2110 762.43 773.27 769.99 
2111 765.03 773.27 769.99 
2112 764.21 773.18 769.99 
2113 766.80 773.23 769.99 
2114 766.21 773.25 769.99 
2115 764.88 773.29 769.99 
2116 766.17 773.29 769.99 
2117 766.66 773.02 769.99 
2118 766.39 773.25 769.99 
2119 765.64 773.26 769.99 
2120 764.10 772.90 769.99 
2121 765.19 773.17 769.99 
2122 765.15 773.15 769.99 
2123 764.83 773.29 769.99 
2124 762.39 773.32 769.99 
2125 760.50 773.22 769.99 
2126 763.97 772.77 769.99 
2127 766.34 772.73 769.99 
2128 763.90 772.98 769.99 
2129 763.37 772.97 769.99 
2130 762.95 773.17 769.99 
2131 763.74 773.14 769.99 
2132 762.89 773.18 769.99 
2133 763.95 772.96 769.99 
2134 764.57 772.90 769.99 
2135 762.31 772.93 769.99 
2136 766.56 772.88 769.99 
2137 762.16 772.89 769.99 
2138 764.74 773.11 769.99 
2139 762.64 773.11 769.99 
2140 763.71 773.09 769.99 
2141 763.49 773.12 769.99 
2142 759.11 773.14 769.99 
2143 763.01 773.19 769.99 
2144 765.94 773.24 769.99 
2145 766.17 773.22 769.99 
2146 762.73 773.17 769.99 
2147 761.64 773.19 769.99 
2148 764.90 773.16 769.99 
2149 765.02 772.86 769.99 
2150 765.85 773.20 769.99 
2151 764.73 773.19 769.99 
2152 765.61 773.17 769.99 
2153 763.79 773.20 769.99 
2154 762.93 773.20 769.99 
2155 761.32 773.19 769.99 
2156 764.22 772.92 769.99 
2157 761.06 772.88 769.99 
2158 764.23 772.92 769.99 
2159 762.08 772.95 769.99 
2160 761.47 772.95 769.99 
2161 764.71 772.90 769.99 
2162 760.08 772.85 769.99 
2163 763.18 772.91 769.99 
2164 764.79 772.91 769.99 
2165 764.27 772.84 769.99 
2166 758.44 772.92 769.99 
2167 764.32 772.90 769.99 
2168 761.55 773.16 769.99 
2169 762.30 773.17 769.99 
2170 762.10 773.20 769.99 
2171 766.10 773.17 769.99 
2172 761.13 773.21 769.99 
2173 766.05 773.17 769.99 
2174 764.12 772.89 769.99 
2175 765.86 773.16 769.99 
2176 763.28 772.91 769.99 
2177 760.06 772.92 769.99 
2178 764.13 772.92 769.99 
2179 761.29 772.78 769.99 
2180 765.68 772.88 769.99 
2181 762.78 773.20 769.99 
2182 763.74 773.17 769.99 
2183 760.79 773.15 769.99 
2184 759.63 773.19 769.99 
2185 762.32 773.20 769.99 
2186 762.25 773.19 769.99 
2187 760.64 773.20 769.99 
2188 760.68 773.14 769.99 
2189 766.57 773.21 769.99 
2190 762.74 773.15 769.99 
2191 763.32 773.20 769.99 
2192 762.39 773.22 769.99 
2193 764.69 773.22 769.99 
2194 758.60 773.21 769.99 
2195 764.43 773.16 769.99 
2196 765.18 773.12 769.99 
2197 766.13 773.15 769.99 
2198 760.69 773.08 769.99 
2199 763.74 773.14 769.99 
2200 762.12 773.12 769.99 
2201 762.43 773.12 769.99 
2202 766.47 773.14 769.99 
2203 765.25 773.18 769.99 
2204 763.33 773.17 769.99 
2205 762.36 773.22 769.99 
2206 763.06 772.86 769.99 
2207 759.80 772.86 769.99 
2208 764.32 772.92 769.99 
2209 764.04 773.10 769.99 
2210 759.88 773.13 769.99 
2211 761.06 773.05 769.99 
2212 767.48 773.10 769.99 
2213 761.01 773.15 769.99 
2214 764.06 773.16 769.99 
2215 763.35 773.11 769.99 
2216 766.29 773.16 769.99 
2217 765.64 772.88 769.99 
2218 762.66 773.01 769.99 
2219 764.19 772.97 769.99 
2220 764.50 773.03 769.99 
2221 764.31 772.82 769.99 
2222 765.32 773.06 769.99 
2223 764.20 773.16 769.99 
2224 763.17 772.64 769.99 
2225 763.49 773.15 769.99 
2226 763.35 773.18 769.99 
2227 760.46 772.99 769.99 
2228 766.77 773.10 769.99 
2229 762.83 773.19 769.99 
2230 763.56 773.18 769.99 
2231 763.19 772.91 769.99 
2232 765.27 773.25 769.99 
2233 760.22 772.95 769.99 
2234 763.73 772.94 769.99 
2235 762.23 773.25 769.99 
2236 762.52 773.21 769.99 
2237 763.72 773.19 769.99 
2238 762.64 773.15 769.99 
2239 763.62 773.09 769.99 
2240 767.29 773.19 769.99 
2241 761.20 773.16 769.99 
2242 767.41 773.17 769.99 
2243 764.16 773.11 769.99 
2244 765.63 773.13 769.99 
2245 769.49 773.10 769.99 
2246 759.19 773.13 769.99 
2247 763.25 773.12 769.99 
2248 762.08 773.13 769.99 
2249 757.38 773.05 769.99 
2250 761.81 773.09 769.99 
2251 765.48 773.08 769.99 
2252 764.13 773.14 769.99 
2253 760.16 773.14 769.99 
2254 765.42 773.19 769.99 
2255 764.02 773.14 769.99 
2256 764.55 773.19 769.99 
2257 762.30 773.18 769.99 
2258 764.41 773.17 769.99 
2259 763.52 773.17 769.99 
2260 761.55 773.20 769.99 
2261 764.09 773.20 769.99 
2262 763.76 773.15 769.99 
2263 763.55 773.24 769.99 
2264 765.31 773.19 769.99 
2265 763.50 773.17 769.99 
2266 762.78 773.22 769.99 
2267 763.13 773.13 769.99 
2268 764.98 773.19 769.99 
2269 764.67 773.14 769.99 
2270 763.65 772.76 769.99 
2271 763.79 773.00 769.99 
2272 761.18 772.95 769.99 
2273 763.18 772.96 769.99 
2274 764.33 773.15 769.99 
2275 763.39 773.04 769.99 
2276 763.61 773.19 769.99 
2277 761.99 773.13 769.99 
2278 763.67 773.07 769.99 
2279 759.18 773.07 769.99 
2280 765.14 773.14 769.99 
2281 762.48 773.14 769.99 
2282 763.08 773.11 769.99 
2283 765.35 773.15 769.99 
2284 764.91 773.22 769.99 
2285 761.14 772.64 769.99 
2286 762.69 773.16 769.99 
2287 763.28 773.14 769.99 
2288 763.52 773.11 769.99 
2289 766.11 773.14 769.99 
2290 762.38 773.15 769.99 
2291 762.61 773.12 769.99 
2292 764.87 772.90 769.99 
2293 762.04 772.83 769.99 
2294 765.08 772.79 769.99 
2295 761.33 772.89 769.99 
2296 763.94 772.86 769.99 
2297 762.05 773.11 769.99 
2298 761.16 773.07 769.99 
2299 764.12 773.04 769.99 
2300 765.98 772.66 769.99 
2301 762.17 773.01 769.99 
2302 765.88 773.07 769.99 
2303 763.68 773.10 769.99 
2304 767.97 772.89 769.99 
2305 760.87 772.87 769.99 
2306 761.53 772.86 769.99 
2307 761.24 773.03 769.99 
2308 766.84 773.09 769.99 
2309 765.30 772.94 769.99 
2310 763.25 773.13 769.99 
2311 766.85 773.09 769.99 
2312 758.71 773.10 769.99 
2313 764.20 773.01 769.99 
2314 765.72 773.08 769.99 
2315 764.31 773.04 769.99 
2316 766.07 773.09 769.99 
2317 763.97 773.03 769.99 
2318 763.65 772.97 769.99 
2319 762.35 772.98 769.99 
2320 764.21 772.93 769.99 
2321 761.87 772.90 769.99 
2322 760.34 772.96 769.99 
2323 760.39 772.96 769.99 
2324 765.63 772.93 769.99 
2325 760.71 773.02 769.99 
2326 761.70 772.99 769.99 
2327 763.97 773.07 769.99 
2328 763.81 773.07 769.99 
2329 768.59 773.03 769.99 
2330 766.79 772.93 769.99 
2331 761.73 773.06 769.99 
2332 765.02 772.89 769.99 
2333 765.76 772.66 769.99 
2334 761.78 772.91 769.99 
2335 766.70 772.97 769.99 
2336 766.58 772.87 769.99 
2337 761.67 772.93 769.99 
2338 763.43 772.92 769.99 
2339 766.62 772.96 769.99 
2340 765.87 773.03 769.99 
2341 763.24 772.84 769.99 
2342 763.78 772.74 769.99 
2343 764.27 772.70 769.99 
2344 761.58 772.57 769.99 
2345 762.99 772.71 769.99 
2346 763.88 772.50 769.99 
2347 763.57 772.69 769.99 
2348 762.26 772.63 769.99 
2349 761.33 772.75 769.99 
2350 764.44 772.79 769.99 
2351 764.11 772.74 769.99 
2352 765.57 772.70 769.99 
2353 767.09 772.69 769.99 
2354 763.99 772.61 769.99 
2355 766.26 772.79 769.99 
2356 762.69 772.72 769.99 
2357 763.70 772.77 769.99 
2358 763.73 772.65 769.99 
2359 762.25 772.79 769.99 
2360 761.61 772.80 769.99 
2361 762.08 772.81 769.99 
2362 761.68 772.81 769.99 
2363 764.76 772.93 769.99 
2364 765.19 772.83 769.99 
2365 763.56 772.82 769.99 
2366 761.94 772.83 769.99 
2367 762.75 772.81 769.99 
2368 763.25 772.76 769.99 
2369 765.55 772.88 769.99 
2370 764.85 772.58 769.99 
2371 762.59 772.81 769.99 
2372 761.90 772.76 769.99 
2373 763.57 772.88 769.99 
2374 763.86 772.91 769.99 
2375 765.81 772.85 769.99 
2376 764.80 772.83 769.99 
2377 764.05 773.10 769.99 
2378 759.85 772.86 769.99 
2379 763.84 772.92 769.99 
2380 760.91 772.80 769.99 
2381 763.58 772.88 769.99 
2382 761.35 772.80 769.99 
2383 765.02 773.13 769.99 
2384 760.78 772.86 769.99 
2385 765.79 772.79 769.99 
2386 761.62 772.95 769.99 
2387 762.39 772.94 769.99 
2388 762.07 772.84 769.99 
2389 762.00 772.92 769.99 
2390 761.77 772.93 769.99 
2391 762.09 772.98 769.99 
2392 764.02 772.98 769.99 
2393 765.76 773.27 769.99 
2394 765.44 773.27 769.99 
2395 767.04 773.27 769.99 
2396 766.85 773.19 769.99 
2397 763.59 772.92 769.99 
2398 764.09 772.94 769.99 
2399 763.72 772.93 769.99 
2400 760.21 773.19 769.99 
2401 764.38 773.21 769.99 
2402 760.86 773.18 769.99 
2403 762.45 773.16 769.99 
2404 761.56 773.13 769.99 
2405 766.91 773.22 769.99 
2406 763.88 773.17 769.99 
2407 761.21 773.26 769.99 
2408 759.37 773.18 769.99 
2409 763.23 773.22 769.99 
2410 764.72 773.22 769.99 
2411 764.93 773.18 769.99 
2412 762.32 773.21 769.99 
2413 759.32 773.15 769.99 
2414 763.24 773.20 769.99 
2415 761.33 773.20 769.99 
2416 762.34 773.16 769.99 
2417 761.26 773.16 769.99 
2418 761.90 773.13 769.99 
2419 765.39 773.20 769.99 
2420 761.06 773.13 769.99 
2421 767.21 773.14 769.99 
2422 763.60 773.13 769.99 
2423 762.70 773.11 769.99 
2424 765.08 773.18 769.99 
2425 763.20 773.16 769.99 
2426 763.46 773.21 769.99 
2427 762.80 773.15 769.99 
2428 762.48 773.20 769.99 
2429 762.27 773.17 769.99 
2430 761.27 773.22 769.99 
2431 764.46 773.22 769.99 
2432 760.29 773.24 769.99 
2433 762.04 773.25 769.99 
2434 764.55 773.02 769.99 
2435 760.95 772.99 769.99 
2436 763.70 773.23 769.99 
2437 762.85 773.20 769.99 
2438 765.02 772.99 769.99 
2439 765.11 773.01 769.99 
2440 763.84 773.01 769.99 
2441 763.69 773.02 769.99 
2442 763.27 772.99 769.99 
2443 763.85 773.00 769.99 
2444 764.57 773.28 769.99 
2445 762.51 773.01 769.99 
2446 763.44 772.99 769.99 
2447 765.43 773.01 769.99 
2448 764.32 773.00 769.99 
2449 765.77 772.98 769.99 
2450 767.38 773.05 769.99 
2451 764.56 773.07 769.99 
2452 762.70 773.03 769.99 
2453 764.30 773.04 769.99 
2454 760.63 772.96 769.99 
2455 764.64 772.91 769.99 
2456 765.29 773.27 769.99 
2457 760.37 772.96 769.99 
2458 762.77 773.01 769.99 
2459 762.88 773.23 769.99 
2460 763.95 773.25 769.99 
2461 762.24 773.23 769.99 
2462 763.37 773.20 769.99 
2463 762.41 773.17 769.99 
2464 758.01 773.23 769.99 
2465 762.38 773.20 769.99 
2466 763.71 773.21 769.99 
2467 761.42 773.24 769.99 
2468 760.20 773.15 769.99 
2469 765.95 773.24 769.99 
2470 763.22 773.26 769.99 
2471 764.65 773.20 769.99 
2472 764.58 773.15 769.99 
2473 762.11 773.16 769.99 
2474 761.77 773.17 769.99 
2475 761.38 773.24 769.99 
2476 762.55 773.19 769.99 
2477 765.80 773.14 769.99 
2478 765.01 773.23 769.99 
2479 768.32 773.23 769.99 
2480 761.61 773.22 769.99 
2481 765.23 773.22 769.99 
2482 765.37 773.27 769.99 
2483 762.86 773.16 769.99 
2484 765.22 773.25 769.99 
2485 767.42 773.29 769.99 
2486 764.15 773.29 769.99 
2487 761.04 773.31 769.99 
2488 763.74 773.27 769.99 
2489 762.08 773.28 769.99 
2490 762.60 773.24 769.99 
2491 767.36 773.26 769.99 
2492 760.74 773.29 769.99 
2493 765.67 773.30 769.99 
2494 760.45 773.23 769.99 
2495 763.60 773.30 769.99 
2496 762.30 773.26 769.99 
2497 766.99 773.03 769.99 
2498 760.83 773.24 769.99 
2499 763.72 773.28 769.99 
2500 763.64 773.26 769.99 
2501 766.76 773.25 769.99 
2502 763.23 773.26 769.99 
2503 764.34 773.24 769.99 
2504 763.17 773.23 769.99 
2505 764.54 773.25 769.99 
2506 762.43 773.23 769.99 
2507 763.16 773.26 769.99 
2508 762.65 772.99 769.99 
2509 762.55 772.98 769.99 
2510 761.60 772.96 769.99 
2511 763.40 773.21 769.99 
2512 764.44 773.20 769.99 
2513 762.40 773.21 769.99 
2514 768.50 772.96 769.99 
2515 763.67 772.97 769.99 
2516 761.41 772.93 769.99 
2517 766.38 772.93 769.99 
2518 765.60 772.94 769.99 
2519 763.92 772.93 769.99 
2520 762.12 772.95 769.99 
2521 764.48 772.99 769.99 
2522 767.77 772.99 769.99 
2523 758.65 772.98 769.99 
2524 764.41 772.95 769.99 
2525 761.46 772.98 769.99 
2526 763.62 773.02 769.99 
2527 763.98 772.98 769.99 
2528 765.16 772.98 769.99 
2529 761.53 772.73 769.99 
2530 760.67 772.96 769.99 
2531 764.68 772.97 769.99 
2532 759.76 772.99 769.99 
2533 766.32 773.01 769.99 
2534 761.82 773.02 769.99 
2535 764.15 773.03 769.99 
2536 765.01 773.02 769.99 
2537 762.55 773.00 769.99 
2538 762.87 773.07 769.99 
2539 762.58 773.05 769.99 
2540 765.93 773.30 769.99 
2541 761.45 773.28 769.99 
2542 762.52 773.29 769.99 
2543 761.98 773.30 769.99 
2544 766.32 773.29 769.99 
2545 764.15 773.03 769.99 
2546 762.22 773.04 769.99 
2547 765.20 773.06 769.99 
2548 766.17 773.06 769.99 
2549 765.19 773.31 769.99 
2550 768.58 773.30 769.99 
2551 762.94 773.28 769.99 
2552 761.95 773.03 769.99 
2553 764.33 773.07 769.99 
2554 763.71 773.05 769.99 
2555 764.96 773.31 769.99 
2556 765.72 773.29 769.99 
2557 763.36 773.32 769.99 
2558 760.53 773.26 769.99 
2559 762.69 773.00 769.99 
2560 762.68 773.05 769.99 
2561 763.72 773.27 769.99 
2562 762.30 773.27 769.99 
2563 762.19 773.32 769.99 
2564 765.63 773.32 769.99 
2565 765.56 773.03 769.99 
2566 763.06 773.27 769.99 
2567 761.75 773.33 769.99 
2568 763.32 773.29 769.99 
2569 763.99 773.03 769.99 
2570 765.24 773.32 769.99 
2571 764.18 773.29 769.99 
2572 764.13 773.35 769.99 
2573 763.55 773.32 769.99 
2574 766.37 773.29 769.99 
2575 763.54 773.31 769.99 
2576 763.59 773.32 769.99 
2577 763.88 773.31 769.99 
2578 764.97 773.35 769.99 
2579 760.53 773.32 769.99 
2580 763.40 773.36 769.99 
2581 762.08 773.36 769.99 
2582 764.45 773.28 769.99 
2583 763.73 773.30 769.99 
2584 763.84 773.27 769.99 
2585 761.09 773.26 769.99 
2586 760.49 773.30 769.99 
2587 766.24 773.29 769.99 
2588 760.87 773.31 769.99 
2589 764.59 773.34 769.99 
2590 759.33 773.33 769.99 
2591 762.40 773.33 769.99 
2592 764.58 773.09 769.99 
2593 763.46 773.30 769.99 
2594 765.39 773.04 769.99 
2595 764.02 773.05 769.99 
2596 764.20 773.06 769.99 
2597 764.44 773.02 769.99 
2598 764.02 773.01 769.99 
2599 763.64 773.07 769.99 
2600 764.26 773.08 769.99 
2601 767.10 773.32 769.99 
2602 764.18 773.07 769.99 
2603 765.00 773.06 769.99 
2604 764.24 773.09 769.99 
2605 763.60 773.10 769.99 
2606 758.70 773.11 769.99 
2607 765.29 773.31 769.99 
2608 763.80 773.27 769.99 
2609 768.25 773.28 769.99 
2610 760.27 773.22 769.99 
2611 765.39 773.22 769.99 
2612 760.96 773.28 769.99 
2613 762.78 773.26 769.99 
2614 762.42 773.22 769.99 
2615 762.00 773.27 769.99 
2616 764.06 773.26 769.99 
2617 764.58 773.29 769.99 
2618 759.48 773.26 769.99 
2619 763.57 773.30 769.99 
2620 764.10 773.26 769.99 
2621 759.19 773.29 769.99 
2622 765.36 773.28 769.99 
2623 763.30 773.29 769.99 
2624 761.43 773.31 769.99 
2625 759.45 773.29 769.99 
2626 763.20 773.03 769.99 
2627 765.44 773.09 769.99 
2628 765.92 773.11 769.99 
2629 760.07 773.10 769.99 
2630 764.37 773.33 769.99 
2631 767.78 773.30 769.99 
2632 766.30 773.30 769.99 
2633 764.62 773.32 769.99 
2634 765.11 773.30 769.99 
2635 761.05 773.35 769.99 
2636 762.91 773.05 769.99 
2637 761.57 773.09 769.99 
2638 763.35 773.10 769.99 
2639 763.31 773.08 769.99 
2640 762.31 773.09 769.99 
2641 766.52 773.04 769.99 
2642 765.98 773.05 769.99 
2643 764.97 773.01 769.99 
2644 764.88 773.02 769.99 
2645 764.01 773.03 769.99 
2646 764.69 773.29 769.99 
2647 761.78 773.26 769.99 
2648 761.47 773.04 769.99 
2649 763.43 773.06 769.99 
2650 761.80 773.07 769.99 
2651 764.43 773.08 769.99 
2652 760.45 773.29 769.99 
2653 761.23 773.26 769.99 
2654 763.47 773.00 769.99 
2655 762.81 773.27 769.99 
2656 764.69 773.23 769.99 
2657 766.16 773.20 769.99 
2658 768.41 773.23 769.99 
2659 761.73 773.26 769.99 
2660 765.22 773.27 769.99 
2661 764.92 773.02 769.99 
2662 764.53 773.00 769.99 
2663 760.88 772.99 769.99 
2664 763.58 773.08 769.99 
2665 762.58 773.00 769.99 
2666 763.82 773.03 769.99 
2667 765.13 772.99 769.99 
2668 759.94 773.15 769.99 
2669 767.42 773.27 769.99 
2670 762.42 773.02 769.99 
2671 761.78 773.24 769.99 
2672 760.98 773.23 769.99 
2673 764.33 773.26 769.99 
2674 762.78 773.21 769.99 
2675 763.51 773.01 769.99 
2676 763.85 772.99 769.99 
2677 760.74 773.03 769.99 
2678 765.41 773.05 769.99 
2679 763.82 773.03 769.99 
2680 763.26 773.04 769.99 
2681 762.29 773.05 769.99 
2682 760.83 773.05 769.99 
2683 762.92 773.05 769.99 
2684 760.63 773.02 769.99 
2685 761.79 773.05 769.99 
2686 765.32 773.07 769.99 
2687 763.96 773.04 769.99 
2688 764.16 773.07 769.99 
2689 766.10 773.06 769.99 
2690 764.86 773.07 769.99 
2691 764.39 773.05 769.99 
2692 763.95 773.07 769.99 
2693 764.26 773.07 769.99 
2694 761.08 773.11 769.99 
2695 767.80 773.09 769.99 
2696 763.23 773.10 769.99 
2697 762.83 773.10 769.99 
2698 762.55 773.14 769.99 
2699 762.23 773.11 769.99 
2700 764.49 773.07 769.99 
2701 761.76 773.08 769.99 
2702 763.45 773.10 769.99 
2703 764.06 773.08 769.99 
2704 763.36 773.08 769.99 
2705 761.67 773.03 769.99 
2706 765.86 773.08 769.99 
2707 765.77 773.09 769.99 
2708 762.60 773.11 769.99 
2709 762.92 773.08 769.99 
2710 761.96 773.08 769.99 
2711 767.01 773.07 769.99 
2712 766.07 773.06 769.99 
2713 758.16 773.10 769.99 
2714 762.45 773.08 769.99 
2715 760.54 773.06 769.99 
2716 764.71 773.06 769.99 
2717 765.32 773.04 769.99 
2718 757.83 773.06 769.99 
2719 765.69 773.07 769.99 
2720 762.01 773.03 769.99 
2721 761.82 773.04 769.99 
2722 761.25 773.02 769.99 
2723 768.34 773.03 769.99 
2724 762.19 773.00 769.99 
2725 765.35 773.03 769.99 
2726 764.68 773.01 769.99 
2727 761.62 773.02 769.99 
2728 763.66 773.00 769.99 
2729 764.70 773.00 769.99 
2730 764.57 773.00 769.99 
2731 763.22 773.00 769.99 
2732 761.62 773.04 769.99 
2733 763.09 773.00 769.99 
2734 766.64 773.00 769.99 
2735 764.20 773.00 769.99 
2736 766.42 773.03 769.99 
2737 766.62 773.02 769.99 
2738 762.15 773.01 769.99 
2739 762.37 772.97 769.99 
2740 764.02 773.01 769.99 
2741 765.85 772.99 769.99 
2742 760.92 772.99 769.99 
2743 763.73 773.07 769.99 
2744 764.42 773.21 769.99 
2745 766.20 773.24 769.99 
2746 762.13 773.26 769.99 
2747 763.61 773.22 769.99 
2748 759.40 773.22 769.99 
2749 767.43 773.21 769.99 
2750 765.63 773.26 769.99 
2751 763.56 773.23 769.99 
2752 762.19 773.25 769.99 
2753 762.29 773.24 769.99 
2754 765.72 773.19 769.99 
2755 762.85 773.18 769.99 
2756 765.14 773.12 769.99 
2757 763.53 773.09 769.99 
2758 760.38 773.20 769.99 
2759 767.31 773.21 769.99 
2760 761.89 773.20 769.99 
2761 761.74 773.19 769.99 
2762 766.07 773.21 769.99 
2763 763.18 773.20 769.99 
2764 763.00 773.21 769.99 
2765 757.79 773.13 769.99 
2766 762.79 773.19 769.99 
2767 763.50 773.24 769.99 
2768 769.04 773.14 769.99 
2769 764.39 773.21 769.99 
2770 759.89 773.24 769.99 
2771 762.59 773.28 769.99 
2772 760.50 773.25 769.99 
2773 761.92 773.24 769.99 
2774 762.20 773.20 769.99 
2775 762.31 773.31 769.99 
2776 764.41 773.28 769.99 
2777 760.26 773.21 769.99 
2778 763.39 773.25 769.99 
2779 760.69 773.25 769.99 
2780 765.68 773.26 769.99 
2781 762.50 773.21 769.99 
2782 762.68 773.24 769.99 
2783 760.08 773.20 769.99 
2784 764.39 773.20 769.99 
2785 760.43 773.17 769.99 
2786 761.50 773.11 769.99 
2787 761.71 773.03 769.99 
2788 762.88 772.94 769.99 
2789 765.28 773.21 769.99 
2790 762.02 773.17 769.99 
2791 761.32 773.12 769.99 
2792 764.22 773.14 769.99 
2793 765.35 773.15 769.99 
2794 763.91 773.20 769.99 
2795 759.92 773.21 769.99 
2796 760.91 773.20 769.99 
2797 762.06 773.22 769.99 
2798 763.75 773.18 769.99 
2799 763.68 773.23 769.99 
2800 765.11 773.22 769.99 
2801 760.63 773.25 769.99 
2802 760.53 773.18 769.99 
2803 759.98 773.20 769.99 
2804 760.69 773.28 769.99 
2805 762.47 773.25 769.99 
2806 763.52 773.26 769.99 
2807 766.34 773.23 769.99 
2808 765.10 773.18 769.99 
2809 766.69 773.20 769.99 
2810 762.04 773.18 769.99 
2811 761.35 773.19 769.99 
2812 763.10 773.17 769.99 
2813 763.20 773.22 769.99 
2814 761.53 773.19 769.99 
2815 761.53 773.18 769.99 
2816 761.79 773.17 769.99 
2817 762.39 773.23 769.99 
2818 766.27 773.18 769.99 
2819 766.06 773.16 769.99 
2820 766.74 773.16 769.99 
2821 764.84 773.19 769.99 
2822 764.50 772.95 769.99 
2823 762.49 773.21 769.99 
2824 763.53 773.20 769.99 
2825 766.15 773.21 769.99 
2826 762.05 772.94 769.99 
2827 762.75 772.91 769.99 
2828 763.00 772.90 769.99 
2829 760.89 772.86 769.99 
2830 764.42 773.01 769.99 
2831 762.17 772.99 769.99 
2832 763.58 772.96 769.99 
2833 764.34 773.01 769.99 
2834 763.52 772.96 769.99 
2835 761.88 773.03 769.99 
2836 761.16 773.02 769.99 
2837 761.46 773.07 769.99 
2838 764.42 773.05 769.99 
2839 763.96 773.08 769.99 
2840 764.54 773.02 769.99 
2841 762.56 772.95 769.99 
2842 762.60 772.94 769.99 
2843 762.93 772.96 769.99 
2844 766.46 772.92 769.99 
2845 761.17 772.95 769.99 
2846 762.47 772.93 769.99 
2847 760.68 772.95 769.99 
2848 762.90 772.99 769.99 
2849 762.12 772.94 769.99 
2850 763.24 772.96 769.99 
2851 766.14 772.90 769.99 
2852 761.32 772.94 769.99 
2853 761.97 772.91 769.99 
2854 766.73 772.84 769.99 
2855 764.28 772.88 769.99 
2856 763.63 772.89 769.99 
2857 763.63 772.86 769.99 
2858 758.89 772.95 769.99 
2859 760.07 772.82 769.99 
2860 767.92 772.95 769.99 
2861 764.49 772.89 769.99 
2862 759.74 772.94 769.99 
2863 763.40 772.90 769.99 
2864 761.89 772.95 769.99 
2865 761.56 772.63 769.99 
2866 761.85 772.93 769.99 
2867 764.30 772.74 769.99 
2868 764.78 772.95 769.99 
2869 765.00 772.88 769.99 
2870 763.86 772.78 769.99 
2871 761.49 772.82 769.99 
2872 760.72 772.87 769.99 
2873 762.54 772.75 769.99 
2874 761.56 772.88 769.99 
2875 761.90 772.62 769.99 
2876 761.07 772.64 769.99 
2877 762.53 772.54 769.99 
2878 761.08 772.57 769.99 
2879 760.43 772.72 769.99 
2880 761.84 772.58 769.99 
2881 762.33 772.60 769.99 
2882 760.75 772.65 769.99 
2883 761.81 772.61 769.99 
2884 768.10 772.52 769.99 
2885 764.48 772.48 769.99 
2886 761.06 772.63 769.99 
2887 760.58 772.81 769.99 
2888 761.54 772.76 769.99 
2889 762.37 772.77 769.99 
2890 762.41 772.86 769.99 
2891 763.52 772.85 769.99 
2892 764.99 772.81 769.99 
2893 760.16 772.74 769.99 
2894 763.02 772.74 769.99 
2895 757.89 772.85 769.99 
2896 760.82 772.84 769.99 
2897 763.40 772.69 769.99 
2898 767.31 772.79 769.99 
2899 765.96 772.71 769.99 
2900 761.93 772.70 769.99 
2901 761.59 772.99 769.99 
2902 762.16 772.77 769.99 
2903 763.19 772.81 769.99 
2904 764.30 773.13 769.99 
2905 764.85 773.08 769.99 
2906 764.43 772.96 769.99 
2907 762.79 773.07 769.99 
2908 763.98 773.06 769.99 
2909 762.78 773.04 769.99 
2910 760.74 773.09 769.99 
2911 763.27 773.05 769.99 
2912 763.03 773.09 769.99 
2913 763.18 773.04 769.99 
2914 765.37 773.14 769.99 
2915 761.58 773.00 769.99 
2916 762.92 773.12 769.99 
2917 761.26 772.97 769.99 
2918 764.51 773.00 769.99 
2919 763.54 773.08 769.99 
2920 762.97 773.20 769.99 
2921 763.70 773.22 769.99 
2922 765.51 773.09 769.99 
2923 766.27 773.14 769.99 
2924 764.45 773.06 769.99 
2925 761.58 772.99 769.99 
2926 762.67 773.10 769.99 
2927 763.26 772.85 769.99 
2928 766.03 772.91 769.99 
2929 760.06 772.95 769.99 
2930 761.32 772.93 769.99 
2931 761.14 772.94 769.99 
2932 760.09 772.91 769.99 
2933 766.54 772.89 769.99 
2934 761.74 772.91 769.99 
2935 763.67 772.97 769.99 
2936 763.96 773.00 769.99 
2937 763.28 772.97 769.99 
2938 762.59 772.94 769.99 
2939 765.32 772.94 769.99 
2940 764.44 772.94 769.99 
2941 762.86 772.97 769.99 
2942 764.57 772.93 769.99 
2943 764.51 772.93 769.99 
2944 762.40 772.91 769.99 
2945 765.60 772.94 769.99 
2946 762.54 772.91 769.99 
2947 765.20 772.93 769.99 
2948 761.93 772.96 769.99 
2949 761.30 772.96 769.99 
2950 766.95 772.94 769.99 
2951 764.40 772.97 769.99 
2952 764.65 772.98 769.99 
2953 764.32 772.88 769.99 
2954 765.19 772.88 769.99 
2955 765.15 772.88 769.99 
2956 761.98 772.92 769.99 
2957 763.90 772.81 769.99 
2958 759.97 772.96 769.99 
2959 765.67 772.96 769.99 
2960 764.47 772.94 769.99 
2961 760.57 772.95 769.99 
2962 764.40 772.96 769.99 
2963 763.86 772.99 769.99 
2964 763.96 772.95 769.99 
2965 763.81 772.97 769.99 
2966 761.02 772.96 769.99 
2967 760.03 773.04 769.99 
2968 761.89 773.08 769.99 
2969 761.38 773.01 769.99 
2970 765.47 773.08 769.99 
2971 763.46 773.02 769.99 
2972 764.26 773.04 769.99 
2973 764.90 773.00 769.99 
2974 761.39 772.97 769.99 
2975 764.73 773.03 769.99 
2976 761.45 773.02 769.99 
2977 759.56 773.05 769.99 
2978 762.88 772.93 769.99 
2979 763.91 773.04 769.99 
2980 765.37 772.98 769.99 
2981 760.90 772.96 769.99 
2982 761.77 772.87 769.99 
2983 760.02 772.92 769.99 
2984 759.35 772.91 769.99 
2985 760.41 772.89 769.99 
2986 761.93 772.90 769.99 
2987 765.48 772.97 769.99 
2988 761.38 772.89 769.99 
2989 763.70 772.92 769.99 
2990 762.50 772.85 769.99 
2991 762.64 772.85 769.99 
2992 765.89 772.84 769.99 
2993 761.75 772.85 769.99 
2994 762.30 772.36 769.99 
2995 763.26 772.94 769.99 
2996 761.22 772.98 769.99 
2997 765.98 772.98 769.99 
2998 763.76 772.93 769.99 
2999 764.24 772.97 769.99 
3000 763.15 772.98 769.99 
3001 760.55 773.03 769.99 
3002 762.65 772.97 769.99 
3003 762.51 773.00 769.99 
3004 761.85 772.96 769.99 
3005 765.17 772.90 769.99 
3006 763.20 772.65 769.99 
3007 763.53 772.91 769.99 
3008 763.91 772.98 769.99 
3009 764.24 773.03 769.99 
3010 760.12 772.95 769.99 
3011 764.95 772.96 769.99 
3012 760.38 772.69 769.99 
3013 763.37 772.96 769.99 
3014 760.48 772.99 769.99 
3015 760.37 772.95 769.99 
3016 765.22 772.92 769.99 
3017 767.09 772.90 769.99 
3018 765.86 772.92 769.99 
3019 764.92 772.92 769.99 
3020 764.58 772.96 769.99 
3021 762.95 772.99 769.99 
3022 762.82 773.01 769.99 
3023 759.42 772.98 769.99 
3024 762.81 773.00 769.99 
3025 763.73 773.01 769.99 
3026 760.63 772.96 769.99 
3027 763.61 773.02 769.99 
3028 762.81 773.00 769.99 
3029 765.79 772.95 769.99 
3030 762.41 772.97 769.99 
3031 765.13 772.95 769.99 
3032 762.75 772.96 769.99 
3033 760.82 772.96 769.99 
3034 765.60 772.90 769.99 
3035 766.72 772.96 769.99 
3036 765.38 772.93 769.99 
3037 760.46 773.01 769.99 
3038 767.54 773.04 769.99 
3039 761.56 773.01 769.99 
3040 761.15 773.08 769.99 
3041 765.65 773.09 769.99 
3042 760.44 773.02 769.99 
3043 764.27 773.03 769.99 
3044 759.72 772.98 769.99 
3045 767.38 773.01 769.99 
3046 759.86 773.04 769.99 
3047 762.14 773.03 769.99 
3048 761.04 773.02 769.99 
3049 765.30 772.99 769.99 
3050 764.32 772.99 769.99 
3051 763.29 773.03 769.99 
3052 762.03 773.05 769.99 
3053 764.19 773.08 769.99 
3054 763.48 773.07 769.99 
3055 763.70 773.07 769.99 
3056 763.28 773.08 769.99 
3057 763.75 773.10 769.99 
3058 762.36 773.03 769.99 
3059 763.40 773.00 769.99 
3060 766.82 772.96 769.99 
3061 766.64 772.93 769.99 
3062 765.35 772.70 769.99 
3063 766.47 772.96 769.99 
3064 766.24 772.94 769.99 
3065 762.39 772.96 769.99 
3066 759.19 772.69 769.99 
3067 761.39 772.92 769.99 
3068 764.43 773.05 769.99 
3069 761.11 773.01 769.99 
3070 763.72 773.04 769.99 
3071 760.44 773.05 769.99 
3072 761.09 772.96 769.99 
3073 760.83 772.94 769.99 
3074 762.82 772.91 769.99 
3075 763.99 773.03 769.99 
3076 761.06 773.01 769.99 
3077 762.95 772.98 769.99 
3078 764.01 772.96 769.99 
3079 763.83 772.92 769.99 
3080 765.41 773.02 769.99 
3081 763.55 773.00 769.99 
3082 769.39 772.98 769.99 
3083 763.37 773.01 769.99 
3084 764.60 773.03 769.99 
3085 764.18 773.05 769.99 
3086 763.98 772.99 769.99 
3087 759.35 773.00 769.99 
3088 765.56 772.93 769.99 
3089 763.43 772.97 769.99 
3090 761.69 772.93 769.99 
3091 763.67 772.93 769.99 
3092 761.13 772.92 769.99 
3093 765.56 773.03 769.99 
3094 763.60 773.01 769.99 
3095 763.67 772.96 769.99 
3096 762.96 772.97 769.99 
3097 761.70 772.97 769.99 
3098 760.83 772.87 769.99 
3099 762.06 772.76 769.99 
3100 764.30 772.75 769.99 
3101 762.65 772.95 769.99 
3102 763.58 772.84 769.99 
3103 762.71 772.78 769.99 
3104 765.21 772.75 769.99 
3105 760.63 772.83 769.99 
3106 763.55 772.72 769.99 
3107 765.56 772.67 769.99 
3108 762.77 772.55 769.99 
3109 760.22 772.71 769.99 
3110 760.34 772.67 769.99 
3111 762.12 772.90 769.99 
3112 760.87 772.73 769.99 
3113 764.70 772.87 769.99 
3114 764.63 772.97 769.99 
3115 762.78 772.90 769.99 
3116 762.74 772.98 769.99 
3117 764.01 772.91 769.99 
3118 761.82 772.95 769.99 
3119 760.30 772.85 769.99 
3120 762.24 772.91 769.99 
3121 764.43 772.83 769.99 
3122 763.47 772.88 769.99 
3123 766.69 772.74 769.99 
3124 762.43 772.71 769.99 
3125 763.47 772.71 769.99 
3126 765.43 772.82 769.99 
3127 764.82 772.86 769.99 
3128 760.47 772.84 769.99 
3129 763.96 772.73 769.99 
3130 760.56 772.91 769.99 
3131 762.90 772.97 769.99 
3132 762.66 772.99 769.99 
3133 766.23 772.93 769.99 
3134 762.48 772.92 769.99 
3135 761.31 773.03 769.99 
3136 762.17 773.00 769.99 
3137 759.48 772.95 769.99 
3138 762.56 772.97 769.99 
3139 761.81 772.75 769.99 
3140 760.00 772.96 769.99 
3141 765.45 772.84 769.99 
3142 759.79 772.91 769.99 
3143 758.94 772.89 769.99 
3144 762.40 772.85 769.99 
3145 761.82 772.81 769.99 
3146 761.92 772.77 769.99 
3147 761.95 772.81 769.99 
3148 765.18 772.89 769.99 
3149 762.46 772.83 769.99 
3150 763.22 772.75 769.99 
3151 766.53 772.73 769.99 
3152 761.82 772.74 769.99 
3153 761.20 772.83 769.99 
3154 762.50 772.74 769.99 
3155 766.69 772.71 769.99 
3156 764.01 772.82 769.99 
3157 764.11 772.93 769.99 
3158 760.51 772.87 769.99 
3159 764.33 772.95 769.99 
3160 765.36 772.92 769.99 
3161 766.94 772.98 769.99 
3162 764.41 773.00 769.99 
3163 766.84 772.92 769.99 
3164 762.41 772.95 769.99 
3165 766.46 772.89 769.99 
3166 762.04 772.86 769.99 
3167 764.66 772.86 769.99 
3168 761.94 772.83 769.99 
3169 766.36 772.55 769.99 
3170 761.87 772.55 769.99 
3171 762.68 772.60 769.99 
3172 762.66 772.56 769.99 
3173 763.85 772.53 769.99 
3174 763.55 772.57 769.99 
3175 761.63 772.59 769.99 
3176 762.91 772.90 769.99 
3177 766.07 772.93 769.99 
3178 764.85 772.92 769.99 
3179 761.10 772.91 769.99 
3180 766.13 772.90 769.99 
3181 764.06 772.95 769.99 
3182 765.71 772.91 769.99 
3183 760.67 772.92 769.99 
3184 763.41 772.89 769.99 
3185 765.17 772.91 769.99 
3186 764.20 772.89 769.99 
3187 764.98 772.88 769.99 
3188 761.20 772.95 769.99 
3189 759.72 772.92 769.99 
3190 764.01 772.84 769.99 
3191 765.43 772.83 769.99 
3192 766.09 772.90 769.99 
3193 765.70 772.94 769.99 
3194 765.08 772.93 769.99 
3195 757.74 772.89 769.99 
3196 763.26 772.91 769.99 
3197 763.86 772.86 769.99 
3198 760.25 772.87 769.99 
3199 765.00 772.90 769.99 
3200 763.58 772.94 769.99 
3201 758.55 772.92 769.99 
3202 764.06 772.92 769.99 
3203 758.50 772.86 769.99 
3204 761.92 772.84 769.99 
3205 758.69 772.88 769.99 
3206 762.45 772.88 769.99 
3207 763.51 772.93 769.99 
3208 765.66 772.91 769.99 
3209 761.75 772.84 769.99 
3210 763.28 772.82 769.99 
3211 760.28 772.88 769.99 
3212 762.53 772.89 769.99 
3213 764.00 772.88 769.99 
3214 765.60 772.88 769.99 
3215 763.03 772.86 769.99 
3216 764.23 772.87 769.99 
3217 761.31 772.90 769.99 
3218 764.69 772.94 769.99 
3219 761.57 772.90 769.99 
3220 762.35 772.88 769.99 
3221 764.88 772.93 769.99 
3222 762.60 772.89 769.99 
3223 762.80 773.07 769.99 
3224 762.39 772.96 769.99 
3225 758.38 773.09 769.99 
3226 766.83 772.88 769.99 
3227 762.74 772.84 769.99 
3228 762.43 772.85 769.99 
3229 763.75 772.91 769.99 
3230 767.79 772.80 769.99 
3231 765.91 772.85 769.99 
3232 763.98 772.81 769.99 
3233 764.55 772.84 769.99 
3234 760.14 772.77 769.99 
3235 766.05 772.74 769.99 
3236 760.80 772.81 769.99 
3237 762.35 772.79 769.99 
3238 765.18 772.77 769.99 
3239 767.26 772.82 769.99 
3240 766.73 772.80 769.99 
3241 761.27 772.81 769.99 
3242 761.94 772.87 769.99 
3243 760.58 772.85 769.99 
3244 765.59 772.88 769.99 
3245 765.55 772.92 769.99 
3246 766.02 772.88 769.99 
3247 765.73 772.80 769.99 
3248 760.47 772.86 769.99 
3249 761.77 772.69 769.99 
3250 763.35 772.78 769.99 
3251 763.62 772.80 769.99 
3252 762.71 772.81 769.99 
3253 761.75 772.80 769.99 
3254 765.29 772.81 769.99 
3255 767.09 772.82 769.99 
3256 764.36 772.83 769.99 
3257 764.26 772.84 769.99 
3258 763.64 772.76 769.99 
3259 762.02 772.80 769.99 
3260 760.62 772.74 769.99 
3261 765.95 772.70 769.99 
3262 758.35 772.77 769.99 
3263 763.44 772.84 769.99 
3264 762.52 772.86 769.99 
3265 760.57 772.74 769.99 
3266 764.90 772.70 769.99 
3267 764.25 772.86 769.99 
3268 762.08 772.83 769.99 
3269 762.45 772.97 769.99 
3270 765.88 772.98 769.99 
3271 763.78 772.98 769.99 
3272 762.51 772.94 769.99 
3273 762.32 772.87 769.99 
3274 762.72 772.83 769.99 
3275 762.50 772.83 769.99 
3276 762.74 772.85 769.99 
3277 764.67 772.78 769.99 
3278 761.04 772.77 769.99 
3279 765.15 772.61 769.99 
3280 765.02 772.65 769.99 
3281 764.24 772.75 769.99 
3282 765.70 772.64 769.99 
3283 761.39 772.62 769.99 
3284 761.79 772.62 769.99 
3285 761.42 772.60 769.99 
3286 760.95 772.73 769.99 
3287 765.83 772.75 769.99 
3288 763.86 772.66 769.99 
3289 762.10 772.72 769.99 
3290 765.10 772.76 769.99 
3291 763.31 772.78 769.99 
3292 766.44 772.59 769.99 
3293 765.79 772.59 769.99 
3294 763.41 772.71 769.99 
3295 767.30 772.67 769.99 
3296 763.43 772.78 769.99 
3297 760.26 772.72 769.99 
3298 760.50 772.42 769.99 
3299 764.53 772.49 769.99 
3300 759.04 772.83 769.99 
3301 762.64 772.76 769.99 
3302 761.20 772.73 769.99 
3303 761.80 772.76 769.99 
3304 764.07 772.76 769.99 
3305 764.08 772.77 769.99 
3306 763.24 772.56 769.99 
3307 764.11 772.57 769.99 
3308 762.26 772.54 769.99 
3309 762.73 772.78 769.99 
3310 761.84 772.85 769.99 
3311 760.91 772.85 769.99 
3312 760.22 772.85 769.99 
3313 761.79 772.78 769.99 
3314 765.70 772.74 769.99 
3315 760.99 772.75 769.99 
3316 765.72 772.82 769.99 
3317 760.61 772.80 769.99 
3318 760.04 772.60 769.99 
3319 760.70 772.83 769.99 
3320 763.60 772.82 769.99 
3321 761.94 772.82 769.99 
3322 766.88 772.85 769.99 
3323 763.45 772.83 769.99 
3324 761.24 772.81 769.99 
3325 765.70 772.85 769.99 
3326 761.91 772.88 769.99 
3327 766.36 772.87 769.99 
3328 760.81 772.93 769.99 
3329 763.52 772.94 769.99 
3330 763.13 772.94 769.99 
3331 764.73 773.00 769.99 
3332 764.18 772.92 769.99 
3333 760.38 772.95 769.99 
3334 764.97 772.97 769.99 
3335 763.52 772.98 769.99 
3336 765.15 772.95 769.99 
3337 762.41 772.92 769.99 
3338 763.90 772.97 769.99 
3339 764.75 772.97 769.99 
3340 764.11 772.71 769.99 
3341 765.16 772.70 769.99 
3342 763.54 772.68 769.99 
3343 764.26 772.94 769.99 
3344 763.23 772.97 769.99 
3345 761.11 772.72 769.99 
3346 761.96 772.71 769.99 
3347 760.02 772.98 769.99 
3348 762.79 772.95 769.99 
3349 760.05 772.95 769.99 
3350 763.16 772.95 769.99 
3351 763.12 772.91 769.99 
3352 765.99 772.96 769.99 
3353 766.49 772.91 769.99 
3354 762.36 772.94 769.99 
3355 762.37 772.96 769.99 
3356 763.04 772.95 769.99 
3357 759.37 772.91 769.99 
3358 761.53 772.90 769.99 
3359 760.78 772.82 769.99 
3360 761.07 772.67 769.99 
3361 762.40 772.90 769.99 
3362 764.51 772.92 769.99 
3363 762.26 772.91 769.99 
3364 763.85 772.76 769.99 
3365 764.90 772.84 769.99 
3366 759.90 772.79 769.99 
3367 765.42 772.80 769.99 
3368 762.19 772.61 769.99 
3369 759.95 772.29 769.99 
3370 764.25 772.52 769.99 
3371 763.94 772.75 769.99 
3372 766.86 772.82 769.99 
3373 763.14 772.63 769.99 
3374 762.28 772.87 769.99 
3375 763.94 772.76 769.99 
3376 763.07 772.82 769.99 
3377 760.37 772.69 769.99 
3378 763.21 772.60 769.99 
3379 759.89 772.59 769.99 
3380 761.85 772.81 769.99 
3381 764.77 772.90 769.99 
3382 760.26 772.74 769.99 
3383 763.09 772.78 769.99 
3384 765.58 772.86 769.99 
3385 764.70 772.74 769.99 
3386 766.19 772.41 769.99 
3387 761.95 772.43 769.99 
3388 763.13 772.54 769.99 
3389 760.37 772.66 769.99 
3390 762.46 772.59 769.99 
3391 759.69 772.92 769.99 
3392 760.77 772.93 769.99 
3393 761.09 772.82 769.99 
3394 763.74 772.90 769.99 
3395 763.65 772.53 769.99 
3396 763.18 772.60 769.99 
3397 759.18 772.52 769.99 
3398 766.00 772.17 769.99 
3399 759.59 772.13 769.99 
3400 761.77 772.64 769.99 
3401 764.56 772.49 769.99 
3402 762.54 772.53 769.99 
3403 762.35 772.45 769.99 
3404 764.87 772.35 769.99 
3405 762.67 772.67 769.99 
3406 764.33 772.36 769.99 
3407 766.18 772.51 769.99 
3408 764.18 772.72 769.99 
3409 765.89 772.54 769.99 
3410 763.22 772.37 769.99 
3411 763.56 772.57 769.99 
3412 762.21 772.63 769.99 
3413 763.33 772.68 769.99 
3414 759.88 772.68 769.99 
3415 761.36 772.62 769.99 
3416 762.06 772.67 769.99 
3417 762.94 772.66 769.99 
3418 761.57 772.71 769.99 
3419 763.62 772.67 769.99 
3420 762.64 772.69 769.99 
3421 766.23 772.72 769.99 
3422 763.01 772.74 769.99 
3423 765.23 772.74 769.99 
3424 765.80 772.73 769.99 
3425 764.32 772.73 769.99 
3426 764.96 772.67 769.99 
3427 762.78 772.60 769.99 
3428 763.92 772.69 769.99 
3429 767.62 772.78 769.99 
3430 760.78 772.80 769.99 
3431 762.54 772.66 769.99 
3432 764.32 772.74 769.99 
3433 761.99 772.74 769.99 
3434 760.69 772.57 769.99 
3435 761.14 772.76 769.99 
3436 762.51 772.63 769.99 
3437 762.41 772.82 769.99 
3438 764.58 772.63 769.99 
3439 763.94 772.62 769.99 
3440 767.14 772.39 769.99 
3441 763.37 772.46 769.99 
3442 765.00 772.61 769.99 
3443 763.58 772.48 769.99 
3444 763.03 772.53 769.99 
3445 764.50 772.62 769.99 
3446 762.02 772.59 769.99 
3447 761.84 772.69 769.99 
3448 762.67 772.75 769.99 
3449 758.81 772.61 769.99 
3450 761.71 772.61 769.99 
3451 762.29 772.80 769.99 
3452 759.07 772.70 769.99 
3453 766.35 772.69 769.99 
3454 763.37 772.63 769.99 
3455 761.49 772.78 769.99 
3456 766.11 772.73 769.99 
3457 764.30 772.80 769.99 
3458 760.70 772.93 769.99 
3459 762.56 772.80 769.99 
3460 759.68 772.70 769.99 
3461 758.60 772.83 769.99 
3462 762.06 772.86 769.99 
3463 762.88 772.88 769.99 
3464 762.72 772.79 769.99 
3465 762.88 772.63 769.99 
3466 765.38 772.57 769.99 
3467 763.93 772.62 769.99 
3468 763.41 772.68 769.99 
3469 759.23 772.57 769.99 
3470 759.85 772.44 769.99 
3471 762.99 772.39 769.99 
3472 764.59 772.68 769.99 
3473 763.79 772.70 769.99 
3474 761.70 772.74 769.99 
3475 758.46 772.82 769.99 
3476 764.47 772.91 769.99 
3477 759.45 772.81 769.99 
3478 763.30 772.85 769.99 
3479 764.52 772.78 769.99 
3480 764.31 772.91 769.99 
3481 764.39 772.86 769.99 
3482 761.61 772.79 769.99 
3483 765.71 772.93 769.99 
3484 762.69 772.95 769.99 
3485 765.12 772.87 769.99 
3486 765.42 772.86 769.99 
3487 764.11 772.82 769.99 
3488 764.25 772.82 769.99 
3489 762.96 772.84 769.99 
3490 759.90 772.71 769.99 
3491 763.33 772.85 769.99 
3492 763.46 772.93 769.99 
3493 764.13 772.96 769.99 
3494 760.42 772.89 769.99 
3495 763.43 772.82 769.99 
3496 764.07 772.71 769.99 
3497 762.04 772.65 769.99 
3498 764.87 772.84 769.99 
3499 765.94 772.81 769.99 
3500 765.21 772.71 769.99 
3501 763.58 772.83 769.99 
3502 761.50 772.81 769.99 
3503 762.44 772.76 769.99 
3504 763.21 772.93 769.99 
3505 759.70 772.94 769.99 
3506 756.10 772.87 769.99 
3507 764.09 772.87 769.99 
3508 762.31 772.91 769.99 
3509 761.72 772.93 769.99 
3510 766.38 772.94 769.99 
3511 761.65 772.91 769.99 
3512 762.55 772.65 769.99 
3513 761.34 772.60 769.99 
3514 763.89 772.94 769.99 
3515 762.22 772.68 769.99 
3516 763.05 772.86 769.99 
3517 762.66 772.83 769.99 
3518 768.23 772.87 769.99 
3519 761.11 772.84 769.99 
3520 763.26 772.93 769.99 
3521 765.50 772.94 769.99 
3522 758.58 772.94 769.99 
3523 763.55 772.84 769.99 
3524 764.10 772.85 769.99 
3525 765.13 772.83 769.99 
3526 764.19 772.89 769.99 
3527 763.84 772.67 769.99 
3528 756.72 772.79 769.99 
3529 765.08 772.81 769.99 
3530 767.42 772.87 769.99 
3531 758.45 772.82 769.99 
3532 764.43 772.85 769.99 
3533 765.67 772.83 769.99 
3534 761.63 772.89 769.99 
3535 762.88 772.86 769.99 
3536 761.90 772.82 769.99 
3537 759.19 772.82 769.99 
3538 767.82 772.80 769.99 
3539 764.21 772.80 769.99 
3540 762.70 772.83 769.99 
3541 763.18 772.83 769.99 
3542 760.35 772.86 769.99 
3543 759.42 772.83 769.99 
3544 765.24 772.83 769.99 
3545 760.25 772.80 769.99 
3546 760.36 772.83 769.99 
3547 762.35 772.82 769.99 
3548 764.58 772.76 769.99 
3549 762.85 772.78 769.99 
3550 761.65 772.76 769.99 
3551 764.04 772.91 769.99 
3552 761.10 772.83 769.99 
3553 764.23 772.84 769.99 
3554 764.70 772.76 769.99 
3555 763.63 772.79 769.99 
3556 761.76 772.83 769.99 
3557 760.26 772.84 769.99 
3558 762.43 772.85 769.99 
3559 760.17 772.74 769.99 
3560 762.01 772.79 769.99 
3561 760.26 772.80 769.99 
3562 765.79 772.77 769.99 
3563 759.01 772.81 769.99 
3564 761.36 772.77 769.99 
3565 762.77 772.76 769.99 
3566 760.97 772.64 769.99 
3567 763.86 772.64 769.99 
3568 768.12 772.64 769.99 
3569 768.53 772.67 769.99 
3570 760.29 772.71 769.99 
3571 763.99 772.60 769.99 
3572 764.21 772.72 769.99 
3573 759.87 772.81 769.99 
3574 761.29 772.74 769.99 
3575 761.40 772.75 769.99 
3576 761.79 772.82 769.99 
3577 765.93 772.86 769.99 
3578 763.12 772.85 769.99 
3579 763.92 772.89 769.99 
3580 763.15 772.83 769.99 
3581 761.82 772.77 769.99 
3582 763.10 772.77 769.99 
3583 767.39 772.73 769.99 
3584 763.64 772.84 769.99 
3585 764.35 772.81 769.99 
3586 761.71 772.82 769.99 
3587 763.66 772.83 769.99 
3588 760.62 772.78 769.99 
3589 763.42 772.82 769.99 
3590 763.78 772.79 769.99 
3591 763.08 772.79 769.99 
3592 761.22 772.82 769.99 
3593 764.97 772.83 769.99 
3594 762.72 772.85 769.99 
3595 762.82 772.84 769.99 
3596 760.07 772.83 769.99 
3597 763.78 772.80 769.99 
3598 763.22 772.80 769.99 
3599 763.99 772.89 769.99 
3600 762.67 772.90 769.99 
3601 764.59 772.92 769.99 
3602 760.27 772.93 769.99 
3603 761.49 772.91 769.99 
3604 762.91 772.91 769.99 
3605 762.11 772.91 769.99 
3606 764.57 772.85 769.99 
3607 763.09 772.90 769.99 
3608 764.77 772.87 769.99 
3609 765.79 772.94 769.99 
3610 762.46 772.91 769.99 
3611 765.25 772.91 769.99 
3612 762.92 772.94 769.99 
3613 763.09 772.96 769.99 
3614 763.40 772.93 769.99 
3615 765.78 772.91 769.99 
3616 763.06 772.93 769.99 
3617 762.57 772.94 769.99 
3618 764.94 772.91 769.99 
3619 763.33 772.98 769.99 
3620 763.07 772.95 769.99 
3621 763.95 772.95 769.99 
3622 763.46 772.95 769.99 
3623 763.58 773.04 769.99 
3624 764.66 772.96 769.99 
3625 760.96 772.94 769.99 
3626 764.56 772.99 769.99 
3627 761.91 772.99 769.99 
3628 761.19 772.97 769.99 
3629 764.60 772.95 769.99 
3630 762.24 772.93 769.99 
3631 764.45 772.96 769.99 
3632 760.74 772.94 769.99 
3633 764.52 773.00 769.99 
3634 764.71 773.00 769.99 
3635 763.39 773.00 769.99 
3636 764.82 772.96 769.99 
3637 765.12 772.94 769.99 
3638 765.22 772.99 769.99 
3639 765.21 773.00 769.99 
3640 761.51 773.02 769.99 
3641 763.72 772.99 769.99 
3642 763.37 773.01 769.99 
3643 764.14 772.97 769.99 
3644 764.46 772.97 769.99 
3645 767.22 772.98 769.99 
3646 768.07 772.98 769.99 
3647 763.38 772.98 769.99 
3648 764.46 772.97 769.99 
3649 763.67 772.94 769.99 
3650 762.52 773.01 769.99 
3651 761.41 772.95 769.99 
3652 760.28 772.97 769.99 
3653 765.17 772.97 769.99 
3654 761.35 772.97 769.99 
3655 763.29 772.92 769.99 
3656 760.67 772.98 769.99 
3657 767.97 772.95 769.99 
3658 762.48 772.96 769.99 
3659 765.64 772.96 769.99 
3660 761.12 772.96 769.99 
3661 763.70 772.96 769.99 
3662 763.24 772.96 769.99 
3663 764.25 772.96 769.99 
3664 762.99 772.90 769.99 
3665 764.16 772.97 769.99 
3666 764.38 772.95 769.99 
3667 763.65 773.00 769.99 
3668 763.61 772.92 769.99 
3669 763.88 772.97 769.99 
3670 763.89 772.98 769.99 
3671 763.03 772.93 769.99 
3672 765.37 772.96 769.99 
3673 761.85 772.95 769.99 
3674 760.42 773.01 769.99 
3675 763.83 772.99 769.99 
3676 759.27 773.00 769.99 
3677 764.24 773.04 769.99 
3678 761.67 773.06 769.99 
3679 763.80 773.01 769.99 
3680 766.09 773.09 769.99 
3681 765.23 773.08 769.99 
3682 762.16 773.07 769.99 
3683 762.71 773.04 769.99 
3684 762.10 773.02 769.99 
3685 763.51 773.02 769.99 
3686 760.86 773.07 769.99 
3687 761.26 773.07 769.99 
3688 768.59 773.02 769.99 
3689 764.41 773.03 769.99 
3690 762.04 773.03 769.99 
3691 763.16 773.02 769.99 
3692 761.21 773.01 769.99 
3693 763.08 773.00 769.99 
3694 763.14 773.00 769.99 
3695 762.21 773.00 769.99 
3696 763.45 773.01 769.99 
3697 762.44 773.01 769.99 
3698 762.34 772.99 769.99 
3699 760.87 773.05 769.99 
3700 762.43 773.04 769.99 
3701 764.61 773.03 769.99 
3702 761.90 773.03 769.99 
3703 760.17 773.06 769.99 
3704 760.44 773.03 769.99 
3705 761.28 773.03 769.99 
3706 762.37 773.02 769.99 
3707 762.05 773.04 769.99 
3708 761.52 773.02 769.99 
3709 765.53 773.03 769.99 
3710 761.41 773.01 769.99 
3711 765.32 773.04 769.99 
3712 763.85 773.05 769.99 
3713 760.59 773.02 769.99 
3714 763.91 773.00 769.99 
3715 764.39 773.04 769.99 
3716 766.78 773.06 769.99 
3717 764.75 773.05 769.99 
3718 764.93 773.06 769.99 
3719 761.90 773.05 769.99 
3720 763.57 773.03 769.99 
3721 762.87 773.03 769.99 
3722 761.69 773.05 769.99 
3723 757.24 773.04 769.99 
3724 763.11 773.04 769.99 
3725 759.77 773.04 769.99 
3726 763.68 773.01 769.99 
3727 763.62 773.05 769.99 
3728 761.58 773.02 769.99 
3729 762.10 773.00 769.99 
3730 763.79 772.97 769.99 
3731 762.56 773.00 769.99 
3732 762.30 773.00 769.99 
3733 759.01 773.00 769.99 
3734 766.46 773.26 769.99 
3735 762.41 773.25 769.99 
3736 759.23 773.25 769.99 
3737 762.31 773.24 769.99 
3738 762.88 773.04 769.99 
3739 765.05 773.25 769.99 
3740 763.33 773.03 769.99 
3741 761.07 773.01 769.99 
3742 762.13 773.25 769.99 
3743 765.30 773.06 769.99 
3744 762.19 773.01 769.99 
3745 760.57 773.06 769.99 
3746 764.96 773.24 769.99 
3747 762.12 773.22 769.99 
3748 761.35 773.23 769.99 
3749 764.64 772.94 769.99 
3750 761.38 773.22 769.99 
3751 763.76 773.20 769.99 
3752 766.49 773.23 769.99 
3753 767.55 773.01 769.99 
3754 763.34 772.97 769.99 
3755 767.10 773.24 769.99 
3756 761.08 773.18 769.99 
3757 762.82 773.00 769.99 
3758 763.71 773.02 769.99 
3759 766.34 772.99 769.99 
3760 764.75 772.99 769.99 
3761 761.52 773.00 769.99 
3762 759.71 773.24 769.99 
3763 762.66 772.96 769.99 
3764 762.04 772.95 769.99 
3765 763.73 773.01 769.99 
3766 764.67 773.01 769.99 
3767 760.81 772.99 769.99 
3768 761.55 772.98 769.99 
3769 766.02 772.98 769.99 
3770 763.59 773.01 769.99 
3771 765.92 773.01 769.99 
3772 765.27 773.03 769.99 
3773 759.86 772.99 769.99 
3774 763.50 772.94 769.99 
3775 767.07 773.02 769.99 
3776 767.02 773.22 769.99 
3777 762.15 773.23 769.99 
3778 764.36 773.02 769.99 
3779 763.62 773.00 769.99 
3780 764.44 772.99 769.99 
3781 761.66 773.04 769.99 
3782 764.96 773.07 769.99 
3783 762.52 773.26 769.99 
3784 763.92 773.27 769.99 
3785 763.94 773.26 769.99 
3786 762.95 773.02 769.99 
3787 764.98 773.07 769.99 
3788 762.76 773.05 769.99 
3789 764.66 773.09 769.99 
3790 760.03 773.12 769.99 
3791 763.71 773.10 769.99 
3792 765.98 773.08 769.99 
3793 759.67 773.08 769.99 
3794 764.00 773.07 769.99 
3795 764.22 773.10 769.99 
3796 761.24 773.06 769.99 
3797 763.88 773.05 769.99 
3798 763.50 773.08 769.99 
3799 759.26 773.04 769.99 
3800 763.96 773.06 769.99 
3801 763.01 773.06 769.99 
3802 761.54 773.02 769.99 
3803 766.11 773.05 769.99 
3804 763.43 773.28 769.99 
3805 761.99 773.03 769.99 
3806 762.35 773.05 769.99 
3807 762.29 773.30 769.99 
3808 763.28 773.28 769.99 
3809 762.96 773.33 769.99 
3810 765.12 773.29 769.99 
3811 761.93 773.28 769.99 
3812 764.54 773.28 769.99 
3813 766.09 773.27 769.99 
3814 761.53 773.26 769.99 
3815 761.10 773.29 769.99 
3816 761.39 773.32 769.99 
3817 763.77 773.32 769.99 
3818 763.49 773.31 769.99 
3819 767.84 773.28 769.99 
3820 763.54 773.30 769.99 
3821 763.64 773.30 769.99 
3822 764.50 773.24 769.99 
3823 762.68 773.26 769.99 
3824 765.26 773.02 769.99 
3825 760.36 773.01 769.99 
3826 764.71 773.30 769.99 
3827 762.43 773.26 769.99 
3828 763.96 773.28 769.99 
3829 762.75 773.01 769.99 
3830 767.60 773.03 769.99 
3831 763.25 773.24 769.99 
3832 763.33 772.98 769.99 
3833 762.30 773.15 769.99 
3834 763.35 773.21 769.99 
3835 764.74 772.96 769.99 
3836 765.39 772.95 769.99 
3837 762.75 773.03 769.99 
3838 763.44 773.23 769.99 
3839 763.50 773.24 769.99 
3840 768.30 773.25 769.99 
3841 760.15 773.23 769.99 
3842 760.87 773.27 769.99 
3843 761.50 773.28 769.99 
3844 765.72 773.22 769.99 
3845 764.50 773.26 769.99 
3846 763.48 773.21 769.99 
3847 763.05 773.21 769.99 
3848 765.81 773.25 769.99 
3849 763.02 773.20 769.99 
3850 763.88 773.22 769.99 
3851 760.69 773.19 769.99 
3852 760.84 772.91 769.99 
3853 764.52 772.93 769.99 
3854 761.86 772.93 769.99 
3855 761.88 772.92 769.99 
3856 766.40 772.97 769.99 
3857 766.07 772.96 769.99 
3858 764.41 772.94 769.99 
3859 763.74 773.03 769.99 
3860 762.22 772.97 769.99 
3861 759.05 772.93 769.99 
3862 761.90 773.27 769.99 
3863 764.20 773.27 769.99 
3864 764.55 773.21 769.99 
3865 765.09 773.27 769.99 
3866 765.24 773.22 769.99 
3867 765.17 773.29 769.99 
3868 763.27 773.27 769.99 
3869 763.12 773.22 769.99 
3870 759.16 773.23 769.99 
3871 765.15 773.29 769.99 
3872 762.70 773.23 769.99 
3873 767.48 773.30 769.99 
3874 765.22 773.24 769.99 
3875 761.86 773.27 769.99 
3876 766.30 773.27 769.99 
3877 763.86 773.29 769.99 
3878 761.08 773.27 769.99 
3879 759.89 773.29 769.99 
3880 764.24 773.26 769.99 
3881 764.42 773.26 769.99 
3882 763.75 773.25 769.99 
3883 764.39 773.27 769.99 
3884 763.61 773.27 769.99 
3885 761.46 773.01 769.99 
3886 765.38 773.03 769.99 
3887 763.39 773.03 769.99 
3888 762.25 773.03 769.99 
3889 761.89 773.03 769.99 
3890 765.34 773.03 769.99 
3891 762.75 773.02 769.99 
3892 763.20 773.03 769.99 
3893 764.31 773.00 769.99 
3894 763.38 773.00 769.99 
3895 761.70 773.24 769.99 
3896 766.28 773.01 769.99 
3897 766.46 773.26 769.99 
3898 758.54 773.28 769.99 
3899 763.14 773.04 769.99 
3900 761.48 773.00 769.99 
3901 763.33 773.02 769.99 
3902 764.60 773.02 769.99 
3903 765.11 773.01 769.99 
3904 768.03 773.03 769.99 
3905 763.56 772.98 769.99 
3906 762.16 773.27 769.99 
3907 765.87 773.27 769.99 
3908 763.23 773.18 769.99 
3909 764.43 772.96 769.99 
3910 762.28 773.25 769.99 
3911 764.89 773.18 769.99 
3912 764.54 773.23 769.99 
3913 763.99 773.23 769.99 
3914 764.77 773.23 769.99 
3915 763.96 773.26 769.99 
3916 760.48 773.20 769.99 
3917 765.25 773.01 769.99 
3918 762.09 773.00 769.99 
3919 764.34 772.97 769.99 
3920 762.66 772.97 769.99 
3921 767.94 772.99 769.99 
3922 766.20 773.03 769.99 
3923 763.22 773.04 769.99 
3924 762.69 773.02 769.99 
3925 762.94 773.05 769.99 
3926 762.67 773.09 769.99 
3927 762.42 773.04 769.99 
3928 760.31 773.04 769.99 
3929 761.68 773.03 769.99 
3930 764.09 773.02 769.99 
3931 762.30 773.27 769.99 
3932 763.84 773.29 769.99 
3933 762.27 773.25 769.99 
3934 765.00 773.28 769.99 
3935 765.31 773.31 769.99 
3936 761.01 773.26 769.99 
3937 764.08 773.27 769.99 
3938 763.21 773.26 769.99 
3939 765.57 773.23 769.99 
3940 768.45 773.28 769.99 
3941 757.57 773.29 769.99 
3942 764.96 773.31 769.99 
3943 763.93 773.32 769.99 
3944 764.39 773.08 769.99 
3945 765.63 773.09 769.99 
3946 764.10 773.09 769.99 
3947 762.05 773.07 769.99 
3948 762.51 773.11 769.99 
3949 769.69 773.10 769.99 
3950 762.95 773.13 769.99 
3951 763.06 773.10 769.99 
3952 762.93 773.11 769.99 
3953 763.90 773.08 769.99 
3954 763.87 773.07 769.99 
3955 764.73 773.13 769.99 
3956 764.43 773.10 769.99 
3957 763.80 773.11 769.99 
3958 763.74 773.11 769.99 
3959 763.64 773.13 769.99 
3960 763.90 773.14 769.99 
3961 765.79 773.09 769.99 
3962 762.81 773.36 769.99 
3963 764.67 773.04 769.99 
3964 767.03 773.07 769.99 
3965 763.47 773.28 769.99 
3966 764.37 772.47 769.99 
3967 764.95 773.25 769.99 
3968 760.42 773.26 769.99 
3969 760.27 773.00 769.99 
3970 761.35 773.21 769.99 
3971 761.76 773.23 769.99 
3972 766.69 773.24 769.99 
3973 767.01 773.23 769.99 
3974 763.54 773.17 769.99 
3975 764.21 773.19 769.99 
3976 768.07 773.20 769.99 
3977 765.40 773.23 769.99 
3978 765.47 773.20 769.99 
3979 760.21 773.28 769.99 
3980 764.75 773.31 769.99 
3981 761.91 773.29 769.99 
3982 766.15 773.31 769.99 
3983 765.32 773.31 769.99 
3984 760.46 773.30 769.99 
3985 766.12 773.29 769.99 
3986 765.86 773.30 769.99 
3987 763.46 773.32 769.99 
3988 763.29 773.24 769.99 
3989 764.54 773.21 769.99 
3990 763.17 773.21 769.99 
3991 764.00 773.26 769.99 
3992 764.15 773.25 769.99 
3993 763.50 773.29 769.99 
3994 765.68 773.27 769.99 
3995 763.16 773.23 769.99 
3996 760.38 773.24 769.99 
3997 761.96 773.24 769.99 
3998 764.22 773.25 769.99 
3999 764.26 773.14 769.99 
4000 762.35 773.29 769.99 
4001 765.13 773.30 769.99 
4002 761.65 773.29 769.99 
4003 765.25 773.24 769.99 
4004 764.35 773.30 769.99 
4005 761.10 773.26 769.99 
4006 766.42 773.24 769.99 
4007 762.68 773.22 769.99 
4008 762.18 773.19 769.99 
4009 761.43 772.95 769.99 
4010 765.20 773.28 769.99 
4011 766.88 773.20 769.99 
4012 766.41 773.26 769.99 
4013 761.39 773.22 769.99 
4014 764.11 773.25 769.99 
4015 764.68 773.25 769.99 
4016 766.49 773.21 769.99 
4017 762.36 773.26 769.99 
4018 767.89 773.27 769.99 
4019 761.20 773.28 769.99 
4020 761.22 773.26 769.99 
4021 759.49 773.22 769.99 
4022 762.20 773.19 769.99 
4023 758.90 773.24 769.99 
4024 759.74 773.21 769.99 
4025 764.92 773.23 769.99 
4026 763.43 773.22 769.99 
4027 763.77 773.24 769.99 
4028 763.03 772.97 769.99 
4029 758.45 772.94 769.99 
4030 763.30 773.21 769.99 
4031 763.45 773.23 769.99 
4032 760.61 773.23 769.99 
4033 765.83 772.95 769.99 
4034 765.07 772.95 769.99 
4035 763.54 772.91 769.99 
4036 761.68 772.98 769.99 
4037 760.70 772.93 769.99 
4038 762.62 772.92 769.99 
4039 768.09 772.91 769.99 
4040 765.25 772.96 769.99 
4041 765.07 772.89 769.99 
4042 766.20 773.22 769.99 
4043 761.13 773.23 769.99 
4044 765.67 773.20 769.99 
4045 762.56 773.26 769.99 
4046 765.78 773.28 769.99 
4047 763.16 773.25 769.99 
4048 761.14 773.21 769.99 
4049 762.87 773.18 769.99 
4050 763.02 773.27 769.99 
4051 770.38 773.25 769.99 
4052 760.59 773.28 770.38 
4053 761.60 773.26 770.38 
4054 766.98 773.27 770.38 
4055 766.36 773.17 770.38 
4056 765.57 773.20 770.38 
4057 765.95 773.14 770.38 
4058 763.47 773.18 770.38 
4059 762.09 773.25 770.38 
4060 765.82 773.30 770.38 
4061 765.74 773.24 770.38 
4062 764.91 773.21 770.38 
4063 761.75 773.25 770.38 
4064 761.50 773.26 770.38 
4065 757.92 773.21 770.38 
4066 760.93 773.26 770.38 
4067 764.96 773.31 770.38 
4068 766.81 773.23 770.38 
4069 761.26 773.25 770.38 
4070 764.10 772.93 770.38 
4071 765.72 772.95 770.38 
4072 762.46 772.97 770.38 
4073 763.45 773.23 770.38 
4074 763.96 772.94 770.38 
4075 766.40 773.22 770.38 
4076 761.66 772.93 770.38 
4077 761.95 772.90 770.38 
4078 761.65 772.97 770.38 
4079 766.12 772.96 770.38 
4080 763.24 772.90 770.38 
4081 761.52 772.98 770.38 
4082 764.77 773.22 770.38 
4083 763.62 773.22 770.38 
4084 764.62 773.32 770.38 
4085 764.90 773.28 770.38 
4086 767.44 773.24 770.38 
4087 762.73 773.27 770.38 
4088 764.19 773.24 770.38 
4089 767.98 773.22 770.38 
4090 762.79 773.24 770.38 
4091 762.52 773.23 770.38 
4092 763.95 773.24 770.38 
4093 761.66 773.27 770.38 
4094 761.38 773.20 770.38 
4095 765.23 773.25 770.38 
4096 764.24 773.30 770.38 
4097 763.68 773.07 770.38 
4098 765.73 773.05 770.38 
4099 764.48 773.02 770.38 
4100 764.42 773.10 770.38 
4101 768.50 773.09 770.38 
4102 764.82 773.09 770.38 
4103 767.91 773.32 770.38 
4104 760.93 773.27 770.38 
4105 759.21 773.27 770.38 
4106 762.61 773.24 770.38 
4107 761.45 773.25 770.38 
4108 763.14 773.26 770.38 
4109 763.92 773.22 770.38 
4110 765.66 773.23 770.38 
4111 763.69 773.24 770.38 
4112 765.75 773.22 770.38 
4113 764.65 773.24 770.38 
4114 765.38 773.27 770.38 
4115 762.16 773.24 770.38 
4116 762.10 773.28 770.38 
4117 765.01 773.28 770.38 
4118 765.84 773.27 770.38 
4119 762.26 773.27 770.38 
4120 762.95 773.25 770.38 
4121 763.78 773.27 770.38 
4122 764.97 773.28 770.38 
4123 763.97 773.27 770.38 
4124 764.81 773.27 770.38 
4125 764.92 773.03 770.38 
4126 762.81 773.30 770.38 
4127 764.42 773.30 770.38 
4128 763.17 773.29 770.38 
4129 762.04 773.22 770.38 
4130 762.49 773.25 770.38 
4131 761.89 773.22 770.38 
4132 764.43 773.26 770.38 
4133 766.42 773.29 770.38 
4134 767.16 773.28 770.38 
4135 761.20 773.30 770.38 
4136 767.13 773.27 770.38 
4137 760.56 773.27 770.38 
4138 762.45 773.28 770.38 
4139 762.17 773.28 770.38 
4140 762.20 773.29 770.38 
4141 762.17 773.29 770.38 
4142 763.08 773.30 770.38 
4143 762.42 773.30 770.38 
4144 766.14 773.30 770.38 
4145 766.79 773.29 770.38 
4146 761.10 773.32 770.38 
4147 763.35 773.32 770.38 
4148 762.92 773.28 770.38 
4149 762.71 773.30 770.38 
4150 764.20 773.23 770.38 
4151 761.46 773.30 770.38 
4152 765.91 773.30 770.38 
4153 763.80 773.33 770.38 
4154 765.00 773.31 770.38 
4155 760.92 773.32 770.38 
4156 764.48 773.31 770.38 
4157 763.16 773.27 770.38 
4158 763.47 773.27 770.38 
4159 763.73 773.32 770.38 
4160 761.43 773.29 770.38 
4161 762.60 773.30 770.38 
4162 766.64 773.29 770.38 
4163 763.50 773.31 770.38 
4164 763.93 773.32 770.38 
4165 764.76 773.31 770.38 
4166 763.08 773.32 770.38 
4167 767.20 773.35 770.38 
4168 761.69 773.33 770.38 
4169 761.50 773.09 770.38 
4170 766.31 773.33 770.38 
4171 764.81 773.33 770.38 
4172 766.04 773.32 770.38 
4173 767.25 773.32 770.38 
4174 763.83 773.35 770.38 
4175 762.63 773.33 770.38 
4176 765.85 773.35 770.38 
4177 764.67 773.13 770.38 
4178 762.50 773.33 770.38 
4179 767.05 773.30 770.38 
4180 764.72 773.33 770.38 
4181 763.69 773.07 770.38 
4182 763.25 773.28 770.38 
4183 763.28 773.12 770.38 
4184 766.12 773.34 770.38 
4185 764.07 773.32 770.38 
4186 763.59 773.31 770.38 
4187 761.17 773.30 770.38 
4188 763.27 773.26 770.38 
4189 766.75 773.27 770.38 
4190 761.58 773.30 770.38 
4191 764.77 773.27 770.38 
4192 759.55 773.28 770.38 
4193 764.82 773.27 770.38 
4194 763.78 773.28 770.38 
4195 766.25 773.30 770.38 
4196 761.48 773.28 770.38 
4197 769.53 773.28 770.38 
4198 760.67 773.25 770.38 
4199 764.72 773.30 770.38 
4200 762.82 773.28 770.38 
4201 762.04 773.26 770.38 
4202 763.75 773.29 770.38 
4203 766.99 773.23 770.38 
4204 769.11 773.22 770.38 
4205 758.87 773.28 770.38 
4206 765.86 773.29 770.38 
4207 763.78 773.25 770.38 
4208 767.32 773.31 770.38 
4209 765.84 773.24 770.38 
4210 766.77 773.32 770.38 
4211 767.36 773.26 770.38 
4212 760.62 773.32 770.38 
4213 764.52 773.00 770.38 
4214 764.58 773.02 770.38 
4215 765.87 773.02 770.38 
4216 759.59 773.02 770.38 
4217 763.73 773.02 770.38 
4218 764.29 773.05 770.38 
4219 765.92 773.23 770.38 
4220 765.61 773.28 770.38 
4221 762.79 773.31 770.38 
4222 766.77 773.35 770.38 
4223 764.71 773.05 770.38 
4224 763.78 773.10 770.38 
4225 767.75 773.33 770.38 
4226 762.46 773.06 770.38 
4227 764.60 773.09 770.38 
4228 763.28 773.11 770.38 
4229 764.59 773.10 770.38 
4230 767.86 773.09 770.38 
4231 763.57 773.13 770.38 
4232 764.73 773.09 770.38 
4233 765.16 773.06 770.38 
4234 765.35 773.08 770.38 
4235 761.62 773.08 770.38 
4236 769.28 773.09 770.38 
4237 761.69 773.12 770.38 
4238 761.74 773.15 770.38 
4239 759.56 773.13 770.38 
4240 760.22 773.17 770.38 
4241 764.42 773.38 770.38 
4242 759.11 773.37 770.38 
4243 765.47 773.37 770.38 
4244 763.45 773.35 770.38 
4245 763.55 773.15 770.38 
4246 761.76 773.14 770.38 
4247 762.83 773.12 770.38 
4248 768.55 773.11 770.38 
4249 764.87 773.11 770.38 
4250 763.81 773.09 770.38 
4251 764.75 773.12 770.38 
4252 763.60 773.07 770.38 
4253 766.78 773.16 770.38 
4254 762.05 773.14 770.38 
4255 765.74 773.12 770.38 
4256 762.43 773.19 770.38 
4257 767.08 773.17 770.38 
4258 767.11 773.17 770.38 
4259 763.88 773.16 770.38 
4260 762.15 773.18 770.38 
4261 763.83 773.12 770.38 
4262 766.23 773.13 770.38 
4263 766.05 773.14 770.38 
4264 764.80 773.15 770.38 
4265 765.43 773.15 770.38 
4266 763.24 773.17 770.38 
4267 761.74 773.17 770.38 
4268 765.06 773.17 770.38 
4269 762.73 773.16 770.38 
4270 760.80 773.12 770.38 
4271 762.59 773.14 770.38 
4272 764.23 773.13 770.38 
4273 761.39 773.18 770.38 
4274 759.55 773.20 770.38 
4275 761.06 773.17 770.38 
4276 763.42 773.15 770.38 
4277 766.14 773.14 770.38 
4278 763.84 773.19 770.38 
4279 762.55 773.17 770.38 
4280 766.98 773.34 770.38 
4281 762.38 773.34 770.38 
4282 759.79 773.17 770.38 
4283 762.32 773.41 770.38 
4284 763.21 773.17 770.38 
4285 763.57 773.23 770.38 
4286 762.18 773.16 770.38 
4287 765.20 773.20 770.38 
4288 765.69 773.40 770.38 
4289 763.29 773.16 770.38 
4290 762.57 773.46 770.38 
4291 764.45 773.43 770.38 
4292 762.47 773.22 770.38 
4293 764.82 773.41 770.38 
4294 764.74 773.21 770.38 
4295 763.82 773.25 770.38 
4296 763.39 773.19 770.38 
4297 762.56 773.21 770.38 
4298 763.21 773.21 770.38 
4299 761.29 773.21 770.38 
4300 764.24 772.97 770.38 
4301 764.17 773.20 770.38 
4302 762.73 773.23 770.38 
4303 762.52 772.94 770.38 
4304 765.24 773.18 770.38 
4305 762.95 773.23 770.38 
4306 764.26 773.25 770.38 
4307 763.65 773.25 770.38 
4308 762.66 773.23 770.38 
4309 767.13 773.26 770.38 
4310 763.20 773.25 770.38 
4311 764.96 773.25 770.38 
4312 764.24 773.26 770.38 
4313 763.99 773.28 770.38 
4314 764.08 773.22 770.38 
4315 762.98 773.20 770.38 
4316 764.76 773.23 770.38 
4317 761.78 773.22 770.38 
4318 762.82 773.20 770.38 
4319 763.22 773.22 770.38 
4320 770.08 773.21 770.38 
4321 761.40 773.26 770.38 
4322 764.43 773.25 770.38 
4323 766.61 773.23 770.38 
4324 764.46 773.18 770.38 
4325 764.13 773.20 770.38 
4326 763.48 773.14 770.38 
4327 764.92 773.11 770.38 
4328 766.11 773.09 770.38 
4329 765.50 773.07 770.38 
4330 762.50 773.20 770.38 
4331 765.89 773.19 770.38 
4332 764.39 773.16 770.38 
4333 758.83 773.16 770.38 
4334 762.35 773.17 770.38 
4335 762.86 773.19 770.38 
4336 762.84 773.18 770.38 
4337 761.87 773.19 770.38 
4338 763.58 773.24 770.38 
4339 764.00 773.19 770.38 
4340 764.77 773.18 770.38 
4341 766.34 773.15 770.38 
4342 764.03 773.16 770.38 
4343 762.13 773.10 770.38 
4344 763.40 773.20 770.38 
4345 765.27 773.21 770.38 
4346 764.32 773.21 770.38 
4347 767.55 773.15 770.38 
4348 762.83 773.15 770.38 
4349 766.78 773.17 770.38 
4350 765.46 773.17 770.38 
4351 765.18 773.18 770.38 
4352 765.23 773.22 770.38 
4353 762.09 773.18 770.38 
4354 764.72 773.19 770.38 
4355 760.19 773.19 770.38 
4356 763.75 773.24 770.38 
4357 763.41 773.26 770.38 
4358 763.75 773.23 770.38 
4359 767.87 773.16 770.38 
4360 764.80 773.09 770.38 
4361 762.28 773.18 770.38 
4362 764.63 773.17 770.38 
4363 762.37 773.17 770.38 
4364 764.46 773.13 770.38 
4365 761.88 773.10 770.38 
4366 769.03 773.10 770.38 
4367 763.65 773.08 770.38 
4368 769.58 773.05 770.38 
4369 765.41 773.08 770.38 
4370 764.54 773.11 770.38 
4371 762.65 773.13 770.38 
4372 765.75 773.03 770.38 
4373 761.46 773.09 770.38 
4374 763.58 773.11 770.38 
4375 766.24 773.09 770.38 
4376 762.90 773.12 770.38 
4377 765.08 773.14 770.38 
4378 768.08 773.13 770.38 
4379 762.18 773.15 770.38 
4380 762.51 773.13 770.38 
4381 765.67 773.20 770.38 
4382 766.47 773.20 770.38 
4383 763.83 773.17 770.38 
4384 764.53 773.15 770.38 
4385 764.22 773.14 770.38 
4386 760.41 773.16 770.38 
4387 765.47 773.12 770.38 
4388 765.06 773.12 770.38 
4389 766.81 773.13 770.38 
4390 765.63 773.13 770.38 
4391 765.97 773.14 770.38 
4392 761.94 773.08 770.38 
4393 762.21 773.07 770.38 
4394 765.70 773.19 770.38 
4395 762.47 773.18 770.38 
4396 766.67 773.19 770.38 
4397 765.78 773.19 770.38 
4398 766.21 773.19 770.38 
4399 765.88 773.13 770.38 
4400 765.08 773.15 770.38 
4401 763.82 773.12 770.38 
4402 763.45 773.05 770.38 
4403 766.02 773.14 770.38 
4404 765.30 773.11 770.38 
4405 765.20 773.09 770.38 
4406 762.59 773.05 770.38 
4407 760.06 773.10 770.38 
4408 764.36 773.09 770.38 
4409 760.79 773.11 770.38 
4410 765.07 773.10 770.38 
4411 763.32 773.09 770.38 
4412 762.31 773.14 770.38 
4413 765.36 773.20 770.38 
4414 765.04 773.21 770.38 
4415 765.63 773.18 770.38 
4416 767.26 773.14 770.38 
4417 765.43 773.12 770.38 
4418 764.83 773.15 770.38 
4419 762.21 773.09 770.38 
4420 762.38 773.08 770.38 
4421 762.21 773.07 770.38 
4422 765.82 773.04 770.38 
4423 764.27 773.03 770.38 
4424 763.79 773.09 770.38 
4425 767.15 773.18 770.38 
4426 766.22 773.20 770.38 
4427 761.09 773.21 770.38 
4428 767.73 773.20 770.38 
4429 765.88 773.20 770.38 
4430 764.32 773.23 770.38 
4431 760.41 773.21 770.38 
4432 763.30 773.19 770.38 
4433 762.85 773.23 770.38 
4434 763.65 773.19 770.38 
4435 766.81 773.21 770.38 
4436 762.90 773.22 770.38 
4437 762.31 773.24 770.38 
4438 763.39 773.26 770.38 
4439 765.67 773.24 770.38 
4440 761.42 773.23 770.38 
4441 762.60 773.21 770.38 
