iteration,time_sampling,stoc_pol_mean,stoc_pol_std,stoc_pol_max,stoc_pol_min,rollout_success,alpha,delta,time_vpg,time_npg,kl_dist,surr_improvement,running_score,rwd_sparse,rwd_dense,success_percentage,num_samples,time_VF,VF_error_before,VF_error_after,eval_score,eval_success
0,3.123042345046997,-25.874583133865116,17.3975541344638,87.02087170030067,-41.55281533913,1.0416666666666667,6.114534864996334,0.1,0.0335233211517334,0.5041790008544922,0.048578463,0.023029098,-25.874583133865116,-0.1447217724924665,-0.12930510582579988,1.0416666666666667,19200,1.6824595928192139,0.9970455928643859,0.3514666844580454,-28.14311935240123,0.0
1,2.6347086429595947,-24.747889654886944,23.359423413639234,102.78450858417123,-43.84047343706747,2.0833333333333335,12.474488134864417,0.1,0.013780832290649414,0.2857544422149658,0.05384203,0.006832265,-25.7619137859673,-0.15032092347896392,-0.12365425681229725,2.0833333333333335,19200,1.5756416320800781,0.4093984097293044,0.39429540916106254,-27.731737701598114,0.0
2,3.0269432067871094,-24.822361353458614,21.27882428365329,104.0130333250612,-40.577519952495216,2.0833333333333335,9.496950760470904,0.1,0.011523962020874023,0.3302125930786133,0.045482475,0.01288848,-25.667958542716434,-0.14634265518035372,-0.12405098851368705,2.0833333333333335,19200,2.072305917739868,0.42537810085962424,0.39835704549477996,-28.325446666996765,0.0
3,2.731097459793091,-23.829709024025885,26.118052762484037,116.06132832469696,-42.931305048398286,2.0833333333333335,9.929914673380802,0.1,0.012401819229125977,0.3118417263031006,0.052079473,0.009421097,-25.484133590847378,-0.15094475350948897,-0.11906975350948895,2.0833333333333335,19200,2.344182014465332,0.5111501875552781,0.4854940660700191,-26.923633684488436,0.0
4,2.7093939781188965,-25.034857731128522,18.178598303095388,75.22663050832571,-40.709605961584906,0.0,10.54749142025689,0.1,0.011342048645019531,0.3007235527038574,0.051908936,0.008726253,-25.439206004875494,-0.14468414430076917,-0.12510081096743586,0.0,19200,2.3939731121063232,0.3368354261370341,0.32975831914127446,-25.490823752466543,0.0
5,3.1826558113098145,-22.34398097918597,23.482379348555362,135.71517897315942,-39.06633626427624,1.0416666666666667,9.90196043087818,0.1,0.012184381484985352,0.30915021896362305,0.049200315,0.009293742,-25.12968350230654,-0.13583165854391765,-0.11166499187725099,1.0416666666666667,19200,2.452040672302246,0.4944318451452048,0.48157275525006643,-24.45918237035214,0.0
6,2.7608907222747803,-18.743548082781114,33.180188843153985,146.92198898965836,-37.284896071368706,4.166666666666667,13.414840635215603,0.1,0.016141891479492188,0.3060023784637451,0.03201812,0.0060415333,-24.491069960353997,-0.13261749513324492,-0.09365916179991159,4.166666666666667,19200,2.3944878578186035,0.7291952779419032,0.7000271640770124,-24.754967370606842,0.0
7,2.7998170852661133,-21.969116925962357,27.825706545677928,159.94710916370286,-42.523787747716284,2.0833333333333335,8.851457170278545,0.1,0.011308908462524414,0.3133523464202881,0.043002225,0.012278326,-24.23887465691483,-0.1337513752979548,-0.10979304196462152,2.0833333333333335,19200,2.3822999000549316,0.6144680645805902,0.602105966744991,-23.63619709397385,0.0
8,2.792161226272583,-21.259605834251122,30.51106242331164,212.8566359191903,-39.44511235917063,2.0833333333333335,8.710939575580124,0.1,0.013921022415161133,0.3125779628753662,0.053800825,0.012239838,-23.94094777464846,-0.1297944341611574,-0.10625276749449074,2.0833333333333335,19200,2.4160399436950684,0.6915510548231298,0.678656850458762,-22.685286902274264,0.0
9,2.8488872051239014,-16.567111237895233,34.162634769855046,171.22452365433912,-38.2823091420946,2.0833333333333335,13.781654793995306,0.1,0.012312173843383789,0.33316683769226074,0.045280006,0.011618279,-23.203564120973137,-0.12133206825178396,-0.0827904015851173,2.0833333333333335,19200,2.4525578022003174,0.7710210796139138,0.7472960355969788,-22.41087096655204,0.0
10,2.868177890777588,-21.316146467842998,27.560993313502777,217.7780601553372,-38.912755840013574,1.0416666666666667,6.763655128075239,0.1,0.011767387390136719,0.27458930015563965,0.051836893,0.014261811,-23.014822355660122,-0.12570772603805688,-0.1065410593713902,1.0416666666666667,19200,2.450263261795044,0.6392878266069528,0.5989810583243839,-21.851742151742666,0.0
11,2.9529576301574707,-15.297288633609803,37.58655469603347,260.87814679537314,-37.12794205522706,1.0416666666666667,10.916542990649285,0.1,0.022316455841064453,0.2948727607727051,0.04600711,0.0120691145,-22.24306898345509,-0.11520338732744866,-0.07645338732744866,1.0416666666666667,19200,2.5212278366088867,0.8156353966867721,0.7515391075051984,-21.979205746376937,0.0
12,2.963331699371338,-13.091174743009816,44.69949980078775,212.48713300350272,-37.10486652747173,2.0833333333333335,10.654319477132796,0.1,0.01078033447265625,0.31606173515319824,0.054717917,0.0107491,-21.327879559410565,-0.11791961499206745,-0.06541961499206747,2.0833333333333335,19200,2.527214288711548,0.773398658765344,0.6813055075841029,-21.79809398561146,0.0
13,2.8094184398651123,-20.570206609545334,21.871837880052674,122.53875097668099,-37.23406587973011,1.0416666666666667,9.626577861790844,0.1,0.01190328598022461,0.30994200706481934,0.041934848,0.00976961,-21.252112264424042,-0.12197318773119781,-0.10280652106453114,1.0416666666666667,19200,2.4053120613098145,0.5906989186401439,0.5032575553831465,-22.328119827151042,0.0
14,2.751128911972046,-18.198097162503075,28.459303080610674,145.09777142702248,-37.75569102991373,3.125,10.17993146371253,0.1,0.011524677276611328,0.3494689464569092,0.041939836,0.0081187915,-20.946710754231948,-0.11846767317551266,-0.09096767317551267,3.125,19200,2.4296481609344482,0.6718088829567149,0.6190790443155982,-23.40756086459713,0.0
15,2.7489418983459473,-20.386370097478704,42.4324108609747,387.73155272972014,-38.55698980330492,1.0416666666666667,10.461528031745035,0.1,0.011992454528808594,0.32823753356933594,0.052668262,0.009647675,-20.890676688556624,-0.12253478931891089,-0.10190978931891088,1.0416666666666667,19200,2.484196424484253,0.8531787745020425,0.8052142506173083,-22.83722341059292,0.0
16,2.980448007583618,-18.815905360796872,35.32851534109977,268.28711099626724,-37.38476231377103,2.0833333333333335,13.571719871035407,0.1,0.014744043350219727,0.3184378147125244,0.052844282,0.0060239416,-20.68319955578065,-0.11987428541427618,-0.09404095208094283,2.0833333333333335,19200,2.4750940799713135,0.7693720574762704,0.6994937246844534,-21.943589346057635,0.0
17,2.8066608905792236,-13.878344067466832,59.88608484531646,485.0507118991539,-39.885806771103525,2.0833333333333335,8.28835766102074,0.1,0.01197195053100586,0.3101973533630371,0.048798975,0.013072448,-20.00271400694927,-0.11894549084081028,-0.06936215750747693,2.0833333333333335,19200,2.4153330326080322,0.776399364513368,0.6664645520347582,-21.724496882796572,0.0
18,2.7677934169769287,-20.284462061292412,20.76409565378589,87.97138539532777,-38.981568656130584,0.0,11.814252054647055,0.1,0.011853456497192383,0.2421860694885254,0.042154245,0.009287217,-20.030888812383584,-0.1207710730314473,-0.1013960730314473,0.0,19200,2.333610773086548,0.6749209129816258,0.4598628775774625,-21.563949960847104,0.0
19,2.751938819885254,-21.51141501197085,19.696580326948638,162.50597413013938,-39.70848154310794,0.0,10.89707873609324,0.1,0.013219356536865234,0.31035923957824707,0.04988691,0.013320642,-20.17894143234231,-0.11669821270307194,-0.10753154603640526,0.0,19200,2.441894769668579,0.6067049793617456,0.5156316902358469,-21.151314304226354,0.0
20,2.811561107635498,-5.135786759666958,62.76936773718992,248.72509700822948,-37.277913208917816,4.166666666666667,8.85032590541613,0.1,0.015173912048339844,0.27620863914489746,0.047547195,0.0115191275,-18.674625965074775,-0.11043086002757319,-0.0256391933609065,4.166666666666667,19200,2.4576034545898438,0.8113941024869301,0.6196505702008408,-20.907075472614785,0.0
21,3.033184766769409,-22.4750965495609,9.002668072318636,48.64949524072681,-34.503162867069456,0.0,7.225247942946161,0.1,0.015938758850097656,0.34461212158203125,0.055927493,0.014453503,-19.05467302352339,-0.11568152479550146,-0.11234819146216812,0.0,19200,2.457549571990967,1.1574968850778664,0.15133694831173833,-21.181875176695005,0.0
22,2.8961517810821533,-14.189855890983699,36.7773162459245,172.2906930939945,-41.6315176151794,0.0,10.812170026410797,0.1,0.011712074279785156,0.30038881301879883,0.056298807,0.008331817,-18.56819131026942,-0.11403676122887023,-0.07091176122887023,0.0,19200,2.380192518234253,0.6998692688460196,0.4922250861822693,-20.90007428764258,0.0
23,2.9260425567626953,-13.920003820489654,38.69136877016308,224.61070115843162,-38.23856612679695,3.125,8.647441808270049,0.1,0.010949134826660156,0.30295276641845703,0.048251014,0.011734092,-18.103372561291444,-0.11352176595879486,-0.06956343262546154,3.125,19200,2.372920513153076,0.6027335054697224,0.4900101320786333,-21.111040796414457,0.0
24,2.9496848583221436,-17.019627710232704,30.692727756753214,145.76826126133108,-37.669697817582446,0.0,7.731710980388468,0.1,0.011333703994750977,0.261991024017334,0.052900027,0.012893128,-17.99499807618557,-0.11610065067052035,-0.0850589840038537,0.0,19200,2.393472671508789,0.6676435910241686,0.48969965605022725,-21.034713646412413,0.0
25,2.73331880569458,-7.869145563199493,61.61607165556325,461.4459712020015,-37.46494360914422,2.0833333333333335,11.862973805524678,0.1,0.011756658554077148,0.2449944019317627,0.049700033,0.010792461,-16.982412824886964,-0.11451140021762962,-0.03930306688429631,2.0833333333333335,19200,2.348658323287964,0.7269612583569343,0.5520886666030914,-20.48271852460244,0.0
26,3.070725917816162,-7.608165029181673,70.2777780021838,441.1263061688615,-37.49110741120132,3.125,7.863705113754808,0.1,0.011255741119384766,0.35648393630981445,0.04768389,0.016948272,-16.044988045316433,-0.11341983876974072,-0.038003172103074065,3.125,19200,2.336935043334961,0.6047404279687559,0.5024214463473257,-20.275193520447004,0.0
27,2.9082939624786377,-19.914051254652225,19.477428975548353,157.8944440989072,-37.479743302851105,0.0,12.065228280741215,0.1,0.01237177848815918,0.38358044624328613,0.050544277,0.008237031,-16.431894366250013,-0.10829182851924547,-0.09954182851924548,0.0,19200,2.460869312286377,1.0617792584281918,0.41016957240981633,-20.49927746986992,0.0
28,2.7227354049682617,-12.00757172439072,49.57298688383734,263.9214559713315,-39.21019727061573,2.0833333333333335,11.66226835062653,0.1,0.010871410369873047,0.3116109371185303,0.047897905,0.010698155,-15.989462102064085,-0.11375327804920606,-0.060003278049206056,2.0833333333333335,19200,2.4617621898651123,0.7580790393351509,0.5345966999902818,-20.387274933665783,0.0
29,2.7152819633483887,-10.089023863577811,58.83293229557439,404.9710129321543,-41.281356003624225,2.0833333333333335,7.06181312637192,0.1,0.011441707611083984,0.31439709663391113,0.05422675,0.015514148,-15.399418278215457,-0.11269063169751925,-0.050398965030852595,2.0833333333333335,19200,2.4060146808624268,0.5263933683848316,0.44671377714663657,-20.530904271933345,0.0
30,2.786341905593872,-14.983485725437852,43.76028243768597,308.8209706399719,-38.30040202954844,2.0833333333333335,17.42776337231076,0.1,0.011312246322631836,0.3074064254760742,0.0503666,0.006235089,-15.357825022937696,-0.11405221033324549,-0.0748855436665788,2.0833333333333335,19200,2.3729472160339355,0.5854866386760386,0.46027649667112613,-20.46915173955925,0.0
31,2.9348597526550293,-17.176284532388564,24.957683592792154,120.34004969780541,-40.23589059859712,0.0,11.95871940290618,0.1,0.011872053146362305,0.2964046001434326,0.05160283,0.009107108,-15.539670973882785,-0.11250274648935947,-0.08583607982269281,0.0,19200,2.4518258571624756,0.7024894243441209,0.12994241718785696,-20.3807801077663,0.0
32,2.8289167881011963,-16.933827080469005,35.110161641788984,219.2881721412405,-38.219212812251236,2.0833333333333335,11.470967931026507,0.1,0.012186765670776367,0.34069085121154785,0.051948484,0.009152834,-15.679086584541407,-0.1165060946997701,-0.0846310946997701,2.0833333333333335,19200,2.415283441543579,0.4514438210535756,0.31091458335697647,-20.87575318354751,0.0
33,3.1215031147003174,-16.275819964932086,37.37502934480317,169.79679015349845,-39.96440236071539,3.125,9.045040937187707,0.1,0.011412620544433594,0.3413395881652832,0.05025257,0.012851986,-15.738759922580476,-0.1225920763117394,-0.0813420763117394,3.125,19200,2.4392495155334473,0.3332706976644089,0.2384997793067288,-20.643368374312516,0.0
34,2.6966216564178467,-15.303443351364711,41.62316747173173,268.288238618121,-42.90371657218764,1.0416666666666667,9.980884022522169,0.1,0.011265993118286133,0.24103713035583496,0.049465645,0.011148551,-15.6952282654589,-0.12126332610151132,-0.07647165943484463,1.0416666666666667,19200,2.384408950805664,0.4817544067897199,0.45533825661548327,-19.471302856889935,0.0
35,2.780365228652954,-14.86719176616129,40.56502095587021,201.05724768428092,-39.89677858404981,1.0416666666666667,7.860491646607041,0.1,0.011548995971679688,0.30696749687194824,0.049050212,0.012959363,-15.612424615529138,-0.11743058620020748,-0.0743055862002075,1.0416666666666667,19200,2.4462475776672363,0.5261838780905964,0.3449992027598829,-10.443603259498381,0.0
36,2.8706061840057373,-15.99287982718998,38.93180837420898,222.86686947327118,-39.31651170919988,0.0,10.306328622325893,0.1,0.01529550552368164,0.27426671981811523,0.048517633,0.009560797,-15.650470136695223,-0.11222765071488912,-0.07993598404822246,0.0,19200,2.3866055011749268,0.6353483553168273,0.5037359020749987,-7.52935781736624,0.0
37,2.84417724609375,-14.058336477213762,38.383222750217705,203.97948998817733,-40.89615824581565,0.0,7.562935501985889,0.1,0.01221323013305664,0.31798672676086426,0.053211413,0.013211612,-15.491256770747077,-0.10860731861570631,-0.07027398528237298,0.0,19200,2.4221088886260986,0.5797845833361345,0.39876483110480454,-6.351604025736135,0.0
38,3.0708158016204834,-3.8643830242202406,61.75980911649225,384.8836637984256,-38.656775250296,1.0416666666666667,7.765148022390222,0.1,0.011172294616699219,0.35719966888427734,0.0512117,0.011564763,-14.328569396094393,-0.10574939583429016,-0.019291062500956833,1.0416666666666667,19200,2.36586332321167,0.39757243943495213,0.3155801979197738,-12.22926474300193,0.0
39,2.9481470584869385,-7.62668703772265,65.62850987844763,441.04579107056014,-38.96124494744347,2.0833333333333335,9.774318481797788,0.1,0.012290716171264648,0.26302647590637207,0.054142006,0.010380485,-13.65838116025722,-0.11079706087687387,-0.03808872754354053,2.0833333333333335,19200,2.423717737197876,0.5794455270712426,0.4573696336213889,-12.77508200098292,0.0
40,2.8660998344421387,0.23676933679997939,106.11836175269762,655.231458474195,-36.36056598183762,3.125,11.727477593946253,0.1,0.012257099151611328,0.28910374641418457,0.048471317,0.008540459,-12.2688661105515,-0.10442357600267575,0.001201423997324258,3.125,19200,2.4407548904418945,0.6358186572525601,0.40697760648907877,-11.076982854797333,0.0
41,3.0085394382476807,-6.865041353409034,78.69641720086052,643.4823666791641,-38.00421258840441,1.0416666666666667,7.679861986142243,0.1,0.011403799057006836,0.3104209899902344,0.048640937,0.016144838,-11.728483634837254,-0.10742534973923097,-0.034300349739230955,1.0416666666666667,19200,2.4555411338806152,0.710416950395603,0.4246576843729119,-11.38330862057211,0.0
42,2.9394309520721436,1.6395770181891933,96.10391804104275,637.7671359511291,-38.309987112225635,3.125,8.456782207656353,0.1,0.012155532836914062,0.24569940567016602,0.049363557,0.011953388,-10.39167756953461,-0.10282861938036592,0.008213047286300753,3.125,19200,2.4435932636260986,0.534141323984341,0.40232377291193994,-17.218669924926083,0.0
43,2.8144028186798096,6.869081394280545,107.37255124056122,670.659380180028,-40.93861817211823,2.0833333333333335,10.216592071185527,0.1,0.012098312377929688,0.245147705078125,0.048108835,0.008961144,-8.665601673153095,-0.10021690280024433,0.03436643053308902,2.0833333333333335,19200,2.39465069770813,0.4199395974483168,0.34882573215695273,-12.679219686954225,0.0
44,2.8516409397125244,3.71333611295885,93.37951396014411,448.6361976462576,-41.36466936834478,3.125,9.893885655648395,0.1,0.011000871658325195,0.36478567123413086,0.057592142,0.011241909,-7.427707894541901,-0.10682972128622577,0.018378612047107567,3.125,19200,2.4207701683044434,0.46844612113902634,0.30455146183849335,-17.689158294338846,0.0
45,2.829878091812134,2.5746410882724167,93.15243756295263,618.577425407524,-41.97052100831028,2.0833333333333335,11.422029377400722,0.1,0.011617422103881836,0.3350839614868164,0.055641975,0.009874909,-6.427472996260469,-0.10730652905648415,0.012693470943515866,2.0833333333333335,19200,2.4881601333618164,0.47158916110860943,0.3684405985476018,-10.355111970984197,0.0
46,2.9350597858428955,12.453896827537145,129.28833260931853,839.1354194977018,-41.88042340441457,3.125,11.550636516226367,0.1,0.010935068130493164,0.2825760841369629,0.05702824,0.00775675,-4.539336013880708,-0.10083396300447445,0.06229103699552557,3.125,19200,2.393933057785034,0.568513660766285,0.3906470602033144,-18.729737117746083,0.0
47,2.752535581588745,-15.121675457758856,50.33614080166442,417.5127176526846,-43.30492016081422,0.0,10.50194614264439,0.1,0.01121973991394043,0.2853982448577881,0.0461559,0.0102826385,-5.597569958268522,-0.1101556492270563,-0.07557231589372297,0.0,19200,2.394946575164795,1.1047880066617821,0.4444013943699549,-9.237523065352125,0.0
48,2.675722122192383,-4.568270958213252,102.22453261473552,912.6212053698906,-38.62205986367815,2.0833333333333335,8.061000987757012,0.1,0.011507511138916016,0.2772707939147949,0.05178181,0.014044002,-5.494640058262995,-0.10781949964776505,-0.02281949964776504,2.0833333333333335,19200,2.38466477394104,0.6871781853860175,0.4325534340040173,-15.72350255331341,0.0
49,2.8773322105407715,-0.19911575119815103,115.3149114138001,975.751376398995,-47.03756544976807,2.0833333333333335,7.865968502173132,0.1,0.012995004653930664,0.30251264572143555,0.043943416,0.014242251,-4.965087627556511,-0.11035312381407474,-0.0013947904807414026,2.0833333333333335,19200,2.375673770904541,0.4397563796358471,0.29703240446186535,-13.699860073452724,0.0
50,2.7914087772369385,34.588612502093355,211.681828224077,1245.3392689162445,-40.30241010176488,5.208333333333333,9.79328528587965,0.1,0.011813640594482422,0.29532456398010254,0.051719595,0.009830987,-1.0097176145915245,-0.1049516509974097,0.17296501566925696,5.208333333333333,19200,2.3660929203033447,0.47713454184480364,0.32534268629616075,-11.640118090733832,0.0
51,2.798372268676758,16.769699160556737,150.647823450998,1004.8209996885143,-41.64348047866878,3.125,11.438949171452636,0.1,0.011118888854980469,0.28616952896118164,0.043009486,0.009337736,0.7682240629233016,-0.09987898300437832,0.08387101699562168,3.125,19200,2.3601198196411133,0.41361445885053316,0.24239640375711294,-15.162027115303628,0.0
52,2.8819844722747803,-4.323820305511998,93.21719474073618,738.5679571048813,-44.30351100939523,2.0833333333333335,8.645159504027491,0.1,0.01107645034790039,0.32891082763671875,0.04643405,0.009820805,0.2590196260797716,-0.10657081802047576,-0.021570818020475755,2.0833333333333335,19200,2.4102609157562256,0.48977875988273223,0.23910041996491102,-2.344096433793939,0.0
53,3.076995849609375,-3.8809738298276506,91.92998725000403,728.0904900221813,-37.22851963115595,2.0833333333333335,7.486211618841666,0.1,0.01060342788696289,0.23894262313842773,0.05174902,0.012065078,-0.15497971951097064,-0.10728923835987071,-0.01937257169320403,2.0833333333333335,19200,2.3700263500213623,0.6804414065656447,0.2065135342049823,-10.230500690553285,0.0
54,3.0273971557617188,-5.905905167520736,61.96860222850872,335.18236771983817,-43.65341059060477,0.0,10.550098414904479,0.1,0.011173725128173828,0.24052667617797852,0.049248166,0.009303301,-0.7300722643119473,-0.10201830002158181,-0.029518300021581834,0.0,19200,2.3358380794525146,0.7156551285400561,0.3553174288015229,-7.617761558995857,0.0
55,2.782860040664673,-1.0462190169829666,85.04424304550979,424.4156008497829,-42.357371494875146,1.0416666666666667,7.503521608616468,0.1,0.012279033660888672,0.40497279167175293,0.04924112,0.0106537845,-0.7616869395790492,-0.10750078150299326,-0.005209114836326617,1.0416666666666667,19200,2.3802647590637207,0.5788802882217468,0.2208588854313222,-7.273449600323069,0.0
56,2.9379639625549316,-8.638921354746666,83.76673240022903,648.1607237605197,-39.82445686644787,1.0416666666666667,9.989944442594107,0.1,0.011913061141967773,0.25844883918762207,0.05355116,0.010242906,-1.5494103810958109,-0.105038959048947,-0.04316395904894701,1.0416666666666667,19200,2.4375722408294678,0.6362893716332126,0.07536917456271836,-5.834916862410083,0.0
57,2.9133903980255127,7.008056406469794,128.93121451704874,796.8053409972628,-45.9196039209931,2.0833333333333335,11.135822185955126,0.1,0.011042594909667969,0.3300483226776123,0.047593966,0.008689247,-0.6936637023392505,-0.11097040088963976,0.03507126577702685,2.0833333333333335,19200,2.4337446689605713,0.2423674506950397,0.1460848778355861,-18.31212908806851,0.0
58,2.89770245552063,-17.939993491678393,26.4810222385311,219.06551813596042,-43.59054538136088,0.0,11.386861862122377,0.1,0.012242317199707031,0.3104677200317383,0.051072177,0.008859735,-2.4182966812731648,-0.10509056808606294,-0.08967390141939628,0.0,19200,2.412569284439087,2.1773569939441613,0.1371050868214187,-14.513600785354226,0.0
59,2.9490246772766113,1.0634094302297088,90.63988471404198,563.8870456545005,-38.93309632242909,0.0,9.521669685433528,0.1,0.011140108108520508,0.26361846923828125,0.048458587,0.008027377,-2.070126070122878,-0.10863056430317132,0.005327769030161994,0.0,19200,2.419983148574829,0.20643542535736037,0.056755945284648404,-18.669094347241508,0.0
60,2.8905301094055176,-10.086117871787978,58.704342640415625,377.5104454940638,-40.76472653751299,1.0416666666666667,9.499642727577287,0.1,0.011010408401489258,0.3163454532623291,0.048346747,0.00953986,-2.871725250289388,-0.10270807816041871,-0.05041641149375207,1.0416666666666667,19200,2.3485047817230225,1.0267544421852015,0.25860342531612124,-12.414538299943954,0.0
61,2.7889201641082764,-1.0304108691125349,83.32006475201372,566.2852585876441,-41.21250118161301,1.0416666666666667,10.103627792310556,0.1,0.014558076858520508,0.3085026741027832,0.052403923,0.009609294,-2.687593812171703,-0.10013228848399114,-0.005132288483991119,1.0416666666666667,19200,2.3054440021514893,0.6896569392732019,0.3333922043004787,-19.142477495072196,0.0
62,3.052048444747925,-13.43454000865349,49.00059748444454,324.2347324822989,-42.4513846385089,0.0,11.204176479220278,0.1,0.011930227279663086,0.3391294479370117,0.051320713,0.010569415,-3.762288431819882,-0.10111235426991856,-0.06715402093658522,0.0,19200,2.3823797702789307,0.475041088116005,0.191425710068866,-19.470639222637917,0.0
63,2.8366987705230713,16.04265602847704,140.1309893805395,735.9664628142626,-43.10355052742513,3.125,9.640020872669433,0.1,0.011400461196899414,0.32535529136657715,0.050632875,0.01275603,-1.7817939857901899,-0.09977057530469169,0.08022942469530835,3.125,19200,2.35050368309021,0.5785093160477935,0.19513107597832066,-19.269948901526075,0.0
64,2.8094375133514404,-2.806985058703337,102.89191299214801,640.4694470060364,-43.35648072629645,2.0833333333333335,8.723854569473989,0.1,0.012054204940795898,0.31142377853393555,0.05282507,0.010648368,-1.8843130930815046,-0.10276158175900141,-0.014011581759001445,2.0833333333333335,19200,2.4211199283599854,0.3949194081881542,0.24647221624906615,-19.532734890566672,0.0
65,2.8753104209899902,1.580176154128236,99.61028335630459,518.9019795748299,-38.25549954712681,1.0416666666666667,8.480671649788233,0.1,0.011458873748779297,0.3158724308013916,0.047762047,0.01626375,-1.5378641683605305,-0.1010343163877526,0.007924016945580722,1.0416666666666667,19200,2.3789117336273193,0.18163550305178616,0.07779503904483549,-19.81006874896015,0.0
66,2.762308359146118,-8.640389961391936,78.58997071101619,670.9446657023997,-37.79574929075569,1.0416666666666667,9.098966027956966,0.1,0.011974811553955078,0.3161749839782715,0.055419642,0.010489936,-2.248116747663671,-0.11005138327562265,-0.04317638327562265,1.0416666666666667,19200,2.3609888553619385,0.2803701171621828,0.0839160263395255,-19.874932238885396,0.0
67,2.730558395385742,-8.070695076526686,68.65706010620339,496.32621460533124,-37.34091252784449,0.0,8.857613875497604,0.1,0.011600494384765625,0.34703898429870605,0.05271506,0.011360955,-2.8303745805499725,-0.10242473226438116,-0.040341398931047816,0.0,19200,2.318511962890625,0.836305741935,0.2979781877539181,-19.3216963371327,0.0
68,2.7920918464660645,6.860946405835151,122.53342278904316,825.139593123365,-41.305981413548615,2.0833333333333335,9.07942225009093,0.1,0.011433839797973633,0.32768774032592773,0.05169885,0.009042487,-1.8612424819114601,-0.10442411348522858,0.03432588651477147,2.0833333333333335,19200,2.3647384643554688,0.3645411344799864,0.18397149038426985,-19.340937828433823,0.0
69,2.936919927597046,4.950385305497949,113.10768048046889,792.265953768625,-39.300993961646725,1.0416666666666667,8.163754438187828,0.1,0.011149168014526367,0.3131258487701416,0.05463133,0.0155577045,-1.1800797031705192,-0.09897880530476148,0.024771194695238533,1.0416666666666667,19200,2.389495611190796,0.35303854412631896,0.1350095528477812,-19.53557685132514,0.0
70,2.9776926040649414,-17.182323936078784,40.39141235732264,362.37299702687096,-37.84078144065865,0.0,9.753304849985284,0.1,0.012065410614013672,0.3141968250274658,0.048740298,0.010362609,-2.780304126461346,-0.10879577978553397,-0.0858791131188673,0.0,19200,2.40238356590271,0.7368045848147973,0.052183573492312625,-19.818188993026993,0.0
71,2.801677703857422,-16.244622111725977,28.759096474060055,223.39637445877926,-39.00528162057575,0.0,6.770861803737718,0.1,0.011878490447998047,0.2548704147338867,0.050217528,0.012902866,-4.126735924987809,-0.09933458263922479,-0.0812095826392248,0.0,19200,2.2636215686798096,3.368211029899132,0.27336367111422816,-19.780273998110758,0.0
72,3.0787134170532227,-8.232681266615236,87.93007147165586,815.9824130925149,-38.35290928763677,1.0416666666666667,10.94503182350933,0.1,0.017499446868896484,0.36002516746520996,0.047596112,0.009194749,-4.537330459150551,-0.10009338952929181,-0.04113505619595848,1.0416666666666667,19200,2.335165023803711,0.9048826160946805,0.2094902623723857,-19.720437859198817,0.0
73,2.792360544204712,-16.512922377555423,28.15365717662041,174.6432445463331,-37.46502047085497,0.0,9.984790527903906,0.1,0.01128530502319336,0.34029436111450195,0.04965884,0.010927994,-5.734889650991039,-0.10233715397475392,-0.08254548730808725,0.0,19200,2.4495902061462402,0.7466032176644806,0.0895288068470806,-19.188251129052382,0.0
74,3.0647881031036377,-1.5514934295214402,86.74410646652159,528.2105302744664,-38.11581935506458,0.0,9.893989949667398,0.1,0.012079000473022461,0.2699124813079834,0.04809799,0.009213411,-5.316550028844079,-0.09336888423968953,-0.007743884239689518,0.0,19200,2.5108771324157715,0.6392057457763066,0.22869181692923662,-18.946252876869085,0.0
75,2.9640541076660156,16.7813068326657,126.71305846287106,824.9805969614146,-38.30856905399662,2.0833333333333335,10.80947752321777,0.1,0.012178897857666016,0.31021785736083984,0.049786467,0.0090989,-3.1067643426931006,-0.09148827502594337,0.0839283916407233,2.0833333333333335,19200,2.487107992172241,0.6353060169550239,0.22325713245004733,-18.831638116554014,0.0
76,3.324254274368286,-5.481089588725722,74.64873415632341,528.5986366293528,-38.10372538603133,0.0,12.680904219090685,0.1,0.011198997497558594,0.2814652919769287,0.048126925,0.007940683,-3.344196867296363,-0.10278672735271766,-0.02737006068605097,0.0,19200,2.4551944732666016,0.3954491166270264,0.16995183981610268,-18.739774196486394,0.0
77,2.716069459915161,3.7672691227504393,99.25188006962775,591.6020668698536,-39.32329491697061,1.0416666666666667,9.21508170976709,0.1,0.011437654495239258,0.3105006217956543,0.04379072,0.011825602,-2.6330502682916825,-0.09531811125863199,0.018848555408034665,1.0416666666666667,19200,2.458726406097412,0.24003083348460874,0.094686794198928,-18.765664226052966,0.0
78,2.8788511753082275,0.8330019671198201,102.5166943326501,679.9179926960159,-40.56159832683596,1.0416666666666667,10.357081591623226,0.1,0.011053085327148438,0.3024771213531494,0.047882985,0.0075057223,-2.2864450447505322,-0.09871702231822178,0.004199644348444861,1.0416666666666667,19200,2.4570417404174805,0.28444844717866224,0.14911798377134136,-18.61067885397697,0.0
79,2.8647029399871826,4.1945309380899225,108.54899780809374,764.7415528875819,-35.332091518513096,2.0833333333333335,5.685809258332953,0.1,0.01470947265625,0.2850332260131836,0.051026,0.013321262,-1.6383474464664867,-0.09837216411358214,0.021002835886417843,2.0833333333333335,19200,2.4703543186187744,0.28282470076393934,0.20914072995772826,-18.556325866477486,0.0
80,2.7417256832122803,-11.74651658307082,51.443722341650655,404.3324587248893,-37.97567571234555,0.0,7.453415134109625,0.1,0.012877941131591797,0.34561657905578613,0.047742784,0.010701205,-2.64916436012692,-0.097880836987076,-0.05871417032040935,0.0,19200,2.560685873031616,0.9273755030236214,0.12397137594259311,-18.473309026101788,0.0
81,2.9342710971832275,7.232797903696806,127.65193701790845,734.9834224711052,-38.887670441193386,2.0833333333333335,8.191708175594275,0.1,0.011315345764160156,0.31958580017089844,0.046023328,0.011872171,-1.6609681337445474,-0.09859625037129144,0.036195416295375225,2.0833333333333335,19200,2.5872292518615723,0.42794833109939745,0.12164100342117815,-18.253210544121576,0.0
82,2.9567508697509766,6.135043626235972,158.63932667200854,1043.4274151035816,-41.7358411782158,3.125,10.87038281482873,0.1,0.012769699096679688,0.32402467727661133,0.054805685,0.01044326,-0.8813669577464955,-0.10408873917068413,0.030702927495982527,3.125,19200,2.563412666320801,0.2985270412096603,0.1852196758259446,-18.008334180210397,0.0
83,2.983370542526245,3.9007487872236752,108.90541101390245,872.2411496767679,-36.97924096665216,1.0416666666666667,8.07482524234186,0.1,0.012509346008300781,0.3209724426269531,0.04662217,0.012391645,-0.4031553832494784,-0.0971380518446075,0.019528614822059188,1.0416666666666667,19200,2.546444892883301,0.6566348310770463,0.135183535698747,-17.9578293212367,0.0
84,2.789217710494995,4.594582961313812,103.15431882841395,608.1155337980658,-40.08677094534805,3.125,7.709396358732948,0.1,0.011201143264770508,0.30773258209228516,0.049303178,0.012517841,0.09661845120685059,-0.10201599669813143,0.022567336635201912,3.125,19200,2.564614772796631,0.3978648657640494,0.08242445913488759,-17.904089912633737,0.0
85,2.8562636375427246,-6.501339746178786,67.16355531633512,517.5979015131409,-35.60627892530172,0.0,8.596480397947952,0.1,0.01187586784362793,0.3146958351135254,0.049841188,0.012085857,-0.5631773685317132,-0.09562080936409297,-0.032495809364093,0.0,19200,2.5307085514068604,0.7135172765007989,0.09873743725800141,-17.879866530723497,0.0
86,2.950190782546997,21.335744937055622,165.4914418719993,1249.297822390546,-40.63642402644586,3.125,11.39043346438759,0.1,0.011274576187133789,0.311185359954834,0.048430074,0.0067371354,1.6267148620270206,-0.10350792686850563,0.1060754064648277,3.125,19200,2.533240795135498,0.5502240103562809,0.0952000092684281,-17.939201908382206,0.0
87,2.9430577754974365,-11.853269775632873,46.02215026471329,304.33426922928555,-34.630152744675854,0.0,8.904699618118054,0.1,0.013881206512451172,0.27161478996276855,0.052164625,0.01130058,0.27871639826103123,-0.09758058265062201,-0.05924724931728866,0.0,19200,2.530585289001465,1.7029510322238695,0.04177229736313038,-18.051920600266897,0.0
88,2.966858148574829,-0.42301624935090015,118.45323309759105,1008.6052705371,-33.482228220661945,1.0416666666666667,12.478661334040442,0.1,0.011419296264648438,0.34953975677490234,0.0473431,0.009333404,0.20854313349983808,-0.09522374745566631,-0.002098747455666313,1.0416666666666667,19200,2.4022974967956543,0.35088646053975686,0.09256535839234238,-18.025559837639683,0.0
89,2.897819995880127,-9.979661621595277,74.13247938758482,550.2685203495134,-38.52996297645442,0.0,8.283141316123688,0.1,0.01109766960144043,0.2456989288330078,0.048301257,0.012342522,-0.8102773420096734,-0.10194966504671676,-0.04986633171338345,0.0,19200,2.4135873317718506,0.39475348166829183,0.15786783222834763,-17.835663956771185,0.0
90,2.9424779415130615,-9.818282609723964,103.4922303430094,996.5947296746123,-36.922392881068895,1.0416666666666667,6.3988089263301395,0.1,0.011475324630737305,0.29187846183776855,0.04961691,0.010341674,-1.7110778687811026,-0.1011433910822372,-0.049060057748903894,1.0416666666666667,19200,2.4455645084381104,0.26592568389742655,0.041153199633015294,-17.88909850900214,0.0
91,2.7943124771118164,-6.12047635228138,96.65381310529135,778.8122015478916,-38.68403514171557,1.0416666666666667,8.134920246665809,0.1,0.011090517044067383,0.3031783103942871,0.053447094,0.010737036,-2.1520177171311303,-0.10370732101379136,-0.030582321013791314,1.0416666666666667,19200,2.467597007751465,0.3377350246063207,0.0644063830290258,-17.955465906251973,0.0
92,2.8547136783599854,-17.02031763563296,19.906891683240026,126.73644363653774,-37.72201144563276,0.0,7.229389407229689,0.1,0.015597105026245117,0.31332850456237793,0.040115822,0.010299915,-3.6388477089813134,-0.09758709590184496,-0.08508709590184495,0.0,19200,2.465958833694458,0.496427399004148,0.1715466847835818,-18.09134696482927,0.0
93,2.9831886291503906,4.6430838724551835,106.0478127596763,669.8188329256648,-39.92196683536722,1.0416666666666667,7.532851917123293,0.1,0.012208700180053711,0.286273717880249,0.0357835,0.007898627,-2.810654550837664,-0.10489053889634996,0.023234461103650083,1.0416666666666667,19200,2.3661365509033203,0.5874012373415839,0.027836242425862745,-18.355353019535208,0.0
94,2.77469539642334,3.5358286643540935,79.39142075073501,404.39960459200745,-37.93094430051721,1.0416666666666667,9.346339964429518,0.1,0.011917352676391602,0.28385376930236816,0.046052787,0.01045218,-2.1760062293184883,-0.09730159256022602,0.017698407439773994,1.0416666666666667,19200,2.3468759059906006,0.5422717446842537,0.07552736362130866,-18.550668886684647,0.0
95,2.8956236839294434,-4.661319745884517,82.83065007235503,606.389085065505,-39.34257910450936,1.0416666666666667,8.733517821343629,0.1,0.010982751846313477,0.3148317337036133,0.051562257,0.012709859,-2.424537580975091,-0.10433337019319122,-0.023500036859857854,1.0416666666666667,19200,2.4201176166534424,0.3555385201927429,0.029333160973378694,-18.693620001040358,0.0
96,2.9259371757507324,-0.7907886125871298,84.87837420921365,573.6323515292072,-36.313371011104664,1.0416666666666667,7.396142306938954,0.1,0.012056350708007812,0.31175756454467773,0.05303927,0.010850165,-2.261162684136295,-0.10330450023645367,-0.003929500236453692,1.0416666666666667,19200,2.493011236190796,0.2671051154860449,0.048527465716430816,-18.590924168332172,0.0
97,2.7297494411468506,16.25416847741623,135.94552597980325,857.0501444014377,-35.68098836409688,3.125,7.577214228241166,0.1,0.011240243911743164,0.30893421173095703,0.04969986,0.014136363,-0.40962956798104244,-0.09703516584894678,0.08129816748438656,3.125,19200,2.496894121170044,0.4961409200680849,0.10467578737948649,-18.518331129892477,0.0
98,3.301537275314331,3.477390816155548,106.50173752307337,769.0797660027798,-38.334353774824294,3.125,6.2474434104103915,0.1,0.011109352111816406,0.3037593364715576,0.043045163,0.015711846,-0.02092752956738342,-0.09779323878913122,0.017415094544202123,3.125,19200,2.465502977371216,0.279224988024131,0.12794847271554072,-18.84700670162179,0.0
99,2.8660521507263184,-2.2939787010287063,68.21540568555868,319.3758872350184,-37.976267364926755,1.0416666666666667,6.485532237298296,0.1,0.011783599853515625,0.3564889430999756,0.045096926,0.016371299,-0.24823264671351572,-0.10353971542643618,-0.011456382093102865,1.0416666666666667,19200,2.471322536468506,1.1518542706008712,0.13708743348726848,-18.447220010011762,0.0
100,2.7137935161590576,29.70595395349643,143.92802725456704,769.7062323338359,-36.743033376895845,7.291666666666667,9.84311777268832,0.1,0.013463258743286133,0.2575812339782715,0.050779175,0.010968652,2.747186013307479,-0.09623870808695105,0.14855295857971565,7.291666666666667,19200,2.4551241397857666,0.28441162824704336,0.07728621280421426,-18.30724773145804,0.0
101,2.7097508907318115,18.418563361628184,133.01242624123165,837.1685333956998,-33.65278070792475,2.0833333333333335,9.099260705234048,0.1,0.011292695999145508,0.35573720932006836,0.04937561,0.011595756,4.314323748139549,-0.09205719804913144,0.09210946861753516,2.0833333333333335,19200,2.4214999675750732,0.462236235244742,0.09017424977748603,-18.141088854300875,0.0
102,2.8169331550598145,-1.8900203988110604,69.7419291622366,396.31362269378246,-38.10579883595933,0.0,8.381505338216998,0.1,0.01196146011352539,0.33510875701904297,0.04959023,0.01147857,3.6938893334444884,-0.09067656461437894,-0.00942656461437894,0.0,19200,2.5211427211761475,0.5435628693925362,0.10848924946098988,-18.122853669706238,0.0
103,2.9270317554473877,4.099023122317889,71.1552833272767,284.5041878555874,-41.69816393577317,1.0416666666666667,9.914045655403486,0.1,0.011546850204467773,0.308854341506958,0.049235385,0.01069239,3.734402712331829,-0.08844280841244433,0.020515524920889008,1.0416666666666667,19200,2.5462734699249268,0.36700993295640955,0.17996184900989,-18.187731665929967,0.0
104,2.9017834663391113,-1.8998637264353764,83.18383604379147,636.7915055954834,-36.66515203314856,1.0416666666666667,7.786830437671992,0.1,0.012117624282836914,0.3192110061645508,0.04921487,0.013355532,3.1709760684551083,-0.09343082974848793,-0.009472496415154593,1.0416666666666667,19200,2.535142421722412,0.3558775198516127,0.07107477148093737,-18.135758838030164,0.0
105,2.7936136722564697,-2.5684914907829692,73.79651356177905,565.1932762493265,-35.99829336435954,1.0416666666666667,9.448689888744243,0.1,0.011433601379394531,0.29747724533081055,0.05002929,0.011084447,2.5970293125313004,-0.09032703330235205,-0.012827033302352067,1.0416666666666667,19200,2.5229947566986084,0.5560680987603325,0.1333859852746418,-18.069893182265695,0.0
106,2.8399064540863037,10.477015585010099,101.49562795387995,516.2732370743825,-35.59640417737765,1.0416666666666667,8.011873639771748,0.1,0.022015810012817383,0.27782511711120605,0.048566174,0.011477394,3.3850279397791803,-0.09176022809479177,0.052198105238541535,1.0416666666666667,19200,2.43601131439209,0.29418188735303474,0.07970133389630166,-17.788970195852407,0.0
107,2.807091474533081,3.332305456580721,86.22241270488925,560.8030690204228,-37.775427444187144,2.0833333333333335,9.291531307751809,0.1,0.012154340744018555,0.35596537590026855,0.050413746,0.011347845,3.379755691459334,-0.09186096088697578,0.0164723724463576,2.0833333333333335,19200,2.453167676925659,0.47051592953004456,0.1748346023494667,-17.860588122154823,0.0
108,2.7729990482330322,19.10625788391599,131.80070970948594,1018.3468228143921,-41.95791125924166,4.166666666666667,7.634791209983448,0.1,0.011188030242919922,0.31105804443359375,0.048489124,0.017245024,4.952405910705,-0.09029202320846803,0.09533297679153195,4.166666666666667,19200,2.5015408992767334,0.25371380132228805,0.09910258169317601,-18.067202385896252,0.0
109,3.040682315826416,20.513643061367347,143.39203510541648,893.5942230590077,-37.93053123778402,5.208333333333333,9.59013297372498,0.1,0.01130819320678711,0.2653486728668213,0.047549326,0.009474807,6.508529625771235,-0.09178912763489616,0.10258587236510382,5.208333333333333,19200,2.5087337493896484,0.20550691529282922,0.06128858381655297,-17.894189215331657,0.0
110,2.9564061164855957,3.6774698327985895,100.91995735799274,733.6135223566143,-37.97670897363286,2.0833333333333335,6.6977902152564655,0.1,0.011433124542236328,0.30207037925720215,0.053957418,0.015186268,6.2254236464739705,-0.09472610862723807,0.018398891372761902,2.0833333333333335,19200,2.528458833694458,0.3131480289679093,0.08994210062677281,-17.88809770884786,0.0
111,2.7632651329040527,21.607584248421073,142.3414136498616,981.8425157230085,-35.79438261068791,2.0833333333333335,8.754926993074521,0.1,0.011132955551147461,0.2587881088256836,0.05369875,0.010691906,7.76363970666868,-0.08716300862600919,0.10804532470732414,2.0833333333333335,19200,2.5488786697387695,0.21472951963234674,0.07765688433382797,-17.779036024642426,0.0
112,2.7883822917938232,18.081940949743174,125.25034601288608,716.9558864888711,-34.38719936351886,4.166666666666667,7.754760349618942,0.1,0.01127767562866211,0.3062596321105957,0.05017423,0.012125341,8.795469830976131,-0.0914510651331575,0.09042393486684248,4.166666666666667,19200,2.4928557872772217,0.11890588286866559,0.06851804971067858,-17.780705273437015,0.0
113,2.883709192276001,46.52139389554916,214.6235488963196,933.2131578733956,-36.89349720634435,8.333333333333334,8.73326424623898,0.1,0.01809549331665039,0.2737693786621094,0.04066084,0.008601317,12.568062237433434,-0.09612542618223925,0.23262457381776072,8.333333333333334,19200,3.0616912841796875,0.15704087173358708,0.02676128718705573,-17.819312285372185,0.0
114,2.7186214923858643,50.64466364060487,188.90016793001882,973.6809857935348,-37.52912019104136,7.291666666666667,8.42396353232936,0.1,0.01267552375793457,0.31708765029907227,0.04481613,0.011511269,16.375722377750577,-0.08926473194014606,0.25302693472652055,7.291666666666667,19200,2.5462708473205566,0.18424805746588838,0.06715017274618643,-18.004725710679644,0.0
115,3.086946487426758,39.61162190181491,154.4167455922861,652.8292300345289,-32.47029566092804,4.166666666666667,6.725755386405377,0.1,0.011482477188110352,0.3396275043487549,0.048155546,0.016427014,18.69931233015701,-0.08775495744582935,0.198078375887504,4.166666666666667,19200,2.5117666721343994,0.10970840702962707,0.04709938608728638,-17.951319771359394,0.0
116,2.7664971351623535,23.569661019712324,147.17014614828506,998.270599760469,-35.90043783495781,5.208333333333333,6.998837267174573,0.1,0.011969804763793945,0.3260359764099121,0.050547834,0.016341886,19.18634719911254,-0.09067837805276535,0.11765495528056798,5.208333333333333,19200,2.6375789642333984,0.10704935979738156,0.06525355662144296,-17.96983051773719,0.0
117,2.724317789077759,33.53786755197627,154.7840101725966,825.0763604128985,-35.55270707190929,5.208333333333333,7.901582946854708,0.1,0.011175394058227539,0.31557583808898926,0.04802127,0.013228806,20.621499234398915,-0.0916697334070648,0.1677052665929352,5.208333333333333,19200,2.5263121128082275,0.12163123930447974,0.056637130639121534,-18.036520596419457,0.0
118,2.829357862472534,22.156335039303116,125.8281337728528,605.0853875650906,-37.21464648850929,3.125,7.606870571930605,0.1,0.012113571166992188,0.25357675552368164,0.051482428,0.013078024,20.774982814889338,-0.08962842859982213,0.11057990473351119,3.125,19200,2.606799840927124,0.3767512077800028,0.08130727348702871,-17.89671986878669,0.0
119,2.7123091220855713,44.68971994575977,180.47666769958505,785.764160949837,-36.21075957685574,8.333333333333334,8.890069757266042,0.1,0.012480974197387695,0.30340099334716797,0.053497754,0.010272167,23.166456527976383,-0.08758105063258992,0.22346061603407671,8.333333333333334,19200,2.6127102375030518,0.13172638075332652,0.03619753857925738,-18.300766620656745,0.0
120,2.8581035137176514,24.908408491263998,140.0004878099718,898.1773777756534,-30.728365740893803,5.208333333333333,8.948987185390616,0.1,0.011024951934814453,0.305553674697876,0.048826844,0.011959642,23.340651724305143,-0.08606892926503805,0.12455607073496196,5.208333333333333,19200,2.592303514480591,0.275606780735227,0.0946786886305138,-18.42813180286869,0.0
121,2.774235486984253,27.675383531871834,134.5954096105722,676.6962022043464,-35.214625735596,2.0833333333333335,5.855987830416468,0.1,0.011220216751098633,0.3535592555999756,0.049287114,0.020110913,23.774124905061814,-0.08973393445415645,0.13839106554584354,2.0833333333333335,19200,2.485013723373413,0.25195545857067675,0.07627819408708411,-18.655815337849923,0.0
122,2.9392249584198,21.577257004145043,121.15482051919992,626.5588170585098,-37.75094457991337,4.166666666666667,7.26360428727418,0.1,0.013349771499633789,0.33171725273132324,0.044768993,0.012083879,23.55443811497014,-0.08563412433417804,0.10790754233248863,4.166666666666667,19200,2.5481626987457275,0.2854285565326595,0.12959174480704394,-18.639985057587765,0.0
123,2.803285837173462,16.848711304684624,126.40168992150839,792.0181614410242,-40.12839408030855,3.125,6.980511525104134,0.1,0.011453628540039062,0.3318607807159424,0.049693644,0.017387168,22.883865433941587,-0.09074685840739198,0.08383647492594137,3.125,19200,2.561354637145996,0.2725961689814625,0.22455721715698554,-18.933076833432942,0.0
124,2.872910976409912,34.150832789594624,148.48383664600897,800.0337637060273,-36.33829287370031,7.291666666666667,8.485798025880463,0.1,0.01098322868347168,0.27629923820495605,0.05181991,0.011697536,24.01056216950689,-0.0852700584519378,0.1707716082147289,7.291666666666667,19200,2.554652452468872,0.24920627839367102,0.09540614853275177,-18.75814013670835,0.0
125,2.928224802017212,10.32430218601802,89.23782018824404,562.1682987565335,-37.93465071255314,3.125,6.948353558101738,0.1,0.011499166488647461,0.2512509822845459,0.04869822,0.013572176,22.641936171158004,-0.09065121702245431,0.051223782977545686,3.125,19200,2.571887493133545,0.5928507128320402,0.10728724240695427,-18.70221852476197,0.0
126,3.084433078765869,27.621916900665905,145.81688733235512,851.4878204320394,-35.67777217604569,5.208333333333333,9.227469521898188,0.1,0.01166844367980957,0.3013770580291748,0.04999162,0.009660026,23.139934244108794,-0.08834171030170047,0.13811662303163288,5.208333333333333,19200,2.563223123550415,0.20727628779419538,0.034263439322029424,-18.758090302352667,0.0
127,2.797367811203003,8.983491571921482,89.83560229098093,488.8303941820134,-39.411064501892426,2.0833333333333335,9.26901451788164,0.1,0.010983705520629883,0.2415783405303955,0.046785735,0.009286015,21.724289976890063,-0.09298374982926616,0.044932916837400465,2.0833333333333335,19200,2.5013418197631836,0.5407571058088864,0.07044249939718343,-18.528612326450467,0.0
128,2.9984006881713867,23.92541638574492,143.5152501664737,747.170965583317,-33.60558033648993,5.208333333333333,6.344903090238449,0.1,0.010858535766601562,0.30336737632751465,0.05046704,0.015829263,21.94440261777555,-0.08889850086221117,0.11964316580445548,5.208333333333333,19200,2.4998726844787598,0.1601686450783331,0.048385272463114,-18.558658393738916,0.0
129,2.7884833812713623,58.53122808562862,201.4755415401917,927.3248132645223,-36.070913211330456,9.375,10.212534026367578,0.1,0.03405165672302246,0.3909783363342285,0.054696046,0.010022262,25.603085164560856,-0.08587345289417837,0.29266821377248825,9.375,19200,2.451051712036133,0.10112324034239846,0.041995393011537444,-18.43026057343571,0.0
130,2.935596466064453,3.126443345671117,88.64897345803031,562.9571422209527,-35.04243832383588,3.125,10.912148332983861,0.1,0.011173248291015625,0.33442115783691406,0.05296191,0.009819697,23.35542098267188,-0.0914444419388531,0.01501389139448025,3.125,19200,2.540283679962158,0.30187022260829843,0.060031477916319805,-18.34294817605134,0.0
131,3.1483592987060547,22.98847961041982,116.2749597343266,807.4455831209406,-33.91233680442435,3.125,5.972310722006614,0.1,0.011716127395629883,0.3201892375946045,0.044746183,0.021313379,23.318726845446676,-0.086082327817656,0.11495933884901062,3.125,19200,2.562295436859131,0.3359894367176072,0.0804337913274187,-18.140998876559305,0.0
132,2.843136787414551,18.279073270650347,113.11116087318834,541.2413470811258,-34.991470069633195,6.25,7.985204299809636,0.1,0.011023283004760742,0.29906797409057617,0.050715398,0.0129235275,22.814761487967044,-0.09170520125547786,0.09141979874452215,6.25,19200,2.4908318519592285,0.13423391073366622,0.04377464712971023,-18.344303579039057,0.0
133,2.9833099842071533,11.80994519877494,94.72046138241159,510.7203974516136,-35.54374454328647,4.166666666666667,5.728118123769819,0.1,0.01094675064086914,0.2521641254425049,0.05168452,0.019367184,21.714279859047835,-0.08572697092879467,0.059064695737871986,4.166666666666667,19200,2.4981205463409424,0.302676562657236,0.14155125537298197,-18.211661523877957,0.0
134,2.7365615367889404,6.168972209489105,88.93504257750533,407.6066196198983,-37.15890586042611,3.125,6.21504688946969,0.1,0.010852336883544922,0.2950093746185303,0.051154055,0.014565712,20.159749094091964,-0.09164773817229827,0.030852261827701736,3.125,19200,2.485778331756592,0.11410613311798984,0.0430310628736578,-17.85106949225274,0.0
135,3.047199010848999,34.833937691883854,171.61530719759602,816.1915079349355,-36.10032856503085,7.291666666666667,8.61828798330727,0.1,0.011718273162841797,0.25803065299987793,0.052848924,0.009872677,21.627167953871155,-0.0870721045200203,0.17417789547997967,7.291666666666667,19200,2.5396454334259033,0.27326239723413726,0.0435106890711464,-17.80738967267681,0.0
136,2.9034459590911865,26.45913754508338,142.65732402257964,732.3089659943054,-34.95298357738076,3.125,8.400115088130905,0.1,0.013463020324707031,0.3340122699737549,0.04787433,0.014434858,22.110364912992377,-0.08957197087338642,0.13209469579328026,3.125,19200,2.564361095428467,0.19229187683222124,0.0526079160950981,-17.62568478340924,0.0
137,2.895904779434204,33.563025110986864,137.17159616775277,615.3871863781285,-34.216642169035346,5.208333333333333,9.277740785793656,0.1,0.011414766311645508,0.259263277053833,0.05486143,0.011516605,23.255630932791828,-0.08717254481688515,0.1674107885164482,5.208333333333333,19200,2.575153350830078,0.19846528267745853,0.0674515421316812,-17.54470669509827,0.0
138,2.9137258529663086,68.2256866097968,223.05482000646612,1040.1945954889295,-34.334681796218575,8.333333333333334,9.7733505628083,0.1,0.011752128601074219,0.32543039321899414,0.049298283,0.009574506,27.752636500492326,-0.08428702284057084,0.34029631049276254,8.333333333333334,19200,2.588768482208252,0.11349346204299128,0.04311468089779281,-17.465146654177296,0.0
139,2.8317878246307373,57.19780115619823,210.87385853091172,915.536228474905,-33.05753553853758,9.375,5.5540590576122035,0.1,0.010982990264892578,0.28113532066345215,0.047714736,0.0162659,30.697152966062916,-0.08150600766290929,0.28578565900375735,9.375,19200,2.536576747894287,0.07315939284679614,0.04168828850288445,-17.243832255446637,0.0
140,3.047926425933838,50.28350506313867,170.64005520243344,1024.2066829541754,-34.91252039687641,5.208333333333333,7.2277442307914175,0.1,0.011761903762817383,0.32350873947143555,0.051365808,0.0124219805,32.655788175770496,-0.07816025426579214,0.25100641240087457,5.208333333333333,19200,2.6182241439819336,0.13389542480492966,0.047717805842959767,-17.195964379339664,0.0
141,2.888559103012085,53.61031816373674,188.72829176896167,1052.3797288917724,-35.71678944667176,8.333333333333334,5.891841552463819,0.1,0.01139211654663086,0.30780673027038574,0.049812272,0.017876996,34.75124117456713,-0.08381417690667259,0.2680608230933274,8.333333333333334,19200,2.523827314376831,0.2008131698822267,0.07921248628192762,-17.14167262460939,0.0
142,2.788492441177368,69.40893810516096,211.28003770914864,1052.0590200104743,-37.99182416045094,8.333333333333334,6.226144883075253,0.1,0.01171731948852539,0.295133113861084,0.04963923,0.017573299,38.21701086762651,-0.08565622515273115,0.3466354415139355,8.333333333333334,19200,2.5451018810272217,0.10482563925591404,0.04918219948578659,-16.90218737840235,0.0
143,2.8194189071655273,45.69219875728128,169.44732887826586,826.6546297036609,-35.43231544222212,5.208333333333333,6.190354506925531,0.1,0.012026548385620117,0.30699825286865234,0.05156229,0.017895106,38.96452965659199,-0.08257614363018802,0.22846552303647863,5.208333333333333,19200,2.564243793487549,0.2651996528103418,0.07253145527049282,-16.81937124173639,0.0
144,2.8973066806793213,48.38210128334858,177.81322536125936,895.1517573882928,-30.79469955433683,7.291666666666667,7.981442137435684,0.1,0.011171102523803711,0.30819225311279297,0.051853314,0.013541108,39.90628681926765,-0.07725244737401547,0.24149755262598457,7.291666666666667,19200,2.479633331298828,0.17634313997746728,0.07181336570723879,-16.529574709587976,0.0
145,2.7129063606262207,6.465348942569437,111.90311895092803,804.0787568771309,-33.2172434241512,3.125,5.558273914715613,0.1,0.01110529899597168,0.3424813747406006,0.048041034,0.017547252,36.56219303159783,-0.09453621028203966,0.03213045638462695,3.125,19200,2.4128687381744385,0.17479345703264546,0.041624125379940584,-16.61914120843855,0.0
146,2.980924606323242,79.67039153027979,212.17321556090687,895.8492100773364,-37.41613233663757,11.458333333333334,6.664242210508408,0.1,0.010858774185180664,0.30547547340393066,0.051249687,0.0133989435,40.873012881466025,-0.08081623454910748,0.3975170987842258,11.458333333333334,19200,2.4843368530273438,0.14487820315491692,0.05046463392217204,-16.413678459544432,0.0
147,2.9538135528564453,67.99272257758544,219.63783031754096,1035.7085511921728,-33.945935785093106,7.291666666666667,7.971160765812574,0.1,0.011584281921386719,0.33570027351379395,0.04899882,0.014004583,43.58498385107797,-0.07961736617278421,0.33892430049388245,7.291666666666667,19200,2.5355920791625977,0.05507160250681894,0.02749194073852787,-16.31094716343256,0.0
148,3.2233171463012695,89.73907572185323,237.23003784592484,1249.500351459087,-32.72255216706654,9.375,8.767472012660487,0.1,0.011648178100585938,0.3134877681732178,0.04484806,0.010837755,48.200393038155504,-0.07525092318971331,0.4484990768102867,9.375,19200,2.477466583251953,0.11233234797835859,0.05721617386531798,-16.23640339293967,0.0
149,2.7704014778137207,66.97923722806865,236.6724921178256,1052.9995129409685,-35.57123670735377,6.25,7.566240998621848,0.1,0.011606216430664062,0.24607133865356445,0.04723172,0.013489014,50.078277457146825,-0.08426015797124924,0.33448984202875076,6.25,19200,2.4726264476776123,0.05844408258801674,0.02610513143694871,-16.090878573109713,0.0
150,2.7507879734039307,67.37330929992828,203.69292686868638,868.925742562036,-34.392332826652165,5.208333333333333,4.570640656499263,0.1,0.012579917907714844,0.32901573181152344,0.04496913,0.019442236,51.807780641424976,-0.08417064394968936,0.3360376893836439,5.208333333333333,19200,2.6719930171966553,0.25612185074132426,0.07392724509082138,-15.912772307505856,0.0
151,2.906170606613159,38.13178449164424,180.48871089671582,975.7016231716456,-31.463409629780926,4.166666666666667,9.526039249681306,0.1,0.015804529190063477,0.3188467025756836,0.047876745,0.010713748,50.44018102644691,-0.07934044672257505,0.19045121994409162,4.166666666666667,19200,2.5392675399780273,0.10027596680671765,0.027304179572876012,-15.887529241109155,0.0
152,2.9053516387939453,50.62727783935566,175.47654225073674,806.3201003608317,-36.70475260775422,7.291666666666667,7.606275206843592,0.1,0.013256311416625977,0.30967116355895996,0.05017642,0.013449418,50.45889070773778,-0.08186592174093453,0.25271741159239886,7.291666666666667,19200,2.4581105709075928,0.1427449071558788,0.04966831792093189,-15.758159875424493,0.0
153,2.952704429626465,59.25553835583514,171.76421794306535,701.9526528263867,-36.39992274030162,5.208333333333333,7.249535788168542,0.1,0.012950897216796875,0.33815574645996094,0.05185712,0.013180751,51.33855547254752,-0.08120842690040196,0.2962915730995981,5.208333333333333,19200,2.5010006427764893,0.19659439673883036,0.07262321971820744,-10.472308930332964,0.0
154,2.800687551498413,52.726515101609714,171.68971890543702,983.4666975890578,-36.55776750981175,4.166666666666667,7.9847150334003,0.1,0.012783050537109375,0.3326263427734375,0.0514106,0.010856863,51.477351435453734,-0.08032478020217826,0.26342521979782174,4.166666666666667,19200,2.5402798652648926,0.24542320986073213,0.08691136792177062,-5.842168466850831,0.0
155,2.9985098838806152,51.3366302066079,184.33337320741524,823.4487821117151,-30.184450708916714,7.291666666666667,5.825591152430782,0.1,0.01181650161743164,0.29982924461364746,0.0473249,0.019842915,51.46327931256915,-0.08351712638198083,0.2564828736180191,7.291666666666667,19200,2.546799421310425,0.10993352630912938,0.03291414964411168,-0.6096754037211589,0.0
156,2.9788577556610107,38.059222740685065,164.08050398620298,878.4076346106762,-33.58997784989912,5.208333333333333,9.709210179503113,0.1,0.011153221130371094,0.24707698822021484,0.055767085,0.009479006,50.122873655380744,-0.07886084150273026,0.19030582516393643,5.208333333333333,19200,2.5340187549591064,0.2016029893045301,0.08776077704598258,-1.6508987212013109,0.0
157,2.8909049034118652,68.1209092607868,179.18874523715832,699.5310091814446,-33.04878528815824,3.125,8.869100834083728,0.1,0.011632680892944336,0.3103370666503906,0.05013664,0.011841345,51.922677215921354,-0.07709323439254513,0.3404067656074548,3.125,19200,2.5925896167755127,0.17161527321074743,0.06366592842145158,0.4507477786034091,0.0
158,3.179887533187866,56.21212029060723,161.3488855352453,708.4730640080713,-33.2185951698384,6.25,7.812269593266728,0.1,0.0188753604888916,0.3039736747741699,0.048964642,0.016562242,52.351621523389944,-0.08122739391762375,0.2802309394157096,6.25,19200,2.5786848068237305,0.1313946326767692,0.07468254726488338,-0.6435597444182779,0.0
159,2.9588069915771484,70.45103293891711,221.98395690651662,979.5187952046097,-35.80608097936911,8.333333333333334,9.109237402096655,0.1,0.011435508728027344,0.31101512908935547,0.049022507,0.011313307,54.161562664942664,-0.084624260776145,0.3512090725571884,8.333333333333334,19200,2.5218381881713867,0.1747904305975881,0.03673532926820616,-1.0882562609357285,6.25
160,2.7425076961517334,104.16535640973932,274.7958778945847,1151.0302205090554,-38.42851462496693,9.375,6.153312308949889,0.1,0.0110931396484375,0.299868106842041,0.047766175,0.016415235,59.161942039422335,-0.0833343340624273,0.5197906659375726,9.375,19200,2.4767231941223145,0.06904858021293218,0.03796064616427591,10.19171076304606,6.25
161,2.7932486534118652,60.90961098677374,174.80318896596665,629.0141129507492,-35.965484275929924,5.208333333333333,7.531804916810907,0.1,0.011673927307128906,0.30175089836120605,0.052451044,0.012942965,59.33670893415748,-0.07940367714282491,0.3039296561905084,5.208333333333333,19200,2.432227849960327,0.136732905681428,0.04308533478285336,16.3457143250259,6.25
162,2.852802038192749,86.467591344864,240.75125083052185,967.7329637092939,-34.96760513483218,8.333333333333334,7.512991781786352,0.1,0.013776063919067383,0.2719149589538574,0.05363692,0.013945952,62.049797175228136,-0.07662727907199397,0.431497720928006,8.333333333333334,19200,2.465223789215088,0.1574947119119653,0.06178958077231892,9.859557416480776,6.25
163,2.860614061355591,94.7749362630938,210.03769097352446,978.995489594848,-34.0193696679232,10.416666666666666,8.044513716979095,0.1,0.011394739151000977,0.24390459060668945,0.048370764,0.011819431,65.3223110840147,-0.08091468977514045,0.4734603102248596,10.416666666666666,19200,2.5393385887145996,0.16229107747094912,0.07564725957064218,9.242589520159193,6.25
164,2.924562454223633,114.62905832691528,247.14065349763183,933.1857048937824,-36.17947001415988,13.541666666666666,6.411560483565818,0.1,0.010705947875976562,0.2388911247253418,0.049653947,0.017350916,70.25298580830476,-0.07186188308385387,0.5727214502494794,13.541666666666666,19200,2.5438942909240723,0.15438701575555022,0.06178657045865972,12.57570600879526,6.25
165,2.8295180797576904,130.022757922507,285.9951818246657,1115.9206577217446,-33.90086662891703,13.541666666666666,5.839245154129357,0.1,0.013320684432983398,0.33014869689941406,0.046207245,0.016765937,76.22996301972498,-0.0732167812476877,0.6494915520856456,13.541666666666666,19200,2.659935235977173,0.06304480034740549,0.04104356752627442,18.04040880748873,6.25
166,2.8526599407196045,108.56609944933871,271.76561396364673,1237.1808384351737,-31.725779720523736,12.5,5.975420734868399,0.1,0.013120174407958984,0.3528008460998535,0.050544687,0.015199328,79.46357666268636,-0.0769613900576777,0.5424136099423222,12.5,19200,3.1644465923309326,0.07458287420647673,0.042804349828923484,15.71636912026602,6.25
167,2.8542070388793945,89.86777889533835,240.54187553645497,1132.4721984478379,-34.97038194163786,11.458333333333334,7.362271605474196,0.1,0.015151739120483398,0.31257009506225586,0.05208231,0.0127337,80.50399688595157,-0.08107908354879152,0.4482959164512086,11.458333333333334,19200,2.5761287212371826,0.10056079438391895,0.03291711084854581,21.885374040903287,6.25
168,2.9345571994781494,125.66470106493209,285.6951536788572,1225.942744382961,-34.09701397664183,19.791666666666668,9.675501389400601,0.1,0.011235237121582031,0.2788407802581787,0.050052725,0.011238849,85.02006730384963,-0.07667818117252044,0.6283218188274795,19.791666666666668,19200,2.4965624809265137,0.09155957474814282,0.043470796946876424,24.694997903047167,6.25
169,3.3611366748809814,82.23830339137082,245.94007439310047,1149.425946418869,-37.636229994609394,11.458333333333334,7.59364110668784,0.1,0.010949134826660156,0.24206304550170898,0.049915552,0.013414703,84.74189091260175,-0.07880441746177631,0.41077891587155707,11.458333333333334,19200,2.4705617427825928,0.08477042420903459,0.04466168372851739,23.493824457847516,6.25
170,2.85910701751709,87.9612261511519,233.45043015567666,996.0406676049561,-35.32966170922842,7.291666666666667,6.707950841784503,0.1,0.011272192001342773,0.3421452045440674,0.04905917,0.014911157,85.06382443645677,-0.07893399903151031,0.43960766763515635,7.291666666666667,19200,2.440009593963623,0.1815051880293557,0.06079148099851742,19.12536769437213,0.0
171,2.8809125423431396,146.27983254232677,274.0570380988306,981.9362416652502,-37.633503409604465,16.666666666666668,7.297447174513328,0.1,0.0144195556640625,0.3639099597930908,0.046425235,0.013953029,91.18542524704377,-0.07422149813287474,0.7305701685337919,16.666666666666668,19200,2.5851383209228516,0.06310301743862194,0.03312319565129136,23.630846839483034,0.0
172,2.891035318374634,73.4810006125167,173.2569482660984,765.1532981798852,-38.735806834532546,12.5,7.7907296128549275,0.1,0.011224746704101562,0.25471949577331543,0.05047756,0.0123949675,89.41498278359106,-0.0769601956200585,0.3667898043799415,12.5,19200,2.514538049697876,0.17667652694744534,0.08000982184337935,22.338161347720487,0.0
173,2.873406410217285,134.36901556929396,285.33952160055,1088.567803087012,-35.522760057209695,9.375,6.6977531380483954,0.1,0.01177525520324707,0.26281118392944336,0.05250745,0.015339881,93.91038606216135,-0.07523743415849427,0.6714292325081722,9.375,19200,2.5248935222625732,0.12076705417330053,0.043954438210103176,17.013085128739753,0.0
174,2.889219284057617,98.43853265253857,236.32351993963152,1180.2276014127995,-33.755998817008205,11.458333333333334,9.742043239492268,0.1,0.010982036590576172,0.26834607124328613,0.04680084,0.010611583,94.36320072119908,-0.07677199913668982,0.4911446675299769,11.458333333333334,19200,2.5360512733459473,0.11278734713082886,0.05514674165483232,14.58853907636631,0.0
175,3.000919818878174,100.86087746606098,206.76789926372118,711.00948985801,-34.33553336642137,20.833333333333332,8.001832518608609,0.1,0.011071920394897461,0.2649827003479004,0.053312838,0.012249596,95.01296839568526,-0.07798667819595093,0.5038883218040491,20.833333333333332,19200,2.4781694412231445,0.09739001303472701,0.025171789175055196,22.66777268375602,0.0
176,2.893907070159912,76.67855729774719,220.7254011981973,1033.0054391901629,-32.11236690391075,6.25,6.588614675739271,0.1,0.011428356170654297,0.27692246437072754,0.052962136,0.013689749,93.17952728589145,-0.07411681739794997,0.38275818260205013,6.25,19200,2.456662654876709,0.16517928523874953,0.07629379435386772,3.5070723224073026,0.0
177,2.7756357192993164,107.19976233421896,261.3622917867023,1185.1675013550664,-36.024333975358125,12.5,6.494206718178551,0.1,0.012515068054199219,0.2704803943634033,0.051383648,0.015505981,94.58155079072421,-0.07546330592741225,0.5351616940725877,12.5,19200,2.466562271118164,0.10616539067347548,0.05415127655362701,22.396012635953806,0.0
178,2.9522130489349365,71.40356941381788,205.77785887768593,1032.7793104711836,-35.08486482437514,6.25,7.904983092928683,0.1,0.011278152465820312,0.2712676525115967,0.04947013,0.012285215,92.26375265303358,-0.07985632722841271,0.35639367277158723,6.25,19200,2.484342575073242,0.08925320871477954,0.043329497765047555,19.418807529163058,0.0
179,2.9753427505493164,137.46338985320057,289.3340899193842,1386.4472646281256,-35.07256214777626,10.416666666666666,8.214715573814884,0.1,0.011342763900756836,0.2887864112854004,0.05027382,0.013071823,96.78371637305028,-0.07871262092470495,0.6871207124086284,10.416666666666666,19200,2.5181503295898438,0.05666044068108903,0.023980653461946617,18.940652822848257,0.0
180,3.055178165435791,113.55370504956319,279.90034302539897,1253.186016110326,-33.35930440720415,12.5,6.416608002809246,0.1,0.011931896209716797,0.27013397216796875,0.050237637,0.015134875,98.46071524070157,-0.0718110953317863,0.5671472380015471,12.5,19200,2.480978488922119,0.061093842428033736,0.028892449185848074,22.230433278909242,0.0
181,2.846148729324341,149.2115577268655,281.9332650927703,1120.6844982119965,-38.76975070337257,12.5,5.3621804154518715,0.1,0.010740041732788086,0.27377843856811523,0.053585764,0.017005617,103.53579948931797,-0.0751946766725672,0.7450136566607659,12.5,19200,2.4529216289520264,0.06386688039920367,0.03760916828020658,20.385338065356965,0.0
182,2.7820956707000732,85.51152683364239,215.62862288551096,1153.1635391226287,-32.07494865930377,10.416666666666666,6.896566517447873,0.1,0.010863065719604492,0.3298962116241455,0.051762097,0.013254191,101.73337222375041,-0.07536430615941395,0.42734402717391945,10.416666666666666,19200,2.4525949954986572,0.16995223213207095,0.07348211817296818,25.838307218352085,0.0
183,2.7181575298309326,101.63219956448377,256.8779950665508,1445.8359588607498,-35.96070099668979,10.416666666666666,7.18966639818517,0.1,0.011560678482055664,0.33348608016967773,0.047322594,0.015954372,101.72325495782374,-0.0799627081554579,0.5079539585112087,10.416666666666666,19200,2.4343717098236084,0.09187600096841926,0.05026473682422929,22.799241968602278,0.0
184,2.854729413986206,109.82464613094305,241.12254871333505,942.5321710739912,-35.350481224042284,12.5,7.747911050896588,0.1,0.011777639389038086,0.31180858612060547,0.04896594,0.012364681,102.53339407513567,-0.0721325459012212,0.5487007874321121,12.5,19200,2.4526548385620117,0.08562331072456585,0.03903304355163415,26.406370814158763,0.0
185,3.015465497970581,108.41877612178958,226.27143830363582,653.876265808998,-34.640230800653605,13.541666666666666,7.292361181922052,0.1,0.011096000671386719,0.3147900104522705,0.051622637,0.014063344,103.12193227980107,-0.0753978383246904,0.5418938283419762,13.541666666666666,19200,2.4570651054382324,0.08872387440638675,0.03797227582939422,18.234624934072635,0.0
186,3.097259521484375,109.70231620221544,228.6270494645683,838.2962076076918,-31.281657756041607,17.708333333333332,5.957791839573656,0.1,0.011408090591430664,0.3042123317718506,0.050660968,0.0145676145,103.77997067204251,-0.07482171942968827,0.5483032805703117,17.708333333333332,19200,2.5298333168029785,0.17777970562241083,0.056108672188116174,21.83203501705928,0.0
187,2.709275722503662,131.1930948534985,259.76868560167577,962.6681660570575,-32.93937933505991,16.666666666666668,5.955369600965507,0.1,0.011254310607910156,0.322512149810791,0.049354896,0.020144101,106.52128309018812,-0.07111451157152501,0.6553438217618084,16.666666666666668,19200,2.5422277450561523,0.07318391985421159,0.025780171564927592,25.1728028570794,0.0
188,2.783682346343994,121.00824703416235,281.1788453255274,1337.5055398329646,-35.40144581814452,12.5,8.054831256439426,0.1,0.011118650436401367,0.24899959564208984,0.052892704,0.013863348,107.96997948458555,-0.07830095374421431,0.6031573795891191,12.5,19200,2.4488675594329834,0.0911997234788487,0.035007691257477526,29.061104163966114,0.0
189,2.7464210987091064,112.92160108366797,280.92118326588576,1184.3463070008277,-33.57496956301225,11.458333333333334,8.258064253885415,0.1,0.013475179672241211,0.313931941986084,0.054689433,0.010915808,108.4651416444938,-0.07622941672730654,0.5639789166060267,11.458333333333334,19200,2.434379816055298,0.051340394389513204,0.026825111081492756,30.009201307847746,0.0
190,2.9050815105438232,105.57354969213613,258.0983145412504,1253.037154805714,-34.242772702106045,14.583333333333334,8.598651082695305,0.1,0.011207342147827148,0.2653462886810303,0.04936391,0.013341901,108.17598244925804,-0.08046194844049653,0.5272463848928367,14.583333333333334,19200,2.506649971008301,0.0759382469750544,0.04453698528204595,36.55349070150229,6.25
191,2.8979861736297607,113.89304762673937,283.6615385123221,1522.392168591779,-35.33491839122135,11.458333333333334,7.093854712319387,0.1,0.012726306915283203,0.33306264877319336,0.046461012,0.015700018,108.74768896700618,-0.07844529340768602,0.569054706592314,11.458333333333334,19200,2.5223751068115234,0.06517087156304906,0.031245897681074063,36.74913776922855,6.25
192,2.8914437294006348,126.74535335153386,282.76813912360444,1031.878651843471,-36.41347531762878,11.458333333333334,6.155185190089327,0.1,0.011234045028686523,0.2716383934020996,0.046638284,0.018855482,110.54745540545895,-0.07315260236265307,0.6330973976373468,11.458333333333334,19200,2.454491138458252,0.1099403990336133,0.026403834099619872,35.74361102441945,6.25
193,2.7398948669433594,117.81489568281279,265.6369836407274,1100.223555734919,-34.84270255695804,11.458333333333334,7.15381998220833,0.1,0.011014938354492188,0.3155391216278076,0.050263703,0.014089388,111.27419943319433,-0.0796611772943902,0.5888804893722764,11.458333333333334,19200,2.3963141441345215,0.059079793849920924,0.03533067334717221,34.118983793032115,6.25
194,2.776810884475708,142.3066974692671,282.25923380350343,1140.0314016669186,-36.14090355095925,17.708333333333332,7.536735025638444,0.1,0.01091909408569336,0.29546308517456055,0.050096948,0.012547364,114.37744923680161,-0.0770046213969738,0.7107037119363596,17.708333333333332,19200,2.434992551803589,0.10648433106940458,0.04707249372333239,34.36188860009837,6.25
195,2.713776111602783,180.1746539246407,283.1421378319998,1151.8256622249303,-30.705203695515934,20.833333333333332,6.5856766026162665,0.1,0.01126241683959961,0.2859506607055664,0.05038838,0.013579396,120.95716970558553,-0.06330081051739936,0.9000325228159339,20.833333333333332,19200,2.443523406982422,0.06622834040736825,0.039973545160575795,27.730864037477467,0.0
196,2.998427391052246,109.21844268336382,222.87360914203356,796.1945379212176,-33.71374692929589,8.333333333333334,8.738416074214284,0.1,0.016736268997192383,0.33888840675354004,0.047133435,0.0122350715,119.78329700336336,-0.07535885358688442,0.5456828130797823,8.333333333333334,19200,2.4736087322235107,0.08260688235748759,0.04486912569048374,23.13679155319309,0.0
197,3.0334243774414062,154.59309618708053,306.35284781736885,1167.31886795618,-34.7022224971699,11.458333333333334,5.93987031709412,0.1,0.011777400970458984,0.34262895584106445,0.049771253,0.020577418,123.26427692173507,-0.07453456784741137,0.7723404321525886,11.458333333333334,19200,2.485107660293579,0.0779567589653389,0.03664227959854879,24.176325890621456,0.0
198,2.9327235221862793,108.66809366533873,234.2532864953569,1019.674255933731,-32.06172681469726,9.375,7.986396874419562,0.1,0.01159048080444336,0.30792999267578125,0.05162472,0.012541708,121.80465859609544,-0.0787390663885455,0.5429276002781213,9.375,19200,2.5120673179626465,0.06636623728558982,0.03728894536285658,23.728555450862146,0.0
199,2.899282693862915,115.86039633876344,223.891040909929,969.3694356866309,-31.824441507429153,13.541666666666666,6.750802498773226,0.1,0.011434793472290039,0.306652307510376,0.046155527,0.017647432,121.21023237036223,-0.0713291109727532,0.5784625556939135,13.541666666666666,19200,2.4840779304504395,0.09558973028079155,0.04307463695295435,24.791607497703623,0.0
200,2.814612627029419,103.42829905337491,262.4492239636091,1049.5931094841342,-38.28620836631107,11.458333333333334,6.070151566323166,0.1,0.011066675186157227,0.24659991264343262,0.05051237,0.015584186,119.4320390386635,-0.0797356035809864,0.5163060630856803,11.458333333333334,19200,2.383819341659546,0.08583832203043901,0.03470318552273572,21.045399186189268,0.0
201,2.7661688327789307,98.3256447219682,258.98613460175557,1068.4097824596133,-36.55918735257691,10.416666666666666,8.169282369663062,0.1,0.012168407440185547,0.3208639621734619,0.04913112,0.013807543,117.32139960699398,-0.07899348077777145,0.49100651922222854,10.416666666666666,19200,2.4123282432556152,0.07413914866898745,0.019963018869829367,21.676967987618827,0.0
202,2.9659557342529297,99.6149436323612,241.10755382191263,882.8909947227683,-36.693061817653316,10.416666666666666,5.997873982310899,0.1,0.011387348175048828,0.31032586097717285,0.052428503,0.018058402,115.55075400953069,-0.07983736945550511,0.49787096387782825,10.416666666666666,19200,2.3986029624938965,0.08005896212080393,0.033115259631192245,20.221830904982763,0.0
203,2.928500175476074,147.50647338320962,275.21491001186223,959.8227924464402,-37.16445763031313,14.583333333333334,7.713422048215677,0.1,0.01247549057006836,0.3576624393463135,0.04924732,0.013095657,118.74632594689858,-0.07122667598559838,0.7360649906810685,14.583333333333334,19200,2.294461965560913,0.09214271528550727,0.030849140764254414,20.245669993246374,0.0
204,2.8899645805358887,102.93221995919968,233.67773439307044,1009.3093377161025,-35.17418558945218,9.375,5.743748346877878,0.1,0.012512922286987305,0.3906841278076172,0.050506797,0.017695503,117.16491534812869,-0.07741340937191006,0.5144615906280899,9.375,19200,2.4023656845092773,0.09917478556008238,0.058165091604783864,23.31348416703666,0.0
205,2.909836530685425,97.49547271302391,233.06304598682084,939.4831131232012,-34.573619216279305,10.416666666666666,6.466475647790799,0.1,0.011975765228271484,0.30082130432128906,0.050283823,0.015619049,115.19797108461822,-0.08272463688171859,0.48706702978494804,10.416666666666666,19200,2.4032979011535645,0.07486533347717785,0.03166565155438319,26.746487560609637,0.0
206,2.942599296569824,106.64672829133276,239.46015650373488,913.0014111389299,-35.41152964612004,10.416666666666666,6.580087496911944,0.1,0.011240720748901367,0.30623936653137207,0.049505208,0.015963698,114.34284680528968,-0.0780149413410514,0.5328183919922819,10.416666666666666,19200,2.434809923171997,0.06955469675863941,0.038546063718033236,17.2081418373077,0.0
207,2.9953439235687256,133.59255381206523,258.1282651946166,988.5049485405415,-33.950238632989766,12.5,6.587345132137991,0.1,0.011297464370727539,0.30174779891967773,0.046003517,0.017417453,116.26781750596724,-0.07098947288280165,0.6677605271171984,12.5,19200,2.4750471115112305,0.09165305269098942,0.03507393591772528,18.743477735630822,0.0
208,2.821345329284668,116.61434239552484,258.52392082555036,1069.2708586601407,-31.787064589107747,12.5,7.341956295814211,0.1,0.012656688690185547,0.3319981098175049,0.049055707,0.010292052,116.302469994923,-0.0721466859327083,0.582436647400625,12.5,19200,2.482891798019409,0.07991785977205211,0.05175816743230619,21.836032263161268,0.0
209,2.7954306602478027,133.12274426891221,273.4687379042416,1081.248726118278,-36.86351739743958,16.666666666666668,7.139556995190764,0.1,0.014179468154907227,0.36556339263916016,0.05092322,0.014051876,117.98449742232192,-0.07437868006240553,0.6654129866042612,16.666666666666668,19200,2.4575936794281006,0.06520099499085098,0.034116195217097786,23.087057157214147,0.0
210,2.9605939388275146,94.3266762445672,260.4300306868784,1273.281447987409,-35.95181600728593,8.333333333333334,6.439083761940555,0.1,0.012684106826782227,0.32831597328186035,0.046335425,0.014714414,115.61871530454644,-0.07690460991183094,0.47142872342150244,8.333333333333334,19200,2.6188106536865234,0.06877094257047409,0.048248507389994914,24.34743578124416,0.0
211,2.8106484413146973,134.96712351476666,279.0291276762146,1208.9698041292065,-33.450674753316726,12.5,7.099830848207533,0.1,0.011471271514892578,0.32398486137390137,0.043266486,0.011160378,117.55355612556846,-0.07223624899063313,0.6748470843427001,12.5,19200,2.5544190406799316,0.15203450505462598,0.05629690017357668,25.38546242624126,0.0
212,2.946209669113159,82.00452772438472,239.43496147700534,943.431458774865,-38.07519303220337,9.375,9.020905079138176,0.1,0.011518478393554688,0.29929471015930176,0.0510016,0.0107604535,113.99865328545009,-0.08059333647937324,0.41003166352062675,9.375,19200,2.5122532844543457,0.12499900427115722,0.030016013267956953,25.830721732782425,0.0
213,3.1949989795684814,136.25261538244067,277.07407812985673,1099.9944290308486,-31.70336557843553,12.5,6.710988142873417,0.1,0.0146026611328125,0.3147909641265869,0.048555072,0.015946979,116.22404949514916,-0.06727850280335927,0.6808464971966407,12.5,19200,2.4619486331939697,0.09853908642228026,0.03961503930413526,25.85202072720774,0.0
214,2.9804866313934326,169.52814021713695,316.1166886667638,1063.7952677496526,-34.603246770942,19.791666666666668,5.960825215984167,0.1,0.011468172073364258,0.3154003620147705,0.048414174,0.017425342,121.55445856734794,-0.07902144318301145,0.8472285568169885,19.791666666666668,19200,2.428668260574341,0.040740214682554,0.027932346669847733,29.973048349777258,0.0
215,2.8111913204193115,118.89726066565925,272.11115799608416,1042.8347929462013,-34.37781377238128,14.583333333333334,7.449419891419786,0.1,0.01146554946899414,0.3136270046234131,0.044217926,0.011788322,121.28873877717908,-0.07446114617073088,0.5944971871626025,14.583333333333334,19200,2.389174699783325,0.06902838040618327,0.0298128079149739,32.2661258287227,0.0
216,2.829617977142334,93.23415034722431,255.46720130127974,1177.7352966540366,-34.04139693702424,9.375,7.912175969882194,0.1,0.014847993850708008,0.38335728645324707,0.054029323,0.012679808,118.4832799341836,-0.07632667385960323,0.46575665947373013,9.375,19200,2.5299899578094482,0.05057766028424866,0.033873627975996995,29.77952293535227,0.0
217,2.838839530944824,185.96634693489713,327.26566407661664,1153.2408320236375,-36.0630635394423,18.75,6.941629789349424,0.1,0.011500835418701172,0.3315863609313965,0.05298386,0.0149385035,125.23158663425497,-0.07058190845817687,0.9287930915418231,18.75,19200,2.476590871810913,0.058407846697433756,0.027840052030056968,35.83851280424899,6.25
218,3.110647201538086,235.73130807141885,373.6753321436482,1309.5249939106188,-32.44626598557472,23.958333333333332,6.939506983041009,0.1,0.010824441909790039,0.32593584060668945,0.049237676,0.01575349,136.28155877797136,-0.07029715272004992,1.178244513946617,23.958333333333332,19200,2.4880733489990234,0.04313480662116804,0.021559997019688772,38.585653574864175,6.25
219,2.956160306930542,136.00944532927102,275.40619539727913,1213.1328703854717,-36.20327919135913,13.541666666666666,8.559584616839178,0.1,0.011460542678833008,0.30559444427490234,0.052217763,0.012757183,136.25434743310132,-0.0724548635059068,0.6798368031607599,13.541666666666666,19200,2.4860222339630127,0.10439119179712979,0.03914016618179923,32.51315923308164,6.25
220,2.949274778366089,81.4452458173971,208.3497341413508,835.5351170322366,-35.10453806745626,5.208333333333333,7.661424311012349,0.1,0.010799646377563477,0.31185245513916016,0.04573452,0.012942268,130.7734372715309,-0.07631553414584182,0.40680946585415817,5.208333333333333,19200,2.5089268684387207,0.19494627222605732,0.054681320275045554,31.542200275124312,0.0
221,2.806736469268799,129.37606202242696,300.7817871025734,1116.4805908096969,-36.04252958734346,13.541666666666666,6.096250235177512,0.1,0.011919498443603516,0.30788731575012207,0.05110397,0.01803423,130.6336997466205,-0.07270890772758405,0.6462494256057493,13.541666666666666,19200,2.4628891944885254,0.06764097805483137,0.019363477599951606,27.20536401648845,0.0
222,2.711911201477051,118.22118633034454,265.0155497792863,1096.9210644371278,-34.187659156744964,11.458333333333334,7.355970227388851,0.1,0.01103353500366211,0.3124823570251465,0.04871738,0.014756091,129.3924484049929,-0.07264806992224605,0.590476930077754,11.458333333333334,19200,2.446735143661499,0.13473826018374893,0.03758743733128131,28.528737020443813,0.0
223,2.799957275390625,179.7418508446104,318.92607039850884,1241.4908548754324,-31.780655842999053,17.708333333333332,7.10450091344337,0.1,0.011635065078735352,0.3755781650543213,0.05083297,0.012705841,134.42738864895466,-0.0677528420027607,0.8978721579972394,17.708333333333332,19200,2.4514522552490234,0.09722365184902196,0.049386934782642014,24.19088993062944,0.0
224,3.080352306365967,163.75801783956788,301.9722306740098,1089.8456191467073,-33.65365751704687,14.583333333333334,7.355234039398511,0.1,0.01384115219116211,0.363767147064209,0.047063947,0.015609476,137.360451568016,-0.0714133517874709,0.8183783148791957,14.583333333333334,19200,2.541944742202759,0.06866514472067126,0.030443542764149654,28.526241549914538,0.0
225,2.9005377292633057,196.0410755231121,339.078816062882,1253.8785526494712,-32.898822995952976,14.583333333333334,8.060929948689747,0.1,0.01150965690612793,0.28827905654907227,0.052613277,0.010982769,143.22851396352561,-0.06646601117159028,0.979367322161743,14.583333333333334,19200,2.5105178356170654,0.06833792530283901,0.034151628670036675,31.015402646535925,0.0
226,2.9251444339752197,143.71662630765888,288.1693102650232,1173.2608991848415,-33.1542583381555,12.5,6.055751840352317,0.1,0.011039018630981445,0.3027992248535156,0.05273365,0.015649956,143.27732519793895,-0.0672492863486734,0.718167380317993,12.5,19200,2.4711906909942627,0.0670690915972172,0.03965882862037421,32.81941334873749,0.0
227,2.9182751178741455,101.05507511459507,250.01822568093803,1047.7667372570356,-36.215454760339384,8.333333333333334,7.174222684937817,0.1,0.01141500473022461,0.28940916061401367,0.04992906,0.017943451,139.05510018960456,-0.07992647504136764,0.5050735249586323,8.333333333333334,19200,2.4993693828582764,0.05756530094021194,0.03287321453458732,39.59414597648778,6.25
228,2.8413801193237305,121.67376754585393,286.01413138636786,1098.9454471036136,-35.3439771961838,11.458333333333334,7.27947117994203,0.1,0.011367321014404297,0.3233678340911865,0.051256254,0.014365243,137.3169669252295,-0.0732954429282795,0.6073295570717206,11.458333333333334,19200,2.4943289756774902,0.11261545054454722,0.0711749425849425,35.53088211478637,6.25
229,3.0102415084838867,136.27383204030176,285.25878640463316,1066.7729719497352,-32.109282414132394,10.416666666666666,6.161357539611848,0.1,0.011675357818603516,0.3256876468658447,0.04691229,0.016545268,137.21265343673673,-0.069667798920637,0.6813738677460298,10.416666666666666,19200,2.552503824234009,0.12571258858206255,0.028522774416262827,31.01562128896081,0.0
230,2.8897182941436768,164.36873884351482,312.88720384452716,1122.367504544755,-32.43182393502227,17.708333333333332,6.600500146725869,0.1,0.011845111846923828,0.24571776390075684,0.047752697,0.01704944,139.92826197741454,-0.06710735764656184,0.8216426423534381,17.708333333333332,19200,2.534662961959839,0.05513420674663547,0.027868096102813652,29.008229065105205,0.0
231,2.9586291313171387,102.54512443105294,251.0544679880056,946.4733076793727,-34.06865123252756,11.458333333333334,7.803587647250337,0.1,0.013480663299560547,0.3618040084838867,0.048725653,0.013926239,136.18994822277838,-0.0770580069671866,0.5127336596994801,11.458333333333334,19200,2.5013175010681152,0.09431321563497246,0.02958795359588263,25.927627654216003,0.0
232,2.8087894916534424,138.5178274009521,276.0437274497981,1096.6006836702095,-32.314573641765385,10.416666666666666,6.5398360305267875,0.1,0.012768983840942383,0.32944250106811523,0.054047305,0.016909078,136.42273614059576,-0.07219644281294528,0.6919702238537213,10.416666666666666,19200,2.508676767349243,0.09561788324743438,0.03378859086019727,31.48504330863088,0.0
233,2.7170815467834473,101.62448257300139,274.4790987082483,1149.0951114366815,-32.82661274944358,11.458333333333334,6.541875363583266,0.1,0.0114288330078125,0.31624722480773926,0.05065086,0.011481719,132.9429107838363,-0.0795702813879934,0.5081380519453401,11.458333333333334,19200,2.4874799251556396,0.05733567638732171,0.037225907727056445,24.62939875194957,0.0
234,2.9479241371154785,147.51398147772144,291.7243821468529,1013.4150187120055,-34.01993665484488,16.666666666666668,6.913270560498788,0.1,0.013422727584838867,0.2974071502685547,0.05265795,0.014604107,134.40001785322482,-0.07263441303900287,0.7373655869609972,16.666666666666668,19200,2.5178260803222656,0.12364915415875989,0.042237679851167324,11.30604628909827,0.0
235,3.079887628555298,114.61734987562924,251.41207922962593,1007.9776230386183,-35.668904828183145,12.5,6.057044397139949,0.1,0.013815164566040039,0.3082771301269531,0.049283277,0.017560532,132.42175105546528,-0.07004498148400011,0.5724550185159999,12.5,19200,2.5231781005859375,0.052586063341609604,0.02588588366477992,10.264414336480721,0.0
236,2.8213400840759277,163.4899586996992,272.323116349187,827.1317514244133,-30.079488698793558,14.583333333333334,8.30781333424472,0.1,0.014286279678344727,0.3265094757080078,0.049704414,0.013282797,135.52857181988867,-0.06921259502155742,0.8174540716451091,14.583333333333334,19200,2.442819118499756,0.05550223398225398,0.03078489210515766,10.49633260797911,0.0
237,2.9314777851104736,84.42169048849796,206.7854210411761,706.0356657787338,-32.18758629340053,10.416666666666666,7.397384425604854,0.1,0.011204719543457031,0.25016045570373535,0.049070474,0.0138177555,130.4178836867496,-0.07226640200868743,0.42190026465797925,10.416666666666666,19200,2.4000205993652344,0.15344358997867677,0.05523803511119761,24.53902817274385,6.25
238,2.7001235485076904,122.48179149988853,246.71745483594796,854.472967553557,-28.07649865866666,13.541666666666666,5.8315949421968005,0.1,0.012400627136230469,0.32331109046936035,0.049466185,0.0153194275,129.6242744680635,-0.07529860210968335,0.6122013978903166,13.541666666666666,19200,2.4265384674072266,0.09063345591794325,0.038432964455247194,36.919119680856646,6.25
239,2.911632776260376,92.4329262007609,211.97552803985408,963.599757576656,-34.692985394513016,6.25,7.349485576800814,0.1,0.011729240417480469,0.3257880210876465,0.051105957,0.01433959,125.90513964133325,-0.07262801167379558,0.4617469883262045,6.25,19200,2.4466640949249268,0.26359815437236134,0.07203265670284766,30.396315337828973,6.25
240,3.1194820404052734,95.96676086686391,231.29207833395347,939.3759967959264,-29.729979642694538,9.375,6.435124083429457,0.1,0.013384819030761719,0.3264932632446289,0.050969344,0.014880876,122.91130176388631,-0.0728698910897342,0.4794217755769325,9.375,19200,2.471588134765625,0.08481209122567102,0.03632600774590299,26.79206869156213,6.25
241,2.937030792236328,120.01311649872265,250.6998697505744,890.7749684651609,-34.28416717475783,12.5,5.679937580826435,0.1,0.01117706298828125,0.30174732208251953,0.049702667,0.015290328,122.62148323736994,-0.0749375184229359,0.5996458149103975,12.5,19200,2.481752395629883,0.06770280722910815,0.028079098674672766,35.39387855487012,6.25
242,2.8069262504577637,152.0418755616079,281.1382596934033,919.5778868843853,-33.93231144902543,14.583333333333334,7.25550666108518,0.1,0.010750770568847656,0.30609798431396484,0.048896216,0.014889873,125.56352246979374,-0.06729756548037175,0.7597857678529616,14.583333333333334,19200,2.554795265197754,0.09711292216673183,0.04090031605954253,33.097594747375375,6.25
243,2.8864340782165527,105.65587419235976,263.6908495148145,1109.052664649072,-35.85330917148326,14.583333333333334,7.304174612616901,0.1,0.011647462844848633,0.2999839782714844,0.05471416,0.012775066,123.57275764205035,-0.07691877991573069,0.5280812200842693,14.583333333333334,19200,2.5059993267059326,0.07714401215323564,0.023268019243092453,30.185676187684955,6.25
244,2.720327615737915,144.44502861620813,263.73668102939536,971.1848333918109,-32.1982881735965,15.625,8.525696750618687,0.1,0.011625289916992188,0.2853066921234131,0.047042467,0.011509087,125.65998473946614,-0.06923407349039223,0.7215992598429412,15.625,19200,2.4104390144348145,0.062255877870664826,0.029883758445722743,41.25637411201838,6.25
245,2.964364767074585,138.55368103855236,288.5426697473001,1080.8192650145536,-35.682149773690305,15.625,7.176915601374667,0.1,0.011835336685180664,0.32947540283203125,0.051234446,0.013123832,126.94935436937477,-0.07681309613304386,0.6919369038669562,15.625,19200,2.5199391841888428,0.07518291792921819,0.02829388931285208,39.454313333104075,6.25
246,2.9699363708496094,160.18966855029444,290.1110732361671,1024.5661592561926,-34.09150300345974,17.708333333333332,6.689911524921798,0.1,0.01155710220336914,0.31453418731689453,0.053575873,0.014370494,130.27338578746674,-0.06759459547008301,0.8007387378632504,17.708333333333332,19200,2.507798910140991,0.06846301823654496,0.03137894977717844,41.764104836830285,6.25
247,2.835228443145752,137.34326343270416,268.108280934724,919.3005226660839,-33.568561534852165,13.541666666666666,7.574579264105644,0.1,0.02037644386291504,0.3009154796600342,0.04978884,0.012275002,130.98037355199048,-0.07349238148264621,0.6862992851840204,13.541666666666666,19200,2.5081217288970947,0.05872278484626461,0.03553664461433124,42.611526592085696,6.25
248,2.9512014389038086,73.98695995166645,213.63158552782753,947.625489158227,-33.38490720471271,8.333333333333334,6.506866974369432,0.1,0.011227607727050781,0.28011083602905273,0.048330124,0.014958911,125.28103219195809,-0.07984835152538865,0.3697349818079447,8.333333333333334,19200,2.556837558746338,0.08025910915670767,0.03696709268570894,26.297896041553773,0.0
249,2.7845449447631836,79.35721069359647,255.74710975784424,1189.3723579718853,-33.154049101721604,10.416666666666666,6.385935778358574,0.1,0.011451482772827148,0.30414748191833496,0.04739434,0.01554024,120.68865004212192,-0.07570888404265243,0.39637444929068094,10.416666666666666,19200,2.4458866119384766,0.06569043907071402,0.025824841973001892,24.287766864403295,0.0
250,2.7456891536712646,90.0821498403076,214.92492764697116,854.5090912225999,-32.248358734471864,11.458333333333334,5.920732071872406,0.1,0.014626264572143555,0.3351569175720215,0.050564293,0.012973544,117.6280000219405,-0.07146302598595812,0.4497869740140419,11.458333333333334,19200,2.40627384185791,0.13212812001257795,0.04055675443476856,21.0441917007051,0.0
251,2.9943370819091797,125.1300312831634,265.3840212021627,983.5829994901335,-34.86473458862179,11.458333333333334,6.645902596901829,0.1,0.014991283416748047,0.3324427604675293,0.0493038,0.014985119,118.3782031480628,-0.0724769384918174,0.6250230615081825,11.458333333333334,19200,2.4137609004974365,0.12661248795150984,0.05013235353906826,21.761904800093667,0.0
252,2.7663776874542236,140.10660781414356,266.76493664222795,919.4080907529967,-36.065389971893445,13.541666666666666,5.432965442540143,0.1,0.012734413146972656,0.32694578170776367,0.051427208,0.01742497,120.55104361467087,-0.07884443659211887,0.6996972300745478,13.541666666666666,19200,2.543416738510132,0.10539291042810443,0.029820008475027936,19.23141882639505,0.0
253,2.8734378814697266,111.64920696053021,243.1645543270513,924.406367142637,-33.02360810551675,12.5,7.302119979102458,0.1,0.012742042541503906,0.32610607147216797,0.052733272,0.018988874,119.6608599492568,-0.0786235797089787,0.5582514202910213,12.5,19200,2.504530906677246,0.07321936075542212,0.023412358990166648,43.03378502901314,6.25
254,2.982470750808716,145.56381704592638,276.8429806962449,1149.0371705579478,-31.512307757973808,13.541666666666666,6.745381845310493,0.1,0.011233806610107422,0.30901265144348145,0.041985285,0.013582289,122.25115565892376,-0.07363938503924775,0.7271939482940857,13.541666666666666,19200,2.479280471801758,0.09264992892353378,0.047020197274197956,43.044008859886105,6.25
255,2.9157581329345703,184.90449986080276,308.58309490881237,902.9496436093664,-34.60729261867305,20.833333333333332,8.176198158977185,0.1,0.011647939682006836,0.30129289627075195,0.04733206,0.011698938,128.51649007911166,-0.06819037695694102,0.9232679563763923,20.833333333333332,19200,2.5541300773620605,0.0766045934648453,0.03144963814190648,44.28331152793035,6.25
256,2.849621295928955,98.62326326248903,265.7993391295669,1317.7945603328778,-33.15592541264537,13.541666666666666,7.358721421067363,0.1,0.011914968490600586,0.31048059463500977,0.049658947,0.0135363275,125.5271673974494,-0.0779244531709112,0.4927005468290888,13.541666666666666,19200,2.500929832458496,0.0592975780675059,0.03306758146784934,45.78794604081441,6.25
257,2.934818983078003,94.52948217398732,234.39282036302222,1229.1048729564384,-32.79514260766098,7.291666666666667,7.5685263110585925,0.1,0.012369871139526367,0.2850217819213867,0.04974951,0.012467683,122.4273988751032,-0.07672690950477794,0.47243975716188863,7.291666666666667,19200,2.5003111362457275,0.09954064299850235,0.04393037073279489,41.904266727839925,6.25
258,3.0150063037872314,199.14055597250857,295.1376869710809,951.050628808136,-32.159775798986715,18.75,8.92649312388863,0.1,0.012779712677001953,0.31386828422546387,0.052505158,0.010070569,130.09871458484375,-0.06200273817374254,0.9950805951595907,18.75,19200,2.449225902557373,0.12385012723307508,0.03739132202741755,37.63275490529887,6.25
259,2.797715187072754,162.6792982245846,309.5900542070972,1598.601297647782,-31.503251803602918,17.708333333333332,6.466544271863521,0.1,0.012156248092651367,0.3077554702758789,0.048887085,0.015285226,133.35677294881785,-0.07473534982047148,0.8123479835128617,17.708333333333332,19200,2.4496309757232666,0.09959171296150167,0.034618073087706265,39.696518435601654,6.25
260,2.814351797103882,143.27540818036286,283.2743480334199,1008.1989198417152,-31.244388582051563,11.458333333333334,7.178945140497166,0.1,0.011591672897338867,0.33635783195495605,0.049283087,0.014966807,134.34863647197236,-0.07257922732720666,0.7155457726727933,11.458333333333334,19200,2.486586570739746,0.07360138450696516,0.021576052264489432,41.99473036799167,6.25
261,2.7580649852752686,107.63866496306917,259.6072831760062,1168.7036269936189,-34.322520370985885,11.458333333333334,6.477303030849103,0.1,0.012761592864990234,0.2998967170715332,0.05207661,0.013929652,131.67763932108204,-0.07597275900126776,0.5371522409987323,11.458333333333334,19200,2.471625804901123,0.043411157901898235,0.02598321910686855,40.183905471910094,6.25
262,3.0552046298980713,134.73210954450363,282.47122413666773,1019.8572917173881,-34.98808656737509,11.458333333333334,5.506209030224926,0.1,0.01247549057006836,0.30762577056884766,0.045516495,0.01835689,131.9830863434242,-0.07195754004254765,0.6732507932907857,11.458333333333334,19200,2.501891851425171,0.06360432057290784,0.03948716519695524,39.18184204224845,6.25
263,2.755504846572876,157.63317634402702,297.81647290808905,988.606377900918,-31.992571584750355,17.708333333333332,7.77499339726114,0.1,0.01145172119140625,0.3062572479248047,0.042840194,0.011961731,134.54809534348448,-0.07183721527332866,0.7875377847266716,17.708333333333332,19200,2.4612269401550293,0.09286543472010629,0.031904321702745965,38.39686528076341,6.25
264,2.752645254135132,143.47288375392085,287.04937129001377,1196.915442685841,-31.943069540464222,11.458333333333334,5.385876181414617,0.1,0.012147903442382812,0.3286550045013428,0.05111397,0.018246675,135.44057418452812,-0.07451590442272941,0.7167340955772706,11.458333333333334,19200,2.416563034057617,0.07611090197643108,0.03478890728961689,32.15544758482063,6.25
265,2.8878047466278076,131.73484416231233,272.91681450015193,1120.8101481233678,-35.168104373500995,11.458333333333334,9.33783734043427,0.1,0.011827945709228516,0.38097381591796875,0.050231535,0.011349975,135.07000118230656,-0.07570144361755278,0.6582568897157804,11.458333333333334,19200,2.4511587619781494,0.05040003344044867,0.025120855213638344,30.948153610147198,6.25
266,3.030061960220337,163.7569538182564,301.679912582969,1028.0937937704039,-29.39165933427627,17.708333333333332,6.9370596507301,0.1,0.011877775192260742,0.34247660636901855,0.051230345,0.013937769,137.93869644590154,-0.07058752627878206,0.8181624737212179,17.708333333333332,19200,2.4665684700012207,0.07966369868725867,0.03174641147338231,27.870233227048875,6.25
267,2.9960625171661377,138.22698233163567,275.2408401942103,978.6177485593264,-32.796358869990584,16.666666666666668,6.311094026026619,0.1,0.01257467269897461,0.31841182708740234,0.054306056,0.015113216,137.96752503447496,-0.07282213581978321,0.6909278641802169,16.666666666666668,19200,2.4770805835723877,0.08489503028120775,0.03245378466357075,27.314169457928877,6.25
268,2.8553466796875,137.67507385377203,261.1512544679416,883.1608837233947,-29.85628433461762,13.541666666666666,6.869129217922137,0.1,0.011669158935546875,0.2750203609466553,0.05410477,0.015123732,137.93827991640467,-0.07350321811964834,0.687955115213685,13.541666666666666,19200,2.4782185554504395,0.06979706666019651,0.031158732194587167,34.32659017274912,6.25
269,2.9468607902526855,138.151366923326,242.47594056434767,883.3491821603211,-33.81616754550843,14.583333333333334,6.216822317862174,0.1,0.011070013046264648,0.3076035976409912,0.0463993,0.015969342,137.9595886170968,-0.06841219707726608,0.6907544695894007,14.583333333333334,19200,2.4906697273254395,0.09469888526780339,0.05465879116238272,36.45412034585428,6.25
270,2.9789183139801025,111.07046694158328,240.03245073399532,794.0370926662924,-34.14179806052378,11.458333333333334,7.720106822163064,0.1,0.015571117401123047,0.30214977264404297,0.049660474,0.013283747,135.27067644954548,-0.07609790198351714,0.5547354313498163,11.458333333333334,19200,2.413848638534546,0.06532273122542816,0.026896868967348206,38.28142515922542,6.25
271,2.8475444316864014,160.74698617510384,298.11271793441153,1494.096883549757,-32.53968073170794,19.791666666666668,6.069939887907358,0.1,0.011004209518432617,0.28010058403015137,0.049037088,0.01608842,137.81830742210133,-0.07292723734744788,0.803322762652552,19.791666666666668,19200,2.3252980709075928,0.12044393965413351,0.04010564558535928,37.0852268048535,6.25
272,2.926866292953491,121.17427168273916,267.05402117833245,978.7927616101208,-33.645009744811105,13.541666666666666,5.9270320151588,0.1,0.011369466781616211,0.3670964241027832,0.05044515,0.01717283,136.1539038481651,-0.0757918020656373,0.6054581979343627,13.541666666666666,19200,2.3010690212249756,0.07548742105326645,0.028263524011752854,41.650757175784,6.25
273,2.9277236461639404,145.8904251748182,266.72589028153726,926.8076683744747,-32.375486677923945,16.666666666666668,7.05365890276475,0.1,0.011137962341308594,0.28486132621765137,0.047615193,0.013506451,137.1275559808304,-0.0724229218202165,0.7288270781797835,16.666666666666668,19200,2.464784622192383,0.058723879170005815,0.036024392134222434,41.636649253286194,6.25
274,3.004265308380127,136.01746476150151,254.57217730667676,898.4099182693727,-33.96068967383476,15.625,6.903097258831355,0.1,0.01199650764465332,0.3229680061340332,0.051972266,0.014410592,137.01654685889753,-0.07324525299504668,0.67967141367162,15.625,19200,2.4168500900268555,0.05994753577411817,0.03715429424166629,38.594301190426016,6.25
275,2.7344133853912354,158.05730845307036,322.66010678099866,1357.51634259891,-32.412685900347704,16.666666666666668,7.497779331359043,0.1,0.011048078536987305,0.26740431785583496,0.04980172,0.012454142,139.1206230183148,-0.07761588040326721,0.7903007862633995,16.666666666666668,19200,2.4394054412841797,0.056605726435496384,0.027615854780434535,35.123671331170485,6.25
276,2.971086263656616,196.8565297587543,349.6898818173028,1261.3564070704579,-33.924119775523764,17.708333333333332,9.272114792009587,0.1,0.013284921646118164,0.33385133743286133,0.051192578,0.011689452,144.89421369235876,-0.07259270999062473,0.9842822900093751,17.708333333333332,19200,2.6095163822174072,0.05669728537008117,0.02463954151247777,36.693800862842345,6.25
277,2.7978177070617676,181.4550841878639,333.57460952351545,1173.4259350812658,-33.21660784368356,19.791666666666668,5.304348534252476,0.1,0.01263737678527832,0.4380500316619873,0.05342487,0.01747432,148.55030074190927,-0.07002135630145961,0.9064369770318738,19.791666666666668,19200,2.3917510509490967,0.05511344605228326,0.01982134028284695,38.42875358486701,6.25
278,3.0743589401245117,126.22689313081464,277.511471577992,952.1601572719454,-34.591886296516,15.625,6.005531072710372,0.1,0.016716957092285156,0.29188060760498047,0.04924942,0.0159791,146.3179599807998,-0.07635407552335534,0.6311459244766445,15.625,19200,2.3714540004730225,0.08975397351975338,0.028147990085073505,43.1661523651287,6.25
279,3.1381499767303467,143.81119863448748,280.72354754274266,960.6804560751967,-31.374542066868432,16.666666666666668,6.896971329126407,0.1,0.015481948852539062,0.3275470733642578,0.049469527,0.012411894,146.06728384616858,-0.07427547689530778,0.7186411897713588,16.666666666666668,19200,2.4259490966796875,0.06597233030329941,0.02103320723227961,41.367057139085524,6.25
280,2.7436814308166504,142.831860081895,290.8482241630631,987.7620706527605,-32.8161953704616,13.541666666666666,6.202567161539108,0.1,0.011730670928955078,0.3374183177947998,0.047315646,0.0155396545,145.74374146974122,-0.07562636248666481,0.7135403041800018,13.541666666666666,19200,2.4519193172454834,0.07905715533422988,0.031900996867398564,39.47338820150057,6.25
281,2.8240654468536377,141.78015452606277,253.80513623419466,794.515872988001,-32.73757995089982,16.666666666666668,6.444911411999259,0.1,0.012099027633666992,0.3244028091430664,0.054988373,0.01579832,145.34738277537338,-0.07734304280116301,0.7086986238655036,16.666666666666668,19200,2.515871047973633,0.08256564607155141,0.04244679345939364,43.434790059948455,6.25
282,2.8548402786254883,158.01008050768914,269.3736527140824,825.9314022174274,-30.263451049557606,17.708333333333332,6.095106921009224,0.1,0.011622428894042969,0.3062560558319092,0.04559262,0.015381649,146.61365254860493,-0.07036265952914873,0.7896373404708513,17.708333333333332,19200,2.4711594581604004,0.07719949365257577,0.03631545716312696,43.739677359388445,6.25
283,2.905742883682251,112.06590590010137,241.73594657414276,906.9759124309068,-32.48847928221844,9.375,6.133923811805785,0.1,0.011929750442504883,0.36341214179992676,0.046112567,0.018034335,143.15887788375457,-0.07861848008019029,0.5599231865864763,9.375,19200,2.451356887817383,0.07602988349227184,0.03813971782569244,39.893177722222184,6.25
284,2.864539623260498,127.17750988044571,243.0095801238865,869.3306912058994,-34.755733199292095,13.541666666666666,7.358954538060288,0.1,0.012082576751708984,0.2709028720855713,0.049133755,0.013666766,141.5607410834237,-0.07784747328163301,0.6356941933850335,13.541666666666666,19200,2.4536638259887695,0.10687582206800358,0.026522363196886157,39.87471261452744,6.25
285,2.7565393447875977,165.7836112870908,309.6879676790828,1018.9732472310978,-34.894551462694466,16.666666666666668,6.811955099883332,0.1,0.011725187301635742,0.3725769519805908,0.049123514,0.014308423,143.98302810379042,-0.07649755279453514,0.8280857805387981,16.666666666666668,19200,2.5161030292510986,0.12664585408757953,0.0335377647082967,37.6625519109602,6.25
286,2.925776958465576,137.51646442649357,293.64469715021056,1213.2169443471842,-33.700739134030485,16.666666666666668,7.458273945642032,0.1,0.011713504791259766,0.34859299659729004,0.047592293,0.015510934,143.33637173606073,-0.0726271221570767,0.6871645445095899,16.666666666666668,19200,2.6053409576416016,0.09184508373653344,0.03913842087174015,37.176865842576255,6.25
287,2.9105260372161865,106.82494356881921,271.27167707166006,1486.3430584863165,-32.987105539698085,9.375,5.94790401334209,0.1,0.01366281509399414,0.3349471092224121,0.05086136,0.014773532,139.6852289193366,-0.08004016080038974,0.5337098391996101,9.375,19200,2.566056966781616,0.053684383250427646,0.03433435113975493,36.28204940481815,6.25
288,3.0385189056396484,107.738571426299,241.9082351160699,852.5314662969221,-34.285907234180506,10.416666666666666,6.765813452186192,0.1,0.011378049850463867,0.3209717273712158,0.052500702,0.013291663,136.49056317003283,-0.07817647805371891,0.5384901886129477,10.416666666666666,19200,2.4820942878723145,0.06969835265190613,0.03431560052244612,36.60655245093913,6.25
289,2.858107089996338,124.76743098758652,285.2369917442939,1598.6652356904306,-35.49288418453302,14.583333333333334,7.9786128422748455,0.1,0.011410951614379883,0.3179514408111572,0.049448717,0.013414772,135.3182499517882,-0.08052982300042756,0.6236368436662392,14.583333333333334,19200,2.458280324935913,0.10869264731123364,0.035674972654847856,38.9318942228903,6.25
290,3.1213676929473877,125.19088708573268,257.73901096357395,867.0140354116397,-33.520326734476114,13.541666666666666,6.404559310762633,0.1,0.011461257934570312,0.30878496170043945,0.051980335,0.015754273,134.30551366518264,-0.07237907663055326,0.6255375900361134,13.541666666666666,19200,2.4580576419830322,0.12341681136977359,0.02308755564979846,36.853614648315435,6.25
291,3.0122568607330322,101.92753817302916,242.5405230380192,900.3099950676029,-35.515306331766766,13.541666666666666,6.8577322538058585,0.1,0.011114835739135742,0.31466126441955566,0.05042498,0.014466134,131.0677161159673,-0.08055737608541855,0.5090259572479149,13.541666666666666,19200,2.5195178985595703,0.09365699293737224,0.03833180216620358,43.4875789269132,6.25
292,2.7698493003845215,131.2607793492592,289.070815352425,952.4315248578763,-34.299880656611684,14.583333333333334,6.721066246603992,0.1,0.011486530303955078,0.36351442337036133,0.04933429,0.014662404,131.0870224392965,-0.08139542802748359,0.6561045719725164,14.583333333333334,19200,2.4612202644348145,0.1574328405558164,0.024513839053874283,46.63392327524697,6.25
293,2.8307483196258545,144.40684324271828,311.1110501969404,1120.974363960573,-32.95829973206699,16.666666666666668,8.689363370002843,0.1,0.013756275177001953,0.3440706729888916,0.05041128,0.009120167,132.4190045196387,-0.07338218804420059,0.7218261452891328,16.666666666666668,19200,2.372917413711548,0.06507766228243643,0.022554960651784885,44.54198633362085,6.25
294,2.749925374984741,171.85192379560854,333.65301949435985,1080.7524342353386,-33.56996324018866,18.75,5.864584879571839,0.1,0.01165318489074707,0.28427696228027344,0.048956458,0.01835697,136.36229644723568,-0.07699030574887678,0.8590513609177898,18.75,19200,2.428697109222412,0.035051359996925664,0.020406342625998008,45.36851140148006,6.25
295,2.8599369525909424,68.91260381085728,224.10621833824797,1124.7339440150806,-30.9657509078517,7.291666666666667,8.990818974256747,0.1,0.010991811752319336,0.311753511428833,0.04938738,0.009713182,129.61732718359784,-0.0860611653165823,0.34393883468341774,7.291666666666667,19200,2.4780185222625732,0.10533208768944197,0.02302334802748987,45.058924676859704,6.25
296,2.821561098098755,180.44614788119938,307.6534855186526,927.9797633161702,-32.93489978547288,19.791666666666668,6.606316005652381,0.1,0.01183009147644043,0.31035447120666504,0.04636763,0.015912263,134.700209253358,-0.07048032173363417,0.9013946782663657,19.791666666666668,19200,2.495448350906372,0.08698707862455886,0.03389693173680883,41.71401310441065,6.25
297,3.0035464763641357,137.80902341128737,284.68324500037346,963.732752954583,-34.99738379478231,15.625,7.761349431377321,0.1,0.011774063110351562,0.31005859375,0.051682714,0.013744759,135.01109066915092,-0.07761945713615663,0.68842220953051,15.625,19200,2.4055216312408447,0.06451639668355373,0.035282827881209636,37.1293995648027,6.25
298,2.944484233856201,140.70400941092,281.67386924869714,1003.6747263204468,-32.37988449752505,14.583333333333334,8.339947098567881,0.1,0.011168479919433594,0.33139586448669434,0.047203682,0.013194778,135.58038254332783,-0.0762743712279068,0.7028922954387599,14.583333333333334,19200,2.399559497833252,0.03952305025314041,0.017287260004703396,35.28845682810982,6.25
299,2.980515480041504,104.36302769013717,232.984174652735,882.695325181062,-31.808028889191313,11.458333333333334,7.7239701404993175,0.1,0.01424407958984375,0.33610105514526367,0.04870957,0.013069178,132.45864705800875,-0.0731841061788941,0.5216075604877726,11.458333333333334,19200,2.3792130947113037,0.20524182560700913,0.05164325668322539,35.737770696442226,6.25
300,2.9583499431610107,118.48888468658386,237.25108379134008,814.7041965524978,-35.3314785602453,9.375,7.137098035816884,0.1,0.01135110855102539,0.35570192337036133,0.04758687,0.013727242,131.06167082086625,-0.07671901638194549,0.5920309836180545,9.375,19200,2.452082395553589,0.11862896850569349,0.057815903793518954,36.83001533770711,6.25
301,2.821423053741455,134.4985652955375,274.33256135722456,875.4059661070643,-34.37333569959964,14.583333333333334,7.627954677656002,0.1,0.012299776077270508,0.3330087661743164,0.05509732,0.011032777,131.40536026833337,-0.08395483426868235,0.6722951657313176,14.583333333333334,19200,2.44079327583313,0.06581040637754292,0.030181053702878893,27.775509712689566,0.0
302,2.98026180267334,109.28034942779236,243.6549538101924,806.8268608485639,-35.162205374412984,13.541666666666666,6.562143566632298,0.1,0.011113643646240234,0.31023550033569336,0.04686876,0.016085489,129.19285918427929,-0.08047292882008489,0.5455687378465817,13.541666666666666,19200,2.4107813835144043,0.05897384268632729,0.02512211053736317,37.80644621493169,6.25
303,2.9391167163848877,115.16023293257972,252.8712662065571,954.5884535000579,-31.99162412280362,8.333333333333334,6.822184787936676,0.1,0.010959625244140625,0.23877978324890137,0.052751713,0.014189609,127.78959655910933,-0.07712029857062247,0.5751713680960443,8.333333333333334,19200,2.371976375579834,0.055454638307343936,0.02748529286132562,28.708329218443403,0.0
304,2.809021234512329,123.92100075217145,278.5331858595611,1237.2255313187907,-33.43812185685968,13.541666666666666,6.775792905242597,0.1,0.010640382766723633,0.3072235584259033,0.04800802,0.015817538,127.40273697841555,-0.07748428155031649,0.6183490517830169,13.541666666666666,19200,2.3171310424804688,0.15419033774077268,0.061384186563055186,29.516440233501015,0.0
305,2.820547103881836,124.67923844363749,280.71399595870656,1241.3830435308985,-34.31007288260503,14.583333333333334,10.344406603528627,0.1,0.013107776641845703,0.2563498020172119,0.050915875,0.009358192,127.13038712493774,-0.07576995957054647,0.6227717070961202,14.583333333333334,19200,2.2974448204040527,0.06654505099861395,0.030036813284317437,40.81810010115915,6.25
306,3.024517774581909,105.24717072999847,274.30380383361546,1108.6153388672672,-34.600608845056406,11.458333333333334,9.737460614164856,0.1,0.011908531188964844,0.355057954788208,0.051392384,0.009770541,124.94206548544382,-0.08021708155722129,0.5258245851094454,11.458333333333334,19200,2.4638264179229736,0.08364491651093015,0.016323274158082737,41.3867959688083,6.25
307,3.0186734199523926,131.0759516948339,284.47501533399793,1273.5977928135842,-35.52952861695884,12.5,7.008789800090391,0.1,0.012412309646606445,0.3191721439361572,0.048195995,0.012924585,125.55545410638283,-0.07690454019192823,0.6545537931414053,12.5,19200,2.481989860534668,0.06248275616361134,0.03602211582434871,33.13380652089063,6.25
308,2.9110500812530518,105.48029136668892,250.78407561046197,870.5172140961985,-36.68389338961335,14.583333333333334,7.240176449901146,0.1,0.011276721954345703,0.30626440048217773,0.0471484,0.014773453,123.54793783241344,-0.08176434669880327,0.5269856533011968,14.583333333333334,19200,2.468928813934326,0.09011443654392601,0.020663399936021034,24.809702809853178,0.0
309,2.961230516433716,150.80870851781717,267.0331508975087,1092.770212531179,-34.93189314295008,14.583333333333334,8.195119861358886,0.1,0.011072158813476562,0.3096461296081543,0.049561184,0.011440164,126.2740149009538,-0.07408220856022932,0.7527927914397708,14.583333333333334,19200,2.4939002990722656,0.23803449715848476,0.06330947781753697,40.43541019047801,6.25
310,3.0109496116638184,111.78378167929732,261.022035655053,1205.6307375303227,-31.85724752936757,10.416666666666666,8.918969114320632,0.1,0.0120697021484375,0.3118298053741455,0.049665008,0.0107629895,124.82499157878816,-0.07420139557716049,0.5582986044228396,10.416666666666666,19200,2.441706657409668,0.11863044357128591,0.039121641410206257,40.90150024598094,6.25
311,2.7136073112487793,120.30254731713035,264.87910864328927,1076.3800266645205,-32.561642163118066,12.5,6.577475168399004,0.1,0.011968135833740234,0.3164241313934326,0.048548568,0.018125426,124.37274715262237,-0.07766080695531391,0.6008808597113527,12.5,19200,2.462427854537964,0.07509102649024874,0.025378420545302986,36.84527866323185,6.25
312,2.9242379665374756,145.71284027589073,281.5451172114446,1108.4552645114193,-36.04197829767484,16.666666666666668,6.64556329363012,0.1,0.011653423309326172,0.3116428852081299,0.051850133,0.014567162,126.5067564649492,-0.0764306483087319,0.727944351691268,16.666666666666668,19200,2.446702480316162,0.06555868491545516,0.03146100207419143,39.06131325022219,6.25
313,2.921374559402466,162.6206001705817,270.1366257028303,783.6259810171896,-34.833770186379525,17.708333333333332,7.434889317666202,0.1,0.011046886444091797,0.3253285884857178,0.049295574,0.015060212,130.11814083551246,-0.07418140265849095,0.8124852640081756,17.708333333333332,19200,2.482905387878418,0.05552504390679255,0.026588824757794442,27.199235674939423,6.25
314,2.7372403144836426,122.33180156536463,238.65591273951574,860.650137710261,-35.25178381826181,13.541666666666666,6.829890430252808,0.1,0.015703678131103516,0.30920982360839844,0.047872163,0.014701911,129.3395069084977,-0.07730967684658752,0.6108153231534124,13.541666666666666,19200,2.5622849464416504,0.13882343202267042,0.054501427229798935,33.7120759506468,6.25
315,2.8201253414154053,99.99436893486767,216.35892970568585,805.602144854858,-31.80160259068749,7.291666666666667,7.931680026841737,0.1,0.011434078216552734,0.3059680461883545,0.050662573,0.013089784,126.4049931111347,-0.0733536271190412,0.4997713728809588,7.291666666666667,19200,2.5677497386932373,0.10443994609243612,0.04534823653649588,23.748682895251793,6.25
316,2.9381563663482666,121.08407557504897,249.1824857759019,836.0475932435675,-34.458513753992115,13.541666666666666,7.527740954070143,0.1,0.011357545852661133,0.2764444351196289,0.049362693,0.0137548065,125.87290135752613,-0.07852711302926386,0.6052228869707362,13.541666666666666,19200,2.57899808883667,0.0597181664993681,0.034582565853758136,30.88739015543075,6.25
317,2.963946580886841,131.61074867465814,267.3498721783621,929.2324898709543,-35.18915135014286,13.541666666666666,7.544903263832339,0.1,0.01217794418334961,0.31044483184814453,0.05056059,0.012497927,126.44668608923934,-0.0773513369041469,0.6572319964291865,13.541666666666666,19200,2.4734814167022705,0.07875957978926533,0.0300155614131603,29.449516544369846,6.25
318,2.928046703338623,116.78687095628875,260.0704816244817,900.8952294252983,-35.50831772587084,12.5,7.596605785071644,0.1,0.010847330093383789,0.2837831974029541,0.050013725,0.012778974,125.48070457594427,-0.07252528538869184,0.5833080479446414,12.5,19200,2.384944438934326,0.10823298647676786,0.030080572506886966,28.207853748079007,6.25
319,2.9527604579925537,146.16073537779974,298.04824817285674,1409.706079941883,-29.94510750068415,15.625,5.665100321479086,0.1,0.011118173599243164,0.25715017318725586,0.04978981,0.01781297,127.54870765612984,-0.07440673428314479,0.7299682657168552,15.625,19200,2.5192058086395264,0.09431826974435951,0.04418907189446516,20.648085288228962,6.25
320,2.8626291751861572,84.78715425393962,204.3612092348419,713.3333426469177,-32.70897759293887,12.5,7.150947349654398,0.1,0.01139068603515625,0.34084010124206543,0.052313384,0.013476888,123.27255231591081,-0.07542864095677221,0.4235296923765612,12.5,19200,2.4757070541381836,0.13938796233179063,0.05591034256735055,30.718170535024605,6.25
321,2.7450695037841797,134.66929081714792,268.422777532865,952.6648074034971,-35.59312709707426,13.541666666666666,7.652379418227835,0.1,0.011132001876831055,0.31493186950683594,0.04814862,0.015398668,124.41222616603453,-0.07684033253166152,0.6733680008016716,13.541666666666666,19200,2.524064540863037,0.1133937410997328,0.05973897275857297,37.15757643755231,6.25
322,2.8210830688476562,149.15544795528817,291.2303390340054,967.3883186806308,-35.203987755534946,15.625,6.973407833070949,0.1,0.010972023010253906,0.3101513385772705,0.052750945,0.014077907,126.88654834495989,-0.07567392286491463,0.7451594104684185,15.625,19200,2.539855480194092,0.12691270311840328,0.030578833132693994,38.50990648012284,6.25
323,3.159991979598999,115.84990740223168,253.76423146423045,943.5399969762002,-34.893816082092755,11.458333333333334,7.51866890919277,0.1,0.01226043701171875,0.3039267063140869,0.0509363,0.013456348,125.78288425068706,-0.07409169741270287,0.578408302587297,11.458333333333334,19200,2.457333564758301,0.06672316339210112,0.03723837457160444,35.42069599406387,6.25
324,2.953801393508911,94.70831611949593,231.51253266884936,935.7585584885602,-35.3410800841632,9.375,6.544711445805608,0.1,0.011310577392578125,0.30335259437561035,0.04999925,0.0152002135,122.67542743756795,-0.08208168949449728,0.4733349771721695,9.375,19200,2.525000810623169,0.08008025975141002,0.031240800629807896,35.22816071037321,6.25
325,2.9614808559417725,123.63801577985305,235.82181976500712,915.3011534962616,-29.993101040758166,10.416666666666666,8.203437026709635,0.1,0.011627435684204102,0.3072078227996826,0.051958546,0.011980564,122.77168627179645,-0.07180628098486003,0.6179853856818067,10.416666666666666,19200,2.4708633422851562,0.10216041243350596,0.04441569643942842,36.26213129954276,6.25
326,2.8474788665771484,124.60870932106373,246.94024072954468,829.5203631729318,-28.847024621992716,12.5,6.273695180458263,0.1,0.010963678359985352,0.2932312488555908,0.050627325,0.016292442,122.95538857672318,-0.0748752695302825,0.6224163971363842,12.5,19200,2.438479423522949,0.08192711145061811,0.03788676496611276,19.247281017111476,0.0
327,2.710664987564087,93.21601245707772,227.66944703891488,855.121133143931,-34.03621667302812,10.416666666666666,6.692996975333561,0.1,0.011816740036010742,0.3421187400817871,0.05235057,0.013748265,119.98145096475864,-0.07558008674068252,0.4660865799259842,10.416666666666666,19200,2.5022079944610596,0.08113398398831047,0.03948659378667067,18.716754543461477,0.0
328,3.0957279205322266,136.69539167392568,263.2141194506237,855.0656441889697,-33.5664524291065,15.625,10.744553713775495,0.1,0.01427912712097168,0.34130239486694336,0.052531432,0.009243745,121.65284503567534,-0.07235765763936837,0.6830590090272982,15.625,19200,2.4839367866516113,0.07580675109673596,0.02530214685296588,27.27385091986168,6.25
329,2.719703197479248,101.47391516135896,222.78069081503625,849.0386490261777,-36.00516461189229,9.375,6.1648780591480685,0.1,0.011157035827636719,0.31780076026916504,0.04844536,0.019870896,119.6349520482437,-0.08096545815170497,0.506534541848295,9.375,19200,2.4917263984680176,0.08535319453515265,0.03711139925914786,22.557851023924805,0.0
330,2.9525113105773926,109.44572696787897,236.5814236492591,817.6537398201431,-35.03846537973434,11.458333333333334,8.021513085408303,0.1,0.011457443237304688,0.2957019805908203,0.051488034,0.011848819,118.61602954020724,-0.07818076056734963,0.5470275727659837,11.458333333333334,19200,2.391031265258789,0.0921552310997704,0.03635059257214189,20.854425072022675,0.0
331,2.9615509510040283,124.6756773034715,245.88580612570487,932.4497044129796,-33.23505944862232,11.458333333333334,5.583292983453391,0.1,0.011179924011230469,0.2979903221130371,0.050253928,0.017973201,119.22199431653367,-0.07891633314343366,0.6225420001898997,11.458333333333334,19200,2.4124884605407715,0.13830996242491175,0.026836384093455467,19.259602745078414,0.0
