iteration,time_sampling,stoc_pol_mean,stoc_pol_std,stoc_pol_max,stoc_pol_min,rollout_success,alpha,delta,time_vpg,time_npg,kl_dist,surr_improvement,running_score,rwd_sparse,rwd_dense,success_percentage,num_samples,time_VF,VF_error_before,VF_error_after,eval_score,eval_success
0,2.3477134704589844,-244.23502371259178,28.058587212829167,-184.55540937565516,-325.96873176564486,0.0,0.4616436081474159,0.1,0.09426259994506836,0.21134066581726074,0.055817116,0.30340907,-244.23502371259178,-0.10748461840468614,-3.1672656977616156,0.0,2097,0.23811554908752441,1.0010421349280145,0.9129029986433718,-318.91923313713687,0.0
1,2.220191240310669,-246.92222798961993,33.19414460366655,-177.71181150131838,-335.49213442833224,0.0,0.5860212317209215,0.1,0.007962942123413086,0.1705160140991211,0.053229135,0.19669928,-244.5037441402946,-0.10870909898056395,-3.2034640939611028,0.0,2098,0.19445371627807617,0.9136393598193804,0.2972449425635468,-375.93248779496844,6.25
2,1.8815240859985352,-255.07873109142642,49.87334401818915,-178.67066103428084,-495.89313521703383,0.0,0.5911274329400802,0.1,0.0069637298583984375,0.16021060943603516,0.048879836,0.18086892,-245.5612428354078,-0.10794141963711772,-3.3126268572521016,0.0,2173,0.299396276473999,0.32134213965420716,0.16146973423748714,-410.5284325533828,6.25
3,1.981881856918335,-247.8571628432576,37.864168852852764,-165.9315570072725,-460.1789005103864,0.0,0.5904844504741474,0.1,0.007697582244873047,0.15426945686340332,0.051819846,0.18940368,-245.79083483619277,-0.10790861784789607,-3.2163040517782715,0.0,2116,0.20192217826843262,0.1518793536971997,0.12608466299212764,-374.5913567449946,6.25
4,1.7775514125823975,-241.60748249054507,31.310044224819006,-175.03296773673108,-329.21200309996294,0.0,0.5697785159227219,0.1,0.016192197799682617,0.15478205680847168,0.05103343,0.18819113,-245.372499601628,-0.10668460083031854,-3.133880128795509,0.0,2084,0.1885089874267578,0.11834194007881109,0.0925745682924244,-364.3513106993579,0.0
5,2.0174503326416016,-239.99486048763887,34.5946202851243,-169.62191280755826,-351.8939639173209,0.0,0.5781855726576595,0.1,0.007634639739990234,0.17279314994812012,0.050644655,0.16415934,-244.83473569022908,-0.1053174232147905,-3.1104847921009084,0.0,2101,0.1990678310394287,0.0936777304297825,0.07068439535883245,-430.0907592025428,0.0
6,1.8714427947998047,-248.7347123514809,44.04191734347487,-164.93290858316942,-469.57363493134267,0.0,0.5817214741544952,0.1,0.009137392044067383,0.17698383331298828,0.05361596,0.17936131,-245.22473335635428,-0.10723496712512319,-3.2261453391382062,0.0,2130,0.20735907554626465,0.08779517007847501,0.06780939624878053,-448.3774713076648,0.0
7,2.0063984394073486,-243.38411171179527,30.57767611245353,-179.395407496566,-336.96756238070685,0.0,0.597338022092243,0.1,0.021893024444580078,0.1641397476196289,0.051845457,0.1736152,-245.04067119189838,-0.10737987647072099,-3.155931390423564,0.0,2086,0.1938011646270752,0.04937120185332275,0.03399482145012371,-494.9174815171889,0.0
8,1.8728971481323242,-244.34493041434303,31.24275562289347,-169.46353981601447,-342.43858101725357,0.0,0.5731033284729277,0.1,0.008819341659545898,0.1684129238128662,0.051030554,0.1856801,-244.97109711414285,-0.10851462571488242,-3.168938969601601,0.0,2070,0.19583630561828613,0.0343892321105937,0.0288121549077814,-409.92577340524986,0.0
9,2.0363407135009766,-248.4655315602529,38.68878498007608,-179.04982139597553,-495.5341345372125,0.0,0.5737858021146388,0.1,0.016657114028930664,0.21796941757202148,0.053046342,0.15501912,-245.32054055875386,-0.10667360875153925,-3.223579096980941,0.0,2144,0.2011702060699463,0.05860629419262113,0.05480679691264222,-380.60069134257037,0.0
10,1.767958402633667,-254.1672813528224,63.49956099449414,-153.77835293679937,-711.9248184981192,0.0,0.6109493353428952,0.1,0.045884132385253906,0.16457533836364746,0.04880054,0.14938836,-246.20521463816073,-0.10751299562600287,-3.299665080523271,0.0,2163,0.20012164115905762,0.10894103845047148,0.10484965400243271,-321.61449455935605,12.5
11,1.8967773914337158,-246.1957144604186,47.40048812445339,-170.28632002614913,-629.8119555807602,0.0,0.5589685887717584,0.1,0.020471572875976562,0.19034385681152344,0.05422512,0.16093028,-246.20426462038654,-0.10734768681405833,-3.192024246086845,0.0,2104,0.19328737258911133,0.06424749888643108,0.062005654671275175,-274.9805643684284,18.75
12,1.8091206550598145,-241.06559595835958,34.69429120929098,-163.76165442172766,-330.8868684690146,0.0,0.5685001245226877,0.1,0.023504257202148438,0.1125786304473877,0.050797015,0.18371132,-245.69039775418386,-0.10485904905425725,-3.1256510064369514,0.0,2128,0.11309337615966797,0.033222641796571424,0.031770971303471174,-294.39535467394353,6.25
13,2.052682876586914,-243.63598894972316,33.64026357058873,-171.5832569429831,-331.38863394223574,0.0,0.5968051678186624,0.1,0.006810665130615234,0.1633319854736328,0.04886733,0.17887792,-245.4849568737378,-0.10516866102424627,-3.1600921845201575,0.0,2147,0.20560979843139648,0.030690361175678443,0.029040925359507797,-274.6449868308058,6.25
14,1.8134183883666992,-243.7872310720425,35.43964951486083,-168.0940412838918,-405.1431795276855,0.0,0.5793931805213106,0.1,0.006695747375488281,0.18170905113220215,0.05132364,0.17381622,-245.31518429356825,-0.10425285962819593,-3.161183263099916,0.0,2158,0.19637060165405273,0.033540362533451655,0.0323166240803263,-259.04953486619524,0.0
15,2.086768627166748,-240.92793280503938,35.12965904264783,-162.7686860431149,-363.7359538780525,0.0,0.5965099850853265,0.1,0.026732921600341797,0.2178504467010498,0.050506588,0.1737985,-244.87645914471537,-0.10205617055115597,-3.12397218515153,0.0,2188,0.20923495292663574,0.031557370348394606,0.03027570951625613,-298.4484483452926,6.25
16,2.0324807167053223,-240.05538252469782,49.50652192985771,-142.09659132285896,-621.5524558588039,0.0,0.6048260249438989,0.1,0.014425992965698242,0.17899799346923828,0.049973335,0.15481101,-244.39435148271363,-0.10124143872576279,-3.1127224736535255,0.0,2182,0.11574053764343262,0.06513533822517938,0.06365167594245477,-325.20125852141234,0.0
17,1.9367742538452148,-241.05889423386986,40.149020283904456,-156.51605457186088,-482.8949505073057,0.0,0.6300953879444269,0.1,0.01630091667175293,0.16569852828979492,0.04895142,0.15054508,-244.06080575782926,-0.1003554371733965,-3.125024023111179,0.0,2237,0.11673879623413086,0.04477129592099665,0.043075188863064696,-355.6044528209915,0.0
18,1.7879650592803955,-242.2096428515451,33.84551389849194,-175.95758508310956,-424.7786996923445,0.0,0.5752203667624874,0.1,0.017545700073242188,0.1627035140991211,0.049948238,0.16892786,-243.87568946720086,-0.10213093607183982,-3.1415758133250784,0.0,2182,0.20297503471374512,0.03601745692922683,0.03395429856245689,-360.85910370849115,0.0
19,1.8984463214874268,-240.90306935912994,33.742651551622075,-175.07431090846765,-340.21213154591743,0.0,0.586039165891054,0.1,0.0069866180419921875,0.15917325019836426,0.04970274,0.17004268,-243.57842745639377,-0.10253011773000499,-3.124306077526068,0.0,2180,0.20869922637939453,0.02834536609874956,0.02752019388924994,-316.33039467591107,0.0
20,1.901174545288086,-240.88097950904105,40.68046352437383,-178.59213879197083,-453.0843365052773,0.0,0.5898504115445858,0.1,0.016017675399780273,0.19168949127197266,0.049402058,0.16049786,-243.3086826616585,-0.10182456450031145,-3.1228906098467637,0.0,2193,0.12403392791748047,0.0485479173441146,0.046543003328072007,-302.09046819261187,0.0
21,2.0405311584472656,-254.65022291670948,81.81120728708059,-189.25771757227977,-983.0378692370568,0.0,0.6014859706106828,0.1,0.035513877868652344,0.15736126899719238,0.05077132,0.13424818,-244.4428366871636,-0.10444509900796646,-3.3069309263455318,0.0,2240,0.24240779876708984,0.1606117181213924,0.14897791447225178,-335.4282382877915,0.0
22,1.908118486404419,-237.84651588137635,34.99288963997399,-166.93218399167284,-383.56926931024947,0.0,0.6127638491425611,0.1,0.007084369659423828,0.17049860954284668,0.050681878,0.17130189,-243.7832046065849,-0.10000342258213861,-3.083284267801789,0.0,2197,0.26043176651000977,0.034790972167534844,0.02696244869197438,-328.01394434109926,6.25
23,1.8703908920288086,-240.33223870200666,34.56857170076696,-175.57202019055654,-358.2949123297187,0.0,0.5828462395053589,0.1,0.03583240509033203,0.20102906227111816,0.05046821,0.17599745,-243.43810801612707,-0.10289673308690846,-3.116227777559286,0.0,2165,0.2666492462158203,0.02850630275118072,0.02706067910195659,-363.5265599054423,12.5
24,1.992347240447998,-245.15844172679218,49.19902660997785,-168.97028635896373,-572.9818066281264,0.0,0.6702074747254902,0.1,0.033059120178222656,0.19710350036621094,0.04990264,0.13178499,-243.61014138719358,-0.10175373678036122,-3.1797966558644877,0.0,2225,0.2966439723968506,0.05479401615015929,0.05346033127259272,-355.3237714831894,0.0
25,1.9992454051971436,-240.10568410635256,41.42820650750711,-178.277684196853,-484.6947687172298,0.0,0.6180640089402217,0.1,0.027647972106933594,0.18697309494018555,0.050796345,0.15591894,-243.25969565910947,-0.10131833949718987,-3.112870260541007,0.0,2204,0.31565260887145996,0.04821273657910752,0.0457437712612113,-370.00812952795104,0.0
26,1.8787193298339844,-240.43157051555508,47.37381125692161,-179.00602326476024,-507.2619554204192,0.0,0.6172238551364778,0.1,0.006662845611572266,0.15143680572509766,0.05020701,0.1462502,-242.97688314475403,-0.10019367200891797,-3.116089903115619,0.0,2223,0.3177661895751953,0.05366246278237145,0.05271145034262942,-395.1326682381667,0.0
27,1.917783498764038,-229.01387889505676,29.79311148105478,-155.38927886129613,-302.3471656382577,0.0,0.6026002417717077,0.1,0.016082286834716797,0.16632461547851562,0.050066132,0.17660974,-241.5805827197843,-0.10063261969462456,-2.9646362929635663,0.0,2117,0.3276805877685547,0.026738053916331262,0.021154258014984162,-379.93472843135066,0.0
28,2.0233569145202637,-239.9702217119899,47.195389802626245,-173.33012026107323,-591.7678095133978,0.0,0.6296537494537703,0.1,0.04423117637634277,0.1762235164642334,0.050329853,0.13684914,-241.41954661900485,-0.10076196002254308,-3.1109557528486715,0.0,2218,0.34083127975463867,0.062323484295491206,0.05794088376078848,-386.39090618279124,0.0
29,1.925374984741211,-244.80427012661747,67.51285498232726,-163.96399854517807,-756.9188570373242,0.0,0.655541437023669,0.1,0.007124423980712891,0.15735816955566406,0.050397623,0.124755196,-241.7580189697661,-0.10189431424777155,-3.17559161439023,0.0,2219,0.35182666778564453,0.11387371087144209,0.10972926212946367,-387.6757064619843,0.0
30,2.091348886489868,-233.72581034787183,58.298540488458265,-173.15810143171592,-727.3045215803457,0.0,0.6437191619458745,0.1,0.007462501525878906,0.1600501537322998,0.050988607,0.13058119,-240.9547981075767,-0.09948435541698146,-3.0271999414703856,0.0,2158,0.3342928886413574,0.09884045802750811,0.09031512648016245,-326.79770826914677,0.0
31,1.899024486541748,-240.07552563876357,61.86291556448516,-159.36451213487805,-744.1833252763724,0.0,0.5947828399343139,0.1,0.016989469528198242,0.15352630615234375,0.050917845,0.1288177,-240.86687086069537,-0.1021126341822437,-3.111777713649527,0.0,2177,0.34716176986694336,0.10990821347591873,0.1066515726768517,-316.7919364558435,6.25
32,1.886716604232788,-238.92732539896565,36.081250927978246,-167.11755447008204,-429.87008448354663,0.0,0.5956756181937293,0.1,0.006743907928466797,0.18298912048339844,0.048912384,0.16796939,-240.6729163145224,-0.10152004252213838,-3.0971515526012237,0.0,2188,0.35481810569763184,0.032711962756995956,0.030760190047112817,-340.7457677602805,6.25
33,2.040452718734741,-232.29839838930062,35.01165066738058,-169.26594403377737,-447.06692349303,0.0,0.6340342296191525,0.1,0.04901838302612305,0.15911269187927246,0.049454074,0.15112928,-239.83546452200022,-0.10183703111321152,-3.0068196426066103,0.0,2122,0.3345954418182373,0.027342109819724323,0.02624742394524286,-356.52366682440163,12.5
34,1.9302091598510742,-238.16752833838015,45.4046149616264,-136.91879377541346,-502.90309036516607,0.0,0.5981544641407115,0.1,0.01628732681274414,0.21760916709899902,0.050703723,0.14759909,-239.66867090363823,-0.10234975846261511,-3.087122163601208,0.0,2142,0.33916163444519043,0.048353418994979865,0.046128001172036394,-374.13238108621357,12.5
35,2.018977165222168,-245.23145825558467,46.417245912986935,-180.5982953569306,-556.2378480107509,0.0,0.617703357575616,0.1,0.017576217651367188,0.24766778945922852,0.050313745,0.1525165,-240.22494963883287,-0.10293524026847152,-3.1807251721699092,0.0,2180,0.3484930992126465,0.04531832741381022,0.04397017506233281,-349.6353410532739,12.5
36,1.8879914283752441,-235.31398601338387,31.648339500910875,-182.8542776553555,-395.172183952462,0.0,0.6103184717746388,0.1,0.014886856079101562,0.13598108291625977,0.050159592,0.16408613,-239.733853276288,-0.1026931212010691,-3.0486204396529324,0.0,2103,0.21974706649780273,0.027413098978212074,0.02348229986129799,-280.7108440467645,6.25
37,1.834552526473999,-233.725717423965,30.551386531344676,-152.8068139647113,-293.0350957188046,0.0,0.6225195045041019,0.1,0.006626605987548828,0.14637064933776855,0.05038459,0.16972208,-239.1330396910557,-0.10149006365607716,-3.027266702697735,0.0,2112,0.3405790328979492,0.02061597168140116,0.019657423666521474,-271.4351457049477,6.25
38,1.9059369564056396,-236.8925306497774,42.03575412402246,-148.77961519982748,-471.0885753441365,0.0,0.645981775495326,0.1,0.007229804992675781,0.1528627872467041,0.05061369,0.14353861,-238.9089887869279,-0.1020218274573391,-3.0696343928153236,0.0,2139,0.3391721248626709,0.04084773189965367,0.03904326403797761,-259.12532067323804,12.5
39,1.9075508117675781,-234.90347545608435,52.16037577803068,-160.1941158376847,-659.4205005448973,0.0,0.663613895181491,0.1,0.005124330520629883,0.11683273315429688,0.05073541,0.1219864,-238.50843745384356,-0.0990078438916337,-3.041176774514927,0.0,2205,0.23762798309326172,0.06718653529769651,0.06524052170077692,-270.68996867059406,0.0
40,2.0655457973480225,-229.8374439339441,30.490851918244562,-172.36037991703617,-316.3537465452796,0.0,0.6037919917763347,0.1,0.008563756942749023,0.17465662956237793,0.049372718,0.16168696,-237.64133810185362,-0.09896396956085106,-2.976110044961475,0.0,2150,0.36994099617004395,0.020607282478705385,0.01953065806805068,-296.4054336517246,18.75
41,2.09506893157959,-236.4324777226876,41.01862105756743,-140.2359543571623,-532.2215944430774,0.0,0.6255357471535494,0.1,0.01681232452392578,0.1636040210723877,0.050053578,0.137053,-237.520452063937,-0.10215886337280522,-3.0630296111105237,0.0,2150,0.33945322036743164,0.04150900140303781,0.0403231743267875,-293.9388689682604,18.75
42,1.8563826084136963,-235.50292110310252,41.6213159561348,-139.90901727713538,-510.35856938367664,0.0,0.6293837876224364,0.1,0.01658916473388672,0.15866327285766602,0.050237183,0.14437473,-237.31869896785355,-0.09986797437725015,-3.0508654203540186,0.0,2179,0.34931063652038574,0.03946676895375697,0.037543591189417705,-308.91688096860594,12.5
43,2.0812556743621826,-237.77565431435937,79.8964175588393,-168.73830624334676,-870.8805467830284,0.0,0.5935790549938785,0.1,0.0074520111083984375,0.18245339393615723,0.04900372,0.12260485,-237.36439450250413,-0.0980522669269072,-3.0815127445941584,0.0,2236,0.3448781967163086,0.14514164129017568,0.1288331585222677,-304.48763269297206,12.5
44,2.0432486534118652,-231.70520293748461,29.79425664996932,-133.72542224468063,-326.5276962750829,0.0,0.6464394140965588,0.1,0.006928205490112305,0.14928960800170898,0.04971776,0.16228557,-236.7984753460022,-0.09957839754821884,-3.001366225692601,0.0,2160,0.32546424865722656,0.026112132244940026,0.01862767165916591,-332.9901998111368,6.25
45,2.1249778270721436,-237.6161339767677,35.89617274086571,-151.41022480074935,-441.4019236744939,0.0,0.6399685765332006,0.1,0.007158041000366211,0.15617585182189941,0.049388558,0.13950416,-236.88024120907875,-0.10156596800866563,-3.0795872528097257,0.0,2152,0.3328285217285156,0.035805160831293883,0.03237553773073891,-365.98121352475926,6.25
46,2.13032865524292,-233.55109494265352,41.30571395907064,-171.1323352748576,-478.898097811919,0.0,0.6331764795038375,0.1,0.006416797637939453,0.14770269393920898,0.04909219,0.1404925,-236.54732658243623,-0.09895093592734434,-3.0264800316697644,0.0,2182,0.33617520332336426,0.031908970478664915,0.029363315563802058,-340.6248019592514,12.5
47,2.0676445960998535,-233.26732154174752,29.103983778082082,-160.992227816773,-323.4086279157736,0.0,0.6562027064125728,0.1,0.01639103889465332,0.16908979415893555,0.05013421,0.16033918,-236.21932607836735,-0.10122850905420573,-3.0216371482153566,0.0,2129,0.33809351921081543,0.015470653441595537,0.015002178485020468,-319.2409697861657,6.25
48,2.0616562366485596,-233.60812317066112,35.101558649825606,-145.2250219163638,-363.5951970386077,0.0,0.6566942873152192,0.1,0.029643535614013672,0.15331578254699707,0.050591763,0.14737326,-235.95820578759674,-0.10117828732887672,-3.024407317769372,0.0,2139,0.34206104278564453,0.02414007836352823,0.023535387720201795,-320.72084639957563,0.0
49,2.0980613231658936,-238.7602892271997,52.09235577799316,-166.54862070170844,-660.9514923018389,0.0,0.6618059969598801,0.1,0.005665779113769531,0.12111186981201172,0.050706264,0.11842386,-236.23841413155705,-0.10076842962026768,-3.094023142473667,0.0,2172,0.2302100658416748,0.06521666988808801,0.06363716347503216,-293.2976915679112,0.0
50,2.0901050567626953,-234.13420766281993,34.668394157640044,-148.90126204136683,-362.0462929373042,0.0,0.6265294942825524,0.1,0.02564215660095215,0.16168546676635742,0.048993945,0.1616174,-236.02799348468335,-0.10134632525040536,-3.032996552728586,0.0,2139,0.3595755100250244,0.02232403376721314,0.021373510431801534,-259.9289948944206,0.0
51,2.0320963859558105,-228.88304944911616,26.67821347200237,-150.49013307585824,-275.44250463747306,0.0,0.6800872737357073,0.1,0.016089677810668945,0.18012785911560059,0.051012456,0.15179084,-235.31349908112665,-0.09989571905176424,-2.9630041097763886,0.0,2106,0.32249951362609863,0.01485803259480439,0.013484941010020934,-261.2592903245886,0.0
52,2.044417142868042,-224.1003927044654,31.326908835195038,-149.92416638477053,-331.3482471579405,0.0,0.6308682890791064,0.1,0.01781630516052246,0.18093442916870117,0.05004173,0.15374449,-234.1921884434605,-0.09629081518178643,-2.9001114974690836,0.0,2163,0.3389616012573242,0.019952033279539632,0.018999628627367284,-261.43183313375454,0.0
53,2.1198313236236572,-234.40532600623405,26.43975245495602,-181.4227256311404,-307.01166739176796,0.0,0.6616222230226713,0.1,0.026116132736206055,0.21653389930725098,0.050572295,0.15662327,-234.2135021997379,-0.09999520525560597,-3.0354953655400934,0.0,2138,0.36412811279296875,0.01523448875089555,0.014573897478386368,-254.75706928773894,0.0
54,2.0546774864196777,-228.3061261833881,26.860590739462214,-153.23223233320545,-288.140247672991,0.0,0.6296099341878887,0.1,0.014808893203735352,0.12383103370666504,0.050935883,0.16546127,-233.62276459810292,-0.0974320588831115,-2.9538863344623656,0.0,2157,0.21950364112854004,0.016036887098690885,0.014923667753339568,-250.21184270463976,0.0
55,2.004523754119873,-225.8826522805275,29.901920307836793,-137.5276589201041,-349.9442806545211,0.0,0.67408951841196,0.1,0.02190089225769043,0.15247368812561035,0.050924007,0.14429133,-232.8487533663454,-0.09838566922989467,-2.922377297193892,0.0,2116,0.32169318199157715,0.020099899831248918,0.019327318803993816,-249.6976346311233,0.0
56,2.097472667694092,-228.76690257643295,30.77001529001989,-144.06041651742305,-321.2522393882741,0.0,0.6386687938374953,0.1,0.006860971450805664,0.1513817310333252,0.05006263,0.15462995,-232.44056828735415,-0.09729941679317478,-2.961370129324512,0.0,2181,0.3359959125518799,0.018287758604076547,0.016996927964340547,-241.03921553705965,0.0
57,2.125958204269409,-224.3603588952908,26.712182421104924,-161.69912937672285,-286.9551915745763,0.0,0.6747579010625752,0.1,0.017243623733520508,0.2499401569366455,0.04971797,0.16273484,-231.63254734814782,-0.097627551974424,-2.902153215210609,0.0,2127,0.37413954734802246,0.01458957780618518,0.013607283267482076,-236.81632891936496,0.0
58,2.015946865081787,-225.8704431613909,45.23841235428864,-151.77330065308973,-573.8349411609892,0.0,0.638708393160736,0.1,0.045905351638793945,0.19259881973266602,0.050875902,0.13896564,-231.05633692947214,-0.09458625489414664,-2.9225128434976155,0.0,2224,0.3464784622192383,0.047637414179066896,0.0455459292322012,-229.06548267608588,0.0
59,2.1314940452575684,-227.1281017115342,34.46534585609024,-171.19879323465017,-433.19827977064574,0.0,0.611700917708019,0.1,0.016033649444580078,0.20749521255493164,0.050072044,0.14741638,-230.66351340767835,-0.09761931705153715,-2.938983670695627,0.0,2149,0.3324570655822754,0.025704285765707862,0.024044209038066554,-238.50322785649203,0.0
60,1.898965835571289,-228.94368930771248,40.22635786582851,-124.25027544878003,-529.7199398225263,1.0416666666666667,0.6643822791562662,0.1,0.039446353912353516,0.1712501049041748,0.050563324,0.12393346,-230.49153099768176,-0.09752216439588245,-2.962746854929518,1.0416666666666667,2159,0.32389330863952637,0.0411039145160164,0.039027551596184706,-237.85111647942824,0.0
61,2.1678261756896973,-222.05974241469255,31.166945622851895,-156.55507767590467,-325.2824730180884,0.0,0.6877071195534794,0.1,0.0072100162506103516,0.16567492485046387,0.05006053,0.14237294,-229.64835213938284,-0.09451971409613691,-2.871731736963975,0.0,2189,0.3487284183502197,0.019331426620540406,0.018619558482123086,-235.62465885084498,0.0
62,1.9951722621917725,-224.51403937245706,34.28203592310587,-113.88498873522738,-414.61952106531913,1.0416666666666667,0.6576050131664849,0.1,0.015688180923461914,0.15441513061523438,0.05066141,0.14780533,-229.13492086269028,-0.09635827643348253,-2.9045865505711395,1.0416666666666667,2154,0.32199597358703613,0.020880807031282134,0.020130693911005953,-236.56151986440335,0.0
63,1.989203691482544,-219.2611283845065,29.777824728730216,-153.25735890164935,-316.498494915753,0.0,0.6599867477367325,0.1,0.007436275482177734,0.15174245834350586,0.04983679,0.15675354,-228.1475416148719,-0.0933331867225835,-2.833688327106504,0.0,2196,0.31734538078308105,0.017294073227954485,0.016425558893981562,-233.31749327811548,0.0
64,1.839672565460205,-220.40588472367577,28.590267269675074,-136.4265365644041,-293.65530906123024,0.0,0.6680385825154236,0.1,0.0053484439849853516,0.11510062217712402,0.050688397,0.16076465,-227.3733759257523,-0.09563933785351607,-2.84924228129764,0.0,2152,0.20400261878967285,0.013791383556859788,0.013399659082633505,-233.4594629342897,0.0
65,1.8755178451538086,-224.55913287332737,36.26590353823097,-149.4195956480255,-413.05135417457427,0.0,0.6682446752978313,0.1,0.01665353775024414,0.1741030216217041,0.050388183,0.14323181,-227.09195162050983,-0.09463436572592838,-2.905598473742893,0.0,2201,0.34481072425842285,0.02542600315859467,0.023601815811700125,-223.08137190756355,0.0
66,1.9911069869995117,-222.65544806056323,32.684025920325595,-161.80324594261666,-346.4104419463246,0.0,0.6987813442103769,0.1,0.016943693161010742,0.1772150993347168,0.050334297,0.15012033,-226.64830126451517,-0.09337389098161582,-2.879783578161781,0.0,2217,0.2508840560913086,0.01684093014477074,0.01576725540118466,-223.13476007455967,0.0
67,1.9145140647888184,-224.10627047788103,31.892854354189392,-121.99274171556095,-315.73497837551406,1.0416666666666667,0.7142047964863386,0.1,0.0169374942779541,0.1710498332977295,0.050450917,0.1397532,-226.39409818585176,-0.09488668845342074,-2.899580506345075,1.0416666666666667,2179,0.33792638778686523,0.016129993694516162,0.015594531129128196,-221.8386705455389,0.0
68,1.8480992317199707,-220.580454303848,29.881132524500693,-131.36592910654846,-281.9595685106252,0.0,0.7367660830196292,0.1,0.02112555503845215,0.1678321361541748,0.049806703,0.14036496,-225.8127337976514,-0.09286503286206294,-2.8517715865930704,0.0,2214,0.3534519672393799,0.01571768207439096,0.01530008760827544,-221.50184835311345,0.0
69,1.8923418521881104,-217.42098762101375,30.29974962639048,-135.27263683861,-295.05850834423694,0.0,0.6832876254761887,0.1,0.017325639724731445,0.12180399894714355,0.050042145,0.14756975,-224.97355917998766,-0.09189231372321942,-2.8110539937301326,0.0,2206,0.2400500774383545,0.013501481390376734,0.01298049835942396,-218.02162067424723,0.0
70,1.8529117107391357,-227.57444457042038,29.584857061806638,-142.8780880213332,-315.58105156108996,0.0,0.7089162129353749,0.1,0.020789384841918945,0.16825079917907715,0.05055575,0.14512841,-225.23364771903096,-0.09472861555276509,-2.945752109818043,0.0,2217,0.3249356746673584,0.01688085727389903,0.01506171652279621,-218.8939806380105,0.0
71,1.922090768814087,-220.77534155574526,31.79611879411043,-108.73950262954803,-295.15004757808515,1.0416666666666667,0.6693513275421415,0.1,0.006837368011474609,0.15380382537841797,0.0505903,0.16342758,-224.78781710270238,-0.0919608085438669,-2.8544375717275607,1.0416666666666667,2248,0.35027313232421875,0.016240729069148918,0.015274763468719987,-217.24326942251284,0.0
72,1.9514262676239014,-218.7967118441317,30.605125878811453,-156.93613174652438,-311.31403980823393,0.0,0.7132175920505992,0.1,0.02005314826965332,0.16031122207641602,0.049894206,0.14156456,-224.18870657684533,-0.09122577234731326,-2.8293554832324097,0.0,2221,0.33747434616088867,0.018408710387893684,0.017706861909544697,-217.81176419452498,0.0
73,1.978454828262329,-222.43184085312723,30.558839457583648,-149.40193517609762,-334.1526444271184,0.0,0.6919788231641043,0.1,0.023929119110107422,0.13055872917175293,0.050875466,0.13385081,-224.01302000447353,-0.09150506853282614,-2.8763325458428164,0.0,2259,0.2413477897644043,0.020559239246770885,0.020158958063433992,-225.59224354647355,0.0
74,1.938856840133667,-212.66690576633073,28.642523856175924,-139.98788156468697,-288.64042994884625,0.0,0.6830375998838654,0.1,0.014306783676147461,0.1312706470489502,0.049121607,0.15474771,-222.87840858065925,-0.09066431919666625,-2.747773205747393,0.0,2198,0.3437831401824951,0.013940256858714722,0.013275743128824196,-226.177714224862,0.0
75,1.8449549674987793,-216.79536856284986,32.85845610187152,-120.68909867961165,-283.661013823136,1.0416666666666667,0.7367217782191492,0.1,0.005526065826416016,0.12020111083984375,0.04988064,0.14782426,-222.27010457887832,-0.09000899265836042,-2.801953383604937,1.0416666666666667,2257,0.24026155471801758,0.015054770587317691,0.01492434770881573,-225.57904051811022,0.0
76,1.8835008144378662,-220.96264652837408,28.477176436057402,-141.23705912415804,-324.44326232177525,0.0,0.729738528691985,0.1,0.006792545318603516,0.1573805809020996,0.04959974,0.13745674,-222.13935877382792,-0.09177936045717246,-2.856466312124091,0.0,2227,0.3423285484313965,0.015398487744229436,0.013601997173195492,-234.83343117666493,0.0
77,1.937781810760498,-216.28925597965667,32.36332314527247,-125.81613068667194,-328.6800025797782,1.0416666666666667,0.7156382081904611,0.1,0.006906270980834961,0.1504659652709961,0.051254813,0.13874327,-221.5543484944108,-0.09001695230414876,-2.7937055626613847,1.0416666666666667,2244,0.3482680320739746,0.01891560861111,0.01739855683930171,-234.57513924683846,0.0
78,1.891172170639038,-212.85181423088457,32.77206935575847,-128.9185408353311,-309.9140111017534,1.0416666666666667,0.6955800134655606,0.1,0.005036830902099609,0.15939593315124512,0.04995284,0.145314,-220.68409506805818,-0.08920314573550125,-2.7492889578193513,1.0416666666666667,2239,0.32358336448669434,0.016759500592217792,0.015924403757036073,-239.6625139582838,0.0
79,2.033209800720215,-216.7123933673986,29.222799742891972,-137.06737698209076,-286.55452256276135,1.0416666666666667,0.7285568266709371,0.1,0.0069806575775146484,0.14973115921020508,0.050779436,0.14278439,-220.28692489799224,-0.08959590133385775,-2.8008604045774916,1.0416666666666667,2252,0.3390038013458252,0.015479002637052186,0.015093577263805214,-229.0248940409793,0.0
80,1.870507001876831,-215.18746922990258,31.651725325783485,-138.27058356492063,-283.98010472317384,0.0,0.7205533360456428,0.1,0.01651620864868164,0.1522207260131836,0.050273012,0.1397918,-219.77697933118327,-0.08938521381280316,-2.779352631884798,0.0,2247,0.34368419647216797,0.015867003238008437,0.015225587868934942,-234.82667845038094,0.0
81,1.8051154613494873,-217.72034242373107,34.72579674712681,-128.31476053605417,-286.17200293260044,1.0416666666666667,0.7151584192722423,0.1,0.007188081741333008,0.172804594039917,0.04967099,0.14156438,-219.57131564043806,-0.09044143451869598,-2.814153859036423,1.0416666666666667,2234,0.3361032009124756,0.01809188011521991,0.017370486909583177,-234.40830516587732,0.0
82,2.1021335124969482,-218.80284949073902,33.623787688960256,-118.87195754434751,-310.62149995951063,1.0416666666666667,0.7266691923545573,0.1,0.0148162841796875,0.1376967430114746,0.050702598,0.1459646,-219.49446902546816,-0.08908098691121491,-2.8286105063400147,1.0416666666666667,2289,0.355715274810791,0.017603378195032972,0.01720432317527237,-231.18439350488427,0.0
83,1.8752689361572266,-218.06954527945982,33.355897826505746,-133.00046391687755,-302.79116218772975,0.0,0.6944774840173189,0.1,0.05551004409790039,0.25002002716064453,0.049162596,0.14661272,-219.35197665086733,-0.08905369291951876,-2.8198560646452697,0.0,2273,0.34148526191711426,0.01754610757886478,0.016808053021610547,-222.87514947817573,0.0
84,1.9426348209381104,-217.20977163672194,28.960216815780047,-118.15442460763379,-278.6606066388798,0.0,0.7389381102936813,0.1,0.013087272644042969,0.12668657302856445,0.05035237,0.13975012,-219.1377561494528,-0.09036540554110928,-2.8082708539266172,0.0,2241,0.24570488929748535,0.012864340251656942,0.013089080759253328,-221.8112123817202,0.0
85,1.9356367588043213,-214.12126653462232,28.59283509614406,-119.07117445580883,-274.800254189473,0.0,0.7005019516911594,0.1,0.016569137573242188,0.16477084159851074,0.049993854,0.1505893,-218.63610718796974,-0.0877940938273471,-2.7669324861458606,0.0,2275,0.36061835289001465,0.0147932828272541,0.012927057528479426,-225.2293090900334,0.0
86,1.8046660423278809,-218.3480238873614,28.94907176943173,-128.19071690114956,-283.30186887654554,0.0,0.6953072636702438,0.1,0.022329330444335938,0.12162089347839355,0.051034126,0.14513221,-218.60729885790892,-0.08983594618629759,-2.822804937237495,0.0,2259,0.22819948196411133,0.015429189755489259,0.014542106731829109,-225.995617715702,0.0
87,2.1081809997558594,-208.60931496054752,33.622642098136595,-112.56044209156624,-283.50763624010693,1.0416666666666667,0.7000086003636795,0.1,0.03425955772399902,0.18131089210510254,0.04995538,0.17695215,-217.6075004681728,-0.08697787584641055,-2.6920732334267186,1.0416666666666667,2273,0.34890103340148926,0.014842102084549814,0.013899717381670323,-233.76829218062454,0.0
88,1.9832990169525146,-220.15170519167546,30.8197320052013,-125.20952754736909,-293.225987645373,0.0,0.7180961090366256,0.1,0.012062549591064453,0.17760968208312988,0.049866807,0.14628612,-217.86192094052308,-0.0891837451696621,-2.846912936020921,0.0,2276,0.2424459457397461,0.01607433295918352,0.014479099590669365,-230.48282285876334,0.0
89,2.1939873695373535,-220.14356834331537,32.66836874244194,-126.5417729266909,-321.93482840881836,1.0416666666666667,0.7419846680132828,0.1,0.005381584167480469,0.11693024635314941,0.051216528,0.13670118,-218.0900856808023,-0.08963753694638088,-2.846034226896151,1.0416666666666667,2284,0.23634815216064453,0.01691900641803726,0.01640270907932269,-236.63964463757105,0.0
90,1.8941268920898438,-215.2570532032049,28.686318480179743,-117.04256198029704,-273.77795114531085,0.0,0.7471792031036751,0.1,0.01703333854675293,0.14643645286560059,0.050298538,0.14038259,-217.80678243304257,-0.08904966468102948,-2.781944370069184,0.0,2241,0.34606146812438965,0.012376970429785888,0.012082989123527024,-231.27371952539627,0.0
91,1.8917384147644043,-214.57089625993294,30.91308008295523,-128.72611675279376,-266.93681331441314,0.0,0.7230972510100284,0.1,0.007253408432006836,0.21219944953918457,0.0499329,0.15374494,-217.4831938157316,-0.08849448005559003,-2.7713947006532247,0.0,2279,0.35411691665649414,0.015705069746885156,0.014813435936684832,-235.47485707982554,0.0
92,2.0788209438323975,-216.77176931452604,29.834103330998857,-137.1328572118167,-278.65220390654395,0.0,0.6956870810045733,0.1,0.01815342903137207,0.19702386856079102,0.05079535,0.13182393,-217.41205136561103,-0.08859384820155243,-2.8018185687974495,0.0,2278,0.3402101993560791,0.01357222630524125,0.013176487386253878,-229.90660553243836,0.0
93,2.1883442401885986,-216.68840552611098,28.13862264487534,-137.50486937731628,-284.7762635795226,0.0,0.7668371501462292,0.1,0.01598048210144043,0.15348052978515625,0.050027747,0.12914695,-217.33968678166104,-0.08858282562411278,-2.7990298802038236,0.0,2257,0.34430766105651855,0.013006374852569587,0.013048794975415237,-228.9310193408134,0.0
94,2.0733754634857178,-215.14841933211468,29.73719087068589,-134.5039062987772,-273.2912249779705,0.0,0.7473146503195459,0.1,0.0068378448486328125,0.15776729583740234,0.04981242,0.14253898,-217.12056003670642,-0.08675587540664147,-2.7810343084518863,0.0,2325,0.32191944122314453,0.014358787654110675,0.013351274554022427,-226.81198734356244,0.0
95,2.1554927825927734,-216.85167436870833,29.80555879583046,-132.12279898074138,-298.6863232300421,1.0416666666666667,0.692146311268807,0.1,0.007017374038696289,0.17337536811828613,0.04964735,0.16431166,-217.09367146990664,-0.08685074855263493,-2.802217454226971,1.0416666666666667,2311,0.376422643661499,0.012857271022322448,0.012331212616564882,-223.87644119270604,0.0
96,2.0553717613220215,-217.99845583679942,27.566330430581385,-133.71530779212344,-268.7581336045244,0.0,0.7195261753081575,0.1,0.02505660057067871,0.1924433708190918,0.049296867,0.15511006,-217.1841499065959,-0.08939446536064549,-2.8185255930597912,0.0,2261,0.36945366859436035,0.012057564063993359,0.011330916571087464,-223.16207293123858,0.0
97,2.0131282806396484,-211.62557104130317,29.8651899440328,-122.75816450066574,-279.40832066095294,0.0,0.7592280552522104,0.1,0.0075435638427734375,0.19005560874938965,0.050167073,0.1323042,-216.62829202006662,-0.08660354861594916,-2.732531016849125,0.0,2293,0.3510725498199463,0.018515438450089294,0.01681790448223852,-222.8783035413145,0.0
98,2.0210752487182617,-218.64464801125425,26.58444457970857,-151.32275314708318,-274.73729856981754,0.0,0.7378145647048664,0.1,0.0065381526947021484,0.14983177185058594,0.050120614,0.14025328,-216.82992761918538,-0.0888914340339509,-2.8254124863115204,0.0,2281,0.3786628246307373,0.01168644058745249,0.010048185762291691,-225.32670973443783,0.0
99,2.1232635974884033,-217.56974306085985,34.37006376509801,-115.44422265251043,-309.51551472427144,0.0,0.7417474792223145,0.1,0.051285743713378906,0.21147751808166504,0.048697002,0.13510796,-216.90390916335284,-0.08784385325907194,-2.812969245343019,0.0,2297,0.34604358673095703,0.0173738083726159,0.017629923012889084,-227.31769917525696,0.0
100,2.114866018295288,-212.96131670481233,28.5508123963494,-128.77335661662852,-266.3916241324698,0.0,0.7366896942585559,0.1,0.029322147369384766,0.16311001777648926,0.050694615,0.14528921,-216.5096499174988,-0.08669762319076106,-2.7517173137359427,0.0,2298,0.3410460948944092,0.013090846096277718,0.012542739106080779,-220.33256097793145,0.0
101,2.235468626022339,-211.46397846946445,29.80981082761181,-131.64216402589054,-265.37141955505615,1.0416666666666667,0.7105478129408745,0.1,0.006716012954711914,0.14986324310302734,0.05000714,0.15534873,-216.00508277269537,-0.08721806284715157,-2.7302904468077114,1.0416666666666667,2270,0.3296084403991699,0.012461043054764868,0.012414760726423715,-223.8635646231869,0.0
102,2.0808496475219727,-212.30776844291927,34.615058996331406,-102.33628793375372,-301.4096068613202,1.0416666666666667,0.7067655545761381,0.1,0.006574392318725586,0.15262794494628906,0.051187012,0.16125008,-215.63535133971777,-0.08652110098202853,-2.7423280528261897,1.0416666666666667,2317,0.33838629722595215,0.01738900634903852,0.01555124091382772,-228.1126633213202,0.0
103,2.1097793579101562,-211.02865219414284,30.738938004695452,-137.87232510020573,-291.4370443887765,0.0,0.7646915841116574,0.1,0.02440333366394043,0.2609736919403076,0.0501155,0.14147505,-215.17468142516026,-0.08549434881912493,-2.724260457138975,0.0,2315,0.32554197311401367,0.014025560826080995,0.014272271118093923,-226.79975334790842,0.0
104,2.2292051315307617,-211.0983330423899,34.75076074919824,-108.88212076978739,-271.1835681849115,1.0416666666666667,0.7497485660226787,0.1,0.021526336669921875,0.152144193649292,0.049838956,0.14413862,-214.76704658688323,-0.08463501959516724,-2.7258116219848656,1.0416666666666667,2336,0.34960293769836426,0.017426747825543137,0.01636034220295483,-224.06003924699303,0.0
105,2.0556304454803467,-210.64427628960985,31.91024901585687,-105.95810205224629,-279.6032580396246,1.0416666666666667,0.7802486166095793,0.1,0.004914283752441406,0.10868668556213379,0.049645096,0.15460421,-214.35476955715592,-0.08582846204829074,-2.7203344374029204,1.0416666666666667,2310,0.22977733612060547,0.014205698491993672,0.014114381700623973,-224.9646924640663,0.0
106,2.0146615505218506,-209.98118992556047,31.30095175425148,-131.1430782702219,-271.86547562114765,0.0,0.7946500576979451,0.1,0.03695106506347656,0.14892840385437012,0.051348276,0.13501936,-213.91741159399638,-0.08732600955640206,-2.709966178437682,0.0,2263,0.33119630813598633,0.014919573451430284,0.014518381399190563,-219.2695742310392,0.0
107,2.2337422370910645,-213.02213806122634,27.898127938592793,-127.15276453184016,-273.54407120799755,1.0416666666666667,0.7735634110838058,0.1,0.006855487823486328,0.15771198272705078,0.050608855,0.13120052,-213.82788424071938,-0.08635794584296909,-2.750020145938785,1.0416666666666667,2309,0.3481173515319824,0.011877857586229971,0.011369832792003124,-221.58939098421016,0.0
108,1.8516368865966797,-210.3161993895046,30.730310249412224,-130.2553548169928,-260.552443926708,0.0,0.7630093444701612,0.1,0.028467893600463867,0.17960000038146973,0.049664512,0.13883348,-213.4767157555979,-0.08607195785341955,-2.7172661067909836,0.0,2285,0.35912632942199707,0.014617054100120023,0.014439524883003848,-230.0666780851502,0.0
109,1.8898138999938965,-216.91773631982596,29.42050033802399,-132.6771810543072,-274.5536087705366,0.0,0.7609486402878158,0.1,0.0073394775390625,0.16375327110290527,0.05054742,0.14739284,-213.82081781202072,-0.08699224724903216,-2.8037865894667395,0.0,2311,0.3401916027069092,0.015021112892505567,0.01306516353088848,-227.42156720786215,0.0
110,1.902895450592041,-214.62318376032297,30.057898345472147,-97.04227303551986,-290.29480201271724,1.0416666666666667,0.785461637105706,0.1,0.0053615570068359375,0.1360318660736084,0.049907085,0.1358912,-213.90105440685096,-0.08602916015526074,-2.772110097576862,1.0416666666666667,2342,0.26389145851135254,0.013465151361695384,0.013115440218555645,-235.23873306689273,0.0
111,1.9328389167785645,-212.06989212726765,32.95387293908981,-118.18944597750489,-264.9648488786919,2.0833333333333335,0.8160811847276537,0.1,0.005198955535888672,0.12292885780334473,0.050138578,0.12992491,-213.71793817889264,-0.08551899278966091,-2.7381082608201175,2.0833333333333335,2327,0.2277390956878662,0.016278571582485368,0.01564616344869196,-232.49831268063554,0.0
112,2.0913009643554688,-217.78509225618066,28.291893004798254,-107.93587600833325,-294.33621950875954,1.0416666666666667,0.7958246947243631,0.1,0.00703883171081543,0.20325708389282227,0.05052912,0.13242672,-214.12465358662143,-0.08657866863910897,-2.8144125537024176,1.0416666666666667,2334,0.3449225425720215,0.012555188041882926,0.011642285927666146,-229.83934060790827,0.0
113,1.9567415714263916,-213.57090730147718,32.62871153765612,-120.60785906580801,-277.79030589064496,0.0,0.7644090569813586,0.1,0.029538393020629883,0.22774219512939453,0.049723636,0.1401427,-214.06927895810702,-0.08714806505211714,-2.7578609501262648,0.0,2295,0.32599592208862305,0.016141718856419424,0.015817678905151594,-223.0497105383946,0.0
114,2.006114959716797,-212.0513802249354,29.18054502496291,-131.3396322486513,-273.61364970956913,0.0,0.772277708739354,0.1,0.0166473388671875,0.17011785507202148,0.049253047,0.14913729,-213.86748908478987,-0.08634783836625033,-2.7380355475300853,0.0,2297,0.31787109375,0.01411353584057309,0.013619178229998039,-222.0570399007828,0.0
115,1.963953971862793,-212.5479592858554,31.983656584825862,-121.25327248655461,-292.0567404093654,1.0416666666666667,0.7662259472357409,0.1,0.007088184356689453,0.1588268280029297,0.049219947,0.1392628,-213.73553610489643,-0.08567751178954174,-2.7451649940943113,1.0416666666666667,2324,0.3368568420410156,0.015551509152153375,0.015123988819773507,-220.65665938530276,0.0
116,1.9093372821807861,-214.14040066847892,31.46303394739635,-87.46220620800919,-291.0893160226203,2.0833333333333335,0.7660353086339802,0.1,0.006832122802734375,0.16193199157714844,0.04933401,0.14408249,-213.77602256125468,-0.08596813608704645,-2.7637211623743894,2.0833333333333335,2323,0.33948636054992676,0.014614838528663403,0.013825959079813124,-223.18910667402488,0.0
117,2.0294017791748047,-216.99149549994482,28.40901898892535,-117.08206482979864,-278.41939210056387,1.0416666666666667,0.7677658746034964,0.1,0.0068781375885009766,0.15973448753356934,0.05043971,0.13724925,-214.09756985512368,-0.08751578103006556,-2.803587414156112,1.0416666666666667,2297,0.32794785499572754,0.011725132487440545,0.0111859353413221,-215.31926828566412,0.0
118,1.9413681030273438,-214.37547092606067,34.259509503011536,-125.24687387952491,-283.7565507867096,1.0416666666666667,0.8009042407499684,0.1,0.021386146545410156,0.1559603214263916,0.0507098,0.13267234,-214.12535996221737,-0.08699766695290366,-2.7698427486825943,1.0416666666666667,2298,0.30785489082336426,0.01632196049240895,0.01591972618567035,-214.38095891048948,0.0
119,2.022036552429199,-212.27048148306093,29.797277939726516,-108.47133378943784,-273.5728026741988,1.0416666666666667,0.7435882734042274,0.1,0.017258405685424805,0.20325779914855957,0.048984524,0.13917142,-213.93987211430175,-0.08614792640811987,-2.7393589664305207,1.0416666666666667,2296,0.31662940979003906,0.012555430614549782,0.012391475976843523,-214.74634916805903,0.0
120,1.9259874820709229,-208.30243911578523,30.937908117716162,-131.6739966205966,-262.90016229179855,1.0416666666666667,0.7386983642876671,0.1,0.0158693790435791,0.20548534393310547,0.050099548,0.16036102,-213.3761288144501,-0.08583536139783376,-2.6877037099118177,1.0416666666666667,2286,0.3226351737976074,0.01307535183014388,0.01268293758222576,-215.37107309164034,0.0
121,1.9699840545654297,-216.04497796704,33.916701197428104,-135.8937076790266,-292.26894324584373,0.0,0.7546767859815979,0.1,0.006581783294677734,0.15169978141784668,0.049890332,0.13592479,-213.6430137297091,-0.08818863495186662,-2.7906437528258947,0.0,2293,0.3141963481903076,0.01583868943221742,0.01458201530076747,-216.87826847218346,0.0
122,1.9973814487457275,-205.11994307810923,30.53598787825191,-118.73454220711196,-252.29175342604393,0.0,0.7327508364066652,0.1,0.016927480697631836,0.15420246124267578,0.050318904,0.14279617,-212.79070666454913,-0.0850150168103941,-2.6465570928155953,0.0,2274,0.300994873046875,0.016328310118153784,0.012942408454162663,-213.99648953259168,0.0
123,2.09635066986084,-209.8150819030262,31.284754740522626,-125.80445256661639,-277.63178032870815,2.0833333333333335,0.7936340055430675,0.1,0.04170727729797363,0.212799072265625,0.050006457,0.13859509,-212.49314418839685,-0.0883399899321174,-2.7103387654844795,2.0833333333333335,2222,0.32901668548583984,0.015920917663623232,0.014855636372901448,-214.08439145563582,0.0
124,2.091278076171875,-211.85484776171594,30.58524468006958,-132.60322966917522,-276.9321848618303,0.0,0.767198875262994,0.1,0.01903367042541504,0.14406585693359375,0.049792398,0.13964377,-212.42931454572877,-0.08682744682340897,-2.7357088080852847,0.0,2283,0.21982645988464355,0.012670882195932674,0.012525357752705087,-214.1759047340296,0.0
125,1.8768956661224365,-212.4722243466525,29.10044213998148,-116.6943511554252,-257.8336067341378,0.0,0.7508001803007996,0.1,0.03154945373535156,0.1746351718902588,0.051126126,0.14273761,-212.43360552582115,-0.08780508479716337,-2.743432434043377,0.0,2258,0.3128664493560791,0.012360825305360984,0.012051760042254573,-213.36841066281312,0.0
126,1.9469683170318604,-209.12583552955843,28.750664453740562,-124.34970158575405,-258.2239476836575,2.0833333333333335,0.7466103651649572,0.1,0.022826433181762695,0.16329073905944824,0.050846793,0.14195608,-212.10282852619488,-0.08760431091017369,-2.6989291161094973,2.0833333333333335,2240,0.31868743896484375,0.01253568941961435,0.012033535528771925,-215.42790125067393,0.0
127,2.0799012184143066,-210.9751003151308,31.745959211744402,-114.88065793441159,-271.43607054123265,1.0416666666666667,0.7624534710153814,0.1,0.01639533042907715,0.20157313346862793,0.04925284,0.13559934,-211.99005570508848,-0.08715652559453117,-2.723846375578114,1.0416666666666667,2268,0.31258654594421387,0.013828294983845992,0.013358061318417677,-213.84082043212968,0.0
128,1.979355812072754,-208.20392362082393,30.281295887279757,-130.67714838885178,-262.5724451653066,0.0,0.7758694275866113,0.1,0.02576136589050293,0.1697092056274414,0.050143357,0.13513654,-211.61144249666205,-0.08617622675863386,-2.6874432687991585,0.0,2275,0.33374667167663574,0.013823423210206435,0.01338296363335848,-220.36533389526608,0.0
129,1.9286293983459473,-216.09417276196623,26.346541447011855,-152.0957312828305,-273.26755767828587,0.0,0.7578033153098815,0.1,0.01673293113708496,0.1923811435699463,0.050458856,0.13896792,-212.0597155231925,-0.08792542151671807,-2.7919401927329894,0.0,2277,0.26186537742614746,0.010809676945999495,0.010413914238194823,-212.08240552054457,0.0
130,2.2015433311462402,-212.76359144333887,29.425275670745805,-114.8810039903442,-263.1027404099398,0.0,0.7580637776499257,0.1,0.0067958831787109375,0.1616504192352295,0.049898066,0.13979717,-212.13010311520713,-0.08808304234913793,-2.74917875441746,0.0,2243,0.31806492805480957,0.011681442135694955,0.011568095639629851,-213.98770703854586,0.0
131,1.9293248653411865,-209.7731163258296,28.84382605679735,-114.01702117648072,-286.4049392267437,1.0416666666666667,0.7714371130533129,0.1,0.0183563232421875,0.17161107063293457,0.049629834,0.1347458,-211.89440443626938,-0.08592704153017623,-2.7079950709272027,1.0416666666666667,2269,0.3293609619140625,0.011873349721302462,0.011357984525669424,-212.2994626170696,0.0
132,1.846538782119751,-205.1733538487663,32.38588828409364,-118.55818718862474,-254.8187515431225,0.0,0.781826257491365,0.1,0.016475915908813477,0.2000575065612793,0.04993133,0.1388898,-211.2222993775191,-0.08626919090987802,-2.64678646619299,0.0,2250,0.32920312881469727,0.013467987689359338,0.013260953615571546,-215.80904162490572,0.0
133,1.8797075748443604,-207.90555405630175,29.027889357806554,-121.72812042877347,-266.45821667911014,0.0,0.7901308586447504,0.1,0.016989707946777344,0.18647408485412598,0.0481174,0.1313898,-210.89062484539738,-0.08676659966550558,-2.6815735267462544,0.0,2243,0.32440185546875,0.011857146129733634,0.011491068318287686,-225.12300718349718,0.0
134,2.090883731842041,-213.10765882032297,32.47878508863483,-101.80451911746708,-295.40627035298905,1.0416666666666667,0.7337726784760846,0.1,0.02343463897705078,0.2204430103302002,0.049635116,0.14115405,-211.11232824288993,-0.08686667488525192,-2.7515183194503323,1.0416666666666667,2289,0.35444116592407227,0.015845883624831886,0.015897289145320778,-212.5694219943974,0.0
135,2.0328571796417236,-210.28831681742835,31.816722216642663,-123.41062825529967,-288.53429245554275,0.0,0.7560086835573641,0.1,0.020607471466064453,0.1736605167388916,0.050563086,0.14287375,-211.0299271003438,-0.0869155395927823,-2.714617287113732,0.0,2270,0.3166079521179199,0.016634789967369373,0.01643240039548101,-223.2286246216753,0.0
136,1.9918851852416992,-207.90061568238607,31.590520721435812,-124.3539256995536,-263.1882842111151,0.0,0.7463048460484447,0.1,0.013060808181762695,0.11606931686401367,0.05183178,0.14735964,-210.716995958548,-0.08707772317376224,-2.682983337445282,0.0,2250,0.21799516677856445,0.013260077749839762,0.012799820763147592,-220.37975810217313,0.0
137,2.1407625675201416,-216.93007894358004,30.918554526700596,-130.79623347101813,-287.8271191284022,1.0416666666666667,0.7615968532597368,0.1,0.007047176361083984,0.15924882888793945,0.04997361,0.14509168,-211.33830425705122,-0.08728423622293209,-2.802957162800531,1.0416666666666667,2307,0.3337290287017822,0.014167071488963205,0.012814898659455235,-214.48157618385665,0.0
138,2.1593213081359863,-207.68363980345484,32.40200438647037,-102.08032126641758,-263.0783264049244,0.0,0.7240906944802806,0.1,0.006639719009399414,0.15611052513122559,0.050201263,0.16380836,-210.9728378116916,-0.08679928086160486,-2.681019146327511,0.0,2241,0.3596062660217285,0.014999546370753982,0.013627315797916591,-218.30990174312697,0.0
139,1.9361138343811035,-208.08204557872492,31.62349195257718,-138.42508566746994,-266.7661297183414,0.0,0.7233006929750997,0.1,0.015934228897094727,0.16618824005126953,0.04959687,0.14879705,-210.68375858839494,-0.08670773978281676,-2.6856886345469295,0.0,2257,0.3183021545410156,0.013549714398938569,0.013209763527375875,-215.96760273946288,0.0
140,2.1583914756774902,-209.429617161001,27.472153632336248,-91.9403194548858,-273.0170526743051,1.0416666666666667,0.7282696498439489,0.1,0.005231380462646484,0.11422085762023926,0.048681494,0.15926458,-210.55834444565556,-0.08588536394541257,-2.703785873730924,1.0416666666666667,2272,0.21718835830688477,0.012032598207121048,0.011682423949314093,-215.14992632968296,0.0
141,2.2700562477111816,-215.83016587237606,27.00036881379333,-145.0410693711118,-273.5058401970316,0.0,0.7661676349117246,0.1,0.03272223472595215,0.12042021751403809,0.04934264,0.13428399,-211.0855265883276,-0.08755958710604832,-2.787210605755085,0.0,2283,0.20846033096313477,0.011415205148375247,0.011231630687992081,-209.27765616430574,0.0
142,2.076294183731079,-211.17538272354167,29.5251634510174,-121.34742522829494,-267.5393666364276,0.0,0.7198519540909182,0.1,0.01413726806640625,0.15152597427368164,0.050204206,0.15083724,-211.094512201849,-0.08840082184121012,-2.726118147227671,0.0,2226,0.23187756538391113,0.012205125503839688,0.01167579235192545,-213.27713246706872,0.0
143,2.0713248252868652,-209.01047344649956,27.899089506489947,-113.35242141101068,-267.47081073974135,0.0,0.7300238819635614,0.1,0.006960391998291016,0.15506243705749512,0.049722213,0.14340302,-210.88610832631406,-0.08663084917001257,-2.6976993210371334,0.0,2242,0.35241246223449707,0.01279069437645251,0.011823504603059415,-217.2159031935277,0.0
144,2.1494786739349365,-207.50148868954693,33.58045187549496,-88.87380658731173,-272.19811942469096,3.125,0.7517842337226631,0.1,0.0068302154541015625,0.1548476219177246,0.050266266,0.14352728,-210.54764636263735,-0.08588291423314087,-2.6769964664603876,3.125,2273,0.3355674743652344,0.01515780970621284,0.01456637516364672,-219.17172819121987,0.0
145,2.103067398071289,-214.5019789214676,30.45500659569275,-116.21155047886616,-263.14183636668076,0.0,0.7636491389080551,0.1,0.006828784942626953,0.1544806957244873,0.050270375,0.13874644,-210.94307961852036,-0.08792878352130963,-2.7696107311612277,0.0,2267,0.3204212188720703,0.012153430545910142,0.011103222086351533,-220.90679978576946,0.0
146,2.1532042026519775,-210.05140924286079,32.51143203580764,-95.6282223478662,-284.1376041398659,1.0416666666666667,0.7499308183596789,0.1,0.016891956329345703,0.2614738941192627,0.049894623,0.14831676,-210.85391258095441,-0.08694427876808049,-2.712056935735147,1.0416666666666667,2261,0.3381648063659668,0.01481185276146423,0.014327064951117413,-216.8584569290487,0.0
147,2.2336959838867188,-211.761137752785,27.19332687124039,-137.47027754956142,-261.0194535517927,1.0416666666666667,0.7565299225189775,0.1,0.03465676307678223,0.1995236873626709,0.049313594,0.1394068,-210.9446350981375,-0.08785855137764646,-2.732787061462377,1.0416666666666667,2236,0.3151874542236328,0.011112962036457516,0.010326559333045514,-226.13917880429364,0.0
148,2.1266183853149414,-208.8819546669374,27.038783732766902,-142.5083901248924,-257.26350797919076,0.0,0.712334360536336,0.1,0.0065593719482421875,0.15168380737304688,0.049872752,0.1578706,-210.73836705501748,-0.08570996882128128,-2.69502390590592,0.0,2283,0.32801175117492676,0.010540347315252838,0.010148683184160134,-225.83597043695386,0.0
149,2.140676498413086,-211.32247885634365,27.998537364977807,-119.72857218685252,-273.403692000468,0.0,0.7504468205401454,0.1,0.006507396697998047,0.1674649715423584,0.050962925,0.15957995,-210.7967782351501,-0.08675950675168966,-2.728604282940706,0.0,2272,0.32877302169799805,0.01212746330628038,0.011918626046690037,-227.6731200187335,0.0
150,2.2040531635284424,-210.39133943764378,30.965438404826948,-129.077082355087,-279.07698955846075,0.0,0.8246783922938604,0.1,0.007422685623168945,0.1629800796508789,0.04935345,0.12904043,-210.75623435539947,-0.08669813829406786,-2.7160956107609344,0.0,2273,0.33939266204833984,0.013352302667457622,0.012946803113242509,-228.67227834741198,0.0
151,2.221266984939575,-205.45598670231632,33.86183180430112,-93.9493307474566,-275.43480277475845,2.0833333333333335,0.7711814197974267,0.1,0.006917476654052734,0.1587660312652588,0.04979048,0.13651405,-210.22620959009117,-0.08631051398409713,-2.649754215977144,2.0833333333333335,2255,0.3269622325897217,0.016356808937035408,0.015763886602080973,-227.256115711723,0.0
152,2.0915367603302,-209.3873363886087,26.802448116563028,-99.73742011297244,-262.57114759686243,0.0,0.7556006696076463,0.1,0.016117095947265625,0.17115426063537598,0.050094564,0.15491652,-210.14232226994292,-0.08606388186657561,-2.701720134930332,0.0,2252,0.32387876510620117,0.011706654181802053,0.011247194775786225,-227.55171846246634,0.0
153,2.127486228942871,-213.23963691191406,32.79388263360251,-130.6040628357011,-272.45838389947926,0.0,0.7650594215590678,0.1,0.005418539047241211,0.15358233451843262,0.048869923,0.13493225,-210.45205373414004,-0.08585799244673409,-2.754390564939713,0.0,2317,0.2317967414855957,0.016230593941666958,0.014953843030138447,-231.78190604695538,0.0
154,2.10811448097229,-211.07227971796055,30.70204510101069,-108.71346851794823,-302.7535596783053,1.0416666666666667,0.7829726820119125,0.1,0.014252424240112305,0.1654355525970459,0.050124317,0.13289188,-210.51407633252208,-0.08602140802849949,-2.7260929704762416,1.0416666666666667,2286,0.22199535369873047,0.013761401016020415,0.013588732897464414,-228.98875798137112,0.0
155,2.0892140865325928,-211.52867063310927,34.17370476990296,-104.48401597113983,-278.0261327438936,2.0833333333333335,0.7749255827981366,0.1,0.009743213653564453,0.20056676864624023,0.04988229,0.13808219,-210.6155357625808,-0.08586039747465418,-2.732107954472834,2.0833333333333335,2302,0.34180521965026855,0.015285265398535414,0.014778820999209468,-221.86649503650926,0.0
156,2.174447774887085,-213.71697331113447,29.931138174980457,-98.98938350623723,-281.2180804811315,1.0416666666666667,0.7329659413579226,0.1,0.02561211585998535,0.20905113220214844,0.050596993,0.14709555,-210.92567951743618,-0.08664677524528219,-2.7601253365477163,1.0416666666666667,2288,0.3372776508331299,0.013532046199413792,0.013145990675586364,-227.3636358031925,0.0
157,2.095935106277466,-213.01616355869123,29.355010392296926,-109.46662586564295,-277.50338601524714,0.0,0.750560015270219,0.1,0.02241039276123047,0.15194940567016602,0.04764277,0.14237061,-211.1347279215617,-0.08708964094674837,-2.7505670365099526,0.0,2264,0.21894311904907227,0.013164175883403404,0.01302310871369714,-226.97724130225544,0.0
158,1.8006761074066162,-214.14541374661712,29.87238865521593,-110.55806014364427,-287.1720264603556,0.0,0.757878451685245,0.1,0.006787538528442383,0.16290998458862305,0.04960765,0.1433708,-211.43579650406727,-0.08662431454878082,-2.765353007184137,0.0,2296,0.3278193473815918,0.012744916122881946,0.01194099909680298,-224.01871325752356,0.0
159,2.2254905700683594,-213.38253588054468,30.175364635405888,-124.42099369667454,-266.0976164529861,0.0,0.716129580693834,0.1,0.018220901489257812,0.17365384101867676,0.049140304,0.15134269,-211.630470441715,-0.08744889525309796,-2.7565676548334306,0.0,2270,0.23683691024780273,0.01318547847097068,0.012728239791327116,-218.6184441468634,0.0
160,1.8677806854248047,-208.42423453485185,30.624422588019787,-127.84181677645198,-270.75855240129107,0.0,0.7855026914920987,0.1,0.024922609329223633,0.153350830078125,0.048881125,0.13874032,-211.3098468510287,-0.08692445341026889,-2.6907648981885033,0.0,2226,0.3415408134460449,0.014386127211509756,0.013450826176000685,-222.10399314198162,0.0
161,1.8474235534667969,-210.3718716778435,31.287168159344677,-101.7475115961609,-277.9848066180502,0.0,0.7552769549884887,0.1,0.006559610366821289,0.1533830165863037,0.049886726,0.15024252,-211.2160493337102,-0.08783671504345399,-2.7148100586533226,0.0,2237,0.4229764938354492,0.015110400881615403,0.014181124904068016,-220.87843938829923,0.0
162,2.184124231338501,-210.80860323035776,31.429800021656224,-125.89029734796036,-268.1131371445305,0.0,0.7759335337053092,0.1,0.016062498092651367,0.1585066318511963,0.05011881,0.14221829,-211.17530472337498,-0.08691891495621283,-2.721514003373644,0.0,2259,0.3274393081665039,0.013808417538308613,0.013431908834318081,-212.10136112649363,0.0
163,2.173478841781616,-210.42748082709352,35.4504540391405,-120.96105043664986,-291.6553967181064,0.0,0.7465313696098816,0.1,0.006865024566650391,0.1608719825744629,0.04973253,0.13772106,-211.10052233374682,-0.08637824819353045,-2.716258399704119,0.0,2285,0.3403153419494629,0.015909282598596593,0.015314967836820684,-214.80593664645,0.0
164,2.172572374343872,-207.66065343658258,31.29910737664583,-138.0109543043704,-272.24820459856284,0.0,0.7482042678770563,0.1,0.016652822494506836,0.16501188278198242,0.049671195,0.1373178,-210.7565354440304,-0.08565545945370871,-2.679842900834893,0.0,2279,0.5047943592071533,0.013113118954456203,0.012898233089634352,-224.0507827025849,0.0
165,1.9799575805664062,-204.2592987413295,31.271132173512076,-110.12375233453906,-278.4875052755049,2.0833333333333335,0.7001144791277875,0.1,0.01594400405883789,0.15439796447753906,0.050599255,0.17377089,-210.1068117737603,-0.08454331540704885,-2.6353005028932985,2.0833333333333335,2283,0.32778167724609375,0.013958792163807283,0.013309884298230015,-217.64778663134015,0.0
166,1.9061062335968018,-212.30418960674885,30.902420052328118,-131.99477772567246,-276.8609296260429,0.0,0.7512352069031135,0.1,0.005041599273681641,0.1210637092590332,0.049820177,0.14222956,-210.32654955705917,-0.08683281727922094,-2.7424244838185547,0.0,2263,0.21698498725891113,0.01345041709321095,0.013061314527730296,-220.09350999881548,0.0
167,1.9437897205352783,-212.92203757411744,32.78978325171414,-103.11747008682644,-300.1047460776406,2.0833333333333335,0.7197129788018326,0.1,0.007404804229736328,0.16311383247375488,0.050653636,0.15043506,-210.586098358765,-0.08743045460167397,-2.7498344900656257,2.0833333333333335,2273,0.3315467834472656,0.014507356165929212,0.013488507632088762,-221.861494371888,0.0
168,1.8149981498718262,-212.96755127326438,32.72054403107566,-127.46955321344453,-289.0644265918839,0.0,0.7764368764113372,0.1,0.017414331436157227,0.1743476390838623,0.049027137,0.13319442,-210.82424365021495,-0.087402883999514,-2.748434508022415,0.0,2278,0.337479829788208,0.014994609241508514,0.014705255555780901,-218.25209715014975,0.0
169,2.1153719425201416,-211.9340587539974,25.84189044687512,-129.65233025391802,-295.32561877547005,0.0,0.741836310911896,0.1,0.019011735916137695,0.1411275863647461,0.049846787,0.1371864,-210.9352251605932,-0.08734474726292317,-2.7370198113295636,0.0,2237,0.2211155891418457,0.010795112624037475,0.009719509090291322,-211.34163997230482,0.0
170,1.9117960929870605,-212.1821789215884,27.481347483440842,-114.66202254372675,-261.4620602465442,1.0416666666666667,0.7465301916869654,0.1,0.008514881134033203,0.23575663566589355,0.050653208,0.13808727,-211.05992053669272,-0.08709028371805703,-2.7392529114691384,1.0416666666666667,2258,0.3213348388671875,0.011123899472531082,0.01048533041088418,-210.9064262032129,0.0
171,1.9111027717590332,-206.3744806465048,29.008346761117778,-124.29754906414728,-265.31219558922885,0.0,0.7635004048504619,0.1,0.03418111801147461,0.18111944198608398,0.049831804,0.14400625,-210.59137654767392,-0.08695949914028032,-2.6608485905073764,0.0,2228,0.21589422225952148,0.012991108416065057,0.012066994733713069,-213.24373178657143,0.0
172,1.9266297817230225,-207.38888397486494,25.663869849087824,-132.1845477298732,-268.83875526464703,0.0,0.7366194042261296,0.1,0.005915403366088867,0.13626766204833984,0.04996305,0.14372653,-210.27112729039303,-0.08671659444934803,-2.676008100060288,0.0,2223,0.2067112922668457,0.010426653225358334,0.010045952435466913,-207.22398085885408,0.0
173,1.992006778717041,-206.85442268593525,28.82546263739464,-126.80865751508439,-267.0643658499953,1.0416666666666667,0.7509307288076243,0.1,0.009165287017822266,0.22064709663391113,0.05035264,0.14974104,-209.92945682994727,-0.08660154796568287,-2.669312430802485,1.0416666666666667,2231,0.3224010467529297,0.011862348143569004,0.01152476963247072,-210.25792321974956,0.0
174,2.0701076984405518,-204.9504558493513,29.11998822997073,-123.30889817182239,-262.6896488614659,1.0416666666666667,0.7575420523906224,0.1,0.006938934326171875,0.15324950218200684,0.049988493,0.13482538,-209.43155673188767,-0.08440289169996995,-2.6439979990212965,1.0416666666666667,2273,0.3163583278656006,0.011215375992954729,0.010916340222405512,-211.43898149601281,0.0
175,1.9029209613800049,-208.62548690265783,29.930726210609876,-125.80411014794078,-274.42795907830475,2.0833333333333335,0.7606654851218386,0.1,0.01653456687927246,0.17901611328125,0.050055865,0.13735448,-209.3509497489647,-0.08677267006988161,-2.6938239506668236,2.0833333333333335,2235,0.29352807998657227,0.01226252453809842,0.01228426075954592,-205.53853523585974,0.0
176,1.886164665222168,-205.51049651175057,31.64953068889932,-119.53239090767923,-266.00566544785397,2.0833333333333335,0.7555678551999326,0.1,0.006578922271728516,0.15115690231323242,0.050084926,0.14065589,-208.96690442524329,-0.08596086856847056,-2.651727239275805,2.0833333333333335,2255,0.32680797576904297,0.013175440684196427,0.012469754939430311,-207.64678554525906,0.0
177,1.9090032577514648,-205.64900254121508,30.42696177451937,-108.9803460754874,-259.11276409641505,1.0416666666666667,0.7352212203856534,0.1,0.006880760192871094,0.16495394706726074,0.049726352,0.1624476,-208.63511423684048,-0.08692295696233361,-2.6521049786059234,1.0416666666666667,2206,0.3068513870239258,0.012247214102475671,0.012000157677523727,-206.5275740541839,0.0
178,1.9776716232299805,-208.2449360273312,31.752071600195478,-103.1162053248082,-251.129160841775,3.125,0.7455472093771406,0.1,0.0054416656494140625,0.11198687553405762,0.048856724,0.150348,-208.59609641588958,-0.087830541718156,-2.687495091713121,3.125,2216,0.21210908889770508,0.012520375774331492,0.011652170009509745,-205.5204821599822,0.0
179,1.7377431392669678,-209.41021308373578,28.836822848349495,-118.19223017407305,-259.29791768306916,1.0416666666666667,0.7433662539256083,0.1,0.015809297561645508,0.15586018562316895,0.04985133,0.14773154,-208.6775080826742,-0.08762554019807417,-2.702670490661079,1.0416666666666667,2231,0.30799388885498047,0.011491142696665733,0.010910240189804037,-205.8483953610306,6.25
180,1.9674761295318604,-212.03583210057954,26.83761470538868,-113.21544854242222,-269.29884261609584,1.0416666666666667,0.7237349795300498,0.1,0.025015592575073242,0.155562162399292,0.05018687,0.14472762,-209.01334048446475,-0.0877712708875234,-2.737709519170766,1.0416666666666667,2227,0.3002626895904541,0.01060580828356965,0.010136649623168995,-212.22856002586255,6.25
181,1.8811304569244385,-208.6251059862042,30.5491972390005,-114.47368262825952,-261.831923197763,0.0,0.7149420283820833,0.1,0.00689244270324707,0.15227270126342773,0.049505357,0.15662484,-208.9745170346387,-0.08696442117358583,-2.6923825488238613,0.0,2234,0.3013949394226074,0.013445934094362979,0.012858507210164457,-209.49283086512182,6.25
182,1.9395537376403809,-206.32653969557813,31.3227827853276,-120.28586057414078,-259.33817707247607,1.0416666666666667,0.7364328758159623,0.1,0.006707191467285156,0.14249587059020996,0.050127834,0.14689685,-208.70971930073264,-0.08700940349118207,-2.661920194952478,1.0416666666666667,2226,0.2822415828704834,0.012831250754815242,0.01247198879779039,-211.53559188065026,0.0
183,1.9516210556030273,-204.98336828372712,28.427316169076672,-100.81450042215762,-258.10056203166226,2.0833333333333335,0.7091890887852519,0.1,0.009235143661499023,0.18410372734069824,0.050024983,0.15909955,-208.3370841990321,-0.0865569943020757,-2.6432802890641742,2.0833333333333335,2206,0.3109474182128906,0.011736175738670801,0.011933737570281804,-209.60975119274278,6.25
184,2.053328514099121,-203.18837261833417,31.333912781277316,-117.2929234757994,-263.68621498941314,1.0416666666666667,0.7516562455058712,0.1,0.007062673568725586,0.15876078605651855,0.049563687,0.13960703,-207.82221304096228,-0.08540604488623256,-2.620287937926389,1.0416666666666667,2242,0.29938840866088867,0.015033458847584781,0.01445471093496406,-204.36943119424197,6.25
185,1.9227471351623535,-208.36025489538167,27.443962643883626,-124.5239784533528,-258.45163378832746,0.0,0.7106926172336876,0.1,0.014394998550415039,0.16689038276672363,0.050122716,0.15682292,-207.87601722640423,-0.08763591011333412,-2.6865652818567836,0.0,2203,0.2969048023223877,0.010480784955866119,0.009596399187211434,-207.47990738955377,6.25
186,2.0030746459960938,-207.38720872879352,24.44002454536448,-117.41323369389137,-248.79187838892207,0.0,0.7706281012823833,0.1,0.006995201110839844,0.15289711952209473,0.05003927,0.13896929,-207.82713637664315,-0.08677153830442959,-2.6767447876907497,0.0,2216,0.3173701763153076,0.010138511063329771,0.009327116066858475,-201.04027668653703,6.25
187,1.9473052024841309,-202.4703256164561,27.826635836431148,-124.4435658831124,-265.65867057807486,0.0,0.7666573690410367,0.1,0.005633115768432617,0.12209868431091309,0.050176363,0.13185622,-207.29145530062448,-0.08585194110389634,-2.6112391560805897,0.0,2213,0.1990528106689453,0.013699290559056007,0.013622139929600015,-196.66146734002515,6.25
188,1.8944308757781982,-209.6315816435646,25.753054054576097,-133.28490839846802,-248.79652286250672,0.0,0.7393792403698658,0.1,0.006834268569946289,0.15467500686645508,0.04979539,0.1391403,-207.52546793491848,-0.08791091714454347,-2.7054015523632073,0.0,2212,0.3014228343963623,0.01120619184262015,0.010253530589661167,-200.2127112775927,6.25
189,1.8257842063903809,-199.53673456095433,29.280164625648673,-101.88971709898391,-275.56693481736045,1.0416666666666667,0.7118369938473554,0.1,0.015767812728881836,0.1551656723022461,0.049789336,0.14462897,-206.72659459752208,-0.08614371372540268,-2.571152332564836,1.0416666666666667,2178,0.308243989944458,0.013368747580184987,0.012194613649799813,-202.60962160967665,6.25
190,1.9590492248535156,-205.55314913385098,31.117525835982796,-90.39558802944165,-263.8101873607742,1.0416666666666667,0.7299447027187976,0.1,0.015988588333129883,0.16272473335266113,0.049279522,0.15069492,-206.609250051155,-0.08767896232290355,-2.650975340703962,1.0416666666666667,2205,0.31476354598999023,0.013509425517006962,0.012057346850020344,-202.78338082008014,6.25
191,1.8031902313232422,-202.9334808390109,29.70708140845688,-116.00462026722397,-275.2536138412559,1.0416666666666667,0.765691881947568,0.1,0.006926298141479492,0.15913939476013184,0.049505066,0.13863233,-206.24167312994058,-0.08737911909079722,-2.616174652880511,1.0416666666666667,2186,0.2952003479003906,0.0126979208552098,0.012140556781629699,-196.22645419937479,6.25
192,1.9190809726715088,-202.43728107756783,30.916603789156174,-116.1001235167526,-267.9084284149784,0.0,0.7611305118434449,0.1,0.005222797393798828,0.13869595527648926,0.050006412,0.13819626,-205.86123392470333,-0.08664256640850321,-2.6087245624804676,0.0,2207,0.18503713607788086,0.013358434935145748,0.012920984316889659,-202.67429246727244,6.25
193,1.8913352489471436,-206.91881050275467,26.393674050797525,-132.47312512931512,-248.24873085078727,0.0,0.8041243119344461,0.1,0.03999137878417969,0.18940019607543945,0.050195612,0.13290976,-205.96699158250846,-0.08799773863257647,-2.6690720773072925,0.0,2187,0.3152339458465576,0.010596946242459025,0.010265328176494372,-205.18202057167412,6.25
194,1.907928705215454,-209.7276718126454,29.925167852411715,-141.84421034261806,-262.4025134104138,0.0,0.7540522330682402,0.1,0.02077507972717285,0.20416712760925293,0.049365442,0.1533496,-206.34305960552217,-0.08950535392651641,-2.707862026459921,0.0,2177,0.3044166564941406,0.012359090755390944,0.011590137740205462,-202.2257735470406,6.25
195,2.0360827445983887,-204.85248856430348,31.56357309651518,-115.59351336004825,-277.766011483124,2.0833333333333335,0.7298548023364969,0.1,0.016453027725219727,0.19355082511901855,0.049950268,0.14345297,-206.19400250140032,-0.08651016387545758,-2.6423698782084153,2.0833333333333335,2226,0.30190014839172363,0.013157324963138251,0.012516606598483996,-198.64626579882383,6.25
196,1.9626405239105225,-207.0878640194669,28.204791083238398,-111.02357688946624,-258.7724856168717,0.0,0.769243656854758,0.1,0.00662541389465332,0.15253138542175293,0.05002592,0.14127986,-206.283388653207,-0.08770377761099042,-2.6731080687420303,0.0,2207,0.33831214904785156,0.011919432316636528,0.01144976884300194,-196.97619417566113,6.25
197,1.9355096817016602,-206.84040157511322,29.551649623253084,-112.92779753425839,-271.1075417756904,2.0833333333333335,0.7112789946189411,0.1,0.03315138816833496,0.12183117866516113,0.049641665,0.15784018,-206.33908994539763,-0.08817848077310604,-2.668277357658241,2.0833333333333335,2190,0.23025989532470703,0.011772391926230428,0.01185807573764438,-199.16065747995012,6.25
198,1.960519790649414,-206.6083958043919,27.34297775789974,-113.39431471895512,-250.04985057813724,1.0416666666666667,0.7781223603905352,0.1,0.019397497177124023,0.1462419033050537,0.050608743,0.1312452,-206.36602053129707,-0.08792046759835433,-2.66708970163342,1.0416666666666667,2182,0.2000291347503662,0.011080031000523669,0.010319547810206985,-196.77114803067192,6.25
199,1.9337842464447021,-205.77736215449463,26.44059021189725,-115.0601145223867,-253.55501259441974,0.0,0.7845998276716456,0.1,0.016238927841186523,0.16753268241882324,0.050650317,0.14534748,-206.30715469361684,-0.08754185425587187,-2.654000541139265,0.0,2182,0.30754637718200684,0.009893781534247009,0.009738335194873613,-201.70449437243127,6.25
200,2.218916177749634,-204.8743865874621,29.233019588546096,-100.38067064378919,-255.7474577003772,1.0416666666666667,0.7566673565921932,0.1,0.04086017608642578,0.1620502471923828,0.05035947,0.14219178,-206.16387788300136,-0.08745373329126489,-2.6424926182658,1.0416666666666667,2184,0.30588483810424805,0.013386013747667208,0.012554869957236434,-197.15538040391135,6.25
201,2.03601336479187,-207.4694947332729,31.458625215326716,-120.48136400657283,-268.6477113377555,1.0416666666666667,0.7446679478257653,0.1,0.016002893447875977,0.15396666526794434,0.049232055,0.1484421,-206.2944395680285,-0.08821166445692626,-2.6769594967882697,1.0416666666666667,2194,0.3066575527191162,0.014001195611419204,0.013268276183202846,-196.37266053291378,6.25
202,1.9801836013793945,-205.45187236205334,25.009398756219102,-109.29476284874421,-252.78877529791583,0.0,0.7346470965647176,0.1,0.016005754470825195,0.21080303192138672,0.049505983,0.14895262,-206.21018284743099,-0.08773755431128798,-2.6497178876163705,0.0,2174,0.309826135635376,0.009360987224511261,0.009147290546458691,-196.74705967134943,6.25
203,1.933335304260254,-207.33497698118467,25.723798211031685,-137.81896004168541,-272.582201054625,0.0,0.781337492374033,0.1,0.018033742904663086,0.22098898887634277,0.05068269,0.13090295,-206.32266226080637,-0.08772138113466084,-2.674606257976553,0.0,2195,0.32035350799560547,0.011153150677951067,0.010839844351116566,-194.57176026446797,6.25
204,1.9870173931121826,-204.10381730078572,27.36081793965154,-118.12687663387932,-263.201807928455,0.0,0.7400035742720641,0.1,0.01714158058166504,0.16168856620788574,0.04891893,0.14896615,-206.1007777648043,-0.08733640954563943,-2.6318427779812366,0.0,2179,0.32370924949645996,0.011498369742507154,0.011448463259343778,-195.06943192938408,6.25
205,1.9141016006469727,-205.523796437985,26.649738078846724,-122.47962665810107,-264.521504628954,0.0,0.704554680171578,0.1,0.03996157646179199,0.19701027870178223,0.049783498,0.17341541,-206.04307963212236,-0.08864805445253975,-2.6497872270090306,0.0,2155,0.3136124610900879,0.011331205971979591,0.010068177766172214,-196.16686113920298,6.25
206,1.9146449565887451,-205.2661021620439,29.47615673640061,-119.12296328902411,-261.13875382863193,1.0416666666666667,0.7874367379985845,0.1,0.03146529197692871,0.15059304237365723,0.0499182,0.1396433,-205.96538188511454,-0.08767775993079933,-2.6484194770332152,1.0416666666666667,2187,0.21104168891906738,0.011242568355084146,0.010814047084314493,-199.28132038708463,6.25
207,1.9877066612243652,-205.25711364710946,26.49499686092731,-122.66497046191134,-261.8165373418076,0.0,0.7491866890924368,0.1,0.014310121536254883,0.1410837173461914,0.050890215,0.14443849,-205.89455506131404,-0.08756247408627262,-2.6484862043642603,0.0,2189,0.21374082565307617,0.010340446935724217,0.01001592483647248,-199.4346113690633,6.25
208,2.127096176147461,-201.09124703962937,27.946004573460737,-115.07732810320329,-254.24506478203935,1.0416666666666667,0.7658067634924313,0.1,0.014245986938476562,0.16109013557434082,0.05005899,0.13190094,-205.41422425914558,-0.08566007862883335,-2.591965208445881,1.0416666666666667,2209,0.21139311790466309,0.010806388790380171,0.01047215583734145,-204.75826477074784,6.25
209,1.9460890293121338,-206.08072937846524,27.819445685443103,-120.17736431266826,-294.248975845655,0.0,0.7326781511810353,0.1,0.006905555725097656,0.1544351577758789,0.049776517,0.13766405,-205.48087477107754,-0.08851820740417186,-2.657428426574658,0.0,2173,0.3034689426422119,0.01290581596512412,0.012368746301679955,-198.7187095185468,6.25
210,2.2548675537109375,-200.2316889201471,32.908890166753395,-79.34994300810436,-255.50182421040992,4.166666666666667,0.7613448001562886,0.1,0.02626180648803711,0.18155670166015625,0.05073277,0.14831598,-204.95595618598452,-0.08694771578320272,-2.5803698635648273,4.166666666666667,2186,0.32141780853271484,0.014299721159503266,0.01405637975994643,-203.47775009506583,6.25
211,1.9496257305145264,-207.441391876744,23.621385995312476,-140.94070454660223,-266.2154549012355,0.0,0.7765842633294298,0.1,0.017851591110229492,0.22144556045532227,0.05007821,0.13068876,-205.20449975506045,-0.08748313309900523,-2.676580571346664,0.0,2198,0.32479262351989746,0.009448779669274324,0.008945988789861416,-199.99264864014333,6.25
212,2.143355131149292,-204.30932737522502,31.605860580782604,-105.94579388464335,-277.4200852038789,1.0416666666666667,0.7370215799437442,0.1,0.021163225173950195,0.19619369506835938,0.04959232,0.14536309,-205.11498251707692,-0.0866185661137241,-2.635305510193385,1.0416666666666667,2209,0.32482075691223145,0.014457955200102103,0.014698888556179871,-203.96064257049838,6.25
213,2.152808427810669,-198.87819737643554,29.224736846201626,-114.90847719262622,-288.842955768482,0.0,0.7653246348613756,0.1,0.006696939468383789,0.15947270393371582,0.05004314,0.13591513,-204.4913040030128,-0.08614656623183081,-2.5627728719516214,0.0,2174,0.3455171585083008,0.014100462391922043,0.011963624273151757,-199.86671900144046,6.25
214,2.1079115867614746,-208.3822388056941,25.791811103284285,-121.01599202505794,-258.7301690859721,0.0,0.8026056776757196,0.1,0.0066070556640625,0.1592724323272705,0.050379913,0.13189271,-204.88039748328094,-0.08879481219631584,-2.689870894351986,0.0,2182,0.3334362506866455,0.011085691721306808,0.009684381156126659,-201.62189577386135,6.25
215,2.1049764156341553,-201.0736593248433,29.963537069739473,-119.06114415515876,-279.3741774850509,1.0416666666666667,0.7427987145252838,0.1,0.00683140754699707,0.17238140106201172,0.049987413,0.1429184,-204.4997236674372,-0.08712728892431947,-2.591525860867239,1.0416666666666667,2185,0.33838939666748047,0.01330425259080992,0.01235692498721573,-204.85413649108023,6.25
216,2.158862352371216,-206.76604146746823,31.264437051744256,-104.81639724124115,-280.2558812761177,2.0833333333333335,0.818184934882168,0.1,0.015901565551757812,0.16301345825195312,0.04955164,0.129284,-204.7263554474403,-0.08766242677974023,-2.666961511246369,2.0833333333333335,2208,0.3175215721130371,0.013159247188606045,0.01257746539952503,-199.33760123618097,6.25
217,2.2622127532958984,-206.0083117532723,28.295129332012092,-126.7807548478374,-256.8127617320798,0.0,0.781882734425451,0.1,0.006781101226806641,0.15693187713623047,0.0498069,0.13773072,-204.85455107802352,-0.08659024175449152,-2.6572233161725562,0.0,2219,0.35040855407714844,0.01222148585253136,0.011899987025486938,-210.56375157972832,6.25
218,2.082751989364624,-209.09744815125586,25.881255364128243,-135.95147408963794,-268.63988540398105,0.0,0.8066246221065371,0.1,0.006453275680541992,0.14913201332092285,0.050535522,0.1300449,-205.27884078534674,-0.08813951258012172,-2.697996741730561,0.0,2190,0.3118469715118408,0.011231000089834825,0.0109834550909894,-207.00297427097308,6.25
219,2.0895016193389893,-203.70577927924103,27.811752915222606,-128.10944291224814,-253.90670584685003,0.0,0.8445853641080985,0.1,0.014267921447753906,0.13792657852172852,0.049799327,0.12549368,-205.12153463473618,-0.08774503438032007,-2.6254853222997063,0.0,2169,0.21201348304748535,0.011090800859429869,0.01063861116667286,-207.05294027565907,0.0
220,2.368643283843994,-207.91320385732033,25.221990186979063,-110.04348104665452,-263.42966779637675,2.0833333333333335,0.7598397127638182,0.1,0.03365731239318848,0.18418574333190918,0.050798956,0.14809124,-205.4007015569946,-0.08815565670164331,-2.683625424419143,2.0833333333333335,2185,0.30339646339416504,0.011276314936174611,0.010660326120296349,-204.92631169733068,6.25
221,2.0082547664642334,-205.03532202883392,27.459723641452662,-126.17085786525423,-262.0452975374368,0.0,0.7401725260411305,0.1,0.004982948303222656,0.10948896408081055,0.050187882,0.14236182,-205.36416360417854,-0.08816969346596214,-2.6438789821857562,0.0,2170,0.19699335098266602,0.0112822679416455,0.010838564559816279,-204.28535819485947,6.25
222,2.026215076446533,-201.61935700612113,24.550117803101745,-146.754314882929,-252.3546072801365,0.0,0.7592905374035799,0.1,0.0049479007720947266,0.10839629173278809,0.050635274,0.14244968,-204.9896829443728,-0.08741945675102708,-2.5993354261795836,0.0,2171,0.21283698081970215,0.00789353164812666,0.007743871338546675,-209.75160178456343,0.0
223,2.05768084526062,-203.27503950360506,27.109937045401132,-138.2088160706303,-260.8246987831981,0.0,0.7554615992860135,0.1,0.006905317306518555,0.15485668182373047,0.051167753,0.13989487,-204.818218600296,-0.08734075152035298,-2.6216276700143495,0.0,2168,0.3052031993865967,0.011763917432880027,0.010830982728387456,-205.76282099630026,6.25
224,2.142368793487549,-211.00891691503648,26.641027527269905,-138.14629806853833,-287.1811940493851,0.0,0.7627871997429067,0.1,0.02017974853515625,0.15801620483398438,0.049876176,0.12883227,-205.43728843177007,-0.08956295603576252,-2.7231633089622114,0.0,2163,0.30156397819519043,0.011893837311665212,0.011160010854874315,-198.53028979391047,6.25
225,2.166987419128418,-203.07267325373496,25.52979280422634,-134.8358515564347,-266.9217306803477,0.0,0.7420133395510249,0.1,0.04346275329589844,0.1566786766052246,0.05086512,0.1401419,-205.20082691396655,-0.0866555219984042,-2.617712296443743,0.0,2179,0.3105614185333252,0.010550179976999995,0.009887171717679447,-207.40527054604746,6.25
226,2.131059408187866,-201.59334245232344,27.026147068086885,-131.4574252207218,-252.3166137691917,0.0,0.7360340689254528,0.1,0.0069310665130615234,0.15964460372924805,0.050377388,0.15277264,-204.84007846780224,-0.08725681936579244,-2.598890048373177,0.0,2153,0.2938573360443115,0.011197026851284904,0.010853312089130878,-203.6310704927067,6.25
227,2.0528886318206787,-198.84474069086036,28.185517191034343,-117.09049782538176,-259.48214386607566,0.0,0.811248654528083,0.1,0.02559971809387207,0.1552257537841797,0.05039875,0.14068866,-204.24054469010804,-0.08710611451020407,-2.561791023080507,0.0,2155,0.2993333339691162,0.013300939533097465,0.013010863079102031,-206.34785429312373,0.0
228,2.167332649230957,-204.80309351291976,26.3731395216928,-130.64534670076074,-282.7455659459134,0.0,0.7306051534877708,0.1,0.022099733352661133,0.13657879829406738,0.050407447,0.14614904,-204.2967995723892,-0.08790788278925936,-2.6410922284065954,0.0,2157,0.2080399990081787,0.010682769923585285,0.010285892607714309,-203.4920335501838,0.0
229,2.176877021789551,-200.41441569722164,29.142482357420583,-117.77148697898176,-260.42736439076987,1.0416666666666667,0.7836769397441712,0.1,0.015959501266479492,0.17031478881835938,0.04956816,0.13812658,-203.90856118487247,-0.08696889707857615,-2.5820176592593707,1.0416666666666667,2150,0.31351184844970703,0.012386543493528815,0.011345772422524237,-205.38006751556682,0.0
230,2.059943914413452,-202.500351366959,26.97410209906152,-117.40204699501955,-262.6400053457308,0.0,0.8128353815732562,0.1,0.00507354736328125,0.1149604320526123,0.05013528,0.1371354,-203.76774020308113,-0.08737182666950111,-2.610230838099549,0.0,2157,0.19949555397033691,0.011205942766375786,0.010943884608953156,-203.52459193934945,0.0
231,1.9987177848815918,-207.36460394965874,24.305567084905334,-115.09187143008988,-251.98250730549353,1.0416666666666667,0.7639581625066388,0.1,0.007381916046142578,0.15470266342163086,0.049881205,0.1502147,-204.1274265777389,-0.08854049761157418,-2.6750501941552507,1.0416666666666667,2168,0.29617905616760254,0.011449905833808794,0.010397146044135113,-201.56472284462725,0.0
232,1.7812674045562744,-204.17618479835622,23.976022609781857,-138.92630351162472,-255.86238109712383,0.0,0.736304686240746,0.1,0.006600379943847656,0.14730072021484375,0.049812004,0.15132864,-204.13230239980064,-0.08740799154934682,-2.632783759227674,0.0,2161,0.2911543846130371,0.009774102068459365,0.009311897996041058,-205.22349372632985,0.0
233,2.0968973636627197,-199.70860583983782,27.61349334063276,-131.3903165250403,-251.9175780243981,0.0,0.7135355767341208,0.1,0.00676417350769043,0.15081214904785156,0.04981316,0.1588719,-203.68993274380435,-0.0875482317172539,-2.5724879314810205,0.0,2156,0.2864689826965332,0.010883027241270557,0.010711109085289395,-204.6413654700296,0.0
234,2.022109031677246,-206.97370637645272,26.2447122665267,-136.0723835563386,-298.3752466825304,0.0,0.7520788802682483,0.1,0.0069675445556640625,0.1570420265197754,0.050852414,0.13186921,-204.01831010706917,-0.08908795029792856,-2.6704972307017907,0.0,2134,0.31771326065063477,0.012238289239760159,0.011295310868061058,-202.89259211778304,0.0
235,1.941758155822754,-204.03767232694508,25.27925686908122,-126.73707126300738,-257.27292346834463,1.0416666666666667,0.7620941594586069,0.1,0.02106332778930664,0.1490311622619629,0.049571853,0.14599672,-204.0202463290568,-0.0892410431743121,-2.631816784920989,1.0416666666666667,2136,0.295072078704834,0.009979308258256804,0.009172214149138465,-197.5703763105041,0.0
236,2.024627208709717,-203.20421361906912,26.901457470481215,-101.72534605436721,-260.43509005826684,1.0416666666666667,0.7588903122979516,0.1,0.02134084701538086,0.17470598220825195,0.05013798,0.15194036,-203.93864305805803,-0.0875653251830482,-2.6205738163172483,1.0416666666666667,2152,0.29743456840515137,0.01060145399825842,0.009982818098747211,-194.5087886944694,6.25
237,2.1268177032470703,-200.48547682675735,24.22482912331102,-124.39811199955994,-252.92312395432504,0.0,0.741197652542141,0.1,0.015813589096069336,0.14798808097839355,0.049883172,0.14836593,-203.59332643492797,-0.08817939083496633,-2.5843351661666367,0.0,2099,0.2785165309906006,0.008836903998009507,0.008687078464280568,-201.07119548283612,0.0
238,2.124030828475952,-207.5572438051936,23.872730785827425,-135.78073525188353,-253.22219139216355,0.0,0.7632779967224701,0.1,0.03308987617492676,0.12330412864685059,0.05032331,0.13888896,-203.98971817195454,-0.08921337678077462,-2.6772702078909165,0.0,2157,0.18845105171203613,0.0092757722966185,0.008537600998432772,-202.21739971367484,0.0
239,2.0968546867370605,-200.08270723413042,26.251397660912094,-116.97656086227666,-249.21475721030885,1.0416666666666667,0.792945450303515,0.1,0.005430936813354492,0.15568780899047852,0.049519703,0.12871738,-203.59901707817212,-0.08793591684630593,-2.5783159957190205,1.0416666666666667,2122,0.28828978538513184,0.012186202836221197,0.01116670842102891,-202.2580937914376,0.0
240,1.9655869007110596,-202.9864380967995,24.166092312984663,-138.23033301049114,-252.8084336703475,1.0416666666666667,0.7587816396668412,0.1,0.006747722625732422,0.15101313591003418,0.049655456,0.1371829,-203.53775918003487,-0.0887312961234636,-2.6171614873727664,1.0416666666666667,2126,0.28405070304870605,0.01004783152676976,0.009829566928414116,-200.51302182365222,0.0
241,1.9548470973968506,-203.91868693498267,26.423117963235864,-105.9768892920253,-253.41244382524823,1.0416666666666667,0.7646550060887898,0.1,0.0063686370849609375,0.14852046966552734,0.049670618,0.13803336,-203.57585195552963,-0.08748149014574202,-2.6303328648105677,1.0416666666666667,2171,0.2871878147125244,0.01054683077266329,0.009626492698630012,-201.0491074393491,0.0
242,1.9345731735229492,-209.4269761900908,24.380226250952603,-125.05433468378891,-255.29295990171647,0.0,0.797705904896642,0.1,0.04030656814575195,0.15716886520385742,0.04984703,0.13172811,-204.16096437898574,-0.09035005136414058,-2.70261264673147,0.0,2129,0.289914608001709,0.010325765754320345,0.009415404460668252,-212.70872056302608,0.0
243,2.1754374504089355,-205.92576079232853,25.052984717579744,-142.8402919871298,-260.6164293620673,0.0,0.7211151657816878,0.1,0.006212949752807617,0.18878579139709473,0.049176745,0.14995874,-204.33744402032002,-0.08882892311408129,-2.6562857081446123,0.0,2134,0.29825854301452637,0.01055043847053793,0.009783775035637612,-204.82767504007975,0.0
244,1.9131584167480469,-201.71898760117347,23.752939511477226,-152.07810714980815,-252.67762242033254,0.0,0.8146643147276208,0.1,0.03480052947998047,0.20393037796020508,0.049766,0.12990282,-204.07559837840537,-0.0868693363627377,-2.601303265882608,0.0,2146,0.31009793281555176,0.010447562875707712,0.009427490298132777,-198.24726717135056,6.25
245,1.9064810276031494,-205.49414742549,24.501001464808034,-106.02142128236875,-274.47388464180034,0.0,0.798500776452486,0.1,0.0260617733001709,0.1562485694885254,0.049975656,0.13826118,-204.21745328311385,-0.08887992592684148,-2.6519926735920882,0.0,2123,0.30324745178222656,0.010102257057386385,0.00932426549326152,-199.7197976187337,0.0
246,1.9151215553283691,-205.28521598149203,25.493261135152004,-135.71125796364188,-254.6598361298671,0.0,0.8236465985163796,0.1,0.036066293716430664,0.16922569274902344,0.049564265,0.13003957,-204.3242295529517,-0.08947400214953433,-2.6484296351103827,0.0,2120,0.2959706783294678,0.009537853450896928,0.00962354888194809,-202.8866880156885,0.0
247,1.9452450275421143,-201.9732640740286,27.35737293068841,-122.58068110216573,-254.27668990676526,0.0,0.7790560003327005,0.1,0.018689870834350586,0.15622210502624512,0.049604215,0.14389287,-204.0891330050594,-0.08846453026216426,-2.6032938771648397,0.0,2130,0.29922008514404297,0.01059612522178476,0.01038463171501847,-198.6290671912068,0.0
248,1.9634454250335693,-203.34004962728545,24.806359052699623,-132.99919657715918,-261.7101637890196,0.0,0.7924303566676547,0.1,0.008224964141845703,0.1733384132385254,0.05019434,0.13475564,-204.01422466728204,-0.0881446450701041,-2.621821228194086,0.0,2147,0.32125043869018555,0.009939274914217627,0.009675452017065043,-201.75535295015192,0.0
249,2.069791078567505,-202.6067218360723,24.13653484722901,-118.96787789301716,-258.5244728997994,1.0416666666666667,0.7933447814387037,0.1,0.0175321102142334,0.19778728485107422,0.049977355,0.13132335,-203.87347438416106,-0.08895307168824106,-2.6138915617996887,1.0416666666666667,2102,0.30554842948913574,0.008733433075038257,0.008571943340624782,-200.48594580299778,0.0
250,1.9588167667388916,-200.45161707492693,25.160993537941682,-138.34384704014008,-250.5977947036895,0.0,0.8083023734198844,0.1,0.04672980308532715,0.22441720962524414,0.05075601,0.12600748,-203.53128865323765,-0.08837489950044149,-2.5839463701739276,0.0,2101,0.3000621795654297,0.009888476729469967,0.009726682935529812,-197.3978751312029,0.0
251,1.8415470123291016,-203.04593552349206,28.052146175558885,-98.95714255539872,-263.5444348151983,1.0416666666666667,0.7613469373774233,0.1,0.007571697235107422,0.1911919116973877,0.050554466,0.15075698,-203.48275334026312,-0.08835871353225726,-2.618730836731817,1.0416666666666667,2141,0.32666707038879395,0.010781475711063426,0.009948437611897542,-197.22072713718637,0.0
252,1.8326964378356934,-211.82387407109186,24.794122406830265,-115.39155706501376,-255.18366753162354,1.0416666666666667,0.7673212359066653,0.1,0.007002592086791992,0.16629791259765625,0.049341425,0.13572346,-204.316865413346,-0.09118028121667254,-2.734353967065896,1.0416666666666667,2127,0.30995821952819824,0.010365977008705283,0.0095445951490566,-198.01920588534819,6.25
253,2.075730323791504,-203.62115407096528,23.16785649322886,-146.1578023425673,-252.5213491560409,0.0,0.810731229517577,0.1,0.017212390899658203,0.23523902893066406,0.050165482,0.123288244,-204.24729427910793,-0.08900310562872334,-2.625556874887627,0.0,2113,0.3156449794769287,0.010340514860477046,0.009427370246256653,-199.22208111611565,6.25
254,2.0735394954681396,-203.62579028973053,23.047384330131003,-135.78227403488637,-258.11529883153264,0.0,0.7912632078276869,0.1,0.016210317611694336,0.21676898002624512,0.05011988,0.13340469,-204.1851438801702,-0.08834873940550068,-2.6245144478234583,0.0,2129,0.31321048736572266,0.00864081617728034,0.008227851036821443,-198.70700470008592,6.25
255,1.8371517658233643,-200.9194765694539,25.761740370498813,-125.27861338370806,-268.8019454753659,0.0,0.8034935926584253,0.1,0.006682872772216797,0.15593194961547852,0.050159033,0.13653064,-203.85857714909858,-0.08816709363118251,-2.589999410838255,0.0,2114,0.3012373447418213,0.00950970620706575,0.009207687180013845,-195.55060143826495,6.25
256,1.870715856552124,-203.65964868600636,26.067507066369878,-125.09007315377522,-254.72681413190892,1.0416666666666667,0.8019521217294096,0.1,0.006560802459716797,0.15665984153747559,0.049643796,0.14234844,-203.83868430278935,-0.08930835353441853,-2.6262028420703167,1.0416666666666667,2122,0.2984466552734375,0.009756891505056712,0.009261946038138945,-196.60589945578442,6.25
257,1.888580083847046,-201.34136277050632,24.9264745208506,-123.77809313523696,-245.9364160306706,0.0,0.7720013985201405,0.1,0.006685495376586914,0.1571507453918457,0.04998685,0.13875686,-203.58895214956104,-0.08877847945841277,-2.594948118514241,0.0,2101,0.2852950096130371,0.010387839868987279,0.009877664752836707,-199.91979745085607,6.25
258,1.882446527481079,-198.51384641131594,24.862713924535903,-127.43073844546653,-249.98171875253271,1.0416666666666667,0.756036854591879,0.1,0.006826162338256836,0.15364837646484375,0.049995564,0.14367126,-203.08144157573653,-0.08856493955494797,-2.556971094323572,1.0416666666666667,2097,0.2967245578765869,0.010146062518895617,0.009669994124072285,-200.97480202021697,6.25
259,2.0073044300079346,-206.56208012474767,22.689554653283345,-128.88326832849083,-259.436373048586,0.0,0.7821740377226821,0.1,0.025149106979370117,0.15143299102783203,0.04931471,0.12920898,-203.42950543063765,-0.08906360068271128,-2.664192629589347,0.0,2131,0.3013336658477783,0.00999458120488237,0.009122880280979703,-200.9970441230938,6.25
260,1.88582181930542,-198.214513987789,27.8730793550286,-116.2296490313467,-261.8283806188551,1.0416666666666667,0.7029066057807346,0.1,0.0049359798431396484,0.19672942161560059,0.050019268,0.16841759,-202.9080062863528,-0.0883775122391078,-2.5536964765419112,1.0416666666666667,2105,0.2010936737060547,0.011543567097180778,0.011043257614640343,-196.9965260259416,6.25
261,1.967747449874878,-198.95802184209546,26.131506535844757,-118.73994630021726,-257.055882303006,0.0,0.7749641401600964,0.1,0.016250133514404297,0.19016623497009277,0.05030186,0.14024675,-202.51300784192705,-0.08843534875082931,-2.5622383052283104,0.0,2097,0.30269694328308105,0.010282374664320236,0.010238240054314013,-195.83802666833003,6.25
262,1.8763327598571777,-201.30734881984475,26.753198378838857,-111.27239905645767,-249.62465476366407,1.0416666666666667,0.8074500508102433,0.1,0.06048893928527832,0.18676352500915527,0.049873337,0.12435207,-202.39244193971882,-0.08860853085234426,-2.594780457178525,1.0416666666666667,2113,0.3326902389526367,0.010663605421152491,0.009920914911746329,-199.49453603085146,6.25
263,2.109072208404541,-202.20467117020698,25.29283653384355,-143.59436692097606,-253.7846743752686,1.0416666666666667,0.8082042598564818,0.1,0.03623485565185547,0.17505455017089844,0.049336478,0.13084768,-202.37366486276764,-0.08932832706380518,-2.607543331251499,1.0416666666666667,2094,0.32021164894104004,0.01039835189708729,0.010271933127436648,-197.60686870145724,6.25
264,1.8679583072662354,-203.88541004966942,25.826447100446618,-128.852144271402,-256.7378199524657,0.0,0.7575155587966621,0.1,0.006522417068481445,0.15782809257507324,0.050173324,0.14253181,-202.52483938145784,-0.0898526484218975,-2.6290531875877163,0.0,2100,0.33933591842651367,0.009015337302965578,0.008641487768292355,-196.218422200431,6.25
265,1.9348509311676025,-201.85554989498277,28.991713542730164,-118.0438518926697,-255.6731114962103,2.0833333333333335,0.7130415796680396,0.1,0.027740001678466797,0.17388629913330078,0.05001907,0.14476585,-202.45791043281034,-0.08946045241038507,-2.6004451532480606,2.0833333333333335,2105,0.31468701362609863,0.011665455792722473,0.011416710049182762,-193.43382374511697,6.25
266,1.9346001148223877,-196.77383727383736,29.73888471449341,-116.83647220069143,-272.0519559493175,0.0,0.8086373064527126,0.1,0.006723165512084961,0.15198302268981934,0.0507529,0.123881005,-201.88950311691303,-0.08810721866560857,-2.5347556738105967,0.0,2092,0.31745243072509766,0.013898912673095188,0.013030441446527296,-193.63299445287265,6.25
267,1.8820219039916992,-204.03391476841296,25.952287216857584,-130.18612098679608,-284.5976903747958,0.0,0.768956462546644,0.1,0.025220870971679688,0.15799379348754883,0.050582964,0.1316441,-202.10394428206305,-0.08933528531324793,-2.631346994608865,0.0,2120,0.33171820640563965,0.011845680090613563,0.009852963983451963,-189.3101756340811,6.25
268,1.8526365756988525,-198.56319203109908,24.533296305229303,-124.67716541797327,-250.23116627314062,0.0,0.7657895647695625,0.1,0.006611824035644531,0.15871882438659668,0.049762916,0.151501,-201.74986905696665,-0.08896518712943058,-2.5577963116998097,0.0,2078,0.32581138610839844,0.010345141922527524,0.009668887634569795,-194.96225961699338,6.25
269,2.0765793323516846,-199.10949060897647,27.858173045593443,-109.40383986993606,-253.425936999776,1.0416666666666667,0.7733471536639367,0.1,0.006697416305541992,0.151780366897583,0.049701665,0.13652714,-201.48583121216762,-0.08848224922131753,-2.565184563093374,1.0416666666666667,2086,0.309131383895874,0.011993250439325738,0.011728976363769164,-192.13985483485826,6.25
270,1.8954861164093018,-198.64053932013988,30.623449620436094,-107.25474379042019,-262.9523328281526,2.0833333333333335,0.7768680056407682,0.1,0.005281209945678711,0.13037633895874023,0.050370608,0.14605115,-201.20130202296485,-0.08854693499963935,-2.5590761292378854,2.0833333333333335,2127,0.20569586753845215,0.01311028268217983,0.012602640865016447,-192.89757924454688,6.25
271,1.97711181640625,-202.59266284959486,27.07471146782303,-118.02966683193084,-262.3398721197791,1.0416666666666667,0.7735368216026963,0.1,0.016640186309814453,0.17245936393737793,0.04964816,0.14683522,-201.34043810562787,-0.08958752798671044,-2.611924641058771,1.0416666666666667,2105,0.30860304832458496,0.011188519666050792,0.011336553729089685,-196.55022631829246,6.25
272,2.004051685333252,-202.92300165871197,23.67123575708932,-142.25176372405684,-243.40457615208064,0.0,0.7499501130962031,0.1,0.018152713775634766,0.14949417114257812,0.050495423,0.13834482,-201.4986944609363,-0.08926416284935094,-2.616555198557229,0.0,2101,0.292647123336792,0.009737668586806844,0.009147298178915415,-192.70157746133037,0.0
273,1.9618043899536133,-201.93054128841626,23.161723070191474,-135.98143776515278,-269.55904233666655,0.0,0.7777708049661701,0.1,0.01595163345336914,0.15075922012329102,0.050007243,0.13324018,-201.5418791436843,-0.08779259606613661,-2.60445998691768,0.0,2134,0.3076786994934082,0.011135173006724947,0.010919126925107197,-199.99398291350894,0.0
274,1.9297151565551758,-201.79912484249704,24.56134888601469,-119.14541496155789,-240.3582763936853,2.0833333333333335,0.7427544726903437,0.1,0.006646156311035156,0.15198755264282227,0.050062854,0.14807716,-201.56760371356557,-0.08844489399005735,-2.600481896512227,2.0833333333333335,2113,0.3037071228027344,0.010153312422818575,0.00930565764738688,-196.63689950404253,6.25
275,1.9394903182983398,-203.82854149729337,26.746677220019734,-135.62937711460995,-280.9727437823602,1.0416666666666667,0.7607715246434908,0.1,0.005182027816772461,0.11506104469299316,0.050341688,0.13639049,-201.79369749193836,-0.09016268023008461,-2.62775108427541,1.0416666666666667,2090,0.20038485527038574,0.01083925237008007,0.010583232212394855,-195.97263718100413,6.25
276,1.9280104637145996,-200.05285763782396,27.243204929474203,-119.61944898380357,-291.5307349987266,0.0,0.7383581210188415,0.1,0.03451418876647949,0.1687154769897461,0.048253816,0.17209604,-201.61961350652695,-0.08875080431208815,-2.5773559635061187,0.0,2100,0.29282522201538086,0.01104965743760838,0.010957216522556787,-192.99441270362485,6.25
277,2.1363675594329834,-198.68732532553182,26.506463248870034,-105.94669294551352,-247.19686861523667,1.0416666666666667,0.7757267597737877,0.1,0.006538867950439453,0.15226244926452637,0.049829505,0.13394019,-201.32638468842742,-0.08841483133744543,-2.5596920554403817,1.0416666666666667,2100,0.2890133857727051,0.01017200805348404,0.01056946256849121,-192.06370878094134,6.25
278,2.073659658432007,-200.68540856660331,26.898909763530547,-119.68129272590079,-282.64070319221116,1.0416666666666667,0.7363223235816178,0.1,0.005049228668212891,0.11107134819030762,0.04924923,0.15187858,-201.262287076245,-0.087816088998056,-2.5867890281722734,1.0416666666666667,2142,0.24959826469421387,0.011727006572988849,0.010916100138438734,-192.64013016659004,6.25
279,1.8197813034057617,-202.8003214737241,26.644114408835915,-137.2764600244599,-252.78337681296065,0.0,0.7065772430246225,0.1,0.007017374038696289,0.14494895935058594,0.05034424,0.13903059,-201.4160905159929,-0.08897839490655741,-2.6145907337300875,0.0,2108,0.29889988899230957,0.01237141493476023,0.011231923305431095,-195.06427041719257,6.25
280,2.0086441040039062,-201.1373482493408,28.18981475622789,-117.99119280927509,-254.39301882756928,1.0416666666666667,0.7661920641442239,0.1,0.016317129135131836,0.14809703826904297,0.0500135,0.14318477,-201.3882162893277,-0.08882096951372326,-2.592465760690238,1.0416666666666667,2109,0.21454453468322754,0.010475887231275457,0.01037202506389781,-188.78487524008958,6.25
281,2.090364694595337,-201.49804666200177,28.837189628473272,-108.81880598700022,-345.4966335814596,1.0416666666666667,0.7518711155897185,0.1,0.02585315704345703,0.15935492515563965,0.04962678,0.12767775,-201.3991993265951,-0.08928268253825145,-2.5984225587243333,1.0416666666666667,2091,0.31803107261657715,0.013544410960488973,0.012839915920634644,-189.53658490059215,6.25
282,2.1748878955841064,-197.18424687516122,29.555960391033548,-107.87473384639682,-259.6207403566587,2.0833333333333335,0.722418897544105,0.1,0.034210205078125,0.18619966506958008,0.05006362,0.16893038,-200.97770408145172,-0.08813918200027421,-2.5405061018897843,2.0833333333333335,2103,0.31186580657958984,0.012729197655202409,0.012664141113117894,-190.57437639269398,6.25
283,2.2064321041107178,-201.61795781331045,25.9823131732363,-110.48677522994623,-248.81098927652448,2.0833333333333335,0.7533603767945071,0.1,0.007233858108520508,0.15445256233215332,0.050033472,0.14916901,-201.0417294546376,-0.08963889920149848,-2.5989431731783124,2.0833333333333335,2091,0.300966739654541,0.010147986203299828,0.009050674426322776,-189.28981462422666,6.25
284,2.0919501781463623,-199.29642631695424,26.831000301314134,-115.44523033182216,-254.1271030383645,1.0416666666666667,0.7480846804977924,0.1,0.0048580169677734375,0.1126255989074707,0.049864367,0.14074124,-200.86719914086927,-0.08888619885913318,-2.5677173210877102,1.0416666666666667,2083,0.21696710586547852,0.010829765529659006,0.010618805476700193,-189.40192501748254,6.25
285,2.1560354232788086,-206.17227646004895,26.3180325146286,-144.02123355215247,-290.95811357539645,0.0,0.7499303784319118,0.1,0.00492095947265625,0.11260056495666504,0.050189085,0.14025143,-201.39770687278724,-0.09041331477281574,-2.659582626896532,0.0,2108,0.2006666660308838,0.011991241280988062,0.010144661156473656,-192.36964273127083,6.25
286,2.2170190811157227,-199.11954038556166,23.263551806157814,-113.7763533813133,-253.23551896192114,1.0416666666666667,0.8015323301931517,0.1,0.006570100784301758,0.15195846557617188,0.050420333,0.12926395,-201.1698902240647,-0.0892889537363883,-2.5672613713778776,1.0416666666666667,2067,0.31650376319885254,0.011536210153879387,0.009824777178700254,-193.51275226924616,6.25
287,2.224580764770508,-196.4237387360832,29.893149209256414,-102.605966301384,-250.06609881691975,1.0416666666666667,0.7247348294517633,0.1,0.006587505340576172,0.15538311004638672,0.05003743,0.2298291,-200.69527507526652,-0.08798923574563473,-2.5308396502520587,1.0416666666666667,2102,0.2968778610229492,0.01283574846949904,0.011023618377495565,-192.84799313085358,6.25
288,2.200932025909424,-197.50492641314597,28.38508462710044,-103.32250142787888,-255.57554043734044,3.125,0.800582223724786,0.1,0.006850481033325195,0.15332961082458496,0.050178736,0.15903959,-200.37624020905446,-0.08779203109456667,-2.543061027634415,3.125,2089,0.30840063095092773,0.012029229885965078,0.01167820569957963,-190.69032197511996,6.25
289,2.1299800872802734,-206.67148664941578,23.420455937888825,-122.1214794426983,-259.97914615492033,0.0,0.7427515723630759,0.1,0.007055044174194336,0.15163230895996094,0.049808465,0.14585358,-201.0057648530906,-0.09063512677712926,-2.666946725997684,0.0,2096,0.319183349609375,0.009151317316770765,0.007630354159935019,-188.4188737312407,0.0
290,2.0234453678131104,-199.35639449536976,28.823909493628058,-118.92482113687431,-251.76509113510156,0.0,0.7630428732506928,0.1,0.006823062896728516,0.15176987648010254,0.049967397,0.14361614,-200.8408278173185,-0.08877073492470529,-2.569038128857571,0.0,2096,0.3128995895385742,0.011801488315241384,0.011192442433765716,-191.2586962122051,6.25
291,2.0676703453063965,-201.47061925374865,26.12387101101637,-114.20935769622419,-255.6177777023978,1.0416666666666667,0.8331103976291647,0.1,0.025508880615234375,0.15294480323791504,0.04919159,0.13374554,-200.90380696096153,-0.09024809758757753,-2.5958501220356736,1.0416666666666667,2076,0.3303408622741699,0.00936271807263638,0.008875398945797378,-189.36171987770265,6.25
292,2.2318408489227295,-201.5785399257064,29.534559894680832,-103.84327487071437,-249.74529321554576,1.0416666666666667,0.8076297505940614,0.1,0.006768703460693359,0.1497035026550293,0.050286572,0.13272695,-200.971280257436,-0.08996784276784005,-2.5973156917243467,1.0416666666666667,2090,0.32274532318115234,0.011118283168172483,0.010851791570621322,-191.7817091420324,6.25
293,2.1560232639312744,-197.4717632088938,29.60260988938884,-104.60302665954474,-296.1864658404677,0.0,0.7691608177879572,0.1,0.016533851623535156,0.16527771949768066,0.050631046,0.14228807,-200.62132855258182,-0.08855383918017153,-2.54357395294362,0.0,2090,0.3226141929626465,0.01303153598695029,0.012293793597467148,-190.69877098677674,6.25
294,2.2724595069885254,-200.24951637784807,26.293057758002114,-116.37774440634215,-285.1533438087373,1.0416666666666667,0.7832539280693223,0.1,0.007402658462524414,0.18586468696594238,0.050307035,0.134965,-200.58414733510847,-0.0882006243044293,-2.5813135303896,1.0416666666666667,2119,0.33220696449279785,0.010453483850535208,0.010046322476985654,-190.59987010348638,6.25
295,1.8911008834838867,-199.4894358729249,26.454682413600388,-99.36678071640313,-249.1188838962904,2.0833333333333335,0.7903242846850629,0.1,0.0279848575592041,0.15500545501708984,0.04883324,0.15908477,-200.47467618889013,-0.08975972249342361,-2.5705417460031623,2.0833333333333335,2070,0.33383631706237793,0.009620785999857743,0.009341050933843745,-191.44719369122637,6.25
296,2.367954969406128,-201.08787703575794,27.034189205765728,-117.21269807000455,-250.71276180968565,0.0,0.7699826940385222,0.1,0.0069751739501953125,0.15077614784240723,0.048592817,0.14420412,-200.5359962735769,-0.08888001216291386,-2.592959358389917,0.0,2096,0.31677794456481934,0.010548239288308111,0.010356470439579263,-191.91103979228893,6.25
297,1.9035577774047852,-199.18597465445154,27.63266665506627,-104.57978816253049,-251.30205188789841,0.0,0.7625828921351311,0.1,0.0068645477294921875,0.1492462158203125,0.049011145,0.14049897,-200.40099411166435,-0.08950356942191302,-2.5672053119156297,0.0,2079,0.30408263206481934,0.009976317842508409,0.009424085158067615,-192.76797202709287,6.25
298,1.8908748626708984,-201.46587724062613,24.267496128216635,-139.51552133944753,-264.4338496226576,0.0,0.7655577962278868,0.1,0.006658792495727539,0.15532922744750977,0.050462577,0.13354954,-200.50748242456052,-0.08909846873213367,-2.5959775157227996,0.0,2091,0.29827880859375,0.009839577373297034,0.0095993726376321,-192.54784800646306,6.25
299,1.936964988708496,-199.13455401945205,29.324033658778763,-111.78149408609902,-259.0376110409812,1.0416666666666667,0.8042548200432198,0.1,0.004764556884765625,0.1148531436920166,0.048861593,0.13716118,-200.37018958404968,-0.08870260580554262,-2.5663086938333595,1.0416666666666667,2111,0.32158470153808594,0.01127310586751012,0.010700579670281004,-191.9892566684404,0.0
300,1.9800024032592773,-202.65463950398262,22.061006183794817,-131.37279235121247,-243.4901628194924,0.0,0.7586074311671607,0.1,0.006769418716430664,0.15305829048156738,0.049168084,0.13493563,-200.598634576043,-0.08966151049713601,-2.6110178379622964,0.0,2085,0.330230712890625,0.008210157925141797,0.007858416038457617,-189.89222517925595,0.0
301,1.9976155757904053,-198.115684184118,28.424164556467662,-98.24034431558428,-250.38909053155896,1.0416666666666667,0.777459426761262,0.1,0.006253480911254883,0.1452653408050537,0.050794147,0.14693403,-200.3503395368505,-0.08938115969186339,-2.5520119754445307,1.0416666666666667,2076,0.32616496086120605,0.01000909044744297,0.00947167561648017,-187.309617757122,6.25
302,1.9079997539520264,-199.2500034297659,23.15108179786634,-105.60488029522253,-236.62876025008453,0.0,0.7696189548187895,0.1,0.006849527359008789,0.15481901168823242,0.050928824,0.13846448,-200.24030592614204,-0.08925398490153202,-2.5674691293263656,0.0,2069,0.3347201347351074,0.008536038505842003,0.008211015245268499,-188.1113277691692,6.25
303,1.8795785903930664,-199.3946665549697,28.29019488639799,-112.08429845807531,-287.1887125469864,1.0416666666666667,0.7677870173796394,0.1,0.006339073181152344,0.15128254890441895,0.050106764,0.14554109,-200.15574198902482,-0.08930402535468913,-2.568653081681776,1.0416666666666667,2084,0.3083832263946533,0.01159047754591032,0.010750016669400266,-189.22263091028037,0.0
304,1.860581874847412,-200.60574664002596,26.056153821421958,-115.22627273113594,-244.7709457657366,0.0,0.7607701796023498,0.1,0.006505250930786133,0.1596386432647705,0.050003197,0.16153255,-200.20074245412493,-0.09025375417820292,-2.5841062360533913,0.0,2057,0.3185458183288574,0.00989934173347135,0.009688682629105069,-187.68607588562185,0.0
305,1.8981468677520752,-199.0960419924362,23.82082663347291,-142.7260617975732,-242.8515978657579,0.0,0.7719649954362897,0.1,0.006528615951538086,0.15111517906188965,0.049570233,0.13419904,-200.09027240795606,-0.08865642159289787,-2.564137235217806,0.0,2096,0.3323826789855957,0.008341057669754126,0.008206571670283653,-190.81232019896146,0.0
306,1.9766368865966797,-199.05485064232252,28.637911078674637,-110.84828359952817,-260.8951733824677,1.0416666666666667,0.7358835513410227,0.1,0.015729188919067383,0.1455078125,0.049254667,0.14555265,-199.9867302313927,-0.08952863027118059,-2.5647881086512547,1.0416666666666667,2067,0.31636929512023926,0.011314291504866045,0.010829292447892219,-191.13263753367195,0.0
307,2.084259033203125,-204.43322965975472,22.16512465575599,-145.56626810748878,-258.79147384560173,0.0,0.75240316345527,0.1,0.007537126541137695,0.19976425170898438,0.04912876,0.13889043,-200.4313801742289,-0.0896378075900478,-2.6357104891807546,0.0,2090,0.3358945846557617,0.007854195418982714,0.00758743480164471,-190.67671145299212,0.0
308,1.8679609298706055,-196.890047155333,30.325265483901394,-97.87364744093003,-249.67933174902578,1.0416666666666667,0.7341867772949503,0.1,0.0067670345306396484,0.1520826816558838,0.049431775,0.1480736,-200.07724687233934,-0.08877260820908006,-2.5342893662605395,1.0416666666666667,2094,0.31104040145874023,0.012454354024444293,0.01163468378541837,-190.2548961562843,0.0
309,1.9224629402160645,-199.6013251650477,25.209868381733028,-126.0749558523611,-252.7072958674139,0.0,0.7415377064849799,0.1,0.00640869140625,0.14580321311950684,0.0500911,0.14272921,-200.02965470161018,-0.08877634925382327,-2.571384006304113,0.0,2085,0.31480884552001953,0.009158523524069453,0.008684718635193074,-192.22673950469073,0.0
310,1.9639618396759033,-204.4616249332164,23.798022762153185,-134.7153691932667,-251.37071675722385,1.0416666666666667,0.8045006639726185,0.1,0.02945566177368164,0.2091529369354248,0.05020867,0.13902637,-200.47285172477083,-0.08939348349315131,-2.635668375222785,1.0416666666666667,2104,0.32616257667541504,0.009875940047067065,0.00918234195330499,-192.64318934313854,0.0
311,2.0477936267852783,-200.93774788215993,26.768398400390424,-129.98519489762123,-256.5858280787339,1.0416666666666667,0.74670964120621,0.1,0.006537199020385742,0.14847207069396973,0.04896321,0.15486065,-200.51934134050975,-0.08873838885207526,-2.589430030980806,1.0416666666666667,2112,0.3327474594116211,0.00981244303303822,0.009421505006266838,-188.1423491978357,0.0
312,1.834467887878418,-202.64261460674342,24.70967057200592,-130.95862284316854,-255.0048444860284,0.0,0.7655027445171224,0.1,0.025207042694091797,0.15388894081115723,0.04882591,0.14809953,-200.7316686671331,-0.08970993585535054,-2.611374804200842,0.0,2088,0.32492971420288086,0.009974684762927635,0.00966529184718943,-189.91758575037102,0.0
313,1.935344934463501,-200.91392131038322,26.05099908326528,-132.39812657708512,-260.0479697898211,0.0,0.7709219865983173,0.1,0.0065839290618896484,0.1571815013885498,0.049898583,0.1319289,-200.74989393145813,-0.08879282047397652,-2.5896105136646432,0.0,2101,0.34216928482055664,0.009614989287492633,0.009313710724613183,-189.80495572204632,0.0
314,1.8609516620635986,-203.89446328547209,25.121973590192333,-149.61203794832105,-260.73757667400014,0.0,0.7670961456183345,0.1,0.006865978240966797,0.1485738754272461,0.04984785,0.12913045,-201.0643508668595,-0.08936408300450076,-2.6293229650622245,0.0,2112,0.33780980110168457,0.010915503853615076,0.010481493724338547,-190.17611015969575,0.0
315,1.9391505718231201,-194.68828041994755,31.18866747483768,-115.28448326901048,-250.04795539861468,2.0833333333333335,0.7670573047869627,0.1,0.006601095199584961,0.15554094314575195,0.049453642,0.14516337,-200.42674382216833,-0.08807359257225587,-2.506384366776257,2.0833333333333335,2099,0.33553028106689453,0.013027107494186327,0.01216860071200114,-188.80947999064497,0.0
316,1.9009325504302979,-200.21994080125168,25.64959455790337,-130.49477049607881,-250.65177427554733,0.0,0.7302082212933786,0.1,0.015685319900512695,0.15977191925048828,0.050287005,0.14050499,-200.40606352007666,-0.0888277124985531,-2.577997123396607,0.0,2107,0.31083035469055176,0.009810585198493984,0.009547545645702241,-191.11932561594818,0.0
317,1.9498002529144287,-196.55058216704938,29.61098364642343,-102.02383448528175,-263.5264444508298,1.0416666666666667,0.7469432402538916,0.1,0.006345272064208984,0.15093350410461426,0.050598536,0.1358835,-200.02051538477392,-0.08858205758115976,-2.531639159384708,1.0416666666666667,2082,0.33288002014160156,0.0126840248987679,0.01225691319084609,-191.80129334606931,0.0
318,1.9321508407592773,-198.76354360779183,24.464883751149063,-125.58615977169406,-238.71501854811427,0.0,0.7077759893569388,0.1,0.015474796295166016,0.14726471900939941,0.049842097,0.15850292,-199.8948182070757,-0.08866266389286585,-2.560943904503772,0.0,2086,0.3237776756286621,0.009106171651658857,0.008988462869648215,-188.84071617728367,0.0
319,1.9648609161376953,-201.2960488322858,22.557877967089617,-131.9899432982105,-249.27638273618874,1.0416666666666667,0.7323799287104874,0.1,0.006697416305541992,0.15664124488830566,0.04954583,0.14860408,-200.03494126959671,-0.08870515412409684,-2.5941751605445726,1.0416666666666667,2101,0.32623839378356934,0.0077537109484049965,0.0072927347756189635,-193.21174241655063,0.0
320,1.775071382522583,-200.28221914201148,27.32109849972763,-120.52667415574068,-261.3940396707227,1.0416666666666667,0.7272328238367483,0.1,0.023896217346191406,0.14087367057800293,0.05062139,0.1510721,-200.05966905683817,-0.0888305832727576,-2.580579209683742,1.0416666666666667,2105,0.24460434913635254,0.01094606336820541,0.010452567356051972,-190.17588883258622,0.0
321,1.8960344791412354,-205.97586126735587,23.702908687610137,-127.96488804529824,-246.86094556303823,0.0,0.7930877232381928,0.1,0.017055988311767578,0.1813199520111084,0.05116348,0.13148734,-200.65128827788996,-0.09033464152167413,-2.656668574556295,0.0,2087,0.32301783561706543,0.008471767744534326,0.008021938397938909,-192.89027118246645,0.0
322,1.807408332824707,-198.7503123826103,24.100548454814998,-126.3530505779901,-246.18262668328674,0.0,0.704866692421136,0.1,0.005190610885620117,0.14064431190490723,0.050291754,0.16165431,-200.46119068836202,-0.08862358454327314,-2.5606187732366723,0.0,2095,0.32081174850463867,0.009014451526795855,0.00851504385463469,-191.87423096617835,0.0
323,1.9185304641723633,-196.62552247540532,25.910960571663264,-101.97633566167733,-236.32468327829724,1.0416666666666667,0.7612157782281197,0.1,0.00646662712097168,0.15066766738891602,0.049641043,0.18577643,-200.07762386706636,-0.08767563914633036,-2.531914420617502,1.0416666666666667,2095,0.3201150894165039,0.009639095991917599,0.009249275637485399,-188.48452802180898,0.0
324,1.906935214996338,-199.77301257601502,26.138553413403333,-128.2882030201127,-258.6092186563938,0.0,0.7494814275099299,0.1,0.006935596466064453,0.15398120880126953,0.049793553,0.14392588,-200.04716273796123,-0.08915281995475614,-2.5741611275698957,0.0,2087,0.3255271911621094,0.009907136159284083,0.009661774068589904,-190.09337787267347,0.0
325,1.9779667854309082,-199.69913915097118,23.651090481113748,-140.03338087747542,-273.9635062911207,0.0,0.7502177532638605,0.1,0.007030010223388672,0.15668487548828125,0.049972694,0.13663077,-200.01236037926225,-0.0882865246697872,-2.5737014981943633,0.0,2105,0.33112359046936035,0.00958276302159686,0.008939205698195927,-192.50400380889954,0.0
326,1.9605522155761719,-204.10039592797548,24.914321404340306,-139.24165316627779,-252.18839882945713,0.0,0.7983234612509909,0.1,0.00528407096862793,0.11281085014343262,0.049900748,0.13590306,-200.42116393413357,-0.08809346833476091,-2.630304977969932,0.0,2157,0.31632161140441895,0.008275447352062494,0.008152826926449017,-191.16743816924043,0.0
327,2.0767765045166016,-199.74863586859973,26.70331601336201,-104.11936460449303,-269.0005059202947,1.0416666666666667,0.8215290088811262,0.1,0.00651097297668457,0.14811301231384277,0.049973752,0.13528094,-200.3539111275802,-0.08915909263238087,-2.574854680381148,1.0416666666666667,2076,0.3116025924682617,0.010098086042155003,0.010087801794388935,-189.74258640725282,0.0
328,2.044628381729126,-200.44349409888022,28.77724601116282,-110.6204403665421,-255.46167315344405,0.0,0.7622539190836546,0.1,0.006874799728393555,0.15419387817382812,0.050485227,0.15431307,-200.3628694247102,-0.08709468966715202,-2.5822168443245976,0.0,2156,0.3319263458251953,0.011955330035692638,0.01101940198774892,-187.87425591927882,6.25
329,2.06522536277771,-204.29117098554585,28.8812601262761,-122.22906757378504,-262.463005949624,1.0416666666666667,0.7711843585344421,0.1,0.014080047607421875,0.12717247009277344,0.050462563,0.14001918,-200.75569958079376,-0.08810366252352682,-2.634185297359068,1.0416666666666667,2168,0.22736907005310059,0.010276243818278985,0.01006979587566562,-187.30487268324018,6.25
330,2.214129686355591,-200.3061884756174,24.27101935557662,-141.61434602035882,-246.85302779794534,0.0,0.7569922166799343,0.1,0.007575511932373047,0.15866708755493164,0.049484305,0.14336857,-200.71074847027614,-0.08840094460234127,-2.5814534024153475,0.0,2109,0.3256642818450928,0.008226445996014188,0.007553641687232189,-191.56204123114503,6.25
331,2.047675132751465,-202.57244711557055,24.62502124702818,-122.49874210084239,-254.09439156323617,1.0416666666666667,0.7645992496951031,0.1,0.023402690887451172,0.16441035270690918,0.050568383,0.15297782,-200.8969183348056,-0.08836470198853381,-2.6121318312321367,1.0416666666666667,2121,0.3433516025543213,0.009474518084523341,0.009373278624902975,-193.85707376366756,6.25
332,2.498072624206543,-198.02102861505412,30.126687588675676,-109.57372574036745,-250.56519255229244,1.0416666666666667,0.6874525275187116,0.1,0.020916223526000977,0.17902612686157227,0.050091702,0.15654029,-200.60932936283047,-0.08678364677114386,-2.549819292104509,1.0416666666666667,2131,0.3484647274017334,0.011732986499963644,0.01117403006892447,-187.61543799322016,6.25
333,2.152125358581543,-197.27769600913447,32.40780465516025,-112.2113844073653,-275.16917334036924,2.0833333333333335,0.7472281570470112,0.1,0.0052411556243896484,0.12306761741638184,0.050425556,0.1444095,-200.27616602746087,-0.08727614510089704,-2.5413108252301235,2.0833333333333335,2133,0.24452710151672363,0.01335434747619064,0.01294556004058481,-191.03521576834711,6.25
334,2.1112632751464844,-200.98115543079166,28.29983266114613,-116.50101183852202,-257.170784974216,0.0,0.7528505532046519,0.1,0.005078315734863281,0.16747736930847168,0.05021014,0.15338962,-200.34666496779394,-0.0873829529901707,-2.5903218678534845,0.0,2145,0.3341856002807617,0.011096756553060399,0.010515951385081879,-193.10685581295144,6.25
335,2.295758008956909,-201.43288124317493,28.217684848577683,-128.65499252753773,-263.69293327838864,0.0,0.8215300003312127,0.1,0.0165102481842041,0.15875649452209473,0.049076993,0.13057615,-200.45528659533204,-0.08845697361357611,-2.5976306100675597,0.0,2121,0.39026641845703125,0.011239785020359135,0.01108688610970515,-192.8814382271296,6.25
336,2.302210807800293,-196.68354909601953,27.79131912636979,-122.3578969838436,-253.6186789789499,1.0416666666666667,0.7261207318129154,0.1,0.016553401947021484,0.15719366073608398,0.0500726,0.16039805,-200.0781128454008,-0.08670876637371838,-2.533596621888808,1.0416666666666667,2130,0.3324878215789795,0.00999966526853528,0.009729339246890154,-196.8225283682263,6.25
