Iter | Sampling Pol | Evaluation Pol | Best (Sampled) 
   0 -20.48 -114.25 -100000000.00 
   1 62.13 -98.24 -20.48 
   2 149.25 -69.71 62.13 
   3 223.99 -11.45 149.25 
   4 317.67 325.13 223.99 
   5 356.63 468.51 317.67 
   6 404.26 525.92 356.63 
   7 451.97 554.63 404.26 
   8 488.49 580.20 451.97 
   9 553.06 602.31 488.49 
  10 572.47 613.85 553.06 
  11 580.09 629.65 572.47 
  12 601.31 661.32 580.09 
  13 630.14 653.81 601.31 
  14 636.36 656.29 630.14 
  15 623.67 658.42 636.36 
  16 645.30 663.27 636.36 
  17 656.14 683.34 645.30 
  18 649.63 690.45 656.14 
  19 682.61 692.68 656.14 
  20 669.92 696.81 682.61 
  21 686.57 700.12 682.61 
  22 682.15 706.23 686.57 
  23 690.68 707.32 686.57 
  24 688.64 708.75 690.68 
  25 697.82 710.34 690.68 
  26 692.25 712.97 697.82 
  27 696.09 714.49 697.82 
  28 699.80 719.13 697.82 
  29 702.51 717.05 699.80 
  30 707.03 718.92 702.51 
  31 707.62 721.01 707.03 
  32 708.04 722.23 707.62 
  33 711.30 724.12 708.04 
  34 706.57 722.33 711.30 
  35 709.37 723.21 711.30 
  36 705.45 724.82 711.30 
  37 706.45 724.37 711.30 
  38 708.57 725.12 711.30 
  39 712.05 726.56 711.30 
  40 714.26 728.42 712.05 
  41 716.44 727.47 714.26 
  42 714.97 727.15 716.44 
  43 711.32 729.76 716.44 
  44 714.91 730.58 716.44 
  45 713.07 730.54 716.44 
  46 721.56 729.96 716.44 
  47 715.51 734.26 721.56 
  48 726.38 735.40 721.56 
  49 712.68 736.21 726.38 
  50 719.92 736.68 726.38 
  51 724.05 735.61 726.38 
  52 724.01 736.00 726.38 
  53 721.76 736.36 726.38 
  54 725.10 736.17 726.38 
  55 723.51 734.94 726.38 
  56 730.22 735.59 726.38 
  57 729.16 737.52 730.22 
  58 733.37 737.79 730.22 
  59 725.55 737.28 733.37 
  60 726.16 736.61 733.37 
  61 727.69 737.14 733.37 
  62 727.63 739.21 733.37 
  63 731.80 740.36 733.37 
  64 737.30 738.96 733.37 
  65 735.36 739.31 737.30 
  66 732.18 739.22 737.30 
  67 736.85 740.80 737.30 
  68 740.46 741.84 737.30 
  69 736.35 741.82 740.46 
  70 734.41 740.32 740.46 
  71 735.37 742.24 740.46 
  72 734.88 741.96 740.46 
  73 743.48 741.16 740.46 
  74 740.67 742.06 743.48 
  75 741.18 743.29 743.48 
  76 740.14 743.26 743.48 
  77 738.85 744.04 743.48 
  78 743.47 743.69 743.48 
  79 737.80 744.65 743.48 
  80 744.66 743.61 743.48 
  81 737.84 744.44 744.66 
  82 738.04 744.22 744.66 
  83 742.17 744.25 744.66 
  84 745.97 743.87 744.66 
  85 744.71 743.53 745.97 
  86 742.98 741.33 745.97 
  87 749.78 742.68 745.97 
  88 745.49 743.77 749.78 
  89 752.20 744.44 749.78 
  90 745.97 744.21 752.20 
  91 742.35 743.17 752.20 
  92 737.53 744.42 752.20 
  93 744.99 743.34 752.20 
  94 745.23 743.26 752.20 
  95 747.52 740.12 752.20 
  96 740.18 740.39 752.20 
  97 746.76 740.91 752.20 
  98 743.87 741.98 752.20 
  99 744.95 742.42 752.20 
 100 744.75 743.00 752.20 
 101 745.77 743.05 752.20 
 102 748.18 744.12 752.20 
 103 747.09 744.56 752.20 
 104 747.00 744.51 752.20 
 105 748.27 745.44 752.20 
 106 749.15 744.71 752.20 
 107 747.01 744.96 752.20 
 108 741.07 744.71 752.20 
 109 744.76 744.64 752.20 
 110 748.75 744.69 752.20 
 111 749.73 745.10 752.20 
 112 751.63 745.00 752.20 
 113 750.31 744.24 752.20 
 114 747.15 744.33 752.20 
 115 748.13 744.75 752.20 
 116 751.73 744.15 752.20 
 117 752.30 744.14 752.20 
 118 754.44 744.49 752.30 
 119 753.86 745.12 754.44 
 120 749.33 745.56 754.44 
 121 749.35 745.72 754.44 
 122 749.80 745.80 754.44 
 123 748.89 746.05 754.44 
 124 756.05 746.25 754.44 
 125 750.70 746.68 756.05 
 126 755.01 746.27 756.05 
 127 751.52 746.51 756.05 
 128 750.13 746.23 756.05 
 129 748.40 746.07 756.05 
 130 747.74 744.35 756.05 
 131 750.76 744.46 756.05 
 132 750.68 744.60 756.05 
 133 747.79 744.44 756.05 
 134 747.07 744.53 756.05 
 135 746.20 744.71 756.05 
 136 752.75 744.36 756.05 
 137 746.18 744.67 756.05 
 138 752.10 744.41 756.05 
 139 751.46 744.62 756.05 
 140 752.05 744.62 756.05 
 141 749.00 744.14 756.05 
 142 752.54 743.12 756.05 
 143 750.35 744.59 756.05 
 144 752.16 742.47 756.05 
 145 749.23 742.30 756.05 
 146 748.20 743.32 756.05 
 147 741.91 742.05 756.05 
 148 749.67 742.39 756.05 
 149 754.24 743.05 756.05 
 150 754.39 742.17 756.05 
 151 750.69 743.11 756.05 
 152 747.81 744.52 756.05 
 153 747.49 744.72 756.05 
 154 751.48 744.53 756.05 
 155 750.50 744.23 756.05 
 156 750.67 744.86 756.05 
 157 753.81 744.01 756.05 
 158 751.87 743.10 756.05 
 159 751.61 742.99 756.05 
 160 748.71 741.94 756.05 
 161 752.89 743.25 756.05 
 162 754.34 743.76 756.05 
 163 755.20 743.47 756.05 
 164 752.79 743.23 756.05 
 165 750.28 743.58 756.05 
 166 745.80 743.38 756.05 
 167 749.78 743.54 756.05 
 168 754.29 743.24 756.05 
 169 748.24 743.47 756.05 
 170 751.64 743.80 756.05 
 171 757.56 743.40 756.05 
 172 751.02 743.59 757.56 
 173 754.66 744.80 757.56 
 174 755.09 743.90 757.56 
 175 745.85 744.13 757.56 
 176 750.62 744.08 757.56 
 177 752.08 744.13 757.56 
 178 750.56 744.51 757.56 
 179 744.28 745.34 757.56 
 180 746.90 744.75 757.56 
 181 752.18 744.72 757.56 
 182 749.65 744.35 757.56 
 183 753.50 744.95 757.56 
 184 752.23 745.21 757.56 
 185 752.62 745.40 757.56 
 186 752.32 745.15 757.56 
 187 758.50 744.63 757.56 
 188 747.25 744.93 758.50 
 189 753.81 744.66 758.50 
 190 753.67 745.46 758.50 
 191 752.80 744.56 758.50 
 192 757.04 744.98 758.50 
 193 751.29 745.06 758.50 
 194 753.77 745.05 758.50 
 195 749.12 745.30 758.50 
 196 751.66 745.11 758.50 
 197 756.86 745.11 758.50 
 198 749.37 744.79 758.50 
 199 751.97 744.99 758.50 
 200 751.49 745.25 758.50 
 201 753.12 744.97 758.50 
 202 752.45 745.61 758.50 
 203 751.57 745.50 758.50 
 204 757.91 745.53 758.50 
 205 754.78 745.31 758.50 
 206 752.77 745.80 758.50 
 207 747.20 745.77 758.50 
 208 754.00 745.67 758.50 
 209 747.49 746.05 758.50 
 210 755.94 745.43 758.50 
 211 748.27 745.88 758.50 
 212 753.79 745.74 758.50 
 213 753.22 745.79 758.50 
 214 752.87 745.17 758.50 
 215 758.89 745.56 758.50 
 216 751.68 745.55 758.89 
 217 752.92 745.23 758.89 
 218 751.62 745.01 758.89 
 219 756.90 744.50 758.89 
 220 754.51 744.81 758.89 
 221 752.59 745.17 758.89 
 222 754.97 745.24 758.89 
 223 749.09 745.55 758.89 
 224 749.29 745.87 758.89 
 225 753.43 744.78 758.89 
 226 759.39 744.94 758.89 
 227 760.01 744.79 759.39 
 228 750.48 744.79 760.01 
 229 750.89 745.79 760.01 
 230 754.27 745.63 760.01 
 231 751.24 745.36 760.01 
 232 753.34 745.59 760.01 
 233 757.52 745.87 760.01 
 234 748.28 746.15 760.01 
 235 752.35 745.75 760.01 
 236 755.00 746.19 760.01 
 237 751.75 745.36 760.01 
 238 753.83 745.54 760.01 
 239 757.24 745.75 760.01 
 240 756.69 745.94 760.01 
 241 751.33 745.85 760.01 
 242 746.07 745.97 760.01 
 243 751.92 745.71 760.01 
 244 747.96 745.61 760.01 
 245 746.64 745.85 760.01 
 246 748.00 745.75 760.01 
 247 756.96 745.85 760.01 
 248 752.39 745.54 760.01 
 249 752.88 746.05 760.01 
 250 751.98 745.58 760.01 
 251 754.58 745.83 760.01 
 252 749.06 745.04 760.01 
 253 753.53 745.14 760.01 
 254 754.42 745.64 760.01 
 255 752.46 745.18 760.01 
 256 753.56 745.66 760.01 
 257 749.99 744.95 760.01 
 258 753.35 744.49 760.01 
 259 754.05 745.18 760.01 
 260 755.56 745.54 760.01 
 261 753.15 745.37 760.01 
 262 750.59 745.26 760.01 
 263 754.38 744.86 760.01 
 264 750.55 745.34 760.01 
 265 755.03 744.85 760.01 
 266 753.45 745.39 760.01 
 267 757.23 745.48 760.01 
 268 749.92 745.54 760.01 
 269 753.21 745.55 760.01 
 270 757.41 746.08 760.01 
 271 751.33 746.43 760.01 
 272 752.81 746.10 760.01 
 273 756.24 746.96 760.01 
 274 753.14 746.73 760.01 
 275 751.69 746.65 760.01 
 276 756.11 746.69 760.01 
 277 749.28 746.63 760.01 
 278 753.59 746.37 760.01 
 279 749.79 746.90 760.01 
 280 756.82 746.71 760.01 
 281 754.39 746.47 760.01 
 282 754.56 746.32 760.01 
 283 757.22 746.01 760.01 
 284 754.65 746.18 760.01 
 285 754.16 745.79 760.01 
 286 754.08 745.71 760.01 
 287 763.39 744.71 760.01 
 288 763.09 743.70 763.39 
 289 748.73 742.99 763.39 
 290 755.29 744.07 763.39 
 291 753.25 744.14 763.39 
 292 754.38 744.94 763.39 
 293 752.86 745.89 763.39 
 294 755.48 745.71 763.39 
 295 754.65 745.34 763.39 
 296 747.20 745.76 763.39 
 297 754.49 745.65 763.39 
 298 747.43 745.04 763.39 
 299 743.90 745.09 763.39 
 300 751.04 744.72 763.39 
 301 752.45 745.18 763.39 
 302 755.17 745.29 763.39 
 303 757.69 745.53 763.39 
 304 752.69 745.41 763.39 
 305 756.30 745.87 763.39 
 306 748.10 745.69 763.39 
 307 753.00 745.68 763.39 
 308 757.05 745.92 763.39 
 309 753.26 745.87 763.39 
 310 754.62 745.38 763.39 
 311 754.49 744.62 763.39 
 312 751.41 744.77 763.39 
 313 755.88 744.89 763.39 
 314 750.43 744.04 763.39 
 315 758.71 744.24 763.39 
 316 757.36 744.46 763.39 
 317 759.89 743.86 763.39 
 318 752.15 744.16 763.39 
 319 750.48 744.37 763.39 
 320 747.36 744.63 763.39 
 321 751.50 744.51 763.39 
 322 755.90 744.96 763.39 
 323 757.56 745.01 763.39 
 324 761.29 745.53 763.39 
 325 752.65 745.09 763.39 
 326 749.07 745.41 763.39 
 327 753.47 744.24 763.39 
 328 756.33 744.76 763.39 
 329 750.88 744.97 763.39 
 330 754.72 745.19 763.39 
 331 756.14 745.35 763.39 
 332 750.78 745.36 763.39 
 333 755.78 745.40 763.39 
 334 751.68 744.52 763.39 
 335 750.38 743.60 763.39 
 336 756.97 744.58 763.39 
 337 755.24 744.54 763.39 
 338 753.49 744.69 763.39 
 339 753.20 745.44 763.39 
 340 757.55 745.11 763.39 
 341 750.16 745.89 763.39 
 342 757.14 746.00 763.39 
 343 749.59 746.34 763.39 
 344 757.66 746.01 763.39 
 345 751.39 745.73 763.39 
 346 758.36 745.44 763.39 
 347 750.79 745.22 763.39 
 348 751.11 745.35 763.39 
 349 750.95 745.96 763.39 
 350 753.08 746.15 763.39 
 351 756.21 746.33 763.39 
 352 761.19 746.06 763.39 
 353 754.75 745.84 763.39 
 354 749.27 745.61 763.39 
 355 750.87 745.50 763.39 
 356 753.89 745.77 763.39 
 357 756.80 745.71 763.39 
 358 752.91 746.16 763.39 
 359 759.18 745.98 763.39 
 360 758.68 746.01 763.39 
 361 759.80 745.64 763.39 
 362 753.45 744.80 763.39 
 363 754.53 744.60 763.39 
 364 755.63 744.53 763.39 
 365 757.60 744.04 763.39 
 366 755.32 744.83 763.39 
 367 750.42 744.98 763.39 
 368 759.74 745.33 763.39 
 369 753.39 745.35 763.39 
 370 748.51 744.42 763.39 
 371 755.49 744.78 763.39 
 372 757.42 745.32 763.39 
 373 756.60 745.06 763.39 
 374 757.94 745.12 763.39 
 375 755.57 745.15 763.39 
 376 757.44 744.77 763.39 
 377 752.17 744.68 763.39 
 378 758.60 744.18 763.39 
 379 753.54 744.23 763.39 
 380 754.17 745.47 763.39 
 381 755.62 744.94 763.39 
 382 756.86 743.95 763.39 
 383 757.26 743.79 763.39 
 384 746.96 743.51 763.39 
 385 754.01 743.40 763.39 
 386 750.19 743.13 763.39 
 387 756.07 741.87 763.39 
 388 748.99 742.02 763.39 
 389 754.42 740.61 763.39 
 390 757.50 740.54 763.39 
 391 755.48 741.34 763.39 
 392 758.24 741.36 763.39 
 393 755.41 742.48 763.39 
 394 758.00 742.33 763.39 
 395 750.72 742.87 763.39 
 396 758.16 742.73 763.39 
 397 747.89 742.37 763.39 
 398 754.67 742.32 763.39 
 399 754.35 741.63 763.39 
 400 747.84 742.57 763.39 
 401 748.64 742.42 763.39 
 402 752.98 742.34 763.39 
 403 747.73 742.21 763.39 
 404 752.91 743.23 763.39 
 405 758.25 743.43 763.39 
 406 752.92 742.76 763.39 
 407 756.08 743.54 763.39 
 408 755.70 743.95 763.39 
 409 758.21 744.17 763.39 
 410 754.77 744.28 763.39 
 411 747.62 744.82 763.39 
 412 753.11 745.39 763.39 
 413 747.80 745.48 763.39 
 414 757.17 745.43 763.39 
 415 754.35 745.38 763.39 
 416 751.63 745.65 763.39 
 417 748.95 745.51 763.39 
 418 751.92 745.46 763.39 
 419 756.72 744.65 763.39 
 420 754.17 745.23 763.39 
 421 749.39 745.43 763.39 
 422 753.54 745.62 763.39 
 423 753.53 744.85 763.39 
 424 754.44 745.52 763.39 
 425 752.38 744.53 763.39 
 426 751.18 744.22 763.39 
 427 753.47 743.83 763.39 
 428 751.69 743.83 763.39 
 429 750.37 743.90 763.39 
 430 753.22 744.38 763.39 
 431 750.21 744.09 763.39 
 432 754.23 745.05 763.39 
 433 753.50 745.24 763.39 
 434 753.47 744.60 763.39 
 435 752.13 745.04 763.39 
 436 750.48 744.44 763.39 
 437 754.13 745.15 763.39 
 438 748.37 745.33 763.39 
 439 754.96 746.07 763.39 
 440 758.81 746.15 763.39 
 441 753.12 745.72 763.39 
 442 751.14 745.96 763.39 
 443 753.50 745.97 763.39 
 444 754.51 745.81 763.39 
 445 763.16 745.09 763.39 
 446 752.67 745.13 763.39 
 447 756.57 745.31 763.39 
 448 751.51 745.02 763.39 
 449 755.04 745.11 763.39 
 450 754.49 745.14 763.39 
 451 753.99 745.11 763.39 
 452 754.54 744.52 763.39 
 453 756.69 745.03 763.39 
 454 758.09 745.31 763.39 
 455 751.22 744.95 763.39 
 456 757.99 744.68 763.39 
 457 751.08 745.25 763.39 
 458 756.31 744.54 763.39 
 459 755.74 745.09 763.39 
 460 750.53 745.43 763.39 
 461 754.15 745.48 763.39 
 462 752.93 746.08 763.39 
 463 755.21 746.21 763.39 
 464 755.72 746.33 763.39 
 465 753.25 746.17 763.39 
 466 756.18 746.00 763.39 
 467 759.06 746.03 763.39 
 468 748.61 745.97 763.39 
 469 755.41 745.65 763.39 
 470 743.35 744.75 763.39 
 471 757.33 745.26 763.39 
 472 749.56 745.19 763.39 
 473 755.78 745.45 763.39 
 474 755.86 745.64 763.39 
 475 751.33 745.59 763.39 
 476 750.67 745.76 763.39 
 477 748.35 745.36 763.39 
 478 749.35 745.31 763.39 
 479 754.66 745.51 763.39 
 480 752.62 745.24 763.39 
 481 755.78 744.67 763.39 
 482 754.11 744.91 763.39 
 483 757.12 745.44 763.39 
 484 757.65 745.34 763.39 
 485 753.12 745.65 763.39 
 486 753.92 745.95 763.39 
 487 757.33 746.12 763.39 
 488 757.97 745.80 763.39 
 489 759.89 746.06 763.39 
 490 750.28 746.15 763.39 
 491 758.73 746.32 763.39 
 492 755.63 746.19 763.39 
 493 751.27 746.41 763.39 
 494 754.38 746.55 763.39 
 495 759.47 745.80 763.39 
 496 754.36 745.85 763.39 
 497 749.58 745.97 763.39 
 498 755.83 745.47 763.39 
 499 754.56 745.70 763.39 
 500 756.84 745.54 763.39 
 501 752.94 746.11 763.39 
 502 760.61 745.56 763.39 
 503 747.78 745.69 763.39 
 504 759.51 745.31 763.39 
 505 755.85 744.97 763.39 
 506 754.73 745.13 763.39 
 507 753.66 745.51 763.39 
 508 752.74 745.57 763.39 
 509 755.75 745.49 763.39 
 510 757.86 745.70 763.39 
 511 752.69 745.72 763.39 
 512 751.38 745.63 763.39 
 513 752.18 745.31 763.39 
 514 756.47 745.66 763.39 
 515 759.99 745.67 763.39 
 516 754.97 746.32 763.39 
 517 754.18 746.24 763.39 
 518 753.16 746.16 763.39 
 519 754.62 746.07 763.39 
 520 753.98 745.98 763.39 
 521 757.29 745.99 763.39 
 522 754.94 746.16 763.39 
 523 758.50 746.64 763.39 
 524 754.21 746.50 763.39 
 525 753.75 746.03 763.39 
 526 752.92 746.07 763.39 
 527 750.07 746.29 763.39 
 528 753.09 745.56 763.39 
 529 755.79 745.65 763.39 
 530 756.48 745.82 763.39 
 531 756.36 745.85 763.39 
 532 749.16 746.09 763.39 
 533 753.88 746.05 763.39 
 534 752.71 745.67 763.39 
 535 754.74 746.25 763.39 
 536 755.09 746.26 763.39 
 537 758.96 745.73 763.39 
 538 752.68 745.69 763.39 
 539 751.93 745.67 763.39 
 540 755.02 746.40 763.39 
 541 755.07 745.86 763.39 
 542 756.32 745.89 763.39 
 543 752.90 745.22 763.39 
 544 754.45 745.39 763.39 
 545 751.36 745.16 763.39 
 546 754.60 744.60 763.39 
 547 753.77 743.97 763.39 
 548 751.13 744.01 763.39 
 549 758.73 744.12 763.39 
 550 749.58 743.20 763.39 
 551 751.53 744.10 763.39 
 552 752.05 744.09 763.39 
 553 753.61 744.23 763.39 
 554 748.19 744.37 763.39 
 555 758.23 745.12 763.39 
 556 752.79 745.60 763.39 
 557 754.07 745.87 763.39 
 558 746.87 745.33 763.39 
 559 755.18 745.70 763.39 
 560 754.95 745.52 763.39 
 561 758.02 745.47 763.39 
 562 750.46 745.27 763.39 
 563 753.62 745.31 763.39 
 564 747.65 745.46 763.39 
 565 750.67 745.52 763.39 
 566 756.83 745.03 763.39 
 567 753.55 745.18 763.39 
 568 753.14 745.45 763.39 
 569 755.84 745.26 763.39 
 570 758.34 745.13 763.39 
 571 754.57 745.43 763.39 
 572 753.80 745.41 763.39 
 573 752.67 745.26 763.39 
 574 753.04 745.04 763.39 
 575 752.57 744.99 763.39 
 576 757.70 745.24 763.39 
 577 754.13 745.54 763.39 
 578 751.75 745.44 763.39 
 579 755.98 745.96 763.39 
 580 756.59 745.17 763.39 
 581 758.94 745.42 763.39 
 582 756.77 744.42 763.39 
 583 754.42 744.33 763.39 
 584 750.81 744.65 763.39 
 585 750.14 744.66 763.39 
 586 754.38 744.59 763.39 
 587 752.64 744.45 763.39 
 588 758.15 744.42 763.39 
 589 752.73 744.38 763.39 
 590 751.68 744.75 763.39 
 591 755.25 744.67 763.39 
 592 750.76 744.19 763.39 
 593 750.98 744.18 763.39 
 594 750.19 744.58 763.39 
 595 752.53 744.12 763.39 
 596 754.98 744.01 763.39 
 597 751.42 744.23 763.39 
 598 754.56 743.78 763.39 
 599 754.79 744.53 763.39 
 600 750.15 744.51 763.39 
 601 752.56 744.26 763.39 
 602 758.62 744.05 763.39 
 603 755.54 744.34 763.39 
 604 752.91 744.67 763.39 
 605 752.14 744.73 763.39 
 606 756.51 745.16 763.39 
 607 755.90 745.14 763.39 
 608 750.15 744.99 763.39 
 609 754.37 744.79 763.39 
 610 755.59 745.57 763.39 
 611 753.58 745.51 763.39 
 612 755.04 745.24 763.39 
 613 753.08 745.46 763.39 
 614 754.30 745.32 763.39 
 615 752.35 745.41 763.39 
 616 750.85 744.84 763.39 
 617 749.11 744.69 763.39 
 618 752.98 744.64 763.39 
 619 751.99 744.41 763.39 
 620 748.26 744.21 763.39 
 621 760.11 743.76 763.39 
 622 755.86 743.83 763.39 
 623 760.79 743.19 763.39 
 624 749.75 743.84 763.39 
 625 751.15 744.68 763.39 
 626 752.26 743.95 763.39 
 627 750.38 744.70 763.39 
 628 757.80 744.43 763.39 
 629 753.25 744.49 763.39 
 630 755.54 745.03 763.39 
 631 755.29 745.07 763.39 
 632 757.74 744.95 763.39 
 633 750.32 744.93 763.39 
 634 758.88 744.50 763.39 
 635 753.03 744.58 763.39 
 636 749.52 743.85 763.39 
 637 754.17 743.30 763.39 
 638 755.08 743.57 763.39 
 639 757.19 743.23 763.39 
 640 748.12 743.59 763.39 
 641 754.15 743.79 763.39 
 642 756.31 743.65 763.39 
 643 753.09 743.11 763.39 
 644 753.62 742.20 763.39 
 645 751.37 743.60 763.39 
 646 752.53 743.98 763.39 
 647 748.26 743.94 763.39 
 648 755.21 744.33 763.39 
 649 752.95 744.07 763.39 
 650 753.28 744.28 763.39 
 651 755.11 743.63 763.39 
 652 754.11 744.54 763.39 
 653 761.67 744.60 763.39 
 654 756.72 743.79 763.39 
 655 751.72 743.79 763.39 
 656 759.72 744.04 763.39 
 657 751.98 744.03 763.39 
 658 751.96 744.50 763.39 
 659 754.92 745.34 763.39 
 660 753.47 745.12 763.39 
 661 753.20 745.48 763.39 
 662 755.10 745.51 763.39 
 663 751.20 745.65 763.39 
 664 749.36 745.61 763.39 
 665 749.18 745.62 763.39 
 666 752.58 745.13 763.39 
 667 753.12 745.34 763.39 
 668 751.28 745.37 763.39 
 669 757.29 745.49 763.39 
 670 754.02 745.11 763.39 
 671 757.46 743.86 763.39 
 672 754.78 744.06 763.39 
 673 747.50 744.69 763.39 
 674 748.42 743.43 763.39 
 675 752.16 744.31 763.39 
 676 758.72 745.98 763.39 
 677 758.71 745.40 763.39 
 678 751.59 745.70 763.39 
 679 748.58 745.82 763.39 
 680 755.41 745.82 763.39 
 681 751.06 745.61 763.39 
 682 753.28 745.98 763.39 
 683 755.41 745.53 763.39 
 684 758.53 745.74 763.39 
 685 757.53 745.74 763.39 
 686 755.30 746.49 763.39 
 687 759.19 746.27 763.39 
 688 754.68 746.69 763.39 
 689 751.56 746.18 763.39 
 690 757.04 746.01 763.39 
 691 751.57 746.56 763.39 
 692 755.92 746.45 763.39 
 693 755.07 745.83 763.39 
 694 749.02 746.26 763.39 
 695 757.58 745.56 763.39 
 696 756.76 745.75 763.39 
 697 755.49 745.24 763.39 
 698 760.06 744.70 763.39 
 699 755.74 745.21 763.39 
 700 757.41 745.65 763.39 
 701 753.47 745.59 763.39 
 702 754.02 745.94 763.39 
 703 755.21 745.71 763.39 
 704 751.02 745.96 763.39 
 705 752.68 746.11 763.39 
 706 753.48 746.00 763.39 
 707 755.05 746.02 763.39 
 708 751.44 745.86 763.39 
 709 757.61 745.32 763.39 
 710 751.61 745.46 763.39 
 711 752.86 745.78 763.39 
 712 750.45 745.60 763.39 
 713 755.44 745.38 763.39 
 714 749.30 745.22 763.39 
 715 760.76 745.20 763.39 
 716 756.38 745.16 763.39 
 717 755.90 744.57 763.39 
 718 751.51 744.96 763.39 
 719 754.03 744.90 763.39 
 720 755.58 744.13 763.39 
 721 750.39 744.32 763.39 
 722 751.84 744.50 763.39 
 723 755.28 743.96 763.39 
 724 751.68 743.86 763.39 
 725 746.71 744.42 763.39 
 726 755.07 744.07 763.39 
 727 761.56 744.44 763.39 
 728 754.21 745.22 763.39 
 729 756.65 745.55 763.39 
 730 756.15 745.86 763.39 
 731 752.60 746.09 763.39 
 732 756.56 746.41 763.39 
 733 755.66 746.07 763.39 
 734 752.61 745.92 763.39 
 735 753.90 746.08 763.39 
 736 750.95 746.00 763.39 
 737 756.64 746.11 763.39 
 738 754.14 746.02 763.39 
 739 759.03 745.94 763.39 
 740 754.08 744.88 763.39 
 741 753.63 745.70 763.39 
 742 755.27 745.13 763.39 
 743 757.20 745.69 763.39 
 744 755.97 745.71 763.39 
 745 757.56 745.28 763.39 
 746 750.19 744.84 763.39 
 747 751.06 745.05 763.39 
 748 753.81 744.57 763.39 
 749 754.17 745.94 763.39 
 750 754.41 746.39 763.39 
 751 752.15 745.99 763.39 
 752 756.81 745.98 763.39 
 753 750.14 745.86 763.39 
 754 748.65 745.42 763.39 
 755 754.44 746.02 763.39 
 756 752.82 745.47 763.39 
 757 755.00 746.58 763.39 
 758 756.63 746.78 763.39 
 759 757.76 746.33 763.39 
 760 751.22 746.96 763.39 
 761 757.34 746.98 763.39 
 762 759.17 747.13 763.39 
 763 754.52 746.72 763.39 
 764 753.23 746.81 763.39 
 765 753.94 746.93 763.39 
 766 751.87 746.96 763.39 
 767 755.98 747.06 763.39 
 768 749.58 747.05 763.39 
 769 755.50 746.85 763.39 
 770 756.45 745.83 763.39 
 771 755.46 746.48 763.39 
 772 756.54 746.91 763.39 
 773 760.25 747.11 763.39 
 774 754.80 746.67 763.39 
 775 753.20 746.91 763.39 
 776 756.09 747.30 763.39 
 777 756.59 747.10 763.39 
 778 759.62 747.09 763.39 
 779 758.35 747.19 763.39 
 780 757.20 747.35 763.39 
 781 752.45 747.42 763.39 
 782 754.03 747.29 763.39 
 783 756.01 747.35 763.39 
 784 756.88 747.44 763.39 
 785 758.05 747.35 763.39 
 786 754.57 747.12 763.39 
 787 753.39 746.83 763.39 
 788 754.89 747.22 763.39 
 789 755.34 747.30 763.39 
 790 751.74 747.08 763.39 
 791 752.25 746.51 763.39 
 792 754.04 746.56 763.39 
 793 755.50 746.78 763.39 
 794 755.36 746.85 763.39 
 795 755.43 746.32 763.39 
 796 755.80 747.54 763.39 
 797 754.91 747.26 763.39 
 798 749.86 746.93 763.39 
 799 754.61 746.44 763.39 
 800 759.48 746.41 763.39 
 801 754.00 746.52 763.39 
 802 758.15 747.35 763.39 
 803 754.29 747.50 763.39 
 804 753.05 747.85 763.39 
 805 758.21 747.32 763.39 
 806 749.44 747.53 763.39 
 807 754.55 747.37 763.39 
 808 759.88 747.02 763.39 
 809 754.48 746.63 763.39 
 810 755.58 746.92 763.39 
 811 759.17 747.32 763.39 
 812 752.78 747.53 763.39 
 813 756.68 747.33 763.39 
 814 752.79 747.72 763.39 
 815 754.06 747.42 763.39 
 816 755.30 747.30 763.39 
 817 759.24 747.10 763.39 
 818 751.83 747.38 763.39 
 819 754.24 747.65 763.39 
 820 753.19 747.41 763.39 
 821 751.41 747.32 763.39 
 822 753.83 747.53 763.39 
 823 754.88 747.58 763.39 
 824 753.43 747.44 763.39 
 825 758.27 748.11 763.39 
 826 753.22 747.57 763.39 
 827 757.65 747.38 763.39 
 828 752.50 746.69 763.39 
 829 755.70 746.73 763.39 
 830 757.15 746.98 763.39 
 831 755.16 746.78 763.39 
 832 755.92 747.30 763.39 
 833 754.72 747.43 763.39 
 834 750.40 747.57 763.39 
 835 756.36 747.57 763.39 
 836 753.22 747.77 763.39 
 837 753.54 747.49 763.39 
 838 755.41 746.69 763.39 
 839 754.97 747.10 763.39 
 840 755.48 747.59 763.39 
 841 754.58 746.96 763.39 
 842 754.70 747.41 763.39 
 843 753.76 747.65 763.39 
 844 756.26 747.34 763.39 
 845 749.84 747.22 763.39 
 846 751.35 747.34 763.39 
 847 752.74 747.32 763.39 
 848 751.92 747.36 763.39 
 849 757.22 747.48 763.39 
 850 756.68 747.38 763.39 
 851 754.24 747.54 763.39 
 852 752.66 747.62 763.39 
 853 751.98 747.74 763.39 
 854 757.33 747.70 763.39 
 855 756.86 747.53 763.39 
 856 748.51 747.60 763.39 
 857 756.96 747.82 763.39 
 858 752.71 747.51 763.39 
 859 748.66 747.20 763.39 
 860 758.04 747.29 763.39 
 861 754.51 747.49 763.39 
 862 752.29 747.31 763.39 
 863 757.18 747.89 763.39 
 864 757.71 747.29 763.39 
 865 754.54 747.34 763.39 
 866 753.46 747.46 763.39 
 867 751.20 747.75 763.39 
 868 751.13 747.75 763.39 
 869 752.05 747.72 763.39 
 870 754.32 748.14 763.39 
 871 755.73 747.55 763.39 
 872 754.45 747.35 763.39 
 873 749.51 747.74 763.39 
 874 753.45 747.74 763.39 
 875 758.35 747.67 763.39 
 876 754.25 747.36 763.39 
 877 757.92 747.23 763.39 
 878 757.47 747.30 763.39 
 879 755.81 747.41 763.39 
 880 750.15 747.39 763.39 
 881 755.69 747.61 763.39 
 882 757.76 747.77 763.39 
 883 755.82 747.76 763.39 
 884 757.53 747.90 763.39 
 885 750.19 748.04 763.39 
 886 754.61 748.13 763.39 
 887 761.18 748.23 763.39 
 888 756.32 748.26 763.39 
 889 755.96 748.23 763.39 
 890 750.51 747.96 763.39 
 891 752.22 747.89 763.39 
 892 756.94 747.87 763.39 
 893 752.06 747.50 763.39 
 894 757.13 747.53 763.39 
 895 752.35 747.61 763.39 
 896 752.15 747.32 763.39 
 897 752.85 747.30 763.39 
 898 759.53 747.28 763.39 
 899 754.87 747.40 763.39 
 900 755.83 747.60 763.39 
 901 751.87 747.44 763.39 
 902 758.36 747.13 763.39 
 903 755.82 747.65 763.39 
 904 753.80 747.32 763.39 
 905 752.77 747.37 763.39 
 906 744.54 747.24 763.39 
 907 751.01 747.33 763.39 
 908 754.29 747.36 763.39 
 909 759.17 747.32 763.39 
 910 756.03 747.10 763.39 
 911 755.44 747.51 763.39 
 912 747.95 747.18 763.39 
 913 753.56 747.46 763.39 
 914 755.95 747.29 763.39 
 915 754.37 747.41 763.39 
 916 750.88 747.33 763.39 
 917 753.20 747.39 763.39 
 918 753.00 747.62 763.39 
 919 749.04 747.73 763.39 
 920 753.28 747.80 763.39 
 921 747.61 747.85 763.39 
 922 759.96 747.71 763.39 
 923 756.91 747.72 763.39 
 924 759.05 747.62 763.39 
 925 750.24 747.59 763.39 
 926 759.69 747.77 763.39 
 927 755.96 747.83 763.39 
 928 751.59 748.06 763.39 
 929 750.88 747.77 763.39 
 930 752.16 747.62 763.39 
 931 751.97 746.63 763.39 
 932 759.21 747.99 763.39 
 933 757.89 747.44 763.39 
 934 755.47 746.60 763.39 
 935 753.22 746.59 763.39 
 936 756.06 746.49 763.39 
 937 751.83 746.49 763.39 
 938 757.82 746.22 763.39 
 939 756.63 745.96 763.39 
 940 750.93 745.61 763.39 
 941 750.62 746.08 763.39 
 942 750.52 746.38 763.39 
 943 759.67 746.16 763.39 
 944 750.92 746.87 763.39 
 945 756.21 746.59 763.39 
 946 753.94 746.90 763.39 
 947 760.41 746.68 763.39 
 948 755.09 746.88 763.39 
 949 755.66 746.92 763.39 
 950 753.81 747.08 763.39 
 951 761.62 746.78 763.39 
 952 758.60 747.11 763.39 
 953 757.38 747.05 763.39 
 954 757.33 746.99 763.39 
 955 750.94 747.10 763.39 
 956 751.99 746.73 763.39 
 957 751.30 746.23 763.39 
 958 753.53 745.94 763.39 
 959 754.73 746.33 763.39 
 960 749.22 746.49 763.39 
 961 759.14 746.23 763.39 
 962 754.73 745.53 763.39 
 963 754.27 746.32 763.39 
 964 759.56 745.77 763.39 
 965 755.44 746.49 763.39 
 966 755.31 746.47 763.39 
 967 748.73 746.80 763.39 
 968 757.38 747.18 763.39 
 969 753.66 747.04 763.39 
 970 752.89 747.05 763.39 
 971 757.88 746.87 763.39 
 972 750.12 746.81 763.39 
 973 750.29 746.54 763.39 
 974 755.03 746.95 763.39 
 975 751.09 746.45 763.39 
 976 755.91 747.09 763.39 
 977 752.87 746.86 763.39 
 978 759.18 746.79 763.39 
 979 755.34 746.65 763.39 
 980 754.70 747.10 763.39 
 981 755.35 746.47 763.39 
 982 750.17 747.04 763.39 
 983 757.19 746.70 763.39 
 984 755.10 746.45 763.39 
 985 757.46 746.49 763.39 
 986 757.33 746.93 763.39 
 987 755.68 746.85 763.39 
 988 752.38 747.20 763.39 
 989 753.25 747.10 763.39 
 990 755.33 747.17 763.39 
 991 758.94 747.41 763.39 
 992 749.35 747.11 763.39 
 993 757.58 747.15 763.39 
 994 751.34 747.13 763.39 
 995 748.58 747.37 763.39 
 996 749.53 747.19 763.39 
 997 753.73 747.17 763.39 
 998 753.74 747.33 763.39 
 999 757.98 747.10 763.39 
1000 751.79 746.88 763.39 
1001 757.39 747.08 763.39 
1002 756.13 747.30 763.39 
1003 757.69 747.42 763.39 
1004 755.31 747.50 763.39 
1005 758.02 747.43 763.39 
1006 753.40 747.76 763.39 
1007 754.71 747.28 763.39 
1008 762.87 747.29 763.39 
1009 757.21 747.21 763.39 
1010 756.20 747.37 763.39 
1011 759.31 747.25 763.39 
1012 754.88 747.19 763.39 
1013 756.58 747.53 763.39 
1014 765.11 747.85 763.39 
1015 754.90 747.13 765.11 
1016 759.67 747.06 765.11 
1017 754.12 746.72 765.11 
1018 755.40 746.86 765.11 
1019 753.71 746.67 765.11 
1020 754.82 746.24 765.11 
1021 753.38 747.19 765.11 
1022 754.33 747.44 765.11 
1023 755.83 747.41 765.11 
1024 759.18 747.41 765.11 
1025 749.43 747.57 765.11 
1026 748.15 747.39 765.11 
1027 754.42 747.06 765.11 
1028 752.12 747.01 765.11 
1029 749.51 746.52 765.11 
1030 751.22 746.76 765.11 
1031 756.33 746.72 765.11 
1032 752.44 747.24 765.11 
1033 748.12 747.30 765.11 
1034 754.09 747.25 765.11 
1035 756.23 747.23 765.11 
1036 749.15 746.96 765.11 
1037 757.07 746.55 765.11 
1038 754.11 746.67 765.11 
1039 756.02 746.86 765.11 
1040 756.47 746.98 765.11 
1041 745.24 746.83 765.11 
1042 753.88 746.71 765.11 
1043 754.90 746.67 765.11 
1044 753.20 746.57 765.11 
1045 753.08 746.46 765.11 
1046 760.65 746.90 765.11 
1047 755.99 746.77 765.11 
1048 750.47 746.67 765.11 
1049 753.43 747.10 765.11 
1050 752.03 747.05 765.11 
1051 755.81 747.09 765.11 
1052 755.62 745.91 765.11 
1053 756.59 746.11 765.11 
1054 759.08 746.08 765.11 
1055 744.53 745.78 765.11 
1056 752.90 745.90 765.11 
1057 752.74 746.56 765.11 
1058 751.87 746.42 765.11 
1059 754.43 745.65 765.11 
1060 754.25 745.84 765.11 
1061 751.58 745.95 765.11 
1062 751.33 746.01 765.11 
1063 751.21 745.87 765.11 
1064 753.68 745.72 765.11 
1065 753.72 745.48 765.11 
1066 753.06 745.44 765.11 
1067 755.30 745.84 765.11 
1068 753.75 746.08 765.11 
1069 753.28 746.67 765.11 
1070 755.24 746.32 765.11 
1071 752.31 746.16 765.11 
1072 750.90 746.24 765.11 
1073 754.18 746.34 765.11 
1074 754.16 746.48 765.11 
1075 748.70 746.50 765.11 
1076 748.51 746.17 765.11 
1077 754.31 746.50 765.11 
1078 756.02 746.34 765.11 
1079 752.11 747.10 765.11 
1080 754.28 747.26 765.11 
1081 753.48 747.07 765.11 
1082 754.97 747.09 765.11 
1083 753.26 747.11 765.11 
1084 756.34 747.17 765.11 
1085 754.74 746.98 765.11 
1086 753.40 747.36 765.11 
1087 754.70 747.03 765.11 
1088 748.83 747.04 765.11 
1089 757.38 746.40 765.11 
1090 758.67 745.37 765.11 
1091 753.10 745.32 765.11 
1092 753.65 745.20 765.11 
1093 754.37 744.99 765.11 
1094 753.73 745.18 765.11 
1095 752.67 745.17 765.11 
1096 752.82 745.09 765.11 
1097 755.13 745.40 765.11 
1098 751.15 745.24 765.11 
1099 753.01 745.17 765.11 
1100 756.60 745.17 765.11 
1101 754.59 744.82 765.11 
1102 754.80 744.84 765.11 
1103 755.56 745.13 765.11 
1104 754.12 744.92 765.11 
1105 756.01 745.22 765.11 
1106 752.13 745.53 765.11 
1107 751.49 745.38 765.11 
1108 754.03 745.40 765.11 
1109 754.15 745.41 765.11 
1110 756.40 745.17 765.11 
1111 757.91 745.40 765.11 
1112 757.86 745.99 765.11 
1113 754.52 745.94 765.11 
1114 760.36 746.29 765.11 
1115 752.94 746.02 765.11 
1116 750.02 745.99 765.11 
1117 758.25 745.93 765.11 
1118 748.77 745.52 765.11 
1119 751.04 745.41 765.11 
1120 758.36 745.43 765.11 
1121 751.41 744.99 765.11 
1122 754.75 744.75 765.11 
1123 749.99 744.79 765.11 
1124 746.85 745.46 765.11 
1125 755.03 745.05 765.11 
1126 754.73 744.79 765.11 
1127 752.45 744.37 765.11 
1128 754.22 743.76 765.11 
1129 755.12 743.84 765.11 
1130 752.57 743.31 765.11 
1131 751.31 743.12 765.11 
1132 757.09 742.00 765.11 
1133 748.69 743.14 765.11 
1134 752.73 743.25 765.11 
1135 751.95 743.08 765.11 
1136 750.97 743.08 765.11 
1137 752.36 743.31 765.11 
1138 754.01 742.51 765.11 
1139 754.26 742.60 765.11 
1140 753.96 742.12 765.11 
1141 755.95 744.19 765.11 
1142 753.60 744.22 765.11 
1143 745.60 744.16 765.11 
1144 747.88 744.61 765.11 
1145 751.57 744.60 765.11 
1146 750.37 745.37 765.11 
1147 759.55 745.39 765.11 
1148 755.00 745.81 765.11 
1149 751.78 745.86 765.11 
1150 752.44 745.65 765.11 
1151 753.72 746.11 765.11 
1152 749.56 745.68 765.11 
1153 751.48 745.65 765.11 
1154 752.87 745.20 765.11 
1155 754.08 745.40 765.11 
1156 752.33 745.48 765.11 
1157 752.07 745.08 765.11 
1158 757.89 745.52 765.11 
1159 757.04 745.89 765.11 
1160 756.68 746.31 765.11 
1161 756.86 746.27 765.11 
1162 755.86 746.11 765.11 
1163 756.92 745.41 765.11 
1164 752.42 745.28 765.11 
1165 752.42 745.44 765.11 
1166 754.91 745.86 765.11 
1167 753.65 745.35 765.11 
1168 755.27 745.41 765.11 
1169 756.20 745.71 765.11 
1170 754.91 745.69 765.11 
1171 752.50 745.81 765.11 
1172 755.62 746.22 765.11 
1173 752.81 746.29 765.11 
1174 756.50 746.64 765.11 
1175 755.92 746.54 765.11 
1176 755.63 746.56 765.11 
1177 755.60 745.84 765.11 
1178 755.14 746.59 765.11 
1179 753.12 746.29 765.11 
1180 757.49 746.33 765.11 
1181 755.11 745.91 765.11 
1182 755.36 746.24 765.11 
1183 757.04 746.08 765.11 
1184 757.34 745.51 765.11 
1185 754.44 745.65 765.11 
1186 749.89 745.66 765.11 
1187 752.03 745.79 765.11 
1188 754.89 746.30 765.11 
1189 752.92 745.71 765.11 
1190 750.45 745.72 765.11 
1191 750.64 745.50 765.11 
1192 756.95 745.81 765.11 
1193 754.07 745.25 765.11 
1194 752.32 745.52 765.11 
1195 753.88 745.68 765.11 
1196 754.02 745.42 765.11 
1197 752.05 745.22 765.11 
1198 757.85 745.14 765.11 
1199 756.33 745.05 765.11 
1200 755.83 745.32 765.11 
1201 754.32 745.65 765.11 
1202 750.36 746.02 765.11 
1203 753.93 746.22 765.11 
1204 753.84 745.96 765.11 
1205 756.90 746.09 765.11 
1206 756.21 746.51 765.11 
1207 751.40 746.75 765.11 
1208 756.39 746.73 765.11 
1209 753.61 746.52 765.11 
1210 756.11 746.67 765.11 
1211 756.81 746.46 765.11 
1212 750.78 746.60 765.11 
1213 753.14 747.05 765.11 
1214 758.69 747.21 765.11 
1215 753.14 746.43 765.11 
1216 755.12 746.72 765.11 
1217 753.95 746.91 765.11 
1218 758.04 745.71 765.11 
1219 758.02 746.05 765.11 
1220 755.45 746.37 765.11 
1221 755.91 746.62 765.11 
1222 757.52 746.47 765.11 
1223 752.76 745.79 765.11 
1224 757.90 745.69 765.11 
1225 758.22 745.47 765.11 
1226 747.23 744.18 765.11 
1227 753.39 744.94 765.11 
1228 756.62 745.51 765.11 
1229 751.56 744.78 765.11 
1230 751.94 745.93 765.11 
1231 754.17 745.47 765.11 
1232 756.31 744.83 765.11 
1233 751.36 744.80 765.11 
1234 757.17 744.85 765.11 
1235 750.42 745.34 765.11 
1236 753.88 745.92 765.11 
1237 750.60 745.84 765.11 
1238 752.11 746.35 765.11 
1239 752.38 747.06 765.11 
1240 755.14 746.82 765.11 
1241 753.52 746.88 765.11 
1242 761.21 746.84 765.11 
1243 753.32 746.79 765.11 
1244 760.12 746.56 765.11 
1245 755.51 745.68 765.11 
1246 761.38 746.31 765.11 
1247 750.36 746.35 765.11 
1248 752.59 746.57 765.11 
1249 752.90 746.23 765.11 
1250 751.61 745.65 765.11 
1251 755.94 745.61 765.11 
1252 754.31 745.84 765.11 
1253 756.45 746.55 765.11 
1254 746.20 746.49 765.11 
1255 753.82 746.50 765.11 
1256 758.07 745.90 765.11 
1257 754.60 746.48 765.11 
1258 756.32 745.70 765.11 
1259 752.04 746.22 765.11 
1260 754.80 746.04 765.11 
1261 753.80 746.24 765.11 
1262 756.42 745.55 765.11 
1263 755.59 745.05 765.11 
1264 754.61 745.28 765.11 
1265 756.81 744.36 765.11 
1266 750.67 744.78 765.11 
1267 755.84 744.80 765.11 
1268 756.66 744.72 765.11 
1269 763.10 744.51 765.11 
1270 761.33 745.10 765.11 
1271 752.67 745.18 765.11 
1272 751.07 745.26 765.11 
1273 754.30 745.61 765.11 
1274 756.93 745.20 765.11 
1275 753.26 745.27 765.11 
1276 753.94 745.18 765.11 
1277 748.46 745.24 765.11 
1278 752.78 745.34 765.11 
1279 749.09 745.53 765.11 
1280 759.07 745.39 765.11 
1281 755.33 745.83 765.11 
1282 745.66 745.76 765.11 
1283 753.14 745.43 765.11 
1284 752.85 745.37 765.11 
1285 755.63 745.57 765.11 
1286 749.72 745.77 765.11 
1287 750.04 745.53 765.11 
1288 753.07 745.78 765.11 
1289 759.74 746.01 765.11 
1290 753.72 746.06 765.11 
1291 749.81 745.17 765.11 
1292 756.19 745.36 765.11 
1293 757.70 745.12 765.11 
1294 752.34 745.38 765.11 
1295 753.68 746.06 765.11 
1296 752.57 745.21 765.11 
1297 753.07 745.20 765.11 
1298 760.14 745.03 765.11 
1299 752.65 745.47 765.11 
1300 752.31 745.37 765.11 
1301 753.44 746.14 765.11 
1302 753.25 745.05 765.11 
1303 753.63 744.63 765.11 
1304 753.49 744.00 765.11 
1305 748.59 744.03 765.11 
1306 754.63 744.39 765.11 
1307 753.41 744.36 765.11 
1308 754.84 744.92 765.11 
1309 755.39 744.65 765.11 
1310 755.54 744.92 765.11 
1311 752.97 745.19 765.11 
1312 752.43 745.30 765.11 
1313 751.56 744.90 765.11 
1314 756.60 744.99 765.11 
1315 752.64 745.02 765.11 
1316 757.63 744.30 765.11 
1317 750.41 744.74 765.11 
1318 753.35 744.48 765.11 
1319 756.29 745.05 765.11 
1320 753.43 745.14 765.11 
1321 750.05 744.94 765.11 
1322 751.40 744.87 765.11 
1323 752.28 744.85 765.11 
1324 756.03 744.53 765.11 
1325 749.62 744.29 765.11 
1326 748.11 744.09 765.11 
1327 757.14 744.28 765.11 
1328 751.49 743.91 765.11 
1329 748.57 744.57 765.11 
1330 749.98 744.15 765.11 
1331 752.10 744.59 765.11 
1332 753.83 745.15 765.11 
1333 755.45 744.05 765.11 
1334 753.74 743.53 765.11 
1335 751.14 741.52 765.11 
1336 750.02 740.77 765.11 
1337 754.81 741.51 765.11 
1338 756.99 741.38 765.11 
1339 754.77 740.33 765.11 
1340 755.06 742.56 765.11 
1341 744.92 743.92 765.11 
1342 754.25 744.17 765.11 
1343 752.61 744.57 765.11 
1344 754.93 744.50 765.11 
1345 754.32 744.12 765.11 
1346 751.47 743.75 765.11 
1347 751.35 743.60 765.11 
1348 754.64 743.47 765.11 
1349 749.90 743.70 765.11 
1350 747.48 742.66 765.11 
1351 756.16 742.65 765.11 
1352 750.43 741.92 765.11 
1353 754.88 742.32 765.11 
1354 749.03 742.92 765.11 
1355 742.66 743.56 765.11 
1356 752.39 743.38 765.11 
1357 756.44 742.66 765.11 
1358 754.74 742.61 765.11 
1359 751.76 742.68 765.11 
1360 748.07 743.35 765.11 
1361 750.90 741.63 765.11 
1362 753.11 741.79 765.11 
1363 753.51 741.91 765.11 
1364 755.17 741.87 765.11 
1365 750.02 740.83 765.11 
1366 750.63 740.36 765.11 
1367 744.51 740.50 765.11 
1368 748.84 740.08 765.11 
1369 749.90 739.71 765.11 
1370 750.08 741.74 765.11 
1371 750.84 742.17 765.11 
1372 749.32 741.41 765.11 
1373 750.57 741.92 765.11 
1374 746.69 742.56 765.11 
1375 751.00 742.33 765.11 
1376 749.87 743.66 765.11 
1377 750.68 743.09 765.11 
1378 752.18 743.21 765.11 
1379 750.45 743.52 765.11 
1380 745.83 743.48 765.11 
1381 746.80 743.42 765.11 
1382 749.30 743.23 765.11 
1383 755.01 743.26 765.11 
1384 756.96 742.88 765.11 
1385 755.16 742.30 765.11 
1386 754.63 743.29 765.11 
1387 751.67 743.60 765.11 
1388 749.27 742.00 765.11 
1389 745.62 743.81 765.11 
1390 748.11 743.01 765.11 
1391 753.96 743.40 765.11 
1392 749.86 743.12 765.11 
1393 750.68 743.08 765.11 
1394 751.90 743.28 765.11 
1395 740.95 743.66 765.11 
1396 754.38 743.23 765.11 
1397 753.04 743.58 765.11 
1398 752.78 744.24 765.11 
1399 752.99 743.57 765.11 
1400 752.36 742.89 765.11 
1401 754.94 743.08 765.11 
1402 753.54 743.85 765.11 
1403 751.95 743.59 765.11 
1404 749.84 743.66 765.11 
1405 757.22 742.96 765.11 
1406 750.08 743.55 765.11 
1407 752.29 743.63 765.11 
1408 746.81 743.98 765.11 
1409 749.13 744.76 765.11 
1410 756.26 744.57 765.11 
1411 748.25 744.73 765.11 
1412 748.41 745.46 765.11 
1413 752.02 745.37 765.11 
1414 751.17 745.25 765.11 
1415 753.05 745.77 765.11 
1416 751.74 745.42 765.11 
1417 754.38 745.56 765.11 
1418 750.73 745.33 765.11 
1419 753.28 745.51 765.11 
1420 751.28 745.35 765.11 
1421 750.87 745.30 765.11 
1422 752.92 745.50 765.11 
1423 753.08 745.39 765.11 
1424 754.56 745.19 765.11 
1425 755.24 745.10 765.11 
1426 754.94 745.12 765.11 
1427 750.65 744.80 765.11 
1428 748.89 744.81 765.11 
1429 755.91 743.99 765.11 
1430 750.77 743.60 765.11 
1431 755.19 744.45 765.11 
1432 755.91 744.48 765.11 
1433 745.91 745.16 765.11 
1434 749.99 744.90 765.11 
1435 753.60 745.16 765.11 
1436 753.68 745.08 765.11 
1437 756.35 745.19 765.11 
1438 746.40 745.52 765.11 
1439 755.77 745.52 765.11 
1440 749.39 745.37 765.11 
1441 753.87 745.63 765.11 
1442 755.49 745.36 765.11 
1443 752.04 745.64 765.11 
1444 753.89 745.44 765.11 
1445 753.65 745.66 765.11 
1446 754.38 745.54 765.11 
1447 746.13 745.24 765.11 
1448 756.33 745.45 765.11 
1449 750.13 745.19 765.11 
1450 752.97 745.23 765.11 
1451 758.16 745.44 765.11 
1452 753.11 744.92 765.11 
1453 751.86 744.99 765.11 
1454 748.10 744.36 765.11 
1455 753.23 745.15 765.11 
1456 751.60 745.49 765.11 
1457 741.98 745.34 765.11 
1458 757.73 745.37 765.11 
1459 754.38 745.26 765.11 
1460 751.17 745.63 765.11 
1461 748.10 745.45 765.11 
1462 752.69 744.42 765.11 
1463 749.68 745.05 765.11 
1464 751.66 744.16 765.11 
1465 752.05 743.79 765.11 
1466 753.36 743.28 765.11 
1467 755.25 742.39 765.11 
1468 752.38 742.80 765.11 
1469 747.99 742.41 765.11 
1470 752.50 743.65 765.11 
1471 751.41 743.00 765.11 
1472 753.13 743.68 765.11 
1473 754.07 743.81 765.11 
1474 753.76 744.32 765.11 
1475 747.50 744.43 765.11 
1476 748.12 744.31 765.11 
1477 754.36 744.37 765.11 
1478 754.46 744.43 765.11 
1479 751.54 745.05 765.11 
1480 750.02 745.11 765.11 
1481 752.89 744.72 765.11 
1482 752.77 744.54 765.11 
1483 757.03 744.81 765.11 
1484 752.46 743.98 765.11 
1485 751.18 743.50 765.11 
1486 747.65 745.10 765.11 
1487 750.00 744.76 765.11 
1488 746.74 744.26 765.11 
1489 749.15 745.06 765.11 
1490 753.64 744.86 765.11 
1491 748.84 744.73 765.11 
1492 753.41 744.28 765.11 
1493 749.99 744.60 765.11 
1494 750.79 744.81 765.11 
1495 754.08 744.45 765.11 
1496 751.90 744.05 765.11 
1497 749.05 744.87 765.11 
1498 752.97 745.28 765.11 
1499 748.57 743.99 765.11 
1500 753.62 744.72 765.11 
1501 755.67 744.84 765.11 
1502 749.20 744.36 765.11 
1503 754.33 744.58 765.11 
1504 753.58 745.42 765.11 
1505 752.69 745.25 765.11 
1506 752.98 745.34 765.11 
1507 752.06 745.21 765.11 
1508 752.32 745.21 765.11 
1509 756.15 744.96 765.11 
1510 755.45 744.86 765.11 
1511 749.20 744.56 765.11 
1512 748.24 745.22 765.11 
1513 751.00 744.61 765.11 
1514 751.27 745.44 765.11 
1515 750.85 745.57 765.11 
1516 750.82 745.45 765.11 
1517 754.84 745.56 765.11 
1518 753.81 745.25 765.11 
1519 749.60 744.88 765.11 
1520 753.06 744.85 765.11 
1521 750.94 745.06 765.11 
1522 752.40 744.87 765.11 
1523 753.85 744.72 765.11 
1524 756.72 744.72 765.11 
1525 753.38 744.59 765.11 
1526 750.66 744.84 765.11 
1527 755.88 744.71 765.11 
1528 751.02 744.41 765.11 
1529 756.43 744.54 765.11 
1530 752.32 744.56 765.11 
1531 752.09 744.25 765.11 
1532 753.89 744.34 765.11 
1533 751.98 744.27 765.11 
1534 744.67 744.38 765.11 
1535 749.02 744.93 765.11 
1536 750.39 744.59 765.11 
1537 744.46 744.12 765.11 
1538 750.66 744.35 765.11 
1539 750.34 744.01 765.11 
1540 756.10 743.96 765.11 
1541 749.60 743.81 765.11 
1542 746.42 744.25 765.11 
1543 753.19 744.51 765.11 
1544 753.61 744.86 765.11 
1545 752.72 744.56 765.11 
1546 751.81 744.55 765.11 
1547 753.08 744.83 765.11 
1548 752.71 744.60 765.11 
1549 746.36 744.60 765.11 
1550 750.67 744.90 765.11 
1551 753.50 744.75 765.11 
1552 752.85 744.88 765.11 
1553 753.26 745.08 765.11 
1554 744.74 745.29 765.11 
1555 747.79 745.45 765.11 
1556 751.44 745.38 765.11 
1557 746.46 745.41 765.11 
1558 753.05 745.03 765.11 
1559 750.45 744.60 765.11 
1560 757.45 743.55 765.11 
1561 753.56 744.55 765.11 
1562 751.88 744.29 765.11 
1563 758.24 743.64 765.11 
1564 752.44 743.75 765.11 
1565 749.36 744.03 765.11 
1566 748.13 744.52 765.11 
1567 748.75 744.98 765.11 
1568 752.35 745.07 765.11 
1569 756.29 745.24 765.11 
1570 754.99 745.36 765.11 
1571 753.06 745.34 765.11 
1572 749.90 745.06 765.11 
1573 753.29 745.21 765.11 
1574 754.98 745.10 765.11 
1575 750.03 744.81 765.11 
1576 751.98 744.29 765.11 
1577 754.69 744.94 765.11 
1578 753.92 745.02 765.11 
1579 756.96 744.62 765.11 
1580 751.02 744.42 765.11 
1581 754.03 744.76 765.11 
1582 750.76 744.90 765.11 
1583 754.28 744.35 765.11 
1584 751.05 744.40 765.11 
1585 752.68 744.29 765.11 
1586 755.04 744.65 765.11 
1587 750.60 744.61 765.11 
1588 755.38 744.89 765.11 
1589 750.59 744.59 765.11 
1590 755.45 744.43 765.11 
1591 754.19 744.56 765.11 
1592 755.81 744.62 765.11 
1593 753.63 744.67 765.11 
1594 750.39 744.42 765.11 
1595 759.64 744.49 765.11 
1596 753.21 744.60 765.11 
1597 759.81 744.75 765.11 
1598 751.68 744.54 765.11 
1599 753.87 744.42 765.11 
1600 749.96 744.81 765.11 
1601 752.60 744.28 765.11 
1602 755.85 744.43 765.11 
1603 750.78 744.76 765.11 
1604 754.64 744.88 765.11 
1605 754.05 744.54 765.11 
1606 753.94 744.90 765.11 
1607 749.41 744.83 765.11 
1608 753.77 744.57 765.11 
1609 758.53 744.14 765.11 
1610 756.69 744.12 765.11 
1611 752.13 744.17 765.11 
1612 750.55 744.11 765.11 
1613 752.03 744.35 765.11 
1614 757.06 744.48 765.11 
1615 752.78 744.67 765.11 
1616 754.11 744.73 765.11 
1617 749.60 744.80 765.11 
1618 754.32 744.61 765.11 
1619 755.66 744.53 765.11 
1620 750.80 744.77 765.11 
1621 756.53 745.29 765.11 
1622 759.64 745.03 765.11 
1623 752.95 745.23 765.11 
1624 754.57 744.68 765.11 
1625 753.32 744.91 765.11 
1626 749.55 744.60 765.11 
1627 752.37 744.39 765.11 
1628 752.25 744.69 765.11 
1629 758.85 745.00 765.11 
1630 750.79 744.77 765.11 
1631 753.50 745.36 765.11 
1632 753.51 745.10 765.11 
1633 752.77 744.51 765.11 
1634 749.77 744.46 765.11 
1635 754.89 744.73 765.11 
1636 756.13 744.30 765.11 
1637 758.44 744.71 765.11 
1638 756.62 744.62 765.11 
1639 752.39 744.36 765.11 
1640 750.27 743.89 765.11 
1641 751.19 743.80 765.11 
1642 747.31 743.86 765.11 
1643 756.95 743.95 765.11 
1644 753.89 744.04 765.11 
1645 751.19 743.97 765.11 
1646 756.79 744.16 765.11 
1647 748.79 744.18 765.11 
1648 754.30 744.09 765.11 
1649 754.46 744.34 765.11 
1650 750.58 744.11 765.11 
1651 753.47 744.15 765.11 
1652 750.73 744.25 765.11 
1653 753.89 744.37 765.11 
1654 753.51 744.45 765.11 
1655 758.28 744.51 765.11 
1656 749.99 744.15 765.11 
1657 752.19 743.96 765.11 
1658 746.65 743.92 765.11 
1659 755.47 743.94 765.11 
1660 751.84 744.66 765.11 
1661 750.83 744.36 765.11 
1662 747.45 744.42 765.11 
1663 750.78 744.40 765.11 
1664 751.66 744.03 765.11 
1665 756.08 743.87 765.11 
1666 753.70 744.47 765.11 
1667 755.89 744.05 765.11 
1668 752.44 743.96 765.11 
1669 752.95 744.28 765.11 
1670 751.16 744.06 765.11 
1671 751.81 743.93 765.11 
1672 752.28 743.82 765.11 
1673 755.52 744.19 765.11 
1674 750.02 744.05 765.11 
1675 752.74 743.99 765.11 
1676 752.41 743.58 765.11 
1677 757.66 743.71 765.11 
1678 755.60 743.59 765.11 
1679 751.24 743.84 765.11 
1680 753.92 743.68 765.11 
1681 746.20 743.54 765.11 
1682 753.77 744.11 765.11 
1683 757.17 744.38 765.11 
1684 749.62 744.03 765.11 
1685 758.00 743.83 765.11 
1686 750.49 744.28 765.11 
1687 751.04 743.59 765.11 
1688 755.27 743.88 765.11 
1689 754.35 743.62 765.11 
1690 756.19 743.92 765.11 
1691 756.21 743.71 765.11 
1692 750.54 743.78 765.11 
1693 751.62 743.99 765.11 
1694 748.45 743.93 765.11 
1695 750.51 744.06 765.11 
1696 754.66 743.99 765.11 
1697 752.99 743.92 765.11 
1698 756.68 744.03 765.11 
1699 748.33 744.21 765.11 
1700 754.36 744.04 765.11 
1701 754.78 743.92 765.11 
1702 753.99 743.93 765.11 
1703 756.24 743.87 765.11 
1704 746.24 744.03 765.11 
1705 752.04 743.88 765.11 
1706 751.23 743.81 765.11 
1707 754.36 743.88 765.11 
1708 751.61 743.82 765.11 
1709 758.34 744.11 765.11 
1710 749.28 743.97 765.11 
1711 751.91 744.09 765.11 
1712 751.94 744.02 765.11 
1713 750.60 743.95 765.11 
1714 754.83 743.85 765.11 
1715 750.48 743.88 765.11 
1716 753.43 743.88 765.11 
1717 754.27 743.45 765.11 
1718 753.24 743.77 765.11 
1719 753.31 743.62 765.11 
1720 757.89 743.47 765.11 
1721 757.76 743.85 765.11 
1722 759.38 743.16 765.11 
1723 762.42 743.86 765.11 
1724 752.65 743.91 765.11 
1725 753.98 744.08 765.11 
1726 753.44 743.94 765.11 
1727 750.30 743.97 765.11 
1728 755.65 743.99 765.11 
1729 753.32 743.83 765.11 
1730 756.83 744.02 765.11 
1731 753.30 744.06 765.11 
1732 754.67 743.77 765.11 
1733 752.68 743.84 765.11 
1734 755.88 743.88 765.11 
1735 756.15 744.07 765.11 
1736 753.47 744.00 765.11 
1737 753.74 743.92 765.11 
1738 753.77 744.31 765.11 
1739 753.47 744.33 765.11 
1740 756.00 744.47 765.11 
1741 752.79 744.19 765.11 
1742 750.13 744.43 765.11 
1743 752.44 744.62 765.11 
1744 754.65 744.58 765.11 
1745 754.99 744.46 765.11 
1746 754.64 744.95 765.11 
1747 756.29 744.65 765.11 
1748 754.88 743.81 765.11 
1749 757.52 744.30 765.11 
1750 754.45 744.24 765.11 
1751 751.29 744.30 765.11 
1752 749.65 743.98 765.11 
1753 750.76 744.08 765.11 
1754 752.85 744.11 765.11 
1755 756.19 744.09 765.11 
1756 755.11 744.25 765.11 
1757 751.16 744.20 765.11 
1758 751.56 744.59 765.11 
1759 753.87 744.63 765.11 
1760 754.48 744.74 765.11 
1761 756.85 744.85 765.11 
1762 752.34 745.17 765.11 
1763 755.79 744.91 765.11 
1764 751.76 745.25 765.11 
1765 750.63 745.12 765.11 
1766 752.76 745.05 765.11 
1767 752.07 744.93 765.11 
1768 756.45 745.01 765.11 
1769 759.18 744.48 765.11 
1770 754.77 744.33 765.11 
1771 752.18 744.33 765.11 
1772 749.48 744.82 765.11 
1773 754.26 743.95 765.11 
1774 752.97 743.90 765.11 
1775 750.15 744.44 765.11 
1776 751.53 743.65 765.11 
1777 757.55 744.05 765.11 
1778 756.94 743.88 765.11 
1779 755.21 743.93 765.11 
1780 756.82 744.28 765.11 
1781 754.07 744.28 765.11 
1782 755.93 743.99 765.11 
1783 750.56 744.22 765.11 
1784 752.15 744.20 765.11 
1785 754.22 744.33 765.11 
1786 760.85 744.48 765.11 
1787 755.23 744.57 765.11 
1788 751.12 744.64 765.11 
1789 749.72 744.32 765.11 
1790 753.16 744.37 765.11 
1791 752.07 744.37 765.11 
1792 750.97 744.38 765.11 
1793 755.19 744.69 765.11 
1794 756.59 744.97 765.11 
1795 748.58 744.91 765.11 
1796 751.92 744.80 765.11 
1797 754.35 744.70 765.11 
1798 756.93 744.70 765.11 
1799 749.73 744.77 765.11 
1800 752.28 744.51 765.11 
1801 753.09 744.77 765.11 
1802 754.98 744.91 765.11 
1803 754.23 744.61 765.11 
1804 755.48 744.71 765.11 
1805 755.80 744.61 765.11 
1806 753.96 744.14 765.11 
1807 754.85 744.72 765.11 
1808 756.44 744.43 765.11 
1809 751.20 744.31 765.11 
1810 752.65 744.17 765.11 
1811 754.29 744.19 765.11 
1812 757.98 744.07 765.11 
1813 751.85 744.36 765.11 
1814 754.56 744.37 765.11 
1815 759.47 744.30 765.11 
1816 752.62 744.74 765.11 
1817 752.74 744.63 765.11 
1818 751.84 744.43 765.11 
1819 754.74 744.43 765.11 
1820 756.97 744.62 765.11 
1821 748.02 744.43 765.11 
1822 756.23 744.50 765.11 
1823 754.65 744.63 765.11 
1824 753.62 744.65 765.11 
1825 753.72 744.77 765.11 
1826 754.88 744.95 765.11 
1827 754.21 744.43 765.11 
1828 752.09 744.86 765.11 
1829 752.02 744.61 765.11 
1830 746.78 745.04 765.11 
1831 742.78 744.29 765.11 
1832 755.66 744.55 765.11 
1833 754.82 744.53 765.11 
1834 754.29 743.97 765.11 
1835 758.44 744.10 765.11 
1836 752.76 743.91 765.11 
1837 753.41 743.66 765.11 
1838 751.92 744.46 765.11 
1839 753.81 743.46 765.11 
1840 752.21 743.02 765.11 
1841 756.74 742.50 765.11 
1842 752.75 742.66 765.11 
1843 751.17 742.94 765.11 
1844 749.99 743.28 765.11 
1845 756.11 743.97 765.11 
1846 752.67 744.01 765.11 
1847 750.99 743.51 765.11 
1848 749.80 744.04 765.11 
1849 755.59 744.29 765.11 
1850 748.96 744.32 765.11 
1851 751.92 744.45 765.11 
1852 753.34 744.68 765.11 
1853 754.80 744.72 765.11 
1854 752.94 744.83 765.11 
1855 753.19 744.67 765.11 
1856 757.76 744.95 765.11 
1857 751.65 744.76 765.11 
1858 753.75 744.84 765.11 
1859 750.44 744.75 765.11 
1860 756.60 744.02 765.11 
1861 756.66 744.41 765.11 
1862 754.30 744.21 765.11 
1863 755.15 744.29 765.11 
1864 753.04 744.49 765.11 
1865 756.68 744.57 765.11 
1866 755.14 744.46 765.11 
1867 755.74 744.19 765.11 
1868 756.48 743.79 765.11 
1869 751.12 743.81 765.11 
1870 755.58 744.59 765.11 
1871 756.91 744.60 765.11 
1872 758.56 745.28 765.11 
1873 753.30 744.94 765.11 
1874 758.55 743.55 765.11 
1875 752.53 744.71 765.11 
1876 748.63 743.92 765.11 
1877 755.31 743.03 765.11 
1878 753.65 743.30 765.11 
1879 754.39 743.53 765.11 
1880 753.89 744.56 765.11 
1881 755.52 744.27 765.11 
1882 751.65 743.96 765.11 
1883 750.21 745.00 765.11 
1884 753.87 745.33 765.11 
1885 750.70 745.19 765.11 
1886 757.54 745.07 765.11 
1887 754.69 744.90 765.11 
1888 749.18 744.94 765.11 
1889 753.48 744.87 765.11 
1890 753.51 744.83 765.11 
1891 759.81 744.98 765.11 
1892 753.04 744.90 765.11 
1893 757.16 744.85 765.11 
1894 753.42 744.97 765.11 
1895 750.75 744.78 765.11 
1896 758.70 744.42 765.11 
1897 751.67 744.90 765.11 
1898 753.32 744.70 765.11 
1899 754.32 744.97 765.11 
1900 755.01 745.22 765.11 
1901 758.92 744.70 765.11 
1902 752.87 744.85 765.11 
1903 752.01 744.92 765.11 
1904 761.87 743.97 765.11 
1905 754.69 744.26 765.11 
1906 755.70 744.38 765.11 
1907 756.10 744.88 765.11 
1908 755.76 745.02 765.11 
1909 756.16 745.37 765.11 
1910 751.52 744.87 765.11 
1911 752.30 743.89 765.11 
1912 758.04 743.59 765.11 
1913 758.87 743.22 765.11 
1914 756.28 743.16 765.11 
1915 752.53 744.87 765.11 
1916 758.66 743.20 765.11 
1917 758.66 743.13 765.11 
1918 757.98 743.11 765.11 
1919 756.62 742.91 765.11 
1920 752.75 743.36 765.11 
1921 752.81 743.66 765.11 
1922 751.12 744.18 765.11 
1923 755.43 744.21 765.11 
1924 758.46 744.10 765.11 
1925 755.41 743.74 765.11 
1926 754.22 743.85 765.11 
1927 748.83 744.15 765.11 
1928 753.43 744.10 765.11 
1929 753.96 744.09 765.11 
1930 752.92 744.05 765.11 
1931 750.88 743.26 765.11 
1932 750.28 743.82 765.11 
1933 749.63 744.23 765.11 
1934 757.20 744.12 765.11 
1935 749.89 744.38 765.11 
1936 756.35 744.09 765.11 
1937 753.30 744.06 765.11 
1938 754.42 744.19 765.11 
1939 752.77 744.25 765.11 
1940 753.08 743.21 765.11 
1941 756.72 743.97 765.11 
1942 756.83 743.82 765.11 
1943 755.14 743.53 765.11 
1944 753.71 743.89 765.11 
1945 755.10 743.87 765.11 
1946 754.58 744.03 765.11 
1947 756.45 744.31 765.11 
1948 755.09 744.31 765.11 
1949 754.83 744.18 765.11 
1950 754.33 744.68 765.11 
1951 756.46 744.51 765.11 
1952 758.04 744.62 765.11 
1953 755.48 744.90 765.11 
1954 748.49 745.01 765.11 
1955 757.39 745.02 765.11 
1956 751.86 745.01 765.11 
1957 753.79 744.76 765.11 
1958 753.61 745.32 765.11 
1959 756.43 745.18 765.11 
1960 756.67 744.55 765.11 
1961 755.77 744.87 765.11 
1962 759.05 744.75 765.11 
1963 751.42 744.74 765.11 
1964 754.20 744.66 765.11 
1965 756.20 745.26 765.11 
1966 754.00 745.26 765.11 
1967 756.69 745.06 765.11 
1968 750.70 745.12 765.11 
1969 754.18 745.16 765.11 
1970 749.97 745.15 765.11 
1971 755.53 745.31 765.11 
1972 754.44 745.12 765.11 
1973 749.80 744.97 765.11 
1974 759.93 744.79 765.11 
1975 755.49 744.91 765.11 
1976 754.16 745.08 765.11 
1977 754.39 745.15 765.11 
1978 753.06 745.13 765.11 
1979 757.42 745.16 765.11 
1980 748.08 745.31 765.11 
1981 754.05 745.21 765.11 
1982 751.84 745.15 765.11 
1983 751.88 745.24 765.11 
1984 754.76 745.23 765.11 
1985 754.43 745.30 765.11 
1986 754.52 745.19 765.11 
1987 747.60 745.32 765.11 
1988 749.90 745.23 765.11 
1989 753.44 745.04 765.11 
1990 757.58 744.96 765.11 
1991 755.28 745.11 765.11 
1992 754.26 745.13 765.11 
1993 748.77 745.12 765.11 
1994 753.76 745.10 765.11 
1995 753.59 745.17 765.11 
1996 757.31 745.26 765.11 
1997 753.70 745.34 765.11 
1998 753.09 745.06 765.11 
1999 757.76 744.92 765.11 
2000 753.44 744.94 765.11 
2001 759.22 745.01 765.11 
2002 754.52 744.83 765.11 
2003 754.46 745.11 765.11 
2004 757.19 745.05 765.11 
2005 752.93 745.28 765.11 
2006 755.01 745.28 765.11 
2007 754.24 745.45 765.11 
2008 757.49 745.34 765.11 
2009 753.26 745.48 765.11 
2010 754.86 745.55 765.11 
2011 749.38 745.25 765.11 
2012 759.19 745.18 765.11 
2013 748.17 745.12 765.11 
2014 758.26 744.81 765.11 
2015 748.10 744.95 765.11 
2016 756.37 744.86 765.11 
2017 753.37 744.89 765.11 
2018 752.23 745.16 765.11 
2019 753.75 745.32 765.11 
2020 753.07 745.38 765.11 
2021 753.22 745.03 765.11 
2022 752.98 745.24 765.11 
2023 753.55 745.33 765.11 
2024 757.74 745.37 765.11 
2025 755.28 745.57 765.11 
2026 748.77 745.69 765.11 
2027 755.13 745.59 765.11 
2028 748.89 745.57 765.11 
2029 752.26 745.49 765.11 
2030 753.02 745.46 765.11 
2031 755.65 745.66 765.11 
2032 752.87 745.38 765.11 
2033 747.91 745.53 765.11 
2034 754.46 745.65 765.11 
2035 751.97 745.55 765.11 
2036 750.73 745.34 765.11 
2037 748.49 745.37 765.11 
2038 747.32 745.42 765.11 
2039 754.88 745.50 765.11 
2040 750.60 745.46 765.11 
2041 756.40 745.07 765.11 
2042 751.98 745.31 765.11 
2043 751.25 745.52 765.11 
2044 752.32 745.33 765.11 
2045 751.89 743.61 765.11 
2046 751.92 743.58 765.11 
2047 755.08 743.46 765.11 
2048 750.50 743.36 765.11 
2049 745.25 743.29 765.11 
2050 752.27 743.89 765.11 
2051 758.65 743.53 765.11 
2052 751.72 743.75 765.11 
2053 750.20 743.49 765.11 
2054 757.09 743.25 765.11 
2055 750.26 744.32 765.11 
2056 753.06 744.77 765.11 
2057 749.74 744.25 765.11 
2058 754.84 744.34 765.11 
2059 754.13 745.06 765.11 
2060 758.23 745.03 765.11 
2061 757.38 745.19 765.11 
2062 751.32 745.01 765.11 
2063 754.34 745.17 765.11 
2064 749.20 745.16 765.11 
2065 751.01 745.12 765.11 
2066 754.99 745.07 765.11 
2067 756.69 744.83 765.11 
2068 753.27 745.06 765.11 
2069 753.69 745.22 765.11 
2070 753.86 744.91 765.11 
2071 749.50 745.15 765.11 
2072 756.54 745.34 765.11 
2073 753.96 745.15 765.11 
2074 759.29 744.89 765.11 
2075 753.89 745.03 765.11 
2076 754.30 744.61 765.11 
2077 758.92 744.24 765.11 
2078 757.58 743.59 765.11 
2079 753.05 744.81 765.11 
2080 753.26 744.33 765.11 
2081 760.16 744.93 765.11 
2082 747.17 744.77 765.11 
2083 757.74 744.40 765.11 
2084 753.83 744.53 765.11 
2085 751.74 744.35 765.11 
2086 757.35 744.20 765.11 
2087 755.98 744.46 765.11 
2088 759.90 744.44 765.11 
2089 758.16 744.79 765.11 
2090 756.86 744.66 765.11 
2091 758.76 744.50 765.11 
2092 754.40 744.67 765.11 
2093 760.27 744.97 765.11 
2094 758.72 744.89 765.11 
2095 751.18 745.05 765.11 
2096 753.83 745.08 765.11 
2097 750.80 744.90 765.11 
2098 752.62 745.14 765.11 
2099 753.02 745.14 765.11 
2100 751.23 745.23 765.11 
2101 758.95 745.16 765.11 
2102 753.34 744.69 765.11 
2103 755.28 744.65 765.11 
2104 755.86 745.03 765.11 
2105 753.06 744.49 765.11 
2106 755.23 744.39 765.11 
2107 753.51 744.78 765.11 
2108 758.95 744.15 765.11 
2109 757.42 744.61 765.11 
2110 756.53 744.02 765.11 
2111 757.25 744.60 765.11 
2112 757.14 744.00 765.11 
2113 757.54 742.89 765.11 
2114 755.33 743.83 765.11 
2115 755.74 742.44 765.11 
2116 754.59 742.62 765.11 
2117 748.51 743.22 765.11 
2118 752.04 743.50 765.11 
2119 754.44 744.44 765.11 
2120 753.71 744.11 765.11 
2121 754.95 744.26 765.11 
2122 750.73 744.56 765.11 
2123 752.42 744.40 765.11 
2124 757.22 743.33 765.11 
2125 757.80 744.12 765.11 
2126 752.56 743.41 765.11 
2127 758.03 743.91 765.11 
2128 747.78 743.99 765.11 
2129 759.20 744.65 765.11 
2130 757.51 744.65 765.11 
2131 750.53 744.49 765.11 
2132 756.44 744.50 765.11 
2133 751.62 744.03 765.11 
2134 755.31 743.55 765.11 
2135 756.16 743.00 765.11 
2136 747.80 743.20 765.11 
2137 752.32 744.09 765.11 
2138 753.02 743.33 765.11 
2139 754.46 743.61 765.11 
2140 755.61 743.34 765.11 
2141 755.74 744.00 765.11 
2142 754.50 743.98 765.11 
2143 753.19 744.03 765.11 
2144 755.95 744.55 765.11 
2145 758.14 743.77 765.11 
2146 754.80 743.44 765.11 
2147 753.14 743.61 765.11 
2148 749.85 743.15 765.11 
2149 754.92 743.74 765.11 
2150 745.00 744.00 765.11 
2151 756.72 742.84 765.11 
2152 750.06 743.73 765.11 
2153 754.58 743.18 765.11 
2154 750.61 743.94 765.11 
2155 751.99 744.23 765.11 
2156 752.55 744.78 765.11 
2157 752.64 744.28 765.11 
2158 753.77 742.89 765.11 
2159 757.36 744.28 765.11 
2160 755.44 743.28 765.11 
2161 756.03 744.57 765.11 
2162 746.17 744.60 765.11 
2163 750.36 744.56 765.11 
2164 753.54 745.23 765.11 
2165 749.86 745.29 765.11 
2166 756.78 745.20 765.11 
2167 747.17 745.03 765.11 
2168 758.71 745.21 765.11 
2169 754.29 745.30 765.11 
2170 752.59 745.72 765.11 
2171 753.29 745.08 765.11 
2172 753.83 745.24 765.11 
2173 761.56 745.38 765.11 
2174 748.44 746.05 765.11 
2175 755.75 745.99 765.11 
2176 754.13 746.15 765.11 
2177 758.08 745.94 765.11 
2178 750.05 746.23 765.11 
2179 759.29 746.17 765.11 
2180 752.30 746.05 765.11 
2181 753.97 746.06 765.11 
2182 754.24 746.47 765.11 
2183 755.22 746.31 765.11 
2184 749.87 746.11 765.11 
2185 751.17 746.46 765.11 
2186 757.73 746.75 765.11 
2187 759.22 746.73 765.11 
2188 757.72 746.73 765.11 
2189 753.29 746.56 765.11 
2190 754.75 746.59 765.11 
2191 754.36 746.48 765.11 
2192 757.74 746.39 765.11 
2193 752.96 746.15 765.11 
2194 755.08 746.23 765.11 
2195 756.50 746.29 765.11 
2196 750.48 746.32 765.11 
2197 757.77 746.20 765.11 
2198 751.49 746.19 765.11 
2199 752.44 746.20 765.11 
2200 752.18 746.32 765.11 
2201 758.02 746.20 765.11 
2202 751.22 746.21 765.11 
2203 753.27 746.17 765.11 
2204 757.54 746.21 765.11 
2205 757.08 745.58 765.11 
2206 752.16 746.14 765.11 
2207 750.36 745.59 765.11 
2208 749.14 745.80 765.11 
2209 750.34 745.86 765.11 
2210 760.50 745.81 765.11 
2211 755.56 745.93 765.11 
2212 752.83 745.51 765.11 
2213 758.93 745.65 765.11 
2214 755.03 745.76 765.11 
2215 757.95 745.71 765.11 
2216 753.70 745.56 765.11 
2217 759.79 745.74 765.11 
2218 754.70 745.37 765.11 
2219 748.64 745.76 765.11 
2220 757.36 745.69 765.11 
2221 751.79 745.46 765.11 
2222 748.51 745.09 765.11 
2223 756.29 745.36 765.11 
2224 753.09 745.55 765.11 
2225 751.07 745.43 765.11 
2226 749.47 745.71 765.11 
2227 757.51 745.52 765.11 
2228 749.94 745.39 765.11 
2229 756.70 745.26 765.11 
2230 750.29 745.26 765.11 
2231 746.59 745.12 765.11 
2232 749.75 745.19 765.11 
2233 753.07 745.38 765.11 
2234 754.59 745.26 765.11 
2235 750.30 745.42 765.11 
2236 748.22 745.25 765.11 
2237 754.69 746.04 765.11 
2238 758.77 746.01 765.11 
2239 760.38 746.08 765.11 
2240 752.32 746.15 765.11 
2241 753.68 745.56 765.11 
2242 752.83 745.93 765.11 
2243 750.31 746.42 765.11 
2244 753.35 746.06 765.11 
2245 754.87 746.02 765.11 
2246 754.87 745.99 765.11 
2247 753.96 745.98 765.11 
2248 761.80 746.03 765.11 
2249 761.26 746.05 765.11 
2250 754.37 746.06 765.11 
2251 752.90 746.11 765.11 
2252 752.40 746.24 765.11 
2253 755.70 746.10 765.11 
2254 754.18 746.29 765.11 
2255 751.08 746.33 765.11 
2256 752.63 746.62 765.11 
2257 757.30 746.28 765.11 
2258 748.57 746.24 765.11 
2259 752.38 746.55 765.11 
2260 753.91 746.63 765.11 
2261 756.96 746.68 765.11 
2262 751.58 746.45 765.11 
2263 754.27 746.45 765.11 
2264 757.49 746.59 765.11 
2265 757.15 746.47 765.11 
2266 759.60 746.50 765.11 
2267 759.40 745.86 765.11 
2268 755.08 745.77 765.11 
2269 752.47 746.30 765.11 
2270 754.18 746.52 765.11 
2271 755.05 746.42 765.11 
2272 756.69 746.64 765.11 
2273 754.81 746.55 765.11 
2274 752.70 746.47 765.11 
2275 750.62 746.48 765.11 
2276 751.03 746.28 765.11 
2277 754.63 745.83 765.11 
2278 752.55 745.52 765.11 
2279 750.81 745.89 765.11 
2280 752.12 745.84 765.11 
2281 752.64 746.01 765.11 
2282 755.84 746.30 765.11 
2283 752.03 746.53 765.11 
2284 753.58 746.66 765.11 
2285 754.63 746.33 765.11 
2286 754.50 746.02 765.11 
2287 755.99 746.50 765.11 
2288 760.09 745.91 765.11 
2289 752.17 746.03 765.11 
2290 749.42 745.86 765.11 
2291 756.14 745.88 765.11 
2292 751.63 746.02 765.11 
2293 751.36 746.55 765.11 
2294 751.40 745.97 765.11 
2295 758.86 745.76 765.11 
2296 747.41 745.74 765.11 
2297 759.84 745.90 765.11 
2298 753.42 746.01 765.11 
2299 754.89 745.96 765.11 
2300 752.44 746.02 765.11 
2301 755.68 746.52 765.11 
2302 750.96 746.21 765.11 
2303 756.33 746.21 765.11 
2304 753.76 746.13 765.11 
2305 760.46 746.11 765.11 
2306 754.92 746.06 765.11 
2307 757.86 746.00 765.11 
2308 754.90 746.39 765.11 
2309 751.97 746.02 765.11 
2310 755.34 745.92 765.11 
2311 749.84 745.88 765.11 
2312 756.53 745.85 765.11 
2313 757.54 745.45 765.11 
2314 751.79 745.80 765.11 
2315 758.42 745.54 765.11 
2316 750.88 745.29 765.11 
2317 755.97 745.31 765.11 
2318 755.09 745.36 765.11 
2319 751.85 745.34 765.11 
2320 756.10 745.45 765.11 
2321 753.61 745.50 765.11 
2322 759.60 745.44 765.11 
2323 757.45 745.97 765.11 
2324 749.75 745.99 765.11 
2325 758.17 746.11 765.11 
2326 752.35 746.21 765.11 
2327 749.76 746.06 765.11 
2328 753.84 745.91 765.11 
2329 753.11 745.28 765.11 
2330 748.17 745.58 765.11 
2331 754.41 745.74 765.11 
2332 750.35 745.68 765.11 
2333 751.05 746.16 765.11 
2334 756.96 746.11 765.11 
2335 746.55 745.98 765.11 
2336 752.14 745.97 765.11 
2337 757.96 746.06 765.11 
2338 758.33 745.99 765.11 
2339 753.34 746.28 765.11 
2340 754.98 746.12 765.11 
2341 749.65 746.30 765.11 
2342 755.89 746.64 765.11 
2343 754.03 746.64 765.11 
2344 753.63 746.63 765.11 
2345 753.20 746.40 765.11 
2346 754.49 746.06 765.11 
2347 750.84 746.11 765.11 
2348 752.71 745.35 765.11 
2349 758.04 745.66 765.11 
2350 753.46 745.74 765.11 
2351 748.28 745.63 765.11 
2352 756.95 746.07 765.11 
2353 748.01 746.27 765.11 
2354 759.47 746.10 765.11 
2355 750.87 745.96 765.11 
2356 747.87 745.91 765.11 
2357 759.31 745.88 765.11 
2358 751.68 745.82 765.11 
2359 752.79 745.73 765.11 
2360 753.29 745.71 765.11 
2361 755.88 745.40 765.11 
2362 750.93 745.57 765.11 
2363 754.61 745.47 765.11 
2364 748.01 745.53 765.11 
2365 756.69 745.52 765.11 
2366 754.50 745.79 765.11 
2367 753.42 745.38 765.11 
2368 748.94 745.01 765.11 
2369 756.34 744.81 765.11 
2370 753.25 744.97 765.11 
2371 755.01 745.43 765.11 
2372 750.88 745.11 765.11 
2373 752.07 744.22 765.11 
2374 756.53 744.36 765.11 
2375 753.89 744.49 765.11 
2376 749.86 744.61 765.11 
2377 751.48 744.54 765.11 
2378 754.10 744.47 765.11 
2379 757.02 744.46 765.11 
2380 757.97 744.87 765.11 
2381 754.10 744.88 765.11 
2382 750.82 744.88 765.11 
2383 751.57 744.68 765.11 
2384 753.94 744.74 765.11 
2385 752.47 744.88 765.11 
2386 748.95 744.87 765.11 
2387 755.73 745.05 765.11 
2388 755.98 744.98 765.11 
2389 750.34 745.76 765.11 
2390 749.82 745.68 765.11 
2391 751.23 745.62 765.11 
2392 755.75 745.58 765.11 
2393 755.21 745.15 765.11 
2394 756.35 745.60 765.11 
2395 751.31 745.63 765.11 
2396 754.33 745.88 765.11 
2397 758.05 745.60 765.11 
2398 748.48 745.62 765.11 
2399 754.32 745.30 765.11 
2400 758.43 745.42 765.11 
2401 754.49 745.39 765.11 
2402 753.87 745.35 765.11 
2403 754.48 745.24 765.11 
2404 754.28 745.51 765.11 
2405 751.32 745.41 765.11 
2406 755.38 745.10 765.11 
2407 754.15 745.30 765.11 
2408 754.04 745.03 765.11 
2409 752.47 745.22 765.11 
2410 753.09 745.42 765.11 
2411 752.98 745.35 765.11 
2412 752.60 745.57 765.11 
2413 757.80 745.49 765.11 
2414 752.44 745.30 765.11 
2415 754.85 745.20 765.11 
2416 760.56 745.09 765.11 
2417 757.07 745.27 765.11 
2418 750.76 745.44 765.11 
2419 759.00 745.47 765.11 
2420 754.25 745.41 765.11 
2421 753.40 745.45 765.11 
2422 755.81 745.43 765.11 
2423 755.73 745.40 765.11 
2424 750.93 745.27 765.11 
2425 756.46 745.18 765.11 
2426 754.47 745.45 765.11 
2427 756.36 745.56 765.11 
2428 754.71 745.12 765.11 
2429 755.39 745.45 765.11 
2430 754.77 745.16 765.11 
2431 757.71 745.00 765.11 
2432 759.26 745.24 765.11 
2433 758.76 744.35 765.11 
2434 748.12 744.76 765.11 
2435 754.54 744.99 765.11 
2436 750.82 745.14 765.11 
2437 753.64 745.62 765.11 
2438 751.97 745.43 765.11 
2439 753.10 745.08 765.11 
2440 756.88 745.15 765.11 
2441 752.81 744.66 765.11 
2442 751.66 744.41 765.11 
2443 756.85 743.64 765.11 
2444 756.72 743.77 765.11 
2445 756.08 744.20 765.11 
2446 751.49 744.98 765.11 
2447 751.83 745.12 765.11 
2448 748.87 745.41 765.11 
2449 752.63 745.23 765.11 
2450 755.37 745.23 765.11 
2451 753.62 745.67 765.11 
2452 749.80 745.64 765.11 
2453 755.03 745.72 765.11 
2454 750.51 745.70 765.11 
2455 759.89 745.62 765.11 
2456 756.09 745.67 765.11 
2457 759.85 745.30 765.11 
2458 754.52 745.55 765.11 
2459 755.19 745.54 765.11 
2460 754.87 745.29 765.11 
2461 757.94 745.61 765.11 
2462 752.80 745.59 765.11 
2463 754.22 745.99 765.11 
2464 754.42 745.94 765.11 
2465 754.24 745.47 765.11 
2466 751.20 745.22 765.11 
2467 749.56 745.50 765.11 
2468 748.64 745.59 765.11 
2469 757.09 745.44 765.11 
2470 755.01 745.64 765.11 
2471 756.39 745.69 765.11 
2472 754.07 745.75 765.11 
2473 752.90 746.13 765.11 
2474 756.45 746.12 765.11 
2475 758.98 745.92 765.11 
2476 754.56 746.06 765.11 
2477 750.29 746.08 765.11 
2478 751.57 746.09 765.11 
2479 751.68 745.88 765.11 
2480 755.83 746.00 765.11 
2481 755.70 745.80 765.11 
2482 747.05 745.93 765.11 
2483 763.43 745.68 765.11 
2484 755.75 745.68 765.11 
2485 755.53 744.72 765.11 
2486 750.29 745.58 765.11 
2487 757.11 745.46 765.11 
2488 752.00 745.50 765.11 
2489 753.78 745.36 765.11 
2490 757.01 745.61 765.11 
2491 751.76 744.73 765.11 
2492 756.26 745.32 765.11 
2493 752.06 745.40 765.11 
2494 756.41 745.70 765.11 
2495 752.28 745.23 765.11 
2496 758.92 745.71 765.11 
2497 754.07 745.17 765.11 
2498 760.42 745.32 765.11 
2499 750.21 745.70 765.11 
2500 757.74 745.46 765.11 
2501 754.94 745.91 765.11 
2502 756.16 745.85 765.11 
2503 752.74 745.44 765.11 
2504 752.91 745.50 765.11 
2505 756.11 745.51 765.11 
2506 758.01 745.52 765.11 
2507 757.68 745.88 765.11 
2508 756.75 745.63 765.11 
2509 761.66 746.31 765.11 
2510 748.34 746.08 765.11 
2511 757.54 745.71 765.11 
2512 755.58 745.51 765.11 
2513 750.77 745.65 765.11 
2514 752.65 745.93 765.11 
2515 755.28 745.99 765.11 
2516 757.55 746.60 765.11 
2517 750.74 746.39 765.11 
2518 755.65 746.58 765.11 
2519 754.13 745.91 765.11 
2520 753.12 745.96 765.11 
2521 753.59 745.75 765.11 
2522 755.67 746.04 765.11 
2523 755.41 745.59 765.11 
2524 757.42 745.65 765.11 
2525 747.25 745.32 765.11 
2526 753.02 745.66 765.11 
2527 759.33 746.06 765.11 
2528 752.10 746.38 765.11 
2529 754.67 745.86 765.11 
2530 754.88 745.90 765.11 
2531 753.22 745.38 765.11 
2532 757.97 745.34 765.11 
2533 749.57 745.32 765.11 
2534 751.29 745.02 765.11 
2535 750.51 745.11 765.11 
2536 754.27 745.62 765.11 
2537 747.14 745.59 765.11 
2538 758.90 745.63 765.11 
2539 751.92 745.36 765.11 
2540 755.49 745.78 765.11 
2541 758.34 745.09 765.11 
2542 750.69 745.06 765.11 
2543 753.12 744.99 765.11 
2544 753.41 744.89 765.11 
2545 759.24 744.63 765.11 
2546 753.06 745.53 765.11 
2547 758.26 745.95 765.11 
2548 751.36 746.23 765.11 
2549 746.74 746.09 765.11 
2550 753.42 745.93 765.11 
2551 756.31 745.05 765.11 
2552 755.34 745.79 765.11 
2553 755.33 744.41 765.11 
2554 749.89 745.45 765.11 
2555 752.34 745.03 765.11 
2556 752.20 745.62 765.11 
2557 754.62 745.67 765.11 
2558 754.14 745.95 765.11 
2559 756.24 745.68 765.11 
2560 750.56 745.69 765.11 
2561 748.36 746.12 765.11 
2562 756.06 746.06 765.11 
2563 754.82 746.06 765.11 
2564 751.89 746.00 765.11 
2565 756.43 745.27 765.11 
2566 755.16 746.10 765.11 
2567 755.71 745.62 765.11 
2568 751.34 746.46 765.11 
2569 755.70 746.29 765.11 
2570 750.46 746.42 765.11 
2571 756.23 746.17 765.11 
2572 753.74 745.26 765.11 
2573 751.91 744.41 765.11 
2574 754.73 744.41 765.11 
2575 755.88 745.17 765.11 
2576 759.24 745.14 765.11 
2577 751.95 745.74 765.11 
2578 753.78 745.92 765.11 
2579 752.72 745.89 765.11 
2580 751.72 746.10 765.11 
2581 758.71 746.20 765.11 
2582 754.06 745.46 765.11 
2583 758.29 745.15 765.11 
2584 755.78 744.85 765.11 
2585 750.95 744.78 765.11 
2586 751.50 745.38 765.11 
2587 752.03 745.24 765.11 
2588 756.94 745.28 765.11 
2589 752.64 746.30 765.11 
2590 753.07 746.34 765.11 
2591 749.41 746.13 765.11 
2592 754.45 745.91 765.11 
2593 751.07 745.98 765.11 
2594 749.08 745.99 765.11 
2595 754.90 745.92 765.11 
2596 754.55 746.16 765.11 
2597 754.56 745.95 765.11 
2598 752.56 745.99 765.11 
2599 756.86 745.88 765.11 
2600 754.76 745.78 765.11 
2601 747.45 745.78 765.11 
2602 751.28 746.12 765.11 
2603 750.64 745.68 765.11 
2604 748.15 745.29 765.11 
2605 753.26 745.29 765.11 
2606 761.91 745.56 765.11 
2607 755.31 745.86 765.11 
2608 755.13 745.33 765.11 
2609 755.90 745.34 765.11 
2610 753.63 745.87 765.11 
2611 757.05 746.38 765.11 
2612 757.18 745.70 765.11 
2613 750.39 745.83 765.11 
2614 752.98 746.41 765.11 
2615 759.40 746.25 765.11 
2616 753.47 746.43 765.11 
2617 752.88 746.50 765.11 
2618 757.20 746.30 765.11 
2619 757.11 746.22 765.11 
2620 754.78 746.24 765.11 
2621 756.38 746.51 765.11 
2622 755.47 746.89 765.11 
2623 749.86 746.91 765.11 
2624 754.46 746.55 765.11 
2625 753.57 746.40 765.11 
2626 756.01 746.43 765.11 
2627 757.84 746.64 765.11 
2628 750.42 746.79 765.11 
2629 760.89 746.77 765.11 
2630 747.00 746.78 765.11 
2631 754.63 746.49 765.11 
2632 752.30 746.50 765.11 
2633 748.66 746.40 765.11 
2634 748.04 746.68 765.11 
2635 756.19 747.13 765.11 
2636 754.46 747.04 765.11 
2637 750.79 746.95 765.11 
2638 758.47 746.74 765.11 
2639 755.50 746.96 765.11 
2640 750.47 746.77 765.11 
2641 755.07 746.88 765.11 
2642 756.69 747.08 765.11 
2643 755.51 746.83 765.11 
2644 755.69 746.76 765.11 
2645 751.33 747.01 765.11 
2646 757.46 746.95 765.11 
2647 748.91 747.24 765.11 
2648 753.75 747.27 765.11 
2649 758.57 747.46 765.11 
2650 755.22 747.36 765.11 
2651 756.35 747.57 765.11 
2652 754.21 747.24 765.11 
2653 754.71 747.31 765.11 
2654 754.47 747.02 765.11 
2655 749.10 747.30 765.11 
2656 747.73 746.79 765.11 
2657 752.87 746.16 765.11 
2658 747.65 746.14 765.11 
2659 756.91 746.34 765.11 
2660 754.49 746.27 765.11 
2661 755.98 746.21 765.11 
2662 752.72 746.17 765.11 
2663 750.91 745.86 765.11 
2664 755.46 745.97 765.11 
2665 753.26 745.70 765.11 
2666 758.49 745.83 765.11 
2667 757.85 745.62 765.11 
2668 757.42 745.94 765.11 
2669 747.94 745.89 765.11 
2670 753.66 745.83 765.11 
2671 749.57 745.64 765.11 
2672 754.15 745.15 765.11 
2673 753.94 745.29 765.11 
2674 754.25 745.35 765.11 
2675 756.41 745.40 765.11 
2676 753.42 745.24 765.11 
2677 754.06 745.29 765.11 
2678 755.50 745.30 765.11 
2679 752.63 745.09 765.11 
2680 758.07 745.20 765.11 
2681 754.80 745.18 765.11 
2682 752.92 745.23 765.11 
2683 760.36 745.33 765.11 
2684 755.58 745.42 765.11 
2685 754.78 745.69 765.11 
2686 756.32 745.70 765.11 
2687 753.75 745.48 765.11 
2688 748.86 745.90 765.11 
2689 755.56 746.17 765.11 
2690 751.10 746.18 765.11 
2691 754.73 745.70 765.11 
2692 763.05 746.03 765.11 
2693 753.69 746.38 765.11 
2694 752.25 746.11 765.11 
2695 754.20 746.05 765.11 
2696 751.03 746.23 765.11 
2697 756.36 745.94 765.11 
2698 751.69 745.91 765.11 
2699 750.09 745.79 765.11 
2700 748.94 745.82 765.11 
2701 750.43 746.08 765.11 
2702 754.53 746.17 765.11 
2703 746.48 746.17 765.11 
2704 755.49 745.97 765.11 
2705 753.43 746.33 765.11 
2706 754.29 746.34 765.11 
2707 750.15 746.06 765.11 
2708 753.67 746.21 765.11 
2709 758.64 746.19 765.11 
2710 757.06 746.23 765.11 
2711 751.09 745.96 765.11 
2712 749.85 745.96 765.11 
2713 756.12 745.97 765.11 
2714 754.52 745.92 765.11 
2715 752.59 746.12 765.11 
2716 748.28 746.33 765.11 
2717 756.90 746.30 765.11 
2718 755.79 746.36 765.11 
2719 749.61 746.15 765.11 
2720 757.80 746.13 765.11 
2721 755.99 746.35 765.11 
2722 757.69 746.10 765.11 
2723 751.04 746.24 765.11 
2724 752.38 746.23 765.11 
2725 753.62 746.25 765.11 
2726 745.84 746.45 765.11 
2727 753.76 746.48 765.11 
2728 755.95 746.54 765.11 
2729 752.06 746.31 765.11 
2730 751.05 746.42 765.11 
2731 754.39 746.32 765.11 
2732 754.50 746.10 765.11 
2733 750.03 746.16 765.11 
2734 750.33 746.30 765.11 
2735 753.75 746.10 765.11 
2736 751.91 746.00 765.11 
2737 748.37 746.22 765.11 
2738 757.62 746.19 765.11 
2739 756.18 746.14 765.11 
2740 754.10 745.70 765.11 
2741 747.36 745.66 765.11 
2742 758.25 745.76 765.11 
2743 754.47 745.69 765.11 
2744 753.00 745.67 765.11 
2745 750.41 745.68 765.11 
2746 758.97 746.04 765.11 
2747 756.13 745.49 765.11 
2748 758.56 745.72 765.11 
2749 754.25 745.88 765.11 
2750 753.10 746.01 765.11 
2751 750.04 745.83 765.11 
2752 753.50 745.81 765.11 
2753 752.08 745.48 765.11 
2754 754.61 745.19 765.11 
2755 753.68 745.22 765.11 
2756 755.69 744.76 765.11 
2757 749.59 744.87 765.11 
2758 755.25 744.39 765.11 
2759 746.55 744.64 765.11 
2760 753.68 744.48 765.11 
2761 757.45 744.45 765.11 
2762 759.83 744.70 765.11 
2763 756.05 744.63 765.11 
2764 750.17 743.69 765.11 
2765 757.23 744.13 765.11 
2766 753.88 744.23 765.11 
2767 751.95 744.54 765.11 
2768 751.85 744.66 765.11 
2769 755.88 744.94 765.11 
2770 760.36 744.13 765.11 
2771 751.28 744.47 765.11 
2772 750.03 743.99 765.11 
2773 754.33 744.61 765.11 
2774 756.23 744.56 765.11 
2775 751.83 744.68 765.11 
2776 751.27 744.43 765.11 
2777 752.69 745.00 765.11 
2778 758.75 745.64 765.11 
2779 752.08 745.97 765.11 
2780 747.27 746.01 765.11 
2781 755.34 745.98 765.11 
2782 753.88 746.06 765.11 
2783 752.69 746.08 765.11 
2784 755.10 746.14 765.11 
2785 756.64 746.18 765.11 
2786 749.98 746.12 765.11 
2787 754.61 746.13 765.11 
2788 755.54 745.91 765.11 
2789 753.93 746.17 765.11 
2790 753.87 745.95 765.11 
2791 756.37 745.71 765.11 
2792 754.54 745.77 765.11 
2793 751.89 745.79 765.11 
2794 750.09 746.04 765.11 
2795 752.32 745.85 765.11 
2796 755.48 745.76 765.11 
2797 752.24 746.02 765.11 
2798 752.92 746.47 765.11 
2799 747.96 746.21 765.11 
2800 756.60 746.64 765.11 
2801 755.04 746.27 765.11 
2802 755.22 746.17 765.11 
2803 749.37 746.24 765.11 
2804 750.86 745.94 765.11 
2805 754.46 745.94 765.11 
2806 758.39 745.89 765.11 
2807 749.15 745.83 765.11 
2808 757.50 746.21 765.11 
2809 751.36 746.17 765.11 
2810 750.69 746.17 765.11 
2811 752.97 745.85 765.11 
2812 752.98 745.80 765.11 
2813 760.81 745.44 765.11 
2814 758.32 745.17 765.11 
2815 749.00 745.87 765.11 
2816 757.85 745.65 765.11 
2817 754.99 745.23 765.11 
2818 754.49 745.95 765.11 
2819 753.55 745.23 765.11 
2820 755.27 744.94 765.11 
2821 753.01 744.98 765.11 
2822 754.20 744.43 765.11 
2823 752.87 744.77 765.11 
2824 756.73 743.66 765.11 
2825 747.82 745.08 765.11 
2826 757.82 745.10 765.11 
2827 756.43 745.09 765.11 
2828 759.33 745.10 765.11 
2829 746.57 745.16 765.11 
2830 751.84 745.26 765.11 
2831 754.78 745.29 765.11 
2832 751.65 745.22 765.11 
2833 758.45 745.45 765.11 
2834 757.97 745.79 765.11 
2835 752.69 745.74 765.11 
2836 750.73 745.58 765.11 
2837 754.92 746.44 765.11 
2838 751.66 746.45 765.11 
2839 754.83 746.01 765.11 
2840 757.94 746.39 765.11 
2841 756.82 746.37 765.11 
2842 755.17 746.14 765.11 
2843 752.53 746.13 765.11 
2844 754.98 745.77 765.11 
2845 759.59 745.81 765.11 
2846 755.63 745.65 765.11 
2847 756.81 745.88 765.11 
2848 749.42 745.97 765.11 
2849 751.29 745.80 765.11 
2850 752.51 746.00 765.11 
2851 748.08 745.73 765.11 
2852 755.98 745.99 765.11 
2853 753.91 745.78 765.11 
2854 750.77 745.77 765.11 
2855 752.58 745.77 765.11 
2856 758.72 744.99 765.11 
2857 759.43 744.23 765.11 
2858 758.18 744.36 765.11 
2859 751.60 744.46 765.11 
2860 754.06 744.57 765.11 
2861 748.23 744.36 765.11 
2862 752.54 744.05 765.11 
2863 751.11 745.13 765.11 
2864 754.64 745.24 765.11 
2865 759.77 745.28 765.11 
2866 757.64 745.22 765.11 
2867 754.25 745.53 765.11 
2868 757.79 745.50 765.11 
2869 752.33 745.18 765.11 
2870 754.46 745.72 765.11 
2871 758.02 745.80 765.11 
2872 755.51 745.51 765.11 
2873 752.66 745.28 765.11 
2874 750.93 745.31 765.11 
2875 751.69 745.85 765.11 
2876 753.15 745.90 765.11 
2877 756.79 745.90 765.11 
2878 757.48 745.82 765.11 
2879 755.98 745.86 765.11 
2880 751.24 745.91 765.11 
2881 753.88 745.97 765.11 
2882 759.68 745.96 765.11 
2883 755.74 745.96 765.11 
2884 757.24 745.93 765.11 
2885 749.94 745.98 765.11 
2886 756.64 746.08 765.11 
2887 756.66 746.17 765.11 
2888 750.14 745.99 765.11 
2889 753.25 746.26 765.11 
2890 755.19 746.00 765.11 
2891 753.60 745.97 765.11 
2892 756.14 745.96 765.11 
2893 753.69 745.93 765.11 
2894 754.39 745.90 765.11 
2895 754.93 745.92 765.11 
2896 757.82 745.86 765.11 
2897 753.38 745.89 765.11 
2898 746.52 745.86 765.11 
2899 747.76 745.90 765.11 
2900 753.53 745.92 765.11 
2901 754.72 745.92 765.11 
2902 755.33 746.00 765.11 
2903 754.36 745.79 765.11 
2904 752.22 745.85 765.11 
2905 747.18 745.61 765.11 
2906 754.46 745.57 765.11 
2907 751.45 745.29 765.11 
2908 754.54 744.84 765.11 
2909 753.34 744.88 765.11 
2910 753.20 744.16 765.11 
2911 753.78 744.84 765.11 
2912 748.01 744.79 765.11 
2913 756.51 744.47 765.11 
2914 750.91 744.21 765.11 
2915 751.91 744.00 765.11 
2916 750.13 744.45 765.11 
2917 756.89 743.93 765.11 
2918 750.23 744.08 765.11 
2919 750.00 744.17 765.11 
2920 757.11 743.24 765.11 
2921 759.94 744.00 765.11 
2922 751.28 744.20 765.11 
2923 755.22 743.97 765.11 
2924 754.75 744.00 765.11 
2925 754.20 743.62 765.11 
2926 756.94 743.61 765.11 
2927 752.69 742.61 765.11 
2928 751.97 743.39 765.11 
2929 751.46 743.13 765.11 
2930 751.70 743.88 765.11 
2931 755.29 744.11 765.11 
2932 752.76 745.13 765.11 
2933 752.24 745.36 765.11 
2934 754.20 745.36 765.11 
2935 753.87 745.21 765.11 
2936 749.35 745.26 765.11 
2937 752.36 744.76 765.11 
2938 755.77 745.43 765.11 
2939 750.83 745.45 765.11 
2940 751.55 745.65 765.11 
2941 749.82 746.11 765.11 
2942 750.49 746.05 765.11 
2943 748.87 746.09 765.11 
2944 754.62 746.35 765.11 
2945 754.45 745.92 765.11 
2946 755.80 745.93 765.11 
2947 749.40 745.95 765.11 
2948 754.17 746.12 765.11 
2949 754.55 745.84 765.11 
2950 747.48 746.06 765.11 
2951 750.32 746.11 765.11 
2952 750.69 746.09 765.11 
2953 753.12 745.89 765.11 
2954 752.17 745.57 765.11 
2955 758.89 745.61 765.11 
2956 750.63 746.41 765.11 
2957 757.26 746.41 765.11 
2958 758.14 746.34 765.11 
2959 751.54 745.17 765.11 
2960 755.63 744.94 765.11 
2961 751.07 744.88 765.11 
2962 749.11 745.10 765.11 
2963 753.49 745.32 765.11 
2964 755.27 744.84 765.11 
2965 757.03 746.11 765.11 
2966 758.83 745.40 765.11 
2967 748.91 744.37 765.11 
2968 752.71 744.66 765.11 
2969 755.65 744.10 765.11 
2970 754.27 744.21 765.11 
2971 753.74 744.07 765.11 
2972 754.86 744.82 765.11 
2973 758.40 744.32 765.11 
2974 757.83 744.33 765.11 
2975 750.99 744.48 765.11 
2976 755.09 745.00 765.11 
2977 755.73 744.90 765.11 
2978 753.75 744.83 765.11 
2979 756.45 744.90 765.11 
2980 757.84 745.58 765.11 
2981 750.24 744.90 765.11 
2982 753.23 744.36 765.11 
2983 757.92 744.19 765.11 
2984 757.31 743.94 765.11 
2985 754.76 744.44 765.11 
2986 757.26 744.44 765.11 
2987 752.60 744.18 765.11 
2988 756.33 743.65 765.11 
2989 754.47 743.64 765.11 
2990 757.54 743.97 765.11 
2991 753.62 743.11 765.11 
2992 748.11 744.14 765.11 
2993 753.68 744.31 765.11 
2994 751.55 743.70 765.11 
2995 756.58 743.79 765.11 
2996 748.71 743.83 765.11 
2997 748.90 743.75 765.11 
2998 752.85 743.28 765.11 
2999 742.57 742.84 765.11 
3000 751.12 743.56 765.11 
3001 759.50 743.22 765.11 
3002 746.31 744.02 765.11 
3003 759.11 743.78 765.11 
3004 751.87 744.02 765.11 
3005 744.68 744.39 765.11 
3006 755.24 743.87 765.11 
3007 757.63 744.37 765.11 
3008 753.22 745.14 765.11 
3009 756.13 744.14 765.11 
3010 754.45 744.95 765.11 
3011 753.80 744.37 765.11 
3012 752.98 745.11 765.11 
3013 757.31 745.37 765.11 
3014 761.28 745.14 765.11 
3015 755.68 745.18 765.11 
3016 752.65 745.99 765.11 
3017 751.71 745.10 765.11 
3018 750.05 745.69 765.11 
3019 748.64 745.83 765.11 
3020 752.63 746.07 765.11 
3021 755.54 745.94 765.11 
3022 754.91 746.10 765.11 
3023 754.79 746.00 765.11 
3024 748.73 746.26 765.11 
3025 756.38 746.35 765.11 
3026 759.17 746.30 765.11 
3027 753.34 746.49 765.11 
3028 750.93 746.40 765.11 
3029 751.32 745.92 765.11 
3030 752.54 745.94 765.11 
3031 752.33 746.38 765.11 
3032 754.90 746.36 765.11 
3033 750.03 746.28 765.11 
3034 747.38 746.10 765.11 
3035 748.85 745.86 765.11 
3036 751.64 746.09 765.11 
3037 751.35 745.91 765.11 
3038 746.60 745.84 765.11 
3039 750.02 746.53 765.11 
3040 756.81 746.39 765.11 
3041 755.05 745.95 765.11 
3042 751.45 745.51 765.11 
3043 752.70 745.97 765.11 
3044 746.93 746.48 765.11 
3045 752.90 746.30 765.11 
3046 756.15 746.71 765.11 
3047 754.68 746.51 765.11 
3048 752.78 746.49 765.11 
3049 751.10 746.43 765.11 
3050 750.68 746.38 765.11 
3051 755.06 745.98 765.11 
3052 758.19 746.20 765.11 
3053 755.52 746.16 765.11 
3054 754.48 746.04 765.11 
3055 748.17 746.00 765.11 
3056 754.13 746.10 765.11 
3057 754.11 746.27 765.11 
3058 755.39 746.30 765.11 
3059 752.39 746.03 765.11 
3060 746.15 745.86 765.11 
3061 747.49 746.36 765.11 
3062 755.13 746.10 765.11 
3063 752.49 746.48 765.11 
3064 750.35 746.45 765.11 
3065 757.51 745.78 765.11 
3066 756.57 745.84 765.11 
3067 750.63 746.01 765.11 
3068 751.43 746.11 765.11 
3069 751.55 746.04 765.11 
3070 755.11 745.97 765.11 
3071 752.88 745.92 765.11 
3072 752.88 745.96 765.11 
3073 756.80 745.97 765.11 
3074 754.33 746.20 765.11 
3075 745.80 746.19 765.11 
3076 754.28 746.40 765.11 
3077 754.38 746.46 765.11 
3078 750.68 746.45 765.11 
3079 754.65 746.33 765.11 
3080 755.44 746.34 765.11 
3081 752.55 746.25 765.11 
3082 755.64 746.35 765.11 
3083 753.07 746.28 765.11 
3084 755.15 746.56 765.11 
3085 747.56 746.40 765.11 
3086 749.09 746.49 765.11 
3087 759.10 746.25 765.11 
3088 750.37 746.05 765.11 
3089 751.61 746.21 765.11 
3090 750.65 746.15 765.11 
3091 755.13 746.17 765.11 
3092 753.11 746.16 765.11 
3093 749.73 746.06 765.11 
3094 747.03 746.31 765.11 
3095 754.67 746.33 765.11 
3096 751.43 746.13 765.11 
3097 750.63 746.43 765.11 
3098 755.34 746.44 765.11 
3099 758.15 746.39 765.11 
3100 750.01 745.82 765.11 
3101 749.24 745.31 765.11 
3102 743.50 745.96 765.11 
3103 753.10 746.57 765.11 
3104 750.99 746.56 765.11 
3105 755.42 746.52 765.11 
3106 750.37 746.56 765.11 
3107 755.15 746.54 765.11 
3108 751.17 746.63 765.11 
3109 753.19 746.15 765.11 
3110 762.20 745.78 765.11 
3111 751.74 745.27 765.11 
3112 757.17 745.52 765.11 
3113 750.75 745.75 765.11 
3114 752.20 746.36 765.11 
3115 748.29 745.37 765.11 
3116 754.32 745.84 765.11 
3117 750.68 746.09 765.11 
3118 750.52 745.83 765.11 
3119 754.39 745.70 765.11 
3120 755.53 745.39 765.11 
3121 753.64 744.84 765.11 
3122 750.92 745.22 765.11 
3123 747.48 744.79 765.11 
3124 755.97 744.63 765.11 
3125 756.50 744.97 765.11 
3126 750.34 745.27 765.11 
3127 745.93 745.44 765.11 
3128 752.87 745.47 765.11 
3129 749.97 745.35 765.11 
3130 756.43 745.32 765.11 
3131 753.66 745.17 765.11 
3132 748.65 745.57 765.11 
3133 756.38 745.50 765.11 
3134 753.34 745.26 765.11 
3135 755.21 745.48 765.11 
3136 753.57 746.05 765.11 
3137 752.65 746.18 765.11 
3138 753.83 746.22 765.11 
3139 758.55 745.52 765.11 
3140 752.55 745.57 765.11 
3141 750.03 745.59 765.11 
3142 751.64 745.39 765.11 
3143 755.51 745.15 765.11 
3144 751.30 745.21 765.11 
3145 750.92 745.08 765.11 
3146 750.03 745.16 765.11 
3147 751.83 745.25 765.11 
3148 753.25 745.09 765.11 
3149 749.87 744.47 765.11 
3150 746.12 743.56 765.11 
3151 756.87 743.66 765.11 
3152 749.23 743.51 765.11 
3153 750.50 743.04 765.11 
3154 753.23 743.10 765.11 
3155 744.24 742.81 765.11 
3156 749.67 742.90 765.11 
3157 750.77 743.04 765.11 
3158 751.70 743.44 765.11 
3159 747.82 743.41 765.11 
3160 751.67 743.67 765.11 
3161 751.79 743.60 765.11 
3162 756.33 744.93 765.11 
3163 754.67 744.60 765.11 
3164 757.11 744.16 765.11 
3165 748.88 744.37 765.11 
3166 753.02 744.67 765.11 
3167 754.89 744.68 765.11 
3168 751.30 744.74 765.11 
3169 749.98 745.08 765.11 
3170 754.49 745.73 765.11 
3171 746.47 746.22 765.11 
3172 752.99 745.96 765.11 
3173 752.97 745.44 765.11 
3174 749.93 746.10 765.11 
3175 750.25 745.33 765.11 
3176 757.05 746.13 765.11 
3177 751.23 745.69 765.11 
3178 747.45 745.73 765.11 
3179 760.76 745.42 765.11 
3180 749.30 745.68 765.11 
3181 757.22 745.71 765.11 
3182 756.27 745.67 765.11 
3183 750.32 745.60 765.11 
3184 752.39 745.81 765.11 
3185 748.93 745.59 765.11 
3186 751.88 746.08 765.11 
3187 750.02 746.01 765.11 
3188 750.50 746.01 765.11 
3189 758.07 746.05 765.11 
3190 754.27 746.03 765.11 
3191 756.44 746.17 765.11 
3192 750.95 746.14 765.11 
3193 755.15 745.71 765.11 
3194 749.59 746.06 765.11 
3195 757.50 745.58 765.11 
3196 758.15 745.74 765.11 
3197 755.68 745.77 765.11 
3198 750.82 745.76 765.11 
3199 752.49 745.41 765.11 
3200 750.51 745.69 765.11 
3201 755.30 745.50 765.11 
3202 754.21 745.76 765.11 
3203 755.50 745.39 765.11 
3204 756.21 745.33 765.11 
3205 751.24 745.34 765.11 
3206 750.52 745.39 765.11 
3207 753.54 745.34 765.11 
3208 754.17 745.83 765.11 
3209 750.04 745.91 765.11 
3210 751.18 745.99 765.11 
3211 751.76 745.95 765.11 
3212 750.98 745.98 765.11 
3213 747.40 745.95 765.11 
3214 753.39 746.06 765.11 
3215 750.20 746.08 765.11 
3216 753.37 746.01 765.11 
3217 753.59 746.01 765.11 
3218 746.32 746.22 765.11 
3219 749.34 746.06 765.11 
3220 753.78 746.06 765.11 
3221 754.99 746.12 765.11 
3222 756.10 746.21 765.11 
3223 760.03 746.14 765.11 
3224 756.48 746.24 765.11 
3225 750.68 746.09 765.11 
3226 748.88 746.39 765.11 
3227 751.86 746.10 765.11 
3228 758.62 746.45 765.11 
3229 750.80 746.38 765.11 
3230 748.12 746.08 765.11 
3231 744.84 746.15 765.11 
3232 745.05 746.13 765.11 
3233 752.44 745.94 765.11 
3234 750.53 745.79 765.11 
3235 755.72 745.71 765.11 
3236 751.49 745.69 765.11 
3237 754.36 745.94 765.11 
3238 753.02 746.01 765.11 
3239 749.35 745.82 765.11 
3240 755.29 745.59 765.11 
3241 752.83 745.17 765.11 
3242 755.55 745.69 765.11 
3243 757.40 745.44 765.11 
3244 755.64 745.32 765.11 
3245 750.72 745.97 765.11 
3246 752.89 745.42 765.11 
3247 752.94 746.24 765.11 
3248 752.88 746.47 765.11 
3249 754.67 746.52 765.11 
3250 748.14 747.06 765.11 
3251 751.61 747.02 765.11 
3252 755.44 747.03 765.11 
3253 751.81 747.04 765.11 
3254 757.34 746.94 765.11 
3255 753.15 747.03 765.11 
3256 749.78 746.82 765.11 
3257 751.41 747.06 765.11 
3258 754.07 747.16 765.11 
3259 752.13 746.55 765.11 
3260 756.28 746.90 765.11 
3261 753.03 746.66 765.11 
3262 757.63 747.05 765.11 
3263 750.41 747.09 765.11 
3264 752.13 746.83 765.11 
3265 752.28 746.41 765.11 
3266 751.25 746.48 765.11 
3267 758.61 745.84 765.11 
3268 752.08 745.90 765.11 
3269 755.76 746.88 765.11 
3270 749.82 746.97 765.11 
3271 754.60 746.43 765.11 
3272 753.45 746.40 765.11 
3273 752.87 746.27 765.11 
3274 755.19 746.74 765.11 
3275 753.25 746.46 765.11 
3276 752.30 745.82 765.11 
3277 758.83 745.18 765.11 
3278 758.80 745.52 765.11 
3279 761.10 745.30 765.11 
3280 749.31 745.53 765.11 
3281 759.92 745.32 765.11 
3282 753.62 745.42 765.11 
3283 750.10 744.87 765.11 
3284 756.96 744.82 765.11 
3285 750.51 744.86 765.11 
3286 756.37 744.85 765.11 
3287 750.07 745.10 765.11 
3288 750.87 746.46 765.11 
3289 750.94 746.45 765.11 
3290 756.73 746.31 765.11 
3291 750.95 746.10 765.11 
3292 752.55 746.44 765.11 
3293 751.27 747.43 765.11 
3294 748.54 746.84 765.11 
3295 754.97 747.05 765.11 
3296 756.31 747.55 765.11 
3297 755.25 747.27 765.11 
3298 753.20 747.38 765.11 
3299 756.13 747.17 765.11 
3300 754.03 747.06 765.11 
3301 753.31 747.36 765.11 
3302 753.74 747.12 765.11 
3303 755.63 747.13 765.11 
3304 752.90 747.13 765.11 
3305 749.86 747.18 765.11 
3306 758.58 746.97 765.11 
3307 755.95 747.19 765.11 
3308 753.50 747.02 765.11 
3309 753.76 747.12 765.11 
3310 755.43 746.76 765.11 
3311 757.15 746.39 765.11 
3312 756.35 746.44 765.11 
3313 751.96 746.78 765.11 
3314 751.89 746.80 765.11 
3315 754.68 746.99 765.11 
3316 751.41 747.06 765.11 
3317 754.36 746.90 765.11 
3318 750.93 746.96 765.11 
3319 754.07 746.60 765.11 
3320 749.70 746.92 765.11 
3321 755.95 747.16 765.11 
3322 752.78 746.91 765.11 
3323 753.72 746.37 765.11 
3324 750.39 746.10 765.11 
3325 755.82 745.94 765.11 
3326 749.71 746.08 765.11 
3327 749.97 746.46 765.11 
3328 753.61 746.72 765.11 
3329 751.80 746.32 765.11 
3330 754.70 746.73 765.11 
3331 750.86 746.67 765.11 
3332 752.93 747.00 765.11 
3333 753.12 746.52 765.11 
3334 754.57 746.89 765.11 
3335 754.90 746.54 765.11 
3336 746.28 746.55 765.11 
3337 757.66 746.69 765.11 
3338 750.41 746.68 765.11 
3339 755.34 746.37 765.11 
3340 753.38 745.89 765.11 
3341 754.06 745.87 765.11 
3342 750.31 746.12 765.11 
3343 754.68 745.89 765.11 
3344 747.43 746.32 765.11 
3345 757.01 746.52 765.11 
3346 751.18 746.79 765.11 
3347 752.12 746.83 765.11 
3348 751.09 746.81 765.11 
3349 756.78 747.05 765.11 
3350 751.22 746.80 765.11 
3351 757.40 747.04 765.11 
3352 756.41 746.80 765.11 
3353 759.12 747.00 765.11 
3354 753.45 746.75 765.11 
3355 752.90 747.19 765.11 
3356 753.61 747.11 765.11 
3357 758.68 747.06 765.11 
3358 753.63 746.91 765.11 
3359 748.46 746.96 765.11 
3360 759.58 746.92 765.11 
3361 753.47 746.96 765.11 
3362 757.70 746.91 765.11 
3363 750.04 747.11 765.11 
3364 751.16 746.81 765.11 
3365 752.38 746.77 765.11 
3366 753.31 746.46 765.11 
3367 752.60 746.94 765.11 
3368 749.68 746.54 765.11 
3369 756.71 746.54 765.11 
3370 751.81 746.61 765.11 
3371 751.09 746.56 765.11 
3372 751.00 746.86 765.11 
3373 752.87 746.81 765.11 
3374 750.13 747.07 765.11 
3375 756.28 747.02 765.11 
3376 748.65 746.49 765.11 
3377 755.28 745.41 765.11 
3378 749.80 746.51 765.11 
3379 752.04 745.18 765.11 
3380 749.98 744.91 765.11 
3381 754.01 746.24 765.11 
3382 750.39 747.07 765.11 
3383 751.45 747.03 765.11 
3384 748.23 746.49 765.11 
3385 747.72 746.99 765.11 
3386 753.23 745.45 765.11 
3387 751.39 746.00 765.11 
3388 752.93 746.52 765.11 
3389 756.77 747.06 765.11 
3390 751.81 746.80 765.11 
3391 754.68 746.82 765.11 
3392 753.33 746.76 765.11 
3393 757.52 746.98 765.11 
3394 751.80 746.99 765.11 
3395 749.90 746.95 765.11 
3396 752.65 746.75 765.11 
3397 756.29 746.94 765.11 
3398 755.26 747.04 765.11 
3399 756.49 747.05 765.11 
3400 751.84 747.00 765.11 
3401 756.47 747.02 765.11 
3402 753.76 746.89 765.11 
3403 754.25 746.81 765.11 
3404 752.36 746.82 765.11 
3405 756.90 746.75 765.11 
3406 757.82 746.90 765.11 
3407 751.65 746.67 765.11 
3408 750.27 746.71 765.11 
3409 752.83 746.68 765.11 
3410 751.57 746.66 765.11 
3411 756.09 746.64 765.11 
3412 756.02 746.66 765.11 
3413 757.23 746.62 765.11 
3414 748.77 746.63 765.11 
3415 751.01 746.66 765.11 
3416 752.67 746.56 765.11 
3417 750.94 746.56 765.11 
3418 756.02 746.58 765.11 
3419 751.77 746.61 765.11 
3420 756.48 746.63 765.11 
3421 752.50 746.66 765.11 
3422 750.12 746.71 765.11 
3423 755.47 746.76 765.11 
3424 754.52 746.52 765.11 
3425 754.87 746.55 765.11 
3426 755.37 746.55 765.11 
3427 757.28 746.59 765.11 
3428 757.78 746.60 765.11 
3429 754.08 746.58 765.11 
3430 754.02 746.63 765.11 
3431 753.11 746.69 765.11 
3432 751.86 746.71 765.11 
3433 748.97 746.44 765.11 
3434 752.36 746.70 765.11 
3435 759.62 746.45 765.11 
3436 748.91 746.70 765.11 
3437 758.83 746.65 765.11 
3438 753.24 746.69 765.11 
3439 754.76 746.72 765.11 
3440 755.75 746.75 765.11 
3441 760.64 746.51 765.11 
3442 759.02 746.56 765.11 
3443 754.68 746.51 765.11 
3444 751.42 746.55 765.11 
3445 753.49 746.53 765.11 
3446 752.86 746.58 765.11 
3447 752.31 746.53 765.11 
3448 759.06 746.53 765.11 
3449 753.36 746.80 765.11 
3450 755.88 747.02 765.11 
3451 754.13 747.01 765.11 
3452 752.96 746.78 765.11 
3453 752.47 746.64 765.11 
3454 750.93 746.94 765.11 
3455 756.97 746.36 765.11 
3456 755.01 746.64 765.11 
3457 756.47 746.57 765.11 
3458 756.33 746.45 765.11 
3459 750.29 746.47 765.11 
3460 753.73 746.52 765.11 
3461 752.60 746.64 765.11 
3462 758.46 746.68 765.11 
3463 756.19 746.54 765.11 
3464 753.63 746.55 765.11 
3465 752.50 746.62 765.11 
3466 757.02 746.87 765.11 
3467 754.50 746.92 765.11 
3468 749.31 746.88 765.11 
3469 747.55 746.65 765.11 
3470 756.68 746.66 765.11 
3471 751.80 746.62 765.11 
3472 754.01 746.61 765.11 
3473 751.01 746.63 765.11 
3474 753.67 746.63 765.11 
3475 753.66 746.86 765.11 
3476 755.77 746.85 765.11 
3477 760.02 746.86 765.11 
3478 749.89 746.81 765.11 
3479 755.59 746.85 765.11 
3480 749.64 746.91 765.11 
3481 757.26 746.91 765.11 
3482 756.44 746.85 765.11 
3483 753.70 746.73 765.11 
3484 751.71 746.83 765.11 
3485 747.69 746.77 765.11 
3486 750.25 746.69 765.11 
3487 755.74 746.83 765.11 
3488 754.83 746.89 765.11 
3489 751.63 746.97 765.11 
3490 752.21 746.96 765.11 
3491 755.57 747.09 765.11 
3492 751.31 747.00 765.11 
3493 755.14 747.12 765.11 
3494 752.46 746.87 765.11 
3495 755.77 747.18 765.11 
3496 753.79 746.96 765.11 
3497 755.10 747.04 765.11 
3498 748.52 747.01 765.11 
3499 754.76 746.90 765.11 
3500 750.61 746.90 765.11 
3501 752.96 746.67 765.11 
3502 753.21 746.36 765.11 
3503 749.18 746.13 765.11 
3504 753.96 746.31 765.11 
3505 753.15 746.13 765.11 
3506 758.80 746.51 765.11 
3507 747.14 746.62 765.11 
3508 754.15 746.33 765.11 
3509 752.06 746.40 765.11 
3510 755.03 746.61 765.11 
3511 750.95 746.68 765.11 
3512 757.93 747.01 765.11 
3513 756.96 746.72 765.11 
3514 748.55 746.60 765.11 
3515 749.32 746.13 765.11 
3516 752.80 746.40 765.11 
3517 752.11 746.46 765.11 
3518 749.96 746.54 765.11 
3519 753.11 746.34 765.11 
3520 751.60 746.53 765.11 
3521 750.64 746.62 765.11 
3522 757.20 746.32 765.11 
3523 752.66 746.67 765.11 
3524 753.17 746.38 765.11 
3525 750.76 746.53 765.11 
3526 748.92 746.44 765.11 
3527 752.03 746.28 765.11 
3528 756.99 746.21 765.11 
3529 751.87 746.41 765.11 
3530 753.64 746.65 765.11 
3531 756.32 746.74 765.11 
3532 749.28 746.71 765.11 
3533 747.37 746.74 765.11 
3534 752.01 746.92 765.11 
3535 749.44 746.60 765.11 
3536 754.48 746.97 765.11 
3537 753.14 746.74 765.11 
3538 745.14 746.76 765.11 
3539 747.58 746.71 765.11 
3540 753.13 746.59 765.11 
3541 756.32 746.62 765.11 
3542 748.29 746.48 765.11 
3543 751.80 746.28 765.11 
3544 751.08 746.42 765.11 
3545 754.60 746.20 765.11 
3546 751.90 745.90 765.11 
3547 752.14 745.91 765.11 
3548 754.45 745.71 765.11 
3549 751.92 745.34 765.11 
3550 755.93 745.17 765.11 
3551 754.62 745.31 765.11 
3552 755.59 745.31 765.11 
3553 753.28 745.90 765.11 
3554 755.37 745.62 765.11 
3555 751.29 745.86 765.11 
3556 749.70 745.38 765.11 
3557 754.89 745.45 765.11 
3558 753.59 745.46 765.11 
3559 756.68 745.20 765.11 
3560 751.49 745.38 765.11 
3561 748.59 745.37 765.11 
3562 749.91 745.55 765.11 
3563 752.97 745.52 765.11 
3564 759.70 745.16 765.11 
3565 749.29 745.58 765.11 
3566 751.66 745.64 765.11 
3567 749.23 745.47 765.11 
3568 746.57 745.51 765.11 
3569 748.77 745.73 765.11 
3570 756.91 746.01 765.11 
3571 753.87 746.04 765.11 
3572 751.59 745.97 765.11 
3573 751.76 746.17 765.11 
3574 754.52 746.20 765.11 
3575 754.22 745.95 765.11 
3576 749.49 745.73 765.11 
3577 748.88 745.82 765.11 
3578 750.44 746.00 765.11 
3579 749.87 746.01 765.11 
3580 755.28 745.86 765.11 
3581 751.72 745.99 765.11 
3582 755.10 745.77 765.11 
3583 752.22 745.48 765.11 
3584 749.45 745.44 765.11 
3585 755.13 745.48 765.11 
3586 752.85 745.46 765.11 
3587 753.84 745.31 765.11 
3588 754.98 745.53 765.11 
3589 750.65 745.51 765.11 
3590 752.13 745.87 765.11 
3591 754.58 746.35 765.11 
3592 754.19 746.59 765.11 
3593 753.48 746.60 765.11 
3594 748.81 746.68 765.11 
3595 753.88 746.58 765.11 
3596 755.00 746.56 765.11 
3597 753.08 746.42 765.11 
3598 752.46 746.51 765.11 
3599 748.59 746.63 765.11 
3600 762.14 746.58 765.11 
3601 755.86 746.43 765.11 
3602 755.53 746.35 765.11 
3603 755.92 746.49 765.11 
3604 752.42 746.45 765.11 
3605 754.85 746.25 765.11 
3606 750.80 746.19 765.11 
3607 750.89 746.31 765.11 
3608 753.92 746.18 765.11 
3609 750.24 745.87 765.11 
3610 752.38 746.10 765.11 
3611 745.01 746.04 765.11 
3612 751.02 746.05 765.11 
3613 754.13 745.95 765.11 
3614 754.13 745.98 765.11 
3615 750.44 746.00 765.11 
3616 748.03 746.03 765.11 
3617 750.95 745.56 765.11 
3618 759.41 745.17 765.11 
3619 749.56 745.41 765.11 
3620 754.15 745.71 765.11 
3621 753.46 745.83 765.11 
3622 754.71 745.85 765.11 
3623 755.27 745.95 765.11 
3624 751.68 746.10 765.11 
3625 753.11 746.22 765.11 
3626 752.21 746.58 765.11 
3627 752.80 746.73 765.11 
3628 756.98 746.63 765.11 
3629 753.80 746.47 765.11 
3630 751.11 746.41 765.11 
3631 754.72 746.66 765.11 
3632 762.53 746.75 765.11 
3633 753.46 746.73 765.11 
3634 750.71 746.71 765.11 
3635 756.91 746.64 765.11 
3636 751.81 746.81 765.11 
3637 751.48 746.91 765.11 
3638 754.28 746.72 765.11 
3639 749.12 746.89 765.11 
3640 748.68 747.09 765.11 
3641 753.34 746.54 765.11 
3642 752.89 746.89 765.11 
3643 761.80 746.90 765.11 
3644 750.37 746.79 765.11 
3645 751.90 746.95 765.11 
3646 747.19 746.49 765.11 
3647 754.28 746.45 765.11 
3648 755.65 746.63 765.11 
3649 750.41 746.44 765.11 
3650 752.09 746.73 765.11 
3651 756.13 746.83 765.11 
3652 755.75 746.77 765.11 
3653 754.53 746.68 765.11 
3654 752.46 746.73 765.11 
3655 751.61 746.80 765.11 
3656 752.74 746.87 765.11 
3657 754.10 746.77 765.11 
3658 754.28 746.69 765.11 
3659 753.02 746.73 765.11 
3660 751.43 747.24 765.11 
3661 749.17 746.83 765.11 
3662 746.91 747.22 765.11 
3663 751.34 746.88 765.11 
3664 751.59 747.08 765.11 
3665 754.76 747.01 765.11 
3666 751.26 747.27 765.11 
3667 753.29 747.47 765.11 
3668 757.09 747.46 765.11 
3669 752.40 747.68 765.11 
3670 753.22 747.74 765.11 
3671 755.16 747.72 765.11 
3672 746.19 747.55 765.11 
3673 756.28 746.95 765.11 
3674 757.19 746.97 765.11 
3675 746.69 746.98 765.11 
3676 755.45 747.09 765.11 
3677 748.05 747.19 765.11 
3678 752.46 747.62 765.11 
3679 749.86 747.77 765.11 
3680 749.93 747.59 765.11 
3681 754.64 747.43 765.11 
3682 753.13 748.22 765.11 
3683 754.04 748.04 765.11 
3684 758.48 747.59 765.11 
3685 754.37 747.64 765.11 
3686 756.92 748.21 765.11 
3687 754.38 747.98 765.11 
3688 748.96 747.57 765.11 
3689 746.49 747.71 765.11 
3690 752.67 747.82 765.11 
3691 750.39 747.69 765.11 
3692 751.23 747.68 765.11 
3693 750.21 747.96 765.11 
3694 757.34 748.16 765.11 
3695 753.92 747.78 765.11 
3696 755.10 747.77 765.11 
3697 755.52 747.44 765.11 
3698 758.00 747.64 765.11 
3699 755.84 747.62 765.11 
3700 751.52 747.64 765.11 
3701 757.98 747.88 765.11 
3702 755.26 747.91 765.11 
3703 753.53 747.63 765.11 
3704 751.51 747.96 765.11 
3705 751.31 748.20 765.11 
3706 751.72 748.55 765.11 
3707 751.70 748.73 765.11 
3708 759.02 749.01 765.11 
3709 754.03 748.53 765.11 
3710 757.65 749.41 765.11 
3711 757.11 748.78 765.11 
3712 754.06 748.60 765.11 
3713 751.90 748.61 765.11 
3714 747.78 748.81 765.11 
3715 748.24 748.90 765.11 
3716 754.73 748.46 765.11 
3717 753.26 748.11 765.11 
3718 752.33 748.85 765.11 
3719 758.13 748.58 765.11 
3720 758.38 748.96 765.11 
3721 750.25 748.46 765.11 
3722 758.78 749.01 765.11 
3723 760.31 748.32 765.11 
3724 749.77 748.65 765.11 
3725 755.44 747.56 765.11 
3726 751.23 747.59 765.11 
3727 748.90 746.87 765.11 
3728 751.66 747.96 765.11 
3729 755.35 746.68 765.11 
3730 752.88 747.44 765.11 
3731 753.10 747.55 765.11 
3732 747.58 747.07 765.11 
3733 752.61 747.93 765.11 
3734 750.90 747.74 765.11 
3735 754.86 747.62 765.11 
3736 754.02 747.74 765.11 
3737 750.50 746.92 765.11 
3738 754.32 747.47 765.11 
3739 752.55 747.80 765.11 
3740 754.47 746.87 765.11 
3741 751.50 746.42 765.11 
3742 753.27 746.65 765.11 
3743 754.03 746.15 765.11 
3744 752.02 746.85 765.11 
3745 752.67 746.78 765.11 
3746 749.87 748.36 765.11 
3747 755.22 747.98 765.11 
3748 750.53 747.48 765.11 
3749 756.21 748.38 765.11 
3750 753.26 748.15 765.11 
3751 754.06 747.89 765.11 
3752 750.12 747.69 765.11 
3753 753.99 747.11 765.11 
3754 753.36 747.96 765.11 
3755 748.18 747.52 765.11 
3756 753.25 747.29 765.11 
3757 751.15 747.00 765.11 
3758 754.38 747.78 765.11 
3759 754.53 748.25 765.11 
3760 753.77 748.25 765.11 
3761 750.84 748.25 765.11 
3762 753.78 748.20 765.11 
3763 754.51 747.73 765.11 
3764 752.63 748.53 765.11 
3765 751.35 748.24 765.11 
3766 755.36 747.68 765.11 
3767 753.48 747.92 765.11 
3768 756.05 747.92 765.11 
3769 750.06 747.88 765.11 
3770 755.08 747.81 765.11 
3771 750.93 748.15 765.11 
3772 747.55 747.93 765.11 
3773 756.62 748.20 765.11 
3774 749.59 748.87 765.11 
3775 749.62 748.02 765.11 
3776 752.37 748.21 765.11 
3777 759.11 748.97 765.11 
3778 750.60 748.60 765.11 
3779 754.23 748.82 765.11 
3780 752.46 748.89 765.11 
3781 752.83 749.19 765.11 
3782 750.59 749.46 765.11 
3783 755.92 749.25 765.11 
3784 749.70 749.17 765.11 
3785 756.04 748.28 765.11 
3786 755.20 748.91 765.11 
3787 751.01 749.00 765.11 
3788 754.68 748.73 765.11 
3789 748.72 748.73 765.11 
3790 754.59 748.34 765.11 
3791 746.51 748.07 765.11 
3792 752.61 747.92 765.11 
3793 758.44 747.99 765.11 
3794 750.20 748.03 765.11 
3795 756.84 747.58 765.11 
3796 757.51 748.14 765.11 
3797 752.91 748.57 765.11 
3798 756.60 748.64 765.11 
3799 759.95 748.77 765.11 
3800 754.16 748.26 765.11 
3801 752.06 748.32 765.11 
3802 755.92 747.75 765.11 
3803 756.71 747.96 765.11 
3804 749.85 748.03 765.11 
3805 749.99 748.32 765.11 
3806 749.27 748.50 765.11 
3807 751.29 748.74 765.11 
3808 755.46 748.72 765.11 
3809 749.93 748.87 765.11 
3810 754.51 748.73 765.11 
3811 754.09 748.89 765.11 
3812 747.83 748.83 765.11 
3813 753.86 748.48 765.11 
3814 755.75 748.47 765.11 
3815 755.46 748.10 765.11 
3816 753.58 748.35 765.11 
3817 753.00 748.94 765.11 
3818 752.03 749.11 765.11 
3819 754.73 749.11 765.11 
3820 752.18 748.63 765.11 
3821 757.53 748.84 765.11 
3822 752.68 748.72 765.11 
3823 757.17 748.97 765.11 
3824 754.62 748.74 765.11 
3825 751.32 748.75 765.11 
3826 750.19 748.70 765.11 
3827 749.34 748.08 765.11 
3828 754.55 747.91 765.11 
3829 753.57 748.30 765.11 
3830 756.73 749.26 765.11 
3831 751.30 749.16 765.11 
3832 760.69 748.96 765.11 
3833 758.06 749.26 765.11 
3834 754.56 749.28 765.11 
3835 749.82 748.93 765.11 
3836 750.77 749.68 765.11 
3837 752.62 749.52 765.11 
3838 750.99 749.00 765.11 
3839 753.27 749.66 765.11 
3840 754.65 749.18 765.11 
3841 755.05 749.36 765.11 
3842 755.53 749.19 765.11 
3843 755.60 748.86 765.11 
3844 753.44 748.93 765.11 
3845 753.03 748.92 765.11 
3846 753.51 748.07 765.11 
3847 752.12 748.44 765.11 
3848 750.68 748.71 765.11 
3849 752.24 748.69 765.11 
3850 753.13 748.31 765.11 
3851 750.50 748.62 765.11 
3852 750.04 748.72 765.11 
3853 755.80 748.49 765.11 
3854 759.94 748.31 765.11 
3855 756.77 748.26 765.11 
3856 750.84 747.87 765.11 
3857 755.51 747.95 765.11 
3858 754.26 747.77 765.11 
3859 752.97 748.01 765.11 
3860 756.74 747.79 765.11 
3861 754.31 747.60 765.11 
3862 755.45 747.91 765.11 
3863 756.48 747.38 765.11 
3864 748.31 747.90 765.11 
3865 756.14 747.85 765.11 
3866 751.53 747.64 765.11 
3867 753.89 746.92 765.11 
3868 751.57 746.68 765.11 
3869 751.69 747.18 765.11 
3870 753.92 747.07 765.11 
3871 752.51 747.53 765.11 
3872 751.33 747.49 765.11 
3873 751.99 746.35 765.11 
3874 754.10 746.50 765.11 
3875 754.00 746.50 765.11 
3876 753.79 745.88 765.11 
3877 752.47 745.78 765.11 
3878 752.29 745.68 765.11 
3879 754.25 746.19 765.11 
3880 753.36 746.41 765.11 
3881 756.87 747.20 765.11 
3882 749.50 747.63 765.11 
3883 750.51 746.84 765.11 
3884 755.28 746.96 765.11 
3885 751.89 747.25 765.11 
3886 752.41 747.22 765.11 
3887 752.04 746.41 765.11 
3888 751.76 746.74 765.11 
3889 756.18 746.76 765.11 
3890 756.66 746.44 765.11 
3891 750.19 746.72 765.11 
3892 748.82 746.57 765.11 
3893 751.92 746.07 765.11 
3894 750.98 746.64 765.11 
3895 750.79 747.12 765.11 
3896 752.43 747.14 765.11 
3897 751.67 747.15 765.11 
3898 754.67 747.30 765.11 
3899 749.71 747.39 765.11 
3900 757.30 747.39 765.11 
3901 751.73 747.40 765.11 
3902 756.65 747.16 765.11 
3903 752.93 747.26 765.11 
3904 753.49 747.59 765.11 
3905 758.47 747.16 765.11 
3906 751.93 746.81 765.11 
3907 753.11 747.19 765.11 
3908 751.52 747.45 765.11 
3909 754.74 747.23 765.11 
3910 753.40 747.46 765.11 
3911 748.46 747.41 765.11 
3912 752.95 746.98 765.11 
3913 754.79 746.95 765.11 
3914 751.78 747.25 765.11 
3915 751.67 747.31 765.11 
3916 752.90 747.67 765.11 
3917 746.84 747.73 765.11 
3918 753.77 747.75 765.11 
3919 753.41 747.78 765.11 
3920 748.18 747.86 765.11 
3921 756.45 747.91 765.11 
3922 751.05 747.70 765.11 
3923 752.88 747.94 765.11 
3924 753.08 747.73 765.11 
3925 750.89 747.91 765.11 
3926 752.09 747.96 765.11 
3927 752.79 748.02 765.11 
3928 746.22 748.97 765.11 
3929 756.16 748.25 765.11 
3930 755.41 748.97 765.11 
3931 753.02 748.57 765.11 
3932 756.46 748.66 765.11 
3933 752.31 748.77 765.11 
3934 750.84 748.74 765.11 
3935 753.07 748.99 765.11 
3936 752.55 749.27 765.11 
3937 753.30 749.30 765.11 
3938 757.53 749.18 765.11 
3939 754.35 748.81 765.11 
3940 750.98 749.08 765.11 
3941 755.81 748.86 765.11 
3942 753.15 749.24 765.11 
3943 752.31 749.41 765.11 
3944 754.64 749.47 765.11 
3945 750.91 749.40 765.11 
3946 760.93 749.75 765.11 
3947 756.91 749.81 765.11 
3948 753.35 749.87 765.11 
3949 749.54 749.84 765.11 
3950 757.22 749.77 765.11 
3951 757.97 749.41 765.11 
3952 751.61 749.37 765.11 
3953 755.91 749.74 765.11 
3954 754.08 749.59 765.11 
3955 752.31 749.41 765.11 
3956 750.98 749.38 765.11 
3957 752.28 749.08 765.11 
3958 748.93 749.19 765.11 
3959 748.97 749.50 765.11 
3960 751.96 749.51 765.11 
3961 753.96 749.23 765.11 
3962 752.02 749.10 765.11 
3963 755.42 749.03 765.11 
3964 753.08 749.10 765.11 
3965 758.39 749.40 765.11 
3966 755.17 749.51 765.11 
3967 752.07 749.38 765.11 
3968 749.02 749.49 765.11 
3969 756.02 749.50 765.11 
3970 754.49 749.47 765.11 
3971 755.12 749.64 765.11 
3972 755.75 749.64 765.11 
3973 749.08 749.67 765.11 
3974 754.97 749.71 765.11 
3975 750.66 749.73 765.11 
3976 748.28 749.74 765.11 
3977 748.14 749.63 765.11 
3978 752.56 749.55 765.11 
3979 751.46 749.53 765.11 
3980 753.27 749.69 765.11 
3981 757.00 749.60 765.11 
3982 751.60 749.70 765.11 
3983 755.76 750.00 765.11 
3984 753.73 750.06 765.11 
3985 750.51 749.68 765.11 
3986 755.90 749.70 765.11 
3987 755.01 749.39 765.11 
3988 752.56 749.54 765.11 
3989 763.81 749.22 765.11 
3990 750.77 749.13 765.11 
3991 752.61 749.19 765.11 
3992 752.86 749.07 765.11 
3993 752.56 749.27 765.11 
3994 754.20 749.12 765.11 
3995 753.99 749.02 765.11 
3996 753.96 749.10 765.11 
3997 762.53 749.50 765.11 
3998 755.79 750.08 765.11 
3999 755.48 749.50 765.11 
4000 748.68 749.54 765.11 
4001 756.45 749.09 765.11 
4002 755.55 749.32 765.11 
4003 749.80 749.33 765.11 
4004 751.42 749.66 765.11 
4005 755.52 749.85 765.11 
4006 750.78 749.63 765.11 
4007 760.66 749.53 765.11 
4008 754.88 749.81 765.11 
4009 754.18 749.88 765.11 
4010 747.22 749.92 765.11 
4011 751.31 749.69 765.11 
4012 751.12 749.50 765.11 
4013 757.00 749.74 765.11 
4014 751.88 749.65 765.11 
4015 758.35 749.39 765.11 
4016 754.91 749.45 765.11 
4017 756.74 749.32 765.11 
4018 750.04 749.23 765.11 
4019 759.45 749.28 765.11 
4020 751.76 749.16 765.11 
4021 752.83 749.33 765.11 
4022 752.91 749.16 765.11 
4023 752.63 749.21 765.11 
4024 754.10 749.32 765.11 
4025 755.22 749.41 765.11 
4026 754.59 749.32 765.11 
4027 754.94 749.34 765.11 
4028 759.89 749.23 765.11 
4029 749.26 749.11 765.11 
4030 753.66 749.10 765.11 
4031 751.98 748.84 765.11 
4032 755.64 748.82 765.11 
4033 750.96 749.02 765.11 
4034 749.68 749.58 765.11 
4035 752.41 749.30 765.11 
4036 747.99 749.22 765.11 
4037 752.64 749.25 765.11 
4038 754.87 749.65 765.11 
4039 748.82 749.71 765.11 
4040 753.11 749.79 765.11 
4041 755.08 749.77 765.11 
4042 754.66 749.83 765.11 
4043 755.01 750.00 765.11 
4044 748.38 749.95 765.11 
4045 751.20 749.90 765.11 
4046 756.45 749.67 765.11 
4047 752.90 749.44 765.11 
4048 755.34 749.90 765.11 
4049 757.15 749.92 765.11 
4050 756.22 749.90 765.11 
4051 751.79 749.80 765.11 
4052 752.98 749.81 765.11 
4053 751.18 749.65 765.11 
4054 751.68 750.01 765.11 
4055 755.33 749.98 765.11 
4056 751.45 749.88 765.11 
4057 751.72 749.88 765.11 
4058 754.96 749.95 765.11 
4059 753.35 749.93 765.11 
4060 750.85 749.76 765.11 
4061 750.90 749.41 765.11 
4062 747.80 749.68 765.11 
4063 758.26 749.41 765.11 
4064 751.80 749.00 765.11 
4065 760.85 748.97 765.11 
4066 753.70 748.60 765.11 
4067 751.75 748.88 765.11 
4068 755.47 748.93 765.11 
4069 754.76 748.51 765.11 
4070 753.29 748.84 765.11 
4071 750.00 748.42 765.11 
4072 752.20 748.65 765.11 
4073 749.83 748.65 765.11 
4074 754.72 749.32 765.11 
4075 755.52 749.49 765.11 
4076 759.49 749.42 765.11 
4077 748.60 749.42 765.11 
4078 752.14 749.63 765.11 
4079 753.56 749.72 765.11 
4080 758.41 749.83 765.11 
4081 751.84 749.68 765.11 
4082 754.86 749.85 765.11 
4083 753.50 749.51 765.11 
4084 754.11 749.72 765.11 
4085 753.84 749.61 765.11 
4086 754.16 749.63 765.11 
4087 754.05 749.70 765.11 
4088 751.54 749.81 765.11 
4089 752.83 749.43 765.11 
4090 757.31 749.66 765.11 
4091 753.15 749.69 765.11 
4092 753.44 749.95 765.11 
4093 755.33 750.09 765.11 
4094 755.71 750.13 765.11 
4095 758.34 750.10 765.11 
4096 758.89 749.54 765.11 
4097 755.88 749.74 765.11 
4098 757.13 749.43 765.11 
4099 755.77 749.52 765.11 
4100 750.13 749.45 765.11 
4101 752.83 749.45 765.11 
4102 757.13 749.30 765.11 
4103 749.23 748.79 765.11 
4104 755.89 748.64 765.11 
4105 750.98 748.74 765.11 
4106 748.34 748.77 765.11 
4107 753.80 748.22 765.11 
4108 749.82 747.84 765.11 
4109 748.46 747.93 765.11 
4110 745.27 747.40 765.11 
4111 750.72 747.63 765.11 
4112 753.09 747.41 765.11 
4113 755.32 747.43 765.11 
4114 753.69 747.32 765.11 
4115 755.27 747.36 765.11 
4116 755.62 747.31 765.11 
4117 752.23 746.46 765.11 
4118 749.22 747.22 765.11 
4119 754.16 747.02 765.11 
4120 756.37 746.64 765.11 
4121 749.59 747.45 765.11 
4122 751.76 747.14 765.11 
4123 752.68 746.57 765.11 
4124 753.73 747.30 765.11 
4125 752.85 746.91 765.11 
4126 750.69 747.26 765.11 
4127 753.98 747.93 765.11 
4128 753.61 747.60 765.11 
4129 750.87 747.59 765.11 
4130 758.18 747.55 765.11 
4131 744.90 747.81 765.11 
4132 754.73 747.49 765.11 
4133 749.99 747.58 765.11 
4134 752.06 747.57 765.11 
4135 757.32 747.54 765.11 
4136 752.72 747.55 765.11 
4137 750.87 747.60 765.11 
4138 751.42 747.50 765.11 
4139 753.06 748.00 765.11 
4140 758.30 747.58 765.11 
4141 755.89 747.98 765.11 
4142 748.08 747.31 765.11 
4143 756.63 747.71 765.11 
4144 750.58 747.64 765.11 
4145 749.54 747.64 765.11 
4146 751.55 747.76 765.11 
4147 750.75 747.58 765.11 
4148 760.93 748.06 765.11 
4149 753.51 747.67 765.11 
4150 753.97 748.04 765.11 
4151 749.52 748.45 765.11 
4152 755.55 748.17 765.11 
4153 747.69 747.87 765.11 
4154 758.67 748.37 765.11 
4155 752.06 748.51 765.11 
4156 758.11 748.26 765.11 
4157 748.88 747.85 765.11 
4158 754.16 748.22 765.11 
4159 747.66 747.69 765.11 
4160 752.99 747.34 765.11 
4161 757.69 747.96 765.11 
4162 753.42 748.00 765.11 
4163 758.79 748.23 765.11 
4164 755.91 748.67 765.11 
4165 750.96 748.72 765.11 
4166 754.38 748.05 765.11 
4167 754.13 747.82 765.11 
4168 754.93 747.48 765.11 
4169 753.05 747.68 765.11 
4170 747.24 747.52 765.11 
4171 757.21 747.09 765.11 
4172 751.69 748.05 765.11 
4173 751.76 748.07 765.11 
4174 758.32 747.31 765.11 
4175 754.44 746.79 765.11 
4176 754.48 746.68 765.11 
4177 752.78 747.21 765.11 
4178 752.77 747.06 765.11 
4179 750.17 746.76 765.11 
4180 758.10 746.99 765.11 
4181 760.06 746.73 765.11 
4182 751.14 747.36 765.11 
4183 752.71 748.21 765.11 
4184 756.51 747.87 765.11 
4185 750.86 747.68 765.11 
4186 755.56 748.32 765.11 
4187 756.52 748.29 765.11 
4188 759.69 747.75 765.11 
4189 753.34 747.55 765.11 
4190 755.11 747.80 765.11 
4191 751.37 748.33 765.11 
4192 757.47 748.39 765.11 
4193 752.16 748.57 765.11 
4194 751.86 748.52 765.11 
4195 747.23 748.47 765.11 
4196 757.07 748.19 765.11 
4197 747.69 748.34 765.11 
4198 757.16 747.98 765.11 
4199 752.43 748.36 765.11 
4200 752.12 747.93 765.11 
4201 756.78 747.69 765.11 
4202 755.88 747.63 765.11 
4203 745.82 747.70 765.11 
4204 744.47 748.51 765.11 
4205 754.59 748.27 765.11 
4206 754.36 748.17 765.11 
4207 757.67 748.06 765.11 
4208 756.44 748.14 765.11 
4209 754.62 748.01 765.11 
4210 749.11 747.95 765.11 
4211 749.51 748.43 765.11 
4212 753.51 748.64 765.11 
4213 751.95 748.06 765.11 
4214 750.30 748.42 765.11 
4215 749.57 748.38 765.11 
4216 752.82 749.41 765.11 
4217 752.63 747.82 765.11 
4218 750.89 747.54 765.11 
4219 760.10 749.18 765.11 
4220 747.48 749.45 765.11 
4221 750.89 749.03 765.11 
4222 754.04 748.56 765.11 
4223 758.44 749.07 765.11 
4224 756.17 748.43 765.11 
4225 751.29 748.72 765.11 
4226 756.23 748.26 765.11 
4227 753.17 748.23 765.11 
4228 757.99 748.65 765.11 
4229 752.52 747.61 765.11 
4230 757.43 748.20 765.11 
4231 754.63 748.18 765.11 
4232 753.63 748.22 765.11 
4233 755.71 748.29 765.11 
4234 751.06 748.10 765.11 
4235 752.61 748.58 765.11 
4236 750.34 748.17 765.11 
4237 756.05 747.93 765.11 
4238 754.69 747.85 765.11 
4239 749.60 748.26 765.11 
4240 754.78 748.20 765.11 
4241 757.25 748.09 765.11 
4242 757.75 748.11 765.11 
4243 751.57 748.22 765.11 
4244 752.98 748.09 765.11 
4245 754.26 747.84 765.11 
4246 755.06 748.13 765.11 
4247 760.70 747.88 765.11 
4248 751.66 748.39 765.11 
4249 754.24 747.90 765.11 
4250 757.15 748.33 765.11 
4251 753.16 748.83 765.11 
4252 753.20 748.76 765.11 
4253 754.10 748.86 765.11 
4254 750.53 748.88 765.11 
4255 752.17 748.91 765.11 
4256 757.98 748.57 765.11 
4257 750.15 748.56 765.11 
4258 754.90 748.66 765.11 
4259 757.72 748.95 765.11 
4260 754.08 749.12 765.11 
4261 755.86 748.79 765.11 
4262 759.64 748.71 765.11 
4263 752.96 748.75 765.11 
4264 753.63 748.68 765.11 
4265 754.90 748.74 765.11 
4266 754.50 748.46 765.11 
4267 752.36 748.78 765.11 
4268 758.35 748.80 765.11 
4269 757.50 748.72 765.11 
4270 757.72 748.75 765.11 
4271 750.15 748.73 765.11 
4272 759.38 748.74 765.11 
4273 750.63 748.31 765.11 
4274 756.24 748.69 765.11 
4275 755.27 748.69 765.11 
4276 754.06 748.67 765.11 
4277 751.22 748.60 765.11 
4278 750.87 748.46 765.11 
4279 748.43 748.38 765.11 
4280 754.08 748.21 765.11 
4281 756.40 748.38 765.11 
4282 758.14 748.53 765.11 
4283 758.73 748.40 765.11 
4284 754.42 748.48 765.11 
4285 757.67 747.81 765.11 
4286 757.25 748.34 765.11 
4287 749.20 748.37 765.11 
4288 751.25 748.60 765.11 
4289 751.26 748.76 765.11 
4290 761.37 748.86 765.11 
4291 749.14 748.76 765.11 
4292 761.78 748.74 765.11 
4293 748.66 748.84 765.11 
4294 748.33 748.88 765.11 
4295 753.45 748.85 765.11 
4296 752.74 748.57 765.11 
4297 752.46 748.86 765.11 
4298 749.39 749.03 765.11 
4299 751.60 748.77 765.11 
4300 756.70 748.60 765.11 
4301 751.19 748.67 765.11 
4302 754.06 748.72 765.11 
4303 755.25 748.24 765.11 
4304 751.69 748.22 765.11 
4305 757.22 748.68 765.11 
4306 752.72 748.75 765.11 
4307 756.11 748.74 765.11 
4308 757.33 748.78 765.11 
4309 750.11 748.80 765.11 
4310 755.49 748.93 765.11 
4311 754.48 749.07 765.11 
4312 758.54 749.14 765.11 
4313 756.29 749.08 765.11 
4314 754.89 749.19 765.11 
4315 756.83 749.29 765.11 
4316 754.78 749.25 765.11 
4317 757.10 748.87 765.11 
4318 755.19 749.03 765.11 
4319 756.89 749.01 765.11 
4320 755.89 748.70 765.11 
4321 757.86 748.47 765.11 
4322 750.02 748.77 765.11 
4323 752.57 748.76 765.11 
4324 755.75 748.65 765.11 
4325 750.93 748.71 765.11 
4326 759.02 748.80 765.11 
4327 756.99 748.53 765.11 
4328 751.23 749.02 765.11 
4329 753.53 749.32 765.11 
4330 750.92 749.09 765.11 
4331 754.35 748.78 765.11 
4332 755.37 748.71 765.11 
4333 755.92 749.01 765.11 
4334 754.02 749.01 765.11 
4335 751.39 748.96 765.11 
4336 755.78 748.95 765.11 
4337 758.82 748.95 765.11 
4338 756.93 748.76 765.11 
4339 757.86 748.84 765.11 
4340 752.80 748.92 765.11 
4341 753.39 749.09 765.11 
4342 755.72 749.16 765.11 
4343 753.49 749.24 765.11 
4344 757.42 749.11 765.11 
4345 752.48 748.95 765.11 
4346 747.77 748.99 765.11 
4347 758.28 748.71 765.11 
4348 751.70 749.05 765.11 
4349 749.25 749.24 765.11 
4350 757.26 749.24 765.11 
4351 751.14 748.97 765.11 
4352 753.11 749.24 765.11 
4353 752.99 749.20 765.11 
4354 749.15 749.15 765.11 
4355 757.23 749.20 765.11 
4356 757.46 749.11 765.11 
4357 751.15 749.10 765.11 
4358 753.49 749.07 765.11 
4359 754.12 749.03 765.11 
4360 752.73 749.08 765.11 
4361 757.02 749.02 765.11 
4362 756.22 748.40 765.11 
4363 754.56 748.43 765.11 
4364 751.39 748.12 765.11 
4365 757.38 747.75 765.11 
4366 750.80 748.07 765.11 
4367 753.23 748.38 765.11 
4368 754.65 748.44 765.11 
4369 747.62 748.72 765.11 
4370 758.01 749.30 765.11 
4371 752.31 748.96 765.11 
4372 757.50 749.06 765.11 
4373 756.26 749.13 765.11 
4374 754.53 749.11 765.11 
4375 754.43 749.15 765.11 
4376 749.83 749.12 765.11 
4377 753.29 749.13 765.11 
4378 754.87 749.19 765.11 
4379 756.27 749.24 765.11 
4380 757.63 749.18 765.11 
4381 753.27 749.25 765.11 
4382 752.99 749.16 765.11 
4383 750.94 749.11 765.11 
4384 749.93 749.04 765.11 
4385 752.99 749.05 765.11 
4386 757.93 749.04 765.11 
4387 751.94 748.99 765.11 
4388 750.08 748.92 765.11 
4389 754.43 748.92 765.11 
4390 753.33 748.88 765.11 
4391 755.19 748.97 765.11 
4392 752.35 748.94 765.11 
4393 753.04 748.95 765.11 
4394 752.96 748.99 765.11 
4395 752.37 748.99 765.11 
4396 755.63 748.99 765.11 
4397 750.13 749.07 765.11 
4398 753.82 749.06 765.11 
4399 751.34 748.96 765.11 
4400 758.57 748.95 765.11 
4401 753.56 748.97 765.11 
4402 754.45 748.82 765.11 
4403 757.73 748.89 765.11 
4404 755.59 748.80 765.11 
4405 756.50 748.80 765.11 
4406 758.61 748.84 765.11 
4407 758.95 748.82 765.11 
4408 750.71 748.86 765.11 
4409 759.93 748.86 765.11 
4410 754.23 748.90 765.11 
4411 756.98 748.86 765.11 
4412 752.75 748.98 765.11 
4413 751.39 748.84 765.11 
4414 756.04 748.77 765.11 
4415 754.07 749.05 765.11 
4416 755.33 748.33 765.11 
4417 758.88 748.51 765.11 
4418 754.18 748.38 765.11 
4419 756.48 748.36 765.11 
4420 750.80 748.96 765.11 
4421 753.61 748.95 765.11 
4422 759.37 749.04 765.11 
4423 754.11 749.18 765.11 
4424 756.70 749.10 765.11 
4425 747.79 749.03 765.11 
4426 755.13 749.02 765.11 
4427 752.82 749.08 765.11 
4428 750.08 749.04 765.11 
4429 757.52 749.09 765.11 
4430 757.30 749.16 765.11 
4431 758.45 749.19 765.11 
4432 752.21 749.16 765.11 
4433 756.84 749.25 765.11 
4434 755.06 749.22 765.11 
4435 753.87 749.16 765.11 
4436 756.73 749.18 765.11 
4437 753.84 749.07 765.11 
4438 751.66 749.10 765.11 
4439 759.91 749.05 765.11 
4440 754.44 749.09 765.11 
4441 757.09 749.13 765.11 
