Iter | Sampling Pol | Evaluation Pol | Best (Sampled) 
   0 -10.48 -16.22 -100000000.00 
   1 -10.43 -15.47 -10.48 
   2 -10.12 -14.50 -10.43 
   3 -9.67 -15.00 -10.12 
   4 -9.76 -13.97 -9.67 
   5 -9.84 -13.88 -9.67 
   6 -10.10 -14.98 -9.67 
   7 -9.58 -15.08 -9.67 
   8 -9.42 -14.83 -9.58 
   9 -9.77 -14.56 -9.42 
  10 -9.83 -13.96 -9.42 
  11 -9.66 -13.84 -9.42 
  12 -9.59 -13.19 -9.42 
  13 -9.20 -13.07 -9.42 
  14 -9.17 -12.70 -9.20 
  15 -9.30 -12.23 -9.17 
  16 -9.01 -12.54 -9.17 
  17 -9.27 -11.89 -9.01 
  18 -9.06 -12.51 -9.01 
  19 -9.06 -12.03 -9.01 
  20 -9.37 -11.76 -9.01 
  21 -8.81 -12.46 -9.01 
  22 -9.07 -12.49 -8.81 
  23 -9.42 -12.66 -8.81 
  24 -9.26 -11.92 -8.81 
  25 -9.31 -12.23 -8.81 
  26 -9.36 -11.75 -8.81 
  27 -9.15 -11.78 -8.81 
  28 -9.04 -11.56 -8.81 
  29 -9.38 -12.25 -8.81 
  30 -9.19 -11.95 -8.81 
  31 -9.46 -11.49 -8.81 
  32 -8.93 -10.89 -8.81 
  33 -9.01 -10.36 -8.81 
  34 -8.63 -9.94 -8.81 
  35 -9.13 -10.07 -8.63 
  36 -8.54 -10.01 -8.63 
  37 -8.81 -10.03 -8.54 
  38 -8.84 -9.90 -8.54 
  39 -8.70 -10.16 -8.54 
  40 -9.03 -10.25 -8.54 
  41 -8.48 -10.07 -8.54 
  42 -8.74 -10.16 -8.48 
  43 -8.44 -10.30 -8.48 
  44 -8.55 -10.03 -8.44 
  45 -8.63 -10.43 -8.44 
  46 -8.52 -10.56 -8.44 
  47 -8.56 -10.37 -8.44 
  48 -8.68 -9.89 -8.44 
  49 -8.01 -9.56 -8.44 
  50 -8.48 -9.26 -8.01 
  51 -8.39 -9.52 -8.01 
  52 -8.57 -9.66 -8.01 
  53 -8.45 -9.53 -8.01 
  54 -8.42 -9.65 -8.01 
  55 -7.87 -9.86 -8.01 
  56 -8.53 -10.09 -7.87 
  57 -7.98 -9.79 -7.87 
  58 -8.24 -9.32 -7.87 
  59 -8.39 -9.25 -7.87 
  60 -8.09 -9.31 -7.87 
  61 -8.33 -9.63 -7.87 
  62 -8.05 -9.68 -7.87 
  63 -8.02 -9.55 -7.87 
  64 -8.44 -9.56 -7.87 
  65 -8.44 -9.86 -7.87 
  66 -8.06 -9.54 -7.87 
  67 -8.03 -9.37 -7.87 
  68 -7.89 -8.94 -7.87 
  69 -8.17 -9.22 -7.87 
  70 -8.35 -9.31 -7.87 
  71 -8.09 -9.01 -7.87 
  72 -7.67 -8.42 -7.87 
  73 -8.45 -8.60 -7.67 
  74 -8.14 -8.57 -7.67 
  75 -7.58 -9.02 -7.67 
  76 -8.22 -8.83 -7.58 
  77 -8.05 -8.34 -7.58 
  78 -7.95 -8.29 -7.58 
  79 -7.82 -8.33 -7.58 
  80 -8.08 -8.28 -7.58 
  81 -8.00 -8.03 -7.58 
  82 -8.08 -8.67 -7.58 
  83 -7.91 -8.53 -7.58 
  84 -7.35 -8.55 -7.58 
  85 -7.79 -8.30 -7.35 
  86 -7.95 -8.16 -7.35 
  87 -7.71 -8.20 -7.35 
  88 -8.07 -8.52 -7.35 
  89 -7.82 -8.15 -7.35 
  90 -7.96 -8.25 -7.35 
  91 -8.04 -8.20 -7.35 
  92 -7.70 -8.32 -7.35 
  93 -8.09 -8.54 -7.35 
  94 -7.97 -8.70 -7.35 
  95 -8.05 -8.62 -7.35 
  96 -7.68 -8.46 -7.35 
  97 -7.56 -8.49 -7.35 
  98 -7.81 -8.51 -7.35 
  99 -7.77 -8.38 -7.35 
 100 -7.34 -8.50 -7.35 
 101 -7.72 -8.49 -7.34 
 102 -7.59 -8.85 -7.34 
 103 -7.32 -8.58 -7.34 
 104 -7.91 -9.00 -7.32 
 105 -7.84 -9.13 -7.32 
 106 -7.84 -8.66 -7.32 
 107 -7.66 -8.73 -7.32 
 108 -7.39 -8.63 -7.32 
 109 -7.42 -8.49 -7.32 
 110 -7.55 -8.51 -7.32 
 111 -7.87 -8.56 -7.32 
 112 -7.82 -8.64 -7.32 
 113 -7.81 -8.26 -7.32 
 114 -7.50 -8.23 -7.32 
 115 -7.56 -8.22 -7.32 
 116 -7.69 -7.96 -7.32 
 117 -7.47 -7.96 -7.32 
 118 -7.78 -7.78 -7.32 
 119 -7.43 -8.00 -7.32 
 120 -7.50 -7.78 -7.32 
 121 -7.79 -7.71 -7.32 
 122 -7.26 -7.84 -7.32 
 123 -7.63 -7.74 -7.26 
 124 -7.06 -7.79 -7.26 
 125 -7.53 -7.94 -7.06 
 126 -7.63 -7.81 -7.06 
 127 -7.40 -7.77 -7.06 
 128 -7.75 -7.73 -7.06 
 129 -7.41 -8.08 -7.06 
 130 -7.19 -8.36 -7.06 
 131 -7.17 -7.95 -7.06 
 132 -7.77 -7.66 -7.06 
 133 -7.57 -7.31 -7.06 
 134 -7.48 -7.30 -7.06 
 135 -7.34 -7.46 -7.06 
 136 -7.30 -7.39 -7.06 
 137 -7.67 -7.42 -7.06 
 138 -7.37 -7.43 -7.06 
 139 -7.39 -7.35 -7.06 
 140 -7.52 -7.34 -7.06 
 141 -7.37 -7.25 -7.06 
 142 -7.65 -7.23 -7.06 
 143 -7.28 -7.42 -7.06 
 144 -6.94 -7.42 -7.06 
 145 -7.41 -7.64 -6.94 
 146 -7.26 -7.47 -6.94 
 147 -7.28 -7.57 -6.94 
 148 -7.28 -7.50 -6.94 
 149 -7.37 -7.52 -6.94 
 150 -6.87 -7.43 -6.94 
 151 -7.36 -7.34 -6.87 
 152 -7.40 -7.38 -6.87 
 153 -7.53 -7.41 -6.87 
 154 -7.37 -7.37 -6.87 
 155 -7.36 -7.43 -6.87 
 156 -7.10 -7.33 -6.87 
 157 -7.16 -7.47 -6.87 
 158 -7.26 -7.36 -6.87 
 159 -7.11 -7.38 -6.87 
 160 -7.29 -7.48 -6.87 
 161 -7.10 -7.62 -6.87 
 162 -7.24 -7.37 -6.87 
 163 -7.32 -7.38 -6.87 
 164 -6.70 -7.38 -6.87 
 165 -7.29 -7.40 -6.70 
 166 -7.21 -7.50 -6.70 
 167 -7.07 -7.59 -6.70 
 168 -7.10 -7.59 -6.70 
 169 -7.14 -7.44 -6.70 
 170 -6.80 -7.30 -6.70 
 171 -7.19 -7.30 -6.70 
 172 -6.99 -7.15 -6.70 
 173 -6.98 -7.16 -6.70 
 174 -6.89 -7.24 -6.70 
 175 -7.13 -7.18 -6.70 
 176 -7.21 -7.13 -6.70 
 177 -6.59 -7.13 -6.70 
 178 -7.00 -7.15 -6.59 
 179 -7.08 -7.02 -6.59 
 180 -6.77 -7.04 -6.59 
 181 -6.51 -7.07 -6.59 
 182 -7.09 -7.02 -6.51 
 183 -6.78 -7.02 -6.51 
 184 -7.18 -7.13 -6.51 
 185 -6.70 -7.15 -6.51 
 186 -6.72 -7.00 -6.51 
 187 -6.91 -7.06 -6.51 
 188 -6.96 -7.11 -6.51 
 189 -6.79 -7.13 -6.51 
 190 -6.90 -7.08 -6.51 
 191 -7.00 -7.09 -6.51 
 192 -6.91 -7.22 -6.51 
 193 -6.96 -7.09 -6.51 
 194 -6.53 -7.26 -6.51 
 195 -6.74 -7.24 -6.51 
 196 -6.69 -7.11 -6.51 
 197 -6.81 -7.18 -6.51 
 198 -6.51 -7.07 -6.51 
 199 -6.60 -7.16 -6.51 
 200 -6.85 -7.18 -6.51 
 201 -6.48 -7.12 -6.51 
 202 -6.71 -7.09 -6.48 
 203 -6.60 -7.00 -6.48 
 204 -6.56 -7.11 -6.48 
 205 -6.80 -7.00 -6.48 
 206 -6.78 -7.03 -6.48 
 207 -6.64 -6.99 -6.48 
 208 -6.58 -7.05 -6.48 
 209 -6.60 -7.01 -6.48 
 210 -6.68 -6.99 -6.48 
 211 -6.49 -6.93 -6.48 
 212 -6.57 -6.93 -6.48 
 213 -6.45 -7.00 -6.48 
 214 -6.52 -6.95 -6.45 
 215 -6.65 -7.00 -6.45 
 216 -6.93 -6.99 -6.45 
 217 -6.86 -7.08 -6.45 
 218 -6.72 -6.97 -6.45 
 219 -6.75 -7.01 -6.45 
 220 -6.78 -7.03 -6.45 
 221 -6.73 -7.03 -6.45 
 222 -6.54 -6.94 -6.45 
 223 -6.48 -6.93 -6.45 
 224 -6.54 -6.97 -6.45 
 225 -6.64 -7.00 -6.45 
 226 -6.81 -6.99 -6.45 
 227 -6.68 -6.89 -6.45 
 228 -6.42 -7.02 -6.45 
 229 -6.59 -7.06 -6.42 
 230 -6.53 -7.01 -6.42 
 231 -6.63 -7.12 -6.42 
 232 -6.48 -7.07 -6.42 
 233 -6.52 -6.93 -6.42 
 234 -6.75 -7.16 -6.42 
 235 -6.77 -7.11 -6.42 
 236 -6.34 -7.05 -6.42 
 237 -6.65 -6.90 -6.34 
 238 -6.73 -7.01 -6.34 
 239 -6.47 -7.25 -6.34 
 240 -6.41 -7.07 -6.34 
 241 -6.52 -7.16 -6.34 
 242 -6.76 -7.10 -6.34 
 243 -6.91 -7.23 -6.34 
 244 -6.77 -7.18 -6.34 
 245 -6.51 -7.10 -6.34 
 246 -6.68 -7.15 -6.34 
 247 -6.44 -7.11 -6.34 
 248 -6.41 -7.16 -6.34 
 249 -6.88 -7.16 -6.34 
 250 -6.56 -7.33 -6.34 
 251 -6.45 -7.21 -6.34 
 252 -6.67 -7.34 -6.34 
 253 -6.55 -7.32 -6.34 
 254 -6.53 -7.36 -6.34 
 255 -6.28 -7.34 -6.34 
 256 -6.37 -7.23 -6.28 
 257 -6.59 -7.30 -6.28 
 258 -6.73 -7.30 -6.28 
 259 -6.56 -7.26 -6.28 
 260 -6.64 -7.25 -6.28 
 261 -6.84 -7.23 -6.28 
 262 -6.51 -7.14 -6.28 
 263 -6.64 -7.09 -6.28 
 264 -6.72 -7.08 -6.28 
 265 -6.53 -7.23 -6.28 
 266 -6.50 -7.05 -6.28 
 267 -6.78 -7.18 -6.28 
 268 -6.53 -7.05 -6.28 
 269 -6.52 -7.12 -6.28 
 270 -6.65 -7.15 -6.28 
 271 -6.25 -7.22 -6.28 
 272 -6.58 -7.09 -6.25 
 273 -6.45 -7.22 -6.25 
 274 -6.56 -7.13 -6.25 
 275 -6.64 -7.14 -6.25 
 276 -6.45 -7.34 -6.25 
 277 -6.58 -7.21 -6.25 
 278 -6.49 -7.32 -6.25 
 279 -6.61 -7.29 -6.25 
 280 -6.77 -7.41 -6.25 
 281 -6.48 -7.35 -6.25 
 282 -6.55 -7.13 -6.25 
 283 -6.59 -7.32 -6.25 
 284 -6.57 -7.17 -6.25 
 285 -6.84 -7.27 -6.25 
 286 -6.44 -7.26 -6.25 
 287 -6.58 -7.31 -6.25 
 288 -6.56 -7.18 -6.25 
 289 -6.74 -7.21 -6.25 
 290 -6.58 -7.16 -6.25 
 291 -6.32 -7.42 -6.25 
 292 -6.48 -7.22 -6.25 
 293 -6.69 -7.32 -6.25 
 294 -6.64 -7.26 -6.25 
 295 -6.34 -6.98 -6.25 
 296 -6.48 -7.09 -6.25 
 297 -6.26 -7.06 -6.25 
 298 -6.38 -7.12 -6.25 
 299 -6.61 -6.95 -6.25 
 300 -6.65 -7.01 -6.25 
 301 -6.74 -6.98 -6.25 
 302 -6.28 -6.93 -6.25 
 303 -6.47 -7.15 -6.25 
 304 -6.31 -6.94 -6.25 
 305 -6.58 -7.11 -6.25 
 306 -6.28 -7.15 -6.25 
 307 -6.48 -7.16 -6.25 
 308 -6.45 -7.11 -6.25 
 309 -6.46 -7.13 -6.25 
 310 -6.48 -7.15 -6.25 
 311 -6.23 -7.18 -6.25 
 312 -6.48 -7.09 -6.23 
 313 -6.20 -7.18 -6.23 
 314 -6.56 -7.37 -6.20 
 315 -6.27 -7.15 -6.20 
 316 -6.64 -7.48 -6.20 
 317 -6.42 -7.36 -6.20 
 318 -6.48 -7.41 -6.20 
 319 -6.25 -7.38 -6.20 
 320 -6.47 -7.30 -6.20 
 321 -6.49 -7.32 -6.20 
 322 -6.55 -7.33 -6.20 
 323 -6.09 -7.29 -6.20 
 324 -6.37 -7.37 -6.09 
 325 -6.31 -7.33 -6.09 
 326 -6.38 -7.36 -6.09 
 327 -6.30 -7.32 -6.09 
 328 -6.67 -7.24 -6.09 
 329 -6.33 -7.16 -6.09 
 330 -6.22 -7.24 -6.09 
 331 -6.45 -7.22 -6.09 
 332 -6.26 -7.27 -6.09 
 333 -6.58 -7.29 -6.09 
 334 -6.13 -7.12 -6.09 
 335 -6.32 -7.04 -6.09 
 336 -6.51 -7.16 -6.09 
 337 -6.21 -6.98 -6.09 
 338 -6.06 -7.16 -6.09 
 339 -6.21 -7.19 -6.06 
 340 -6.55 -6.98 -6.06 
 341 -6.15 -6.95 -6.06 
 342 -6.33 -7.06 -6.06 
 343 -6.45 -6.95 -6.06 
 344 -6.27 -6.94 -6.06 
 345 -6.15 -6.92 -6.06 
 346 -6.59 -6.80 -6.06 
 347 -6.52 -6.84 -6.06 
 348 -6.27 -6.90 -6.06 
 349 -6.87 -7.06 -6.06 
 350 -6.28 -7.01 -6.06 
 351 -6.14 -6.98 -6.06 
 352 -6.52 -7.04 -6.06 
 353 -6.26 -7.01 -6.06 
 354 -6.46 -7.04 -6.06 
 355 -6.67 -7.04 -6.06 
 356 -6.20 -7.10 -6.06 
 357 -6.15 -7.02 -6.06 
 358 -6.62 -6.95 -6.06 
 359 -6.38 -7.06 -6.06 
 360 -6.52 -6.97 -6.06 
 361 -6.60 -6.92 -6.06 
 362 -6.36 -6.89 -6.06 
 363 -6.06 -6.83 -6.06 
 364 -6.52 -6.91 -6.06 
 365 -6.36 -6.75 -6.06 
 366 -6.25 -6.73 -6.06 
 367 -5.94 -6.72 -6.06 
 368 -6.52 -6.73 -5.94 
 369 -6.53 -6.88 -5.94 
 370 -6.26 -6.80 -5.94 
 371 -6.24 -7.10 -5.94 
 372 -6.39 -6.98 -5.94 
 373 -6.09 -6.89 -5.94 
 374 -6.33 -7.00 -5.94 
 375 -6.09 -6.97 -5.94 
 376 -6.29 -6.84 -5.94 
 377 -6.18 -7.02 -5.94 
 378 -6.30 -6.91 -5.94 
 379 -6.33 -7.04 -5.94 
 380 -6.59 -6.98 -5.94 
 381 -6.57 -6.94 -5.94 
 382 -6.59 -6.99 -5.94 
 383 -6.54 -7.01 -5.94 
 384 -6.31 -6.90 -5.94 
 385 -6.11 -6.80 -5.94 
 386 -6.37 -6.86 -5.94 
 387 -6.20 -6.75 -5.94 
 388 -6.06 -6.74 -5.94 
 389 -6.43 -6.85 -5.94 
 390 -6.36 -6.84 -5.94 
 391 -6.26 -6.95 -5.94 
 392 -6.28 -6.65 -5.94 
 393 -6.19 -6.72 -5.94 
 394 -6.61 -6.82 -5.94 
 395 -6.22 -7.05 -5.94 
 396 -6.39 -6.77 -5.94 
 397 -6.42 -6.80 -5.94 
 398 -6.22 -6.78 -5.94 
 399 -6.10 -6.83 -5.94 
 400 -6.16 -6.74 -5.94 
 401 -6.23 -6.78 -5.94 
 402 -6.39 -6.83 -5.94 
 403 -6.28 -6.92 -5.94 
 404 -6.09 -6.86 -5.94 
 405 -6.34 -6.93 -5.94 
 406 -6.36 -6.89 -5.94 
 407 -6.19 -6.91 -5.94 
 408 -6.36 -6.94 -5.94 
 409 -6.06 -6.78 -5.94 
 410 -6.15 -6.89 -5.94 
 411 -6.03 -6.80 -5.94 
 412 -6.04 -6.89 -5.94 
 413 -6.25 -6.94 -5.94 
 414 -6.32 -6.81 -5.94 
 415 -6.04 -6.91 -5.94 
 416 -6.27 -6.87 -5.94 
 417 -6.26 -6.89 -5.94 
 418 -6.12 -6.83 -5.94 
 419 -6.06 -6.87 -5.94 
 420 -6.17 -6.91 -5.94 
 421 -6.34 -6.75 -5.94 
 422 -6.06 -6.74 -5.94 
 423 -6.25 -6.84 -5.94 
 424 -6.10 -6.66 -5.94 
 425 -6.19 -6.55 -5.94 
 426 -6.25 -6.74 -5.94 
 427 -6.58 -6.57 -5.94 
 428 -6.27 -6.49 -5.94 
 429 -6.03 -6.57 -5.94 
 430 -6.14 -6.55 -5.94 
 431 -6.18 -6.56 -5.94 
 432 -6.11 -6.62 -5.94 
 433 -5.90 -6.69 -5.94 
 434 -6.54 -6.59 -5.90 
 435 -6.41 -6.94 -5.90 
 436 -6.33 -6.90 -5.90 
 437 -6.36 -6.84 -5.90 
 438 -6.07 -6.76 -5.90 
 439 -6.29 -6.70 -5.90 
 440 -5.98 -6.88 -5.90 
 441 -6.12 -6.71 -5.90 
 442 -6.16 -6.78 -5.90 
 443 -6.29 -6.72 -5.90 
 444 -6.01 -6.76 -5.90 
 445 -5.86 -6.74 -5.90 
 446 -6.29 -6.80 -5.86 
 447 -6.14 -6.80 -5.86 
 448 -6.21 -6.76 -5.86 
 449 -6.41 -6.91 -5.86 
 450 -6.07 -6.77 -5.86 
 451 -6.71 -6.77 -5.86 
 452 -6.19 -6.74 -5.86 
 453 -6.38 -6.89 -5.86 
 454 -6.13 -6.65 -5.86 
 455 -6.04 -6.65 -5.86 
 456 -6.24 -6.69 -5.86 
 457 -6.10 -6.64 -5.86 
 458 -6.29 -6.85 -5.86 
 459 -6.24 -6.68 -5.86 
 460 -6.39 -6.81 -5.86 
 461 -6.17 -6.81 -5.86 
 462 -6.01 -6.61 -5.86 
 463 -6.19 -6.69 -5.86 
 464 -6.21 -6.60 -5.86 
 465 -6.20 -6.71 -5.86 
 466 -6.62 -6.83 -5.86 
 467 -5.99 -6.79 -5.86 
 468 -6.23 -6.71 -5.86 
 469 -6.34 -6.79 -5.86 
 470 -6.24 -6.73 -5.86 
 471 -5.85 -6.74 -5.86 
 472 -6.10 -6.68 -5.85 
 473 -6.64 -6.59 -5.85 
 474 -5.92 -6.88 -5.85 
 475 -6.22 -6.69 -5.85 
 476 -6.29 -6.66 -5.85 
 477 -5.88 -6.59 -5.85 
 478 -6.21 -6.63 -5.85 
 479 -6.33 -6.87 -5.85 
 480 -6.04 -6.72 -5.85 
 481 -6.34 -6.59 -5.85 
 482 -6.05 -6.62 -5.85 
 483 -6.24 -6.66 -5.85 
 484 -6.00 -6.47 -5.85 
 485 -5.99 -6.63 -5.85 
 486 -6.13 -6.51 -5.85 
 487 -6.33 -6.59 -5.85 
 488 -5.95 -6.58 -5.85 
 489 -6.21 -6.60 -5.85 
 490 -6.16 -6.54 -5.85 
 491 -6.40 -6.54 -5.85 
 492 -6.53 -6.56 -5.85 
 493 -6.36 -6.48 -5.85 
 494 -6.32 -6.48 -5.85 
 495 -6.48 -6.54 -5.85 
 496 -5.99 -6.38 -5.85 
 497 -6.21 -6.40 -5.85 
 498 -5.66 -6.43 -5.85 
 499 -6.14 -6.43 -5.66 
 500 -6.55 -6.48 -5.66 
 501 -6.31 -6.47 -5.66 
 502 -5.85 -6.55 -5.66 
 503 -6.48 -6.50 -5.66 
 504 -6.30 -6.51 -5.66 
 505 -6.12 -6.52 -5.66 
 506 -6.26 -6.54 -5.66 
 507 -6.17 -6.60 -5.66 
 508 -6.31 -6.60 -5.66 
 509 -6.05 -6.60 -5.66 
 510 -6.14 -6.58 -5.66 
 511 -6.23 -6.59 -5.66 
 512 -6.00 -6.48 -5.66 
 513 -6.11 -6.48 -5.66 
 514 -6.19 -6.60 -5.66 
 515 -5.75 -6.53 -5.66 
 516 -6.12 -6.45 -5.66 
 517 -6.08 -6.58 -5.66 
 518 -5.81 -6.58 -5.66 
 519 -6.12 -6.59 -5.66 
 520 -6.31 -6.51 -5.66 
 521 -6.30 -6.56 -5.66 
 522 -6.27 -6.50 -5.66 
 523 -6.28 -6.49 -5.66 
 524 -6.31 -6.48 -5.66 
 525 -6.28 -6.50 -5.66 
 526 -6.02 -6.49 -5.66 
 527 -6.12 -6.53 -5.66 
 528 -5.78 -6.57 -5.66 
 529 -6.11 -6.52 -5.66 
 530 -5.80 -6.60 -5.66 
 531 -6.14 -6.59 -5.66 
 532 -6.27 -6.60 -5.66 
 533 -6.01 -6.56 -5.66 
 534 -6.13 -6.62 -5.66 
 535 -6.05 -6.56 -5.66 
 536 -6.21 -6.58 -5.66 
 537 -6.21 -6.63 -5.66 
 538 -6.25 -6.59 -5.66 
 539 -5.95 -6.58 -5.66 
 540 -5.99 -6.59 -5.66 
 541 -6.08 -6.51 -5.66 
 542 -6.41 -6.49 -5.66 
 543 -6.42 -6.53 -5.66 
 544 -5.99 -6.66 -5.66 
 545 -6.29 -6.63 -5.66 
 546 -6.10 -6.56 -5.66 
 547 -5.93 -6.58 -5.66 
 548 -6.27 -6.58 -5.66 
 549 -5.86 -6.58 -5.66 
 550 -6.36 -6.59 -5.66 
 551 -6.05 -6.59 -5.66 
 552 -6.19 -6.60 -5.66 
 553 -5.79 -6.48 -5.66 
 554 -6.09 -6.57 -5.66 
 555 -6.07 -6.51 -5.66 
 556 -6.01 -6.59 -5.66 
 557 -5.96 -6.52 -5.66 
 558 -6.00 -6.53 -5.66 
 559 -6.10 -6.52 -5.66 
 560 -5.97 -6.63 -5.66 
 561 -6.03 -6.47 -5.66 
 562 -6.00 -6.65 -5.66 
 563 -5.96 -6.52 -5.66 
 564 -5.89 -6.48 -5.66 
 565 -6.34 -6.50 -5.66 
 566 -6.13 -6.52 -5.66 
 567 -6.01 -6.51 -5.66 
 568 -6.18 -6.51 -5.66 
 569 -6.11 -6.51 -5.66 
 570 -5.74 -6.49 -5.66 
 571 -6.08 -6.50 -5.66 
 572 -5.79 -6.53 -5.66 
 573 -5.78 -6.51 -5.66 
 574 -6.21 -6.44 -5.66 
 575 -6.19 -6.53 -5.66 
 576 -6.11 -6.52 -5.66 
 577 -6.17 -6.48 -5.66 
 578 -6.16 -6.48 -5.66 
 579 -6.19 -6.54 -5.66 
 580 -6.33 -6.50 -5.66 
 581 -6.21 -6.51 -5.66 
 582 -6.10 -6.52 -5.66 
 583 -6.01 -6.57 -5.66 
 584 -6.21 -6.55 -5.66 
 585 -6.16 -6.52 -5.66 
 586 -6.06 -6.50 -5.66 
 587 -6.03 -6.49 -5.66 
 588 -6.21 -6.52 -5.66 
 589 -5.90 -6.49 -5.66 
 590 -5.90 -6.46 -5.66 
 591 -5.98 -6.47 -5.66 
 592 -6.16 -6.48 -5.66 
 593 -5.90 -6.50 -5.66 
 594 -6.14 -6.48 -5.66 
 595 -5.86 -6.51 -5.66 
 596 -5.95 -6.51 -5.66 
 597 -6.17 -6.53 -5.66 
 598 -5.87 -6.50 -5.66 
 599 -6.00 -6.55 -5.66 
 600 -6.01 -6.51 -5.66 
 601 -6.12 -6.47 -5.66 
 602 -5.77 -6.55 -5.66 
 603 -6.05 -6.54 -5.66 
 604 -6.18 -6.63 -5.66 
 605 -5.77 -6.58 -5.66 
 606 -5.92 -6.51 -5.66 
 607 -5.91 -6.48 -5.66 
 608 -6.11 -6.48 -5.66 
 609 -5.91 -6.47 -5.66 
 610 -5.78 -6.46 -5.66 
 611 -5.85 -6.54 -5.66 
 612 -5.92 -6.54 -5.66 
 613 -6.04 -6.43 -5.66 
 614 -6.15 -6.56 -5.66 
 615 -5.82 -6.46 -5.66 
 616 -5.81 -6.42 -5.66 
 617 -5.84 -6.35 -5.66 
 618 -5.92 -6.41 -5.66 
 619 -6.20 -6.40 -5.66 
 620 -5.89 -6.48 -5.66 
 621 -6.02 -6.49 -5.66 
 622 -5.75 -6.49 -5.66 
 623 -5.77 -6.44 -5.66 
 624 -6.01 -6.47 -5.66 
 625 -6.14 -6.44 -5.66 
 626 -6.00 -6.44 -5.66 
 627 -6.02 -6.43 -5.66 
 628 -5.82 -6.45 -5.66 
 629 -5.80 -6.43 -5.66 
 630 -5.98 -6.42 -5.66 
 631 -5.91 -6.41 -5.66 
 632 -5.92 -6.39 -5.66 
 633 -6.28 -6.48 -5.66 
 634 -5.98 -6.43 -5.66 
 635 -6.09 -6.49 -5.66 
 636 -6.18 -6.45 -5.66 
 637 -6.27 -6.49 -5.66 
 638 -5.94 -6.49 -5.66 
 639 -6.19 -6.48 -5.66 
 640 -6.15 -6.41 -5.66 
 641 -5.90 -6.49 -5.66 
 642 -6.04 -6.36 -5.66 
 643 -6.22 -6.38 -5.66 
 644 -5.97 -6.52 -5.66 
 645 -5.91 -6.44 -5.66 
 646 -5.99 -6.44 -5.66 
 647 -6.11 -6.53 -5.66 
 648 -5.77 -6.52 -5.66 
 649 -6.03 -6.53 -5.66 
 650 -5.95 -6.56 -5.66 
 651 -6.23 -6.46 -5.66 
 652 -6.08 -6.41 -5.66 
 653 -6.03 -6.55 -5.66 
 654 -5.99 -6.51 -5.66 
 655 -6.10 -6.46 -5.66 
 656 -6.19 -6.48 -5.66 
 657 -6.01 -6.46 -5.66 
 658 -5.92 -6.48 -5.66 
 659 -6.12 -6.58 -5.66 
 660 -6.29 -6.50 -5.66 
 661 -5.95 -6.55 -5.66 
 662 -5.74 -6.58 -5.66 
 663 -6.18 -6.57 -5.66 
 664 -5.97 -6.55 -5.66 
 665 -5.97 -6.59 -5.66 
 666 -5.78 -6.52 -5.66 
 667 -5.97 -6.44 -5.66 
 668 -6.07 -6.44 -5.66 
 669 -5.74 -6.50 -5.66 
 670 -6.15 -6.47 -5.66 
 671 -6.01 -6.51 -5.66 
 672 -6.07 -6.49 -5.66 
 673 -6.28 -6.51 -5.66 
 674 -6.21 -6.47 -5.66 
 675 -6.26 -6.53 -5.66 
 676 -5.79 -6.50 -5.66 
 677 -6.26 -6.49 -5.66 
 678 -5.81 -6.49 -5.66 
 679 -5.85 -6.53 -5.66 
 680 -6.18 -6.48 -5.66 
 681 -6.13 -6.50 -5.66 
 682 -5.92 -6.53 -5.66 
 683 -6.20 -6.44 -5.66 
 684 -5.81 -6.50 -5.66 
 685 -6.27 -6.52 -5.66 
 686 -5.95 -6.28 -5.66 
 687 -6.14 -6.42 -5.66 
 688 -6.09 -6.43 -5.66 
 689 -6.24 -6.51 -5.66 
 690 -5.97 -6.49 -5.66 
 691 -5.87 -6.53 -5.66 
 692 -6.10 -6.47 -5.66 
 693 -6.12 -6.54 -5.66 
 694 -6.24 -6.49 -5.66 
 695 -6.10 -6.51 -5.66 
 696 -5.60 -6.48 -5.66 
 697 -6.03 -6.54 -5.60 
 698 -6.13 -6.46 -5.60 
 699 -6.04 -6.44 -5.60 
 700 -6.10 -6.31 -5.60 
 701 -5.99 -6.44 -5.60 
 702 -6.15 -6.47 -5.60 
 703 -5.85 -6.44 -5.60 
 704 -5.89 -6.39 -5.60 
 705 -6.18 -6.42 -5.60 
 706 -5.92 -6.43 -5.60 
 707 -5.88 -6.42 -5.60 
 708 -6.02 -6.47 -5.60 
 709 -5.72 -6.54 -5.60 
 710 -5.95 -6.50 -5.60 
 711 -6.12 -6.47 -5.60 
 712 -6.14 -6.50 -5.60 
 713 -5.83 -6.53 -5.60 
 714 -5.62 -6.42 -5.60 
 715 -5.96 -6.41 -5.60 
 716 -6.12 -6.40 -5.60 
 717 -5.96 -6.45 -5.60 
 718 -6.15 -6.36 -5.60 
 719 -5.94 -6.44 -5.60 
 720 -5.80 -6.43 -5.60 
 721 -5.87 -6.46 -5.60 
 722 -6.09 -6.45 -5.60 
 723 -5.91 -6.42 -5.60 
 724 -5.86 -6.41 -5.60 
 725 -5.66 -6.40 -5.60 
 726 -5.77 -6.40 -5.60 
 727 -6.11 -6.36 -5.60 
 728 -5.99 -6.47 -5.60 
 729 -5.88 -6.31 -5.60 
 730 -5.76 -6.38 -5.60 
 731 -5.93 -6.34 -5.60 
 732 -5.92 -6.42 -5.60 
 733 -6.08 -6.30 -5.60 
 734 -6.12 -6.39 -5.60 
 735 -5.83 -6.35 -5.60 
 736 -5.69 -6.43 -5.60 
 737 -6.02 -6.43 -5.60 
 738 -6.10 -6.41 -5.60 
 739 -5.98 -6.44 -5.60 
 740 -6.08 -6.44 -5.60 
 741 -5.95 -6.48 -5.60 
 742 -6.05 -6.50 -5.60 
 743 -5.95 -6.48 -5.60 
 744 -5.90 -6.52 -5.60 
 745 -5.99 -6.36 -5.60 
 746 -6.17 -6.48 -5.60 
 747 -5.86 -6.46 -5.60 
 748 -5.84 -6.46 -5.60 
 749 -6.10 -6.34 -5.60 
 750 -5.95 -6.35 -5.60 
 751 -6.04 -6.46 -5.60 
 752 -5.78 -6.46 -5.60 
 753 -5.73 -6.43 -5.60 
 754 -5.63 -6.44 -5.60 
 755 -6.00 -6.46 -5.60 
 756 -5.90 -6.48 -5.60 
 757 -6.03 -6.45 -5.60 
 758 -5.66 -6.45 -5.60 
 759 -6.13 -6.39 -5.60 
 760 -5.70 -6.41 -5.60 
 761 -5.74 -6.34 -5.60 
 762 -6.11 -6.38 -5.60 
 763 -5.92 -6.40 -5.60 
 764 -6.00 -6.38 -5.60 
 765 -5.97 -6.41 -5.60 
 766 -6.30 -6.38 -5.60 
 767 -5.93 -6.35 -5.60 
 768 -5.82 -6.38 -5.60 
 769 -5.92 -6.36 -5.60 
 770 -5.80 -6.42 -5.60 
 771 -5.90 -6.43 -5.60 
 772 -5.77 -6.45 -5.60 
 773 -5.80 -6.43 -5.60 
 774 -5.92 -6.42 -5.60 
 775 -6.06 -6.46 -5.60 
 776 -5.74 -6.42 -5.60 
 777 -5.84 -6.43 -5.60 
 778 -5.84 -6.43 -5.60 
 779 -5.91 -6.48 -5.60 
 780 -5.91 -6.41 -5.60 
 781 -5.78 -6.48 -5.60 
 782 -6.07 -6.50 -5.60 
 783 -5.82 -6.45 -5.60 
 784 -5.65 -6.46 -5.60 
 785 -6.02 -6.47 -5.60 
 786 -5.85 -6.48 -5.60 
 787 -6.01 -6.49 -5.60 
 788 -5.75 -6.50 -5.60 
 789 -5.83 -6.47 -5.60 
 790 -6.11 -6.45 -5.60 
 791 -6.01 -6.49 -5.60 
 792 -5.95 -6.51 -5.60 
 793 -5.83 -6.52 -5.60 
 794 -5.89 -6.61 -5.60 
 795 -5.88 -6.59 -5.60 
 796 -6.01 -6.57 -5.60 
 797 -6.00 -6.42 -5.60 
 798 -5.71 -6.53 -5.60 
 799 -5.95 -6.41 -5.60 
 800 -5.77 -6.33 -5.60 
 801 -5.78 -6.28 -5.60 
 802 -5.76 -6.43 -5.60 
 803 -6.02 -6.47 -5.60 
 804 -5.88 -6.35 -5.60 
 805 -5.72 -6.41 -5.60 
 806 -5.77 -6.42 -5.60 
 807 -6.07 -6.40 -5.60 
 808 -6.04 -6.32 -5.60 
 809 -5.72 -6.39 -5.60 
 810 -5.67 -6.42 -5.60 
 811 -5.57 -6.41 -5.60 
 812 -6.10 -6.36 -5.57 
 813 -6.01 -6.37 -5.57 
 814 -6.01 -6.37 -5.57 
 815 -6.10 -6.34 -5.57 
 816 -6.09 -6.56 -5.57 
 817 -5.82 -6.40 -5.57 
 818 -5.90 -6.40 -5.57 
 819 -5.98 -6.59 -5.57 
 820 -6.06 -6.47 -5.57 
 821 -5.86 -6.48 -5.57 
 822 -6.05 -6.49 -5.57 
 823 -5.88 -6.52 -5.57 
 824 -5.95 -6.51 -5.57 
 825 -6.09 -6.54 -5.57 
 826 -5.71 -6.47 -5.57 
 827 -6.15 -6.43 -5.57 
 828 -6.13 -6.42 -5.57 
 829 -6.22 -6.31 -5.57 
 830 -5.81 -6.35 -5.57 
 831 -5.98 -6.35 -5.57 
 832 -5.70 -6.40 -5.57 
 833 -5.89 -6.31 -5.57 
 834 -5.95 -6.37 -5.57 
 835 -5.93 -6.31 -5.57 
 836 -5.75 -6.31 -5.57 
 837 -5.76 -6.33 -5.57 
 838 -5.72 -6.46 -5.57 
 839 -6.22 -6.45 -5.57 
 840 -5.79 -6.47 -5.57 
 841 -5.75 -6.48 -5.57 
 842 -6.07 -6.40 -5.57 
 843 -6.08 -6.43 -5.57 
 844 -5.88 -6.46 -5.57 
 845 -5.86 -6.55 -5.57 
 846 -5.92 -6.50 -5.57 
 847 -5.66 -6.56 -5.57 
 848 -5.93 -6.40 -5.57 
 849 -5.79 -6.42 -5.57 
 850 -5.73 -6.48 -5.57 
 851 -6.12 -6.49 -5.57 
 852 -6.09 -6.45 -5.57 
 853 -5.98 -6.45 -5.57 
 854 -5.72 -6.39 -5.57 
 855 -6.07 -6.48 -5.57 
 856 -5.60 -6.49 -5.57 
 857 -6.04 -6.51 -5.57 
 858 -5.48 -6.51 -5.57 
 859 -5.86 -6.52 -5.48 
 860 -5.98 -6.57 -5.48 
 861 -5.76 -6.55 -5.48 
 862 -6.02 -6.54 -5.48 
 863 -5.92 -6.58 -5.48 
 864 -5.68 -6.44 -5.48 
 865 -5.85 -6.46 -5.48 
 866 -6.02 -6.47 -5.48 
 867 -5.80 -6.46 -5.48 
 868 -5.99 -6.47 -5.48 
 869 -5.60 -6.45 -5.48 
 870 -6.07 -6.47 -5.48 
 871 -5.98 -6.56 -5.48 
 872 -5.93 -6.45 -5.48 
 873 -6.00 -6.51 -5.48 
 874 -5.77 -6.47 -5.48 
 875 -5.91 -6.61 -5.48 
 876 -5.89 -6.52 -5.48 
 877 -5.78 -6.48 -5.48 
 878 -5.80 -6.37 -5.48 
 879 -5.63 -6.49 -5.48 
 880 -6.11 -6.37 -5.48 
 881 -5.72 -6.47 -5.48 
 882 -5.99 -6.46 -5.48 
 883 -5.96 -6.40 -5.48 
 884 -5.86 -6.49 -5.48 
 885 -5.68 -6.38 -5.48 
 886 -5.90 -6.31 -5.48 
 887 -5.91 -6.34 -5.48 
 888 -5.54 -6.43 -5.48 
 889 -5.68 -6.27 -5.48 
 890 -5.75 -6.34 -5.48 
 891 -5.92 -6.41 -5.48 
 892 -5.75 -6.40 -5.48 
 893 -5.90 -6.43 -5.48 
 894 -5.83 -6.36 -5.48 
 895 -5.88 -6.48 -5.48 
 896 -5.95 -6.57 -5.48 
 897 -5.99 -6.63 -5.48 
 898 -5.96 -6.44 -5.48 
 899 -5.57 -6.41 -5.48 
 900 -5.67 -6.41 -5.48 
 901 -5.84 -6.41 -5.48 
 902 -5.27 -6.37 -5.48 
 903 -5.82 -6.40 -5.27 
 904 -5.92 -6.38 -5.27 
 905 -5.88 -6.40 -5.27 
 906 -5.75 -6.33 -5.27 
 907 -5.90 -6.33 -5.27 
 908 -5.87 -6.45 -5.27 
 909 -5.92 -6.37 -5.27 
 910 -5.84 -6.36 -5.27 
 911 -5.75 -6.35 -5.27 
 912 -6.22 -6.36 -5.27 
 913 -5.78 -6.40 -5.27 
 914 -5.87 -6.36 -5.27 
 915 -5.85 -6.39 -5.27 
 916 -6.00 -6.33 -5.27 
 917 -5.75 -6.36 -5.27 
 918 -5.81 -6.31 -5.27 
 919 -5.60 -6.32 -5.27 
 920 -5.77 -6.25 -5.27 
 921 -5.80 -6.25 -5.27 
 922 -5.72 -6.30 -5.27 
 923 -5.65 -6.39 -5.27 
 924 -6.16 -6.30 -5.27 
 925 -5.68 -6.38 -5.27 
 926 -5.65 -6.44 -5.27 
 927 -5.88 -6.27 -5.27 
 928 -5.99 -6.34 -5.27 
 929 -6.08 -6.28 -5.27 
 930 -6.01 -6.37 -5.27 
 931 -5.91 -6.29 -5.27 
 932 -5.82 -6.22 -5.27 
 933 -5.90 -6.28 -5.27 
 934 -6.24 -6.36 -5.27 
 935 -6.22 -6.38 -5.27 
 936 -5.76 -6.35 -5.27 
 937 -5.68 -6.35 -5.27 
 938 -5.78 -6.36 -5.27 
 939 -5.88 -6.27 -5.27 
 940 -5.81 -6.23 -5.27 
 941 -5.95 -6.27 -5.27 
 942 -5.97 -6.28 -5.27 
 943 -6.10 -6.30 -5.27 
 944 -5.71 -6.26 -5.27 
 945 -5.92 -6.24 -5.27 
 946 -5.77 -6.23 -5.27 
 947 -5.92 -6.23 -5.27 
 948 -5.93 -6.33 -5.27 
 949 -5.78 -6.33 -5.27 
 950 -5.87 -6.28 -5.27 
 951 -5.74 -6.38 -5.27 
 952 -5.71 -6.35 -5.27 
 953 -5.74 -6.36 -5.27 
 954 -5.75 -6.35 -5.27 
 955 -5.84 -6.33 -5.27 
 956 -5.90 -6.29 -5.27 
 957 -6.07 -6.30 -5.27 
 958 -5.82 -6.28 -5.27 
 959 -5.90 -6.27 -5.27 
 960 -5.83 -6.31 -5.27 
 961 -6.09 -6.30 -5.27 
 962 -5.85 -6.29 -5.27 
 963 -5.77 -6.29 -5.27 
 964 -5.77 -6.24 -5.27 
 965 -5.41 -6.22 -5.27 
 966 -5.77 -6.23 -5.27 
 967 -6.01 -6.30 -5.27 
 968 -5.95 -6.22 -5.27 
 969 -6.08 -6.31 -5.27 
 970 -5.74 -6.24 -5.27 
 971 -5.62 -6.23 -5.27 
 972 -5.59 -6.29 -5.27 
 973 -5.99 -6.22 -5.27 
 974 -5.90 -6.18 -5.27 
 975 -5.97 -6.21 -5.27 
 976 -5.75 -6.29 -5.27 
 977 -5.78 -6.30 -5.27 
 978 -5.82 -6.35 -5.27 
 979 -5.96 -6.37 -5.27 
 980 -6.01 -6.23 -5.27 
 981 -6.32 -6.42 -5.27 
 982 -5.64 -6.23 -5.27 
 983 -5.85 -6.29 -5.27 
 984 -5.91 -6.32 -5.27 
 985 -5.80 -6.30 -5.27 
 986 -5.72 -6.35 -5.27 
 987 -5.58 -6.29 -5.27 
 988 -5.99 -6.31 -5.27 
 989 -5.85 -6.31 -5.27 
 990 -5.54 -6.37 -5.27 
 991 -5.86 -6.24 -5.27 
 992 -5.88 -6.29 -5.27 
 993 -5.76 -6.19 -5.27 
 994 -5.97 -6.23 -5.27 
 995 -5.76 -6.29 -5.27 
 996 -5.85 -6.22 -5.27 
 997 -5.67 -6.28 -5.27 
 998 -5.83 -6.27 -5.27 
 999 -5.63 -6.17 -5.27 
1000 -5.85 -6.17 -5.27 
1001 -5.78 -6.26 -5.27 
1002 -5.68 -6.27 -5.27 
1003 -5.59 -6.29 -5.27 
1004 -5.76 -6.18 -5.27 
1005 -6.03 -6.29 -5.27 
1006 -5.81 -6.24 -5.27 
1007 -5.74 -6.26 -5.27 
1008 -5.83 -6.17 -5.27 
1009 -5.81 -6.21 -5.27 
1010 -5.80 -6.20 -5.27 
1011 -5.89 -6.15 -5.27 
1012 -5.79 -6.26 -5.27 
1013 -5.81 -6.24 -5.27 
1014 -5.48 -6.25 -5.27 
1015 -5.93 -6.24 -5.27 
1016 -5.73 -6.27 -5.27 
1017 -6.09 -6.30 -5.27 
1018 -5.85 -6.27 -5.27 
1019 -5.68 -6.26 -5.27 
1020 -5.50 -6.17 -5.27 
1021 -5.78 -6.24 -5.27 
1022 -5.82 -6.28 -5.27 
1023 -6.04 -6.23 -5.27 
1024 -5.75 -6.24 -5.27 
1025 -5.76 -6.19 -5.27 
1026 -5.85 -6.23 -5.27 
1027 -5.72 -6.21 -5.27 
1028 -5.73 -6.22 -5.27 
1029 -5.95 -6.20 -5.27 
1030 -5.70 -6.36 -5.27 
1031 -5.82 -6.34 -5.27 
1032 -5.82 -6.35 -5.27 
1033 -5.72 -6.37 -5.27 
1034 -5.95 -6.41 -5.27 
1035 -5.56 -6.25 -5.27 
1036 -5.48 -6.27 -5.27 
1037 -5.88 -6.43 -5.27 
1038 -6.10 -6.42 -5.27 
1039 -5.71 -6.47 -5.27 
1040 -5.80 -6.32 -5.27 
1041 -5.61 -6.37 -5.27 
1042 -5.79 -6.35 -5.27 
1043 -5.79 -6.35 -5.27 
1044 -5.79 -6.35 -5.27 
1045 -5.98 -6.35 -5.27 
1046 -5.50 -6.36 -5.27 
1047 -5.42 -6.35 -5.27 
1048 -5.65 -6.42 -5.27 
1049 -5.80 -6.35 -5.27 
1050 -5.91 -6.39 -5.27 
1051 -5.82 -6.39 -5.27 
1052 -5.76 -6.38 -5.27 
1053 -5.77 -6.36 -5.27 
1054 -5.96 -6.33 -5.27 
1055 -5.89 -6.36 -5.27 
1056 -5.63 -6.38 -5.27 
1057 -5.77 -6.41 -5.27 
1058 -5.89 -6.41 -5.27 
1059 -5.91 -6.41 -5.27 
1060 -5.79 -6.41 -5.27 
1061 -6.37 -6.44 -5.27 
1062 -5.82 -6.42 -5.27 
1063 -5.88 -6.45 -5.27 
1064 -5.75 -6.46 -5.27 
1065 -5.92 -6.40 -5.27 
1066 -5.56 -6.48 -5.27 
1067 -5.75 -6.47 -5.27 
1068 -5.87 -6.45 -5.27 
1069 -5.88 -6.38 -5.27 
1070 -5.53 -6.47 -5.27 
1071 -5.84 -6.38 -5.27 
1072 -5.81 -6.49 -5.27 
1073 -5.94 -6.50 -5.27 
1074 -5.77 -6.43 -5.27 
1075 -6.23 -6.38 -5.27 
1076 -5.81 -6.30 -5.27 
1077 -5.48 -6.46 -5.27 
1078 -5.67 -6.44 -5.27 
1079 -5.62 -6.42 -5.27 
1080 -5.76 -6.33 -5.27 
1081 -5.51 -6.39 -5.27 
1082 -5.89 -6.35 -5.27 
1083 -5.71 -6.42 -5.27 
1084 -5.99 -6.42 -5.27 
1085 -5.90 -6.35 -5.27 
1086 -5.79 -6.32 -5.27 
1087 -5.81 -6.38 -5.27 
1088 -5.63 -6.33 -5.27 
1089 -5.75 -6.26 -5.27 
1090 -5.96 -6.41 -5.27 
1091 -5.68 -6.30 -5.27 
1092 -5.69 -6.40 -5.27 
1093 -5.64 -6.42 -5.27 
1094 -5.66 -6.39 -5.27 
1095 -5.72 -6.40 -5.27 
1096 -5.82 -6.38 -5.27 
1097 -5.72 -6.30 -5.27 
1098 -5.78 -6.37 -5.27 
1099 -5.75 -6.38 -5.27 
1100 -5.89 -6.35 -5.27 
1101 -5.75 -6.48 -5.27 
1102 -6.00 -6.24 -5.27 
1103 -5.48 -6.24 -5.27 
1104 -5.63 -6.25 -5.27 
1105 -5.70 -6.26 -5.27 
1106 -5.81 -6.32 -5.27 
1107 -5.71 -6.37 -5.27 
1108 -5.81 -6.24 -5.27 
1109 -5.89 -6.34 -5.27 
1110 -5.99 -6.31 -5.27 
1111 -5.70 -6.29 -5.27 
1112 -6.01 -6.36 -5.27 
1113 -5.53 -6.28 -5.27 
1114 -5.50 -6.25 -5.27 
1115 -5.45 -6.27 -5.27 
1116 -5.73 -6.26 -5.27 
1117 -5.55 -6.27 -5.27 
1118 -5.79 -6.25 -5.27 
1119 -5.95 -6.31 -5.27 
1120 -5.92 -6.30 -5.27 
1121 -5.70 -6.29 -5.27 
1122 -5.73 -6.28 -5.27 
1123 -5.84 -6.29 -5.27 
1124 -5.68 -6.36 -5.27 
1125 -5.46 -6.36 -5.27 
1126 -5.63 -6.35 -5.27 
1127 -5.58 -6.38 -5.27 
1128 -5.86 -6.36 -5.27 
1129 -5.65 -6.36 -5.27 
1130 -5.67 -6.32 -5.27 
1131 -5.84 -6.39 -5.27 
1132 -5.55 -6.38 -5.27 
1133 -5.82 -6.40 -5.27 
1134 -5.78 -6.32 -5.27 
1135 -5.62 -6.39 -5.27 
1136 -5.78 -6.33 -5.27 
1137 -5.62 -6.38 -5.27 
1138 -5.73 -6.31 -5.27 
1139 -5.99 -6.33 -5.27 
1140 -5.81 -6.39 -5.27 
1141 -5.85 -6.31 -5.27 
1142 -5.42 -6.31 -5.27 
1143 -5.87 -6.41 -5.27 
1144 -5.64 -6.34 -5.27 
1145 -5.67 -6.38 -5.27 
1146 -5.77 -6.38 -5.27 
1147 -5.65 -6.40 -5.27 
1148 -5.63 -6.38 -5.27 
1149 -5.57 -6.36 -5.27 
1150 -5.58 -6.37 -5.27 
1151 -5.86 -6.39 -5.27 
1152 -6.04 -6.39 -5.27 
1153 -5.77 -6.28 -5.27 
1154 -5.86 -6.38 -5.27 
1155 -5.56 -6.37 -5.27 
1156 -5.72 -6.44 -5.27 
1157 -5.76 -6.44 -5.27 
1158 -5.30 -6.37 -5.27 
1159 -5.89 -6.36 -5.27 
1160 -5.95 -6.41 -5.27 
1161 -5.54 -6.33 -5.27 
1162 -5.77 -6.39 -5.27 
1163 -5.79 -6.37 -5.27 
1164 -5.91 -6.35 -5.27 
1165 -5.75 -6.35 -5.27 
1166 -5.78 -6.34 -5.27 
1167 -5.42 -6.26 -5.27 
1168 -5.69 -6.28 -5.27 
1169 -5.73 -6.26 -5.27 
1170 -5.77 -6.28 -5.27 
1171 -5.56 -6.26 -5.27 
1172 -5.91 -6.23 -5.27 
1173 -5.58 -6.16 -5.27 
1174 -5.77 -6.23 -5.27 
1175 -5.45 -6.17 -5.27 
1176 -5.90 -6.23 -5.27 
1177 -5.55 -6.30 -5.27 
1178 -5.77 -6.21 -5.27 
1179 -5.78 -6.27 -5.27 
1180 -5.68 -6.25 -5.27 
1181 -5.71 -6.22 -5.27 
1182 -5.78 -6.36 -5.27 
1183 -5.33 -6.36 -5.27 
1184 -5.68 -6.34 -5.27 
1185 -5.68 -6.28 -5.27 
1186 -5.78 -6.24 -5.27 
1187 -5.39 -6.34 -5.27 
1188 -5.49 -6.25 -5.27 
1189 -5.59 -6.22 -5.27 
1190 -5.92 -6.31 -5.27 
1191 -5.62 -6.39 -5.27 
1192 -5.56 -6.24 -5.27 
1193 -5.88 -6.19 -5.27 
1194 -5.60 -6.28 -5.27 
1195 -5.56 -6.34 -5.27 
1196 -5.76 -6.26 -5.27 
1197 -5.71 -6.34 -5.27 
1198 -5.55 -6.30 -5.27 
1199 -5.77 -6.31 -5.27 
1200 -5.91 -6.29 -5.27 
1201 -5.90 -6.29 -5.27 
1202 -5.81 -6.31 -5.27 
1203 -5.80 -6.25 -5.27 
1204 -5.88 -6.27 -5.27 
1205 -5.61 -6.27 -5.27 
1206 -5.67 -6.23 -5.27 
1207 -5.72 -6.23 -5.27 
1208 -5.68 -6.22 -5.27 
1209 -5.66 -6.16 -5.27 
1210 -5.66 -6.24 -5.27 
1211 -5.40 -6.18 -5.27 
1212 -5.81 -6.15 -5.27 
1213 -5.72 -6.12 -5.27 
1214 -5.77 -6.27 -5.27 
1215 -5.48 -6.17 -5.27 
1216 -5.85 -6.15 -5.27 
1217 -5.74 -6.15 -5.27 
1218 -5.65 -6.31 -5.27 
1219 -5.66 -6.17 -5.27 
1220 -5.59 -6.23 -5.27 
1221 -5.70 -6.15 -5.27 
1222 -5.92 -6.14 -5.27 
1223 -5.62 -6.13 -5.27 
1224 -5.86 -6.29 -5.27 
1225 -5.80 -6.21 -5.27 
1226 -5.72 -6.28 -5.27 
1227 -5.84 -6.27 -5.27 
1228 -5.50 -6.27 -5.27 
1229 -5.55 -6.28 -5.27 
1230 -5.89 -6.31 -5.27 
1231 -5.80 -6.36 -5.27 
1232 -5.76 -6.29 -5.27 
1233 -5.64 -6.31 -5.27 
1234 -5.76 -6.30 -5.27 
1235 -5.70 -6.23 -5.27 
1236 -5.58 -6.28 -5.27 
1237 -5.65 -6.39 -5.27 
1238 -5.79 -6.38 -5.27 
1239 -5.65 -6.28 -5.27 
1240 -5.59 -6.39 -5.27 
1241 -5.80 -6.38 -5.27 
1242 -5.85 -6.37 -5.27 
1243 -5.57 -6.29 -5.27 
1244 -5.61 -6.30 -5.27 
1245 -5.80 -6.16 -5.27 
1246 -5.88 -6.23 -5.27 
1247 -5.81 -6.16 -5.27 
1248 -5.69 -6.15 -5.27 
1249 -5.67 -6.08 -5.27 
1250 -5.72 -6.14 -5.27 
1251 -5.88 -6.17 -5.27 
1252 -5.68 -6.13 -5.27 
1253 -5.66 -6.02 -5.27 
1254 -5.90 -6.02 -5.27 
1255 -5.71 -6.05 -5.27 
1256 -5.73 -6.04 -5.27 
1257 -5.83 -6.09 -5.27 
1258 -5.82 -6.06 -5.27 
1259 -5.69 -6.16 -5.27 
1260 -5.75 -6.05 -5.27 
1261 -5.91 -6.05 -5.27 
1262 -5.72 -6.06 -5.27 
1263 -5.55 -6.03 -5.27 
1264 -5.53 -6.16 -5.27 
1265 -5.50 -6.17 -5.27 
1266 -5.59 -6.15 -5.27 
1267 -5.54 -6.17 -5.27 
1268 -5.67 -6.03 -5.27 
1269 -5.73 -6.04 -5.27 
1270 -5.72 -6.06 -5.27 
1271 -5.79 -6.06 -5.27 
1272 -5.79 -6.03 -5.27 
1273 -6.01 -6.12 -5.27 
1274 -5.56 -6.18 -5.27 
1275 -5.74 -6.14 -5.27 
1276 -5.53 -6.16 -5.27 
1277 -5.74 -6.32 -5.27 
1278 -5.75 -6.30 -5.27 
1279 -5.94 -6.29 -5.27 
1280 -5.62 -6.27 -5.27 
1281 -5.52 -6.26 -5.27 
1282 -5.69 -6.27 -5.27 
1283 -5.92 -6.23 -5.27 
1284 -5.64 -6.30 -5.27 
1285 -5.83 -6.32 -5.27 
1286 -5.60 -6.22 -5.27 
1287 -5.85 -6.25 -5.27 
1288 -5.70 -6.17 -5.27 
1289 -5.44 -6.18 -5.27 
1290 -5.53 -6.14 -5.27 
1291 -5.76 -6.19 -5.27 
1292 -5.91 -6.15 -5.27 
1293 -5.47 -6.06 -5.27 
1294 -5.60 -6.09 -5.27 
1295 -5.76 -5.99 -5.27 
1296 -5.59 -6.12 -5.27 
1297 -5.55 -6.13 -5.27 
1298 -5.51 -6.11 -5.27 
1299 -5.69 -5.98 -5.27 
1300 -5.73 -6.07 -5.27 
1301 -5.83 -6.00 -5.27 
1302 -5.72 -5.97 -5.27 
1303 -5.60 -5.97 -5.27 
1304 -5.59 -6.05 -5.27 
1305 -5.81 -6.01 -5.27 
1306 -5.54 -6.04 -5.27 
1307 -5.88 -6.02 -5.27 
1308 -5.91 -6.07 -5.27 
1309 -5.43 -5.99 -5.27 
1310 -5.65 -6.10 -5.27 
1311 -5.90 -6.18 -5.27 
1312 -5.77 -6.10 -5.27 
1313 -5.68 -6.09 -5.27 
1314 -5.36 -6.09 -5.27 
1315 -5.36 -6.19 -5.27 
1316 -5.89 -6.21 -5.27 
1317 -5.68 -6.19 -5.27 
1318 -5.56 -6.17 -5.27 
1319 -5.63 -6.14 -5.27 
1320 -5.78 -6.11 -5.27 
1321 -5.50 -6.11 -5.27 
1322 -5.71 -6.13 -5.27 
1323 -5.62 -6.14 -5.27 
1324 -5.65 -6.12 -5.27 
1325 -5.84 -6.14 -5.27 
1326 -5.80 -6.15 -5.27 
1327 -5.33 -6.18 -5.27 
1328 -5.48 -6.07 -5.27 
1329 -5.72 -6.06 -5.27 
1330 -5.59 -6.00 -5.27 
1331 -5.40 -6.00 -5.27 
1332 -5.71 -6.09 -5.27 
1333 -5.77 -6.00 -5.27 
1334 -5.79 -6.06 -5.27 
1335 -5.47 -6.07 -5.27 
1336 -5.89 -5.96 -5.27 
1337 -5.73 -6.17 -5.27 
1338 -5.64 -5.99 -5.27 
1339 -5.92 -5.99 -5.27 
1340 -5.54 -6.09 -5.27 
1341 -5.69 -6.06 -5.27 
1342 -5.56 -6.11 -5.27 
1343 -5.53 -6.06 -5.27 
1344 -5.75 -6.21 -5.27 
1345 -5.61 -6.03 -5.27 
1346 -5.63 -6.15 -5.27 
1347 -5.73 -6.14 -5.27 
1348 -5.69 -6.04 -5.27 
1349 -5.72 -6.24 -5.27 
1350 -5.66 -6.22 -5.27 
1351 -5.84 -6.22 -5.27 
1352 -5.54 -6.14 -5.27 
1353 -5.63 -6.08 -5.27 
1354 -5.60 -6.14 -5.27 
1355 -5.61 -6.18 -5.27 
1356 -5.80 -6.16 -5.27 
1357 -5.98 -6.17 -5.27 
1358 -5.85 -6.17 -5.27 
1359 -5.78 -6.10 -5.27 
1360 -5.61 -6.00 -5.27 
1361 -5.67 -6.05 -5.27 
1362 -5.69 -6.07 -5.27 
1363 -5.53 -6.01 -5.27 
1364 -5.80 -6.12 -5.27 
1365 -5.76 -6.18 -5.27 
1366 -5.45 -6.13 -5.27 
1367 -5.52 -6.16 -5.27 
1368 -5.73 -6.31 -5.27 
1369 -5.62 -6.29 -5.27 
1370 -5.71 -6.32 -5.27 
1371 -5.70 -6.22 -5.27 
1372 -5.61 -6.14 -5.27 
1373 -5.45 -6.07 -5.27 
1374 -5.49 -6.06 -5.27 
1375 -5.65 -6.05 -5.27 
1376 -5.84 -6.31 -5.27 
1377 -5.62 -6.30 -5.27 
1378 -5.71 -6.10 -5.27 
1379 -5.64 -6.15 -5.27 
1380 -5.65 -6.19 -5.27 
1381 -5.78 -6.18 -5.27 
1382 -5.85 -6.23 -5.27 
1383 -5.65 -6.19 -5.27 
1384 -5.77 -6.27 -5.27 
1385 -5.88 -6.26 -5.27 
1386 -5.67 -6.26 -5.27 
1387 -5.89 -6.12 -5.27 
1388 -5.65 -6.19 -5.27 
1389 -5.74 -6.19 -5.27 
1390 -5.55 -6.18 -5.27 
1391 -5.80 -6.25 -5.27 
1392 -5.70 -6.06 -5.27 
1393 -5.57 -6.20 -5.27 
1394 -5.82 -6.39 -5.27 
1395 -5.61 -6.32 -5.27 
1396 -5.41 -6.30 -5.27 
1397 -5.46 -6.26 -5.27 
1398 -5.63 -6.28 -5.27 
1399 -5.62 -6.36 -5.27 
1400 -5.79 -6.29 -5.27 
1401 -5.67 -6.37 -5.27 
1402 -5.71 -6.36 -5.27 
1403 -5.69 -6.32 -5.27 
1404 -5.61 -6.25 -5.27 
1405 -5.59 -6.23 -5.27 
1406 -5.55 -6.35 -5.27 
1407 -5.73 -6.34 -5.27 
1408 -5.65 -6.24 -5.27 
1409 -5.65 -6.32 -5.27 
1410 -5.63 -6.30 -5.27 
1411 -5.85 -6.28 -5.27 
1412 -5.49 -6.29 -5.27 
1413 -5.87 -6.23 -5.27 
1414 -5.70 -6.24 -5.27 
1415 -5.64 -6.31 -5.27 
1416 -5.71 -6.23 -5.27 
1417 -5.63 -6.15 -5.27 
1418 -5.75 -6.26 -5.27 
1419 -5.82 -6.15 -5.27 
1420 -5.76 -6.31 -5.27 
1421 -5.65 -6.30 -5.27 
1422 -5.86 -6.29 -5.27 
1423 -5.79 -6.24 -5.27 
1424 -5.55 -6.22 -5.27 
1425 -5.58 -6.28 -5.27 
1426 -5.51 -6.30 -5.27 
1427 -5.61 -6.21 -5.27 
1428 -5.97 -6.26 -5.27 
1429 -5.59 -6.24 -5.27 
1430 -5.55 -6.26 -5.27 
1431 -5.84 -6.25 -5.27 
1432 -5.79 -6.26 -5.27 
1433 -5.66 -6.26 -5.27 
1434 -5.95 -6.31 -5.27 
1435 -5.65 -6.16 -5.27 
1436 -5.76 -6.24 -5.27 
1437 -5.61 -6.24 -5.27 
1438 -5.58 -6.19 -5.27 
1439 -5.62 -6.12 -5.27 
1440 -5.49 -6.11 -5.27 
1441 -5.54 -6.10 -5.27 
1442 -5.72 -6.11 -5.27 
1443 -5.67 -6.11 -5.27 
1444 -5.66 -6.12 -5.27 
1445 -5.82 -6.12 -5.27 
1446 -5.59 -6.11 -5.27 
1447 -5.50 -6.14 -5.27 
1448 -5.58 -6.13 -5.27 
1449 -5.73 -6.10 -5.27 
1450 -5.53 -6.11 -5.27 
1451 -5.72 -6.11 -5.27 
1452 -5.53 -6.12 -5.27 
1453 -5.47 -6.12 -5.27 
1454 -5.63 -6.12 -5.27 
1455 -5.45 -6.15 -5.27 
1456 -5.42 -6.16 -5.27 
1457 -5.76 -6.14 -5.27 
1458 -5.74 -6.18 -5.27 
1459 -5.61 -6.11 -5.27 
1460 -6.14 -6.22 -5.27 
1461 -5.78 -6.15 -5.27 
1462 -5.56 -6.19 -5.27 
1463 -5.47 -6.18 -5.27 
1464 -5.86 -6.16 -5.27 
1465 -5.75 -6.17 -5.27 
1466 -5.87 -6.18 -5.27 
1467 -5.73 -6.17 -5.27 
1468 -5.52 -6.17 -5.27 
1469 -5.60 -6.18 -5.27 
1470 -5.75 -6.18 -5.27 
1471 -5.81 -6.14 -5.27 
1472 -5.88 -6.17 -5.27 
1473 -5.58 -6.15 -5.27 
1474 -5.70 -6.14 -5.27 
1475 -5.93 -6.13 -5.27 
1476 -5.64 -6.15 -5.27 
1477 -5.65 -6.20 -5.27 
1478 -5.39 -6.09 -5.27 
1479 -5.86 -6.25 -5.27 
1480 -5.54 -6.25 -5.27 
1481 -5.64 -6.20 -5.27 
1482 -5.89 -6.28 -5.27 
1483 -5.50 -6.20 -5.27 
1484 -5.60 -6.32 -5.27 
1485 -5.71 -6.13 -5.27 
1486 -5.41 -6.26 -5.27 
1487 -5.61 -6.08 -5.27 
1488 -5.53 -6.18 -5.27 
1489 -5.76 -6.13 -5.27 
1490 -5.59 -6.29 -5.27 
1491 -5.61 -6.18 -5.27 
1492 -5.50 -6.19 -5.27 
1493 -5.65 -6.25 -5.27 
1494 -5.63 -6.15 -5.27 
1495 -5.63 -6.15 -5.27 
1496 -5.58 -6.18 -5.27 
1497 -5.40 -6.23 -5.27 
1498 -5.59 -6.23 -5.27 
1499 -5.65 -6.15 -5.27 
1500 -5.39 -6.15 -5.27 
1501 -5.84 -6.18 -5.27 
1502 -5.69 -6.16 -5.27 
1503 -5.48 -6.21 -5.27 
1504 -5.53 -6.22 -5.27 
1505 -5.68 -6.23 -5.27 
1506 -5.82 -6.20 -5.27 
1507 -5.54 -6.14 -5.27 
1508 -5.44 -6.12 -5.27 
1509 -5.57 -6.22 -5.27 
1510 -5.65 -6.21 -5.27 
1511 -5.66 -6.22 -5.27 
1512 -5.91 -6.23 -5.27 
1513 -5.58 -6.36 -5.27 
1514 -5.61 -6.20 -5.27 
1515 -5.60 -6.21 -5.27 
1516 -5.52 -6.21 -5.27 
1517 -5.57 -6.31 -5.27 
1518 -5.72 -6.27 -5.27 
1519 -5.93 -6.24 -5.27 
1520 -5.68 -6.35 -5.27 
1521 -5.37 -6.25 -5.27 
1522 -5.58 -6.35 -5.27 
1523 -5.55 -6.33 -5.27 
1524 -5.87 -6.26 -5.27 
1525 -5.56 -6.26 -5.27 
1526 -5.49 -6.35 -5.27 
1527 -5.52 -6.22 -5.27 
1528 -5.77 -6.29 -5.27 
1529 -5.89 -6.37 -5.27 
1530 -5.38 -6.18 -5.27 
1531 -5.65 -6.23 -5.27 
1532 -5.71 -6.32 -5.27 
1533 -5.71 -6.27 -5.27 
1534 -5.79 -6.15 -5.27 
1535 -5.53 -6.15 -5.27 
1536 -5.66 -6.18 -5.27 
1537 -5.77 -6.18 -5.27 
1538 -5.98 -6.24 -5.27 
1539 -5.32 -6.22 -5.27 
1540 -5.60 -6.17 -5.27 
1541 -5.63 -6.18 -5.27 
1542 -5.76 -6.14 -5.27 
1543 -5.58 -6.23 -5.27 
1544 -5.67 -6.19 -5.27 
1545 -5.62 -6.20 -5.27 
1546 -5.44 -6.20 -5.27 
1547 -5.52 -6.15 -5.27 
1548 -5.54 -6.22 -5.27 
1549 -5.76 -6.12 -5.27 
1550 -5.54 -6.18 -5.27 
1551 -5.68 -6.19 -5.27 
1552 -5.48 -6.13 -5.27 
1553 -5.41 -6.08 -5.27 
1554 -5.95 -6.14 -5.27 
1555 -5.44 -6.08 -5.27 
1556 -5.73 -6.14 -5.27 
1557 -5.93 -6.16 -5.27 
1558 -5.67 -6.14 -5.27 
1559 -5.52 -6.17 -5.27 
1560 -5.50 -6.15 -5.27 
1561 -5.41 -6.14 -5.27 
1562 -5.48 -6.12 -5.27 
1563 -5.54 -6.16 -5.27 
1564 -5.88 -6.19 -5.27 
1565 -5.46 -6.18 -5.27 
1566 -5.28 -6.12 -5.27 
1567 -5.58 -6.12 -5.27 
1568 -5.59 -6.10 -5.27 
1569 -5.54 -6.08 -5.27 
1570 -5.79 -6.07 -5.27 
1571 -5.58 -6.09 -5.27 
1572 -5.70 -6.14 -5.27 
1573 -5.40 -6.09 -5.27 
1574 -5.56 -6.10 -5.27 
1575 -5.26 -6.16 -5.27 
1576 -5.26 -6.15 -5.26 
1577 -5.47 -6.10 -5.26 
1578 -5.65 -6.11 -5.26 
1579 -5.76 -6.10 -5.26 
1580 -5.36 -6.08 -5.26 
1581 -5.67 -6.14 -5.26 
1582 -5.55 -6.21 -5.26 
1583 -5.78 -6.11 -5.26 
1584 -5.37 -6.18 -5.26 
1585 -5.51 -6.20 -5.26 
1586 -5.71 -6.19 -5.26 
1587 -5.71 -6.17 -5.26 
1588 -5.78 -6.18 -5.26 
1589 -5.93 -6.20 -5.26 
1590 -5.49 -6.22 -5.26 
1591 -5.46 -6.15 -5.26 
1592 -5.60 -6.18 -5.26 
1593 -5.67 -6.14 -5.26 
1594 -5.76 -6.20 -5.26 
1595 -5.72 -6.18 -5.26 
1596 -5.67 -6.19 -5.26 
1597 -5.70 -6.17 -5.26 
1598 -5.67 -6.19 -5.26 
1599 -5.46 -6.17 -5.26 
1600 -5.25 -6.15 -5.26 
1601 -5.73 -6.17 -5.25 
1602 -5.81 -6.14 -5.25 
1603 -5.74 -6.15 -5.25 
1604 -5.63 -6.14 -5.25 
1605 -5.55 -6.10 -5.25 
1606 -5.85 -6.18 -5.25 
1607 -5.61 -6.13 -5.25 
1608 -5.63 -6.13 -5.25 
1609 -5.36 -6.16 -5.25 
1610 -5.51 -6.19 -5.25 
1611 -5.81 -6.19 -5.25 
1612 -5.52 -6.24 -5.25 
1613 -5.40 -6.31 -5.25 
1614 -5.46 -6.30 -5.25 
1615 -5.41 -6.31 -5.25 
1616 -5.62 -6.23 -5.25 
1617 -5.68 -6.19 -5.25 
1618 -5.62 -6.32 -5.25 
1619 -5.71 -6.27 -5.25 
1620 -5.69 -6.13 -5.25 
1621 -5.81 -6.16 -5.25 
1622 -5.60 -6.20 -5.25 
1623 -5.57 -6.19 -5.25 
1624 -5.79 -6.18 -5.25 
1625 -5.53 -6.20 -5.25 
1626 -5.62 -6.29 -5.25 
1627 -5.63 -6.28 -5.25 
1628 -5.74 -6.29 -5.25 
1629 -5.80 -6.23 -5.25 
1630 -5.59 -6.23 -5.25 
1631 -5.75 -6.18 -5.25 
1632 -5.91 -6.24 -5.25 
1633 -5.36 -6.23 -5.25 
1634 -5.45 -6.28 -5.25 
1635 -5.47 -6.28 -5.25 
1636 -5.33 -6.27 -5.25 
1637 -5.33 -6.23 -5.25 
1638 -5.74 -6.25 -5.25 
1639 -5.32 -6.30 -5.25 
1640 -5.62 -6.26 -5.25 
1641 -5.43 -6.30 -5.25 
1642 -5.52 -6.39 -5.25 
1643 -5.76 -6.26 -5.25 
1644 -5.41 -6.26 -5.25 
1645 -5.90 -6.24 -5.25 
1646 -5.52 -6.23 -5.25 
1647 -5.33 -6.19 -5.25 
1648 -5.64 -6.19 -5.25 
1649 -5.75 -6.27 -5.25 
1650 -5.45 -6.25 -5.25 
1651 -5.49 -6.26 -5.25 
1652 -5.44 -6.36 -5.25 
1653 -5.75 -6.27 -5.25 
1654 -5.43 -6.28 -5.25 
1655 -5.38 -6.21 -5.25 
1656 -5.60 -6.28 -5.25 
1657 -5.72 -6.32 -5.25 
1658 -5.45 -6.29 -5.25 
1659 -5.48 -6.29 -5.25 
1660 -5.70 -6.26 -5.25 
1661 -5.49 -6.27 -5.25 
1662 -5.43 -6.28 -5.25 
1663 -5.50 -6.25 -5.25 
1664 -5.48 -6.17 -5.25 
1665 -5.62 -6.20 -5.25 
1666 -5.39 -6.13 -5.25 
1667 -5.46 -6.15 -5.25 
1668 -5.54 -6.17 -5.25 
1669 -5.60 -6.17 -5.25 
1670 -5.43 -6.16 -5.25 
1671 -5.72 -6.15 -5.25 
1672 -5.32 -6.16 -5.25 
1673 -5.55 -6.25 -5.25 
1674 -5.47 -6.25 -5.25 
1675 -5.50 -6.21 -5.25 
1676 -5.73 -6.29 -5.25 
1677 -5.48 -6.22 -5.25 
1678 -5.84 -6.12 -5.25 
1679 -5.52 -6.14 -5.25 
1680 -5.38 -6.17 -5.25 
1681 -5.52 -6.08 -5.25 
1682 -5.44 -6.20 -5.25 
1683 -5.63 -6.08 -5.25 
1684 -5.72 -6.16 -5.25 
1685 -5.62 -6.10 -5.25 
1686 -5.68 -6.31 -5.25 
1687 -5.40 -6.20 -5.25 
1688 -5.48 -6.17 -5.25 
1689 -5.45 -6.20 -5.25 
1690 -5.67 -6.11 -5.25 
1691 -5.26 -6.35 -5.25 
1692 -5.54 -6.26 -5.25 
1693 -5.71 -6.11 -5.25 
1694 -5.69 -6.14 -5.25 
1695 -5.37 -6.02 -5.25 
1696 -5.64 -6.15 -5.25 
1697 -5.59 -6.17 -5.25 
1698 -5.12 -6.29 -5.25 
1699 -5.81 -6.35 -5.12 
1700 -5.33 -6.11 -5.12 
1701 -5.59 -6.08 -5.12 
1702 -5.61 -6.09 -5.12 
1703 -5.43 -6.11 -5.12 
1704 -5.47 -6.12 -5.12 
1705 -5.54 -6.33 -5.12 
1706 -5.88 -6.12 -5.12 
1707 -5.70 -6.12 -5.12 
1708 -5.58 -6.24 -5.12 
1709 -5.55 -6.18 -5.12 
1710 -5.57 -6.18 -5.12 
1711 -5.59 -6.29 -5.12 
1712 -5.50 -6.11 -5.12 
1713 -5.72 -6.06 -5.12 
1714 -5.69 -6.38 -5.12 
1715 -5.61 -6.41 -5.12 
1716 -5.68 -6.41 -5.12 
1717 -5.67 -6.51 -5.12 
1718 -5.43 -6.63 -5.12 
1719 -5.55 -6.56 -5.12 
1720 -5.60 -6.58 -5.12 
1721 -5.55 -6.52 -5.12 
1722 -5.57 -6.50 -5.12 
1723 -5.65 -6.61 -5.12 
1724 -6.01 -6.56 -5.12 
1725 -5.63 -6.50 -5.12 
1726 -5.49 -6.61 -5.12 
1727 -5.50 -6.50 -5.12 
1728 -5.51 -6.40 -5.12 
1729 -5.63 -6.61 -5.12 
1730 -5.33 -6.38 -5.12 
1731 -5.71 -6.41 -5.12 
1732 -5.70 -6.14 -5.12 
1733 -5.58 -6.32 -5.12 
1734 -5.70 -6.24 -5.12 
1735 -5.78 -6.30 -5.12 
1736 -5.14 -6.26 -5.12 
1737 -5.67 -6.36 -5.12 
1738 -5.68 -6.44 -5.12 
1739 -5.89 -6.38 -5.12 
1740 -5.59 -6.41 -5.12 
1741 -5.78 -6.45 -5.12 
1742 -5.85 -6.31 -5.12 
1743 -5.77 -6.38 -5.12 
1744 -5.49 -6.44 -5.12 
1745 -5.93 -6.31 -5.12 
1746 -5.70 -6.10 -5.12 
1747 -5.59 -6.04 -5.12 
1748 -5.67 -6.18 -5.12 
1749 -5.55 -6.34 -5.12 
1750 -5.55 -6.33 -5.12 
1751 -5.62 -6.52 -5.12 
1752 -5.81 -6.52 -5.12 
1753 -5.68 -6.52 -5.12 
1754 -5.51 -6.64 -5.12 
1755 -5.54 -6.46 -5.12 
1756 -5.58 -6.47 -5.12 
1757 -5.72 -6.46 -5.12 
1758 -5.32 -6.49 -5.12 
1759 -5.66 -6.59 -5.12 
1760 -5.95 -6.50 -5.12 
1761 -5.55 -6.54 -5.12 
1762 -5.51 -6.44 -5.12 
1763 -5.42 -6.56 -5.12 
1764 -5.73 -6.38 -5.12 
1765 -5.36 -6.38 -5.12 
1766 -5.67 -6.36 -5.12 
1767 -5.47 -6.39 -5.12 
1768 -5.61 -6.45 -5.12 
1769 -5.42 -6.43 -5.12 
1770 -5.53 -6.22 -5.12 
1771 -5.50 -6.42 -5.12 
1772 -5.72 -6.21 -5.12 
1773 -5.59 -6.42 -5.12 
1774 -5.56 -6.42 -5.12 
1775 -5.66 -6.46 -5.12 
1776 -5.63 -6.42 -5.12 
1777 -5.65 -6.41 -5.12 
1778 -5.56 -6.48 -5.12 
1779 -5.62 -6.37 -5.12 
1780 -5.74 -6.31 -5.12 
1781 -5.51 -6.35 -5.12 
1782 -5.46 -6.43 -5.12 
1783 -5.46 -6.37 -5.12 
1784 -5.74 -6.38 -5.12 
1785 -5.78 -6.41 -5.12 
1786 -5.42 -6.42 -5.12 
1787 -5.59 -6.41 -5.12 
1788 -5.63 -6.32 -5.12 
1789 -5.61 -5.98 -5.12 
1790 -5.22 -6.07 -5.12 
1791 -5.57 -6.22 -5.12 
1792 -5.63 -6.14 -5.12 
1793 -5.19 -6.25 -5.12 
1794 -5.41 -6.41 -5.12 
1795 -5.74 -6.40 -5.12 
1796 -5.41 -6.21 -5.12 
1797 -5.51 -6.03 -5.12 
1798 -5.58 -6.30 -5.12 
1799 -5.43 -6.25 -5.12 
1800 -5.42 -6.14 -5.12 
1801 -5.59 -6.06 -5.12 
1802 -5.70 -6.14 -5.12 
1803 -5.50 -6.04 -5.12 
1804 -5.51 -6.14 -5.12 
1805 -5.43 -6.17 -5.12 
1806 -5.49 -6.27 -5.12 
1807 -5.76 -6.23 -5.12 
1808 -5.70 -6.32 -5.12 
1809 -5.57 -6.34 -5.12 
1810 -5.46 -6.30 -5.12 
1811 -5.57 -6.35 -5.12 
1812 -5.50 -6.24 -5.12 
1813 -5.46 -6.29 -5.12 
1814 -5.40 -6.26 -5.12 
1815 -5.59 -6.29 -5.12 
1816 -5.26 -6.07 -5.12 
1817 -5.69 -6.09 -5.12 
1818 -5.51 -6.19 -5.12 
1819 -5.73 -6.11 -5.12 
1820 -5.41 -6.05 -5.12 
1821 -5.63 -6.18 -5.12 
1822 -5.88 -6.18 -5.12 
1823 -5.43 -6.30 -5.12 
1824 -5.48 -6.25 -5.12 
1825 -5.44 -6.28 -5.12 
1826 -5.51 -6.20 -5.12 
1827 -5.68 -6.35 -5.12 
1828 -5.62 -6.39 -5.12 
1829 -5.64 -6.16 -5.12 
1830 -5.76 -6.18 -5.12 
1831 -5.95 -6.15 -5.12 
1832 -5.47 -6.29 -5.12 
1833 -5.36 -6.43 -5.12 
1834 -5.67 -6.20 -5.12 
1835 -5.45 -6.28 -5.12 
1836 -5.90 -6.16 -5.12 
1837 -5.41 -6.28 -5.12 
1838 -5.76 -6.18 -5.12 
1839 -5.51 -6.21 -5.12 
1840 -5.64 -6.21 -5.12 
1841 -5.52 -6.34 -5.12 
1842 -5.42 -6.27 -5.12 
1843 -5.66 -6.15 -5.12 
1844 -5.47 -6.26 -5.12 
1845 -5.42 -6.05 -5.12 
1846 -5.67 -6.11 -5.12 
1847 -5.37 -6.15 -5.12 
1848 -5.62 -6.23 -5.12 
1849 -5.72 -6.24 -5.12 
1850 -5.32 -6.13 -5.12 
1851 -5.57 -6.10 -5.12 
1852 -5.69 -6.14 -5.12 
1853 -5.70 -6.18 -5.12 
1854 -5.63 -6.15 -5.12 
1855 -5.45 -6.21 -5.12 
1856 -5.65 -6.20 -5.12 
1857 -5.73 -6.04 -5.12 
1858 -5.37 -6.19 -5.12 
1859 -5.41 -6.33 -5.12 
1860 -5.87 -6.43 -5.12 
1861 -5.47 -6.29 -5.12 
1862 -5.53 -6.22 -5.12 
1863 -5.53 -6.23 -5.12 
1864 -5.63 -6.27 -5.12 
1865 -5.56 -6.23 -5.12 
1866 -5.69 -6.22 -5.12 
1867 -5.75 -6.30 -5.12 
1868 -5.20 -6.21 -5.12 
1869 -5.72 -6.17 -5.12 
1870 -5.22 -6.22 -5.12 
1871 -5.22 -6.20 -5.12 
1872 -5.58 -6.24 -5.12 
1873 -5.41 -6.20 -5.12 
1874 -5.80 -6.18 -5.12 
1875 -5.48 -6.26 -5.12 
1876 -5.71 -6.28 -5.12 
1877 -5.58 -6.35 -5.12 
1878 -5.35 -6.26 -5.12 
1879 -5.86 -6.26 -5.12 
1880 -5.71 -6.24 -5.12 
1881 -5.52 -6.21 -5.12 
1882 -5.72 -6.28 -5.12 
1883 -5.63 -6.28 -5.12 
1884 -5.76 -6.16 -5.12 
1885 -5.52 -6.24 -5.12 
1886 -5.45 -6.11 -5.12 
1887 -5.42 -6.13 -5.12 
1888 -5.56 -6.21 -5.12 
1889 -5.58 -6.18 -5.12 
1890 -5.28 -6.22 -5.12 
1891 -5.50 -6.13 -5.12 
1892 -5.71 -6.43 -5.12 
1893 -5.28 -6.22 -5.12 
1894 -5.56 -6.29 -5.12 
1895 -5.72 -6.25 -5.12 
1896 -5.60 -6.16 -5.12 
1897 -5.79 -6.28 -5.12 
1898 -5.51 -6.27 -5.12 
1899 -5.51 -6.27 -5.12 
1900 -5.49 -6.35 -5.12 
1901 -5.50 -6.37 -5.12 
1902 -5.70 -6.43 -5.12 
1903 -5.69 -6.10 -5.12 
1904 -5.60 -6.33 -5.12 
1905 -5.74 -6.25 -5.12 
1906 -5.59 -6.21 -5.12 
1907 -5.69 -6.22 -5.12 
1908 -5.65 -6.14 -5.12 
1909 -5.60 -6.17 -5.12 
1910 -5.35 -6.21 -5.12 
1911 -5.58 -6.17 -5.12 
1912 -5.58 -6.19 -5.12 
1913 -5.49 -6.23 -5.12 
1914 -5.76 -6.17 -5.12 
1915 -5.42 -6.21 -5.12 
1916 -5.67 -6.15 -5.12 
1917 -5.58 -6.26 -5.12 
1918 -5.78 -6.19 -5.12 
1919 -5.47 -6.22 -5.12 
1920 -5.59 -6.37 -5.12 
1921 -5.43 -6.26 -5.12 
1922 -5.88 -6.24 -5.12 
1923 -5.30 -6.34 -5.12 
1924 -5.72 -6.40 -5.12 
1925 -5.64 -6.34 -5.12 
1926 -5.69 -6.36 -5.12 
1927 -5.79 -6.27 -5.12 
1928 -5.79 -6.33 -5.12 
1929 -5.64 -6.28 -5.12 
1930 -5.54 -6.21 -5.12 
1931 -5.39 -6.28 -5.12 
1932 -5.83 -6.25 -5.12 
1933 -5.74 -6.42 -5.12 
1934 -5.33 -6.55 -5.12 
1935 -5.28 -6.40 -5.12 
1936 -5.71 -6.60 -5.12 
1937 -5.64 -6.76 -5.12 
1938 -5.70 -6.35 -5.12 
1939 -5.57 -6.33 -5.12 
1940 -5.73 -6.26 -5.12 
1941 -5.68 -6.27 -5.12 
1942 -5.63 -6.25 -5.12 
1943 -5.77 -6.16 -5.12 
1944 -5.56 -6.36 -5.12 
1945 -5.54 -6.27 -5.12 
1946 -5.39 -6.18 -5.12 
1947 -5.48 -6.38 -5.12 
1948 -5.80 -6.22 -5.12 
1949 -5.63 -6.22 -5.12 
1950 -5.38 -6.22 -5.12 
1951 -5.80 -6.32 -5.12 
1952 -5.87 -6.06 -5.12 
1953 -5.50 -6.14 -5.12 
1954 -5.50 -6.33 -5.12 
1955 -5.61 -6.17 -5.12 
1956 -5.35 -6.29 -5.12 
1957 -6.13 -6.38 -5.12 
1958 -5.47 -6.27 -5.12 
1959 -5.71 -6.11 -5.12 
1960 -5.66 -6.18 -5.12 
1961 -5.79 -6.34 -5.12 
1962 -5.63 -5.98 -5.12 
1963 -5.65 -6.11 -5.12 
1964 -5.45 -6.32 -5.12 
1965 -5.48 -6.21 -5.12 
1966 -5.30 -6.38 -5.12 
1967 -5.58 -6.37 -5.12 
1968 -5.63 -6.42 -5.12 
1969 -5.71 -6.32 -5.12 
1970 -5.65 -6.43 -5.12 
1971 -5.50 -6.24 -5.12 
1972 -5.65 -6.12 -5.12 
1973 -5.76 -6.27 -5.12 
1974 -5.70 -6.24 -5.12 
1975 -5.56 -6.44 -5.12 
1976 -5.41 -6.29 -5.12 
1977 -5.28 -6.23 -5.12 
1978 -5.74 -6.11 -5.12 
1979 -5.44 -6.38 -5.12 
1980 -5.63 -6.11 -5.12 
1981 -5.72 -6.24 -5.12 
1982 -5.60 -6.21 -5.12 
1983 -5.63 -6.29 -5.12 
1984 -5.44 -6.47 -5.12 
1985 -5.30 -6.41 -5.12 
1986 -5.63 -6.39 -5.12 
1987 -5.57 -6.40 -5.12 
1988 -5.49 -6.27 -5.12 
1989 -5.63 -6.26 -5.12 
1990 -5.67 -6.22 -5.12 
1991 -5.73 -6.29 -5.12 
1992 -5.64 -6.27 -5.12 
1993 -5.32 -6.33 -5.12 
1994 -5.40 -6.22 -5.12 
1995 -5.35 -6.28 -5.12 
1996 -5.59 -6.37 -5.12 
1997 -5.86 -6.23 -5.12 
1998 -5.41 -6.40 -5.12 
1999 -5.53 -6.24 -5.12 
2000 -5.69 -6.38 -5.12 
2001 -5.64 -6.40 -5.12 
2002 -5.84 -6.33 -5.12 
2003 -5.52 -6.43 -5.12 
2004 -5.47 -6.31 -5.12 
2005 -5.65 -6.32 -5.12 
2006 -5.52 -6.30 -5.12 
2007 -5.44 -6.27 -5.12 
2008 -5.51 -6.21 -5.12 
2009 -5.51 -6.17 -5.12 
2010 -5.60 -6.17 -5.12 
2011 -5.49 -6.23 -5.12 
2012 -5.28 -6.17 -5.12 
2013 -5.37 -6.34 -5.12 
2014 -5.57 -6.29 -5.12 
2015 -5.52 -6.27 -5.12 
2016 -5.42 -6.29 -5.12 
2017 -5.56 -6.14 -5.12 
2018 -5.46 -6.32 -5.12 
2019 -5.69 -6.21 -5.12 
2020 -5.52 -6.35 -5.12 
2021 -5.53 -6.25 -5.12 
2022 -5.75 -6.19 -5.12 
2023 -5.87 -6.41 -5.12 
2024 -5.43 -6.19 -5.12 
2025 -5.47 -6.21 -5.12 
2026 -5.89 -6.39 -5.12 
2027 -5.46 -6.37 -5.12 
2028 -5.52 -6.17 -5.12 
2029 -5.59 -6.32 -5.12 
2030 -5.41 -6.35 -5.12 
2031 -5.51 -6.33 -5.12 
2032 -5.48 -6.30 -5.12 
2033 -5.49 -6.24 -5.12 
2034 -5.47 -6.22 -5.12 
2035 -5.77 -6.41 -5.12 
2036 -5.64 -6.35 -5.12 
2037 -5.55 -6.20 -5.12 
2038 -5.40 -6.26 -5.12 
2039 -5.57 -6.28 -5.12 
2040 -5.23 -6.30 -5.12 
2041 -5.76 -6.29 -5.12 
2042 -5.57 -6.24 -5.12 
2043 -5.31 -6.30 -5.12 
2044 -5.47 -6.35 -5.12 
2045 -5.40 -6.28 -5.12 
2046 -5.86 -6.26 -5.12 
2047 -5.58 -6.28 -5.12 
2048 -5.49 -6.32 -5.12 
2049 -5.73 -6.26 -5.12 
2050 -5.37 -6.24 -5.12 
2051 -5.71 -6.35 -5.12 
2052 -5.41 -6.42 -5.12 
2053 -5.60 -6.41 -5.12 
2054 -5.55 -6.37 -5.12 
2055 -5.62 -6.46 -5.12 
2056 -5.31 -6.40 -5.12 
2057 -5.92 -6.37 -5.12 
2058 -5.83 -6.33 -5.12 
2059 -5.59 -6.44 -5.12 
2060 -5.60 -6.27 -5.12 
2061 -5.49 -6.45 -5.12 
2062 -5.71 -6.48 -5.12 
2063 -5.52 -6.41 -5.12 
2064 -5.61 -6.41 -5.12 
2065 -5.52 -6.40 -5.12 
2066 -5.54 -6.32 -5.12 
2067 -5.36 -6.33 -5.12 
2068 -5.59 -6.26 -5.12 
2069 -5.44 -6.34 -5.12 
2070 -5.32 -6.17 -5.12 
2071 -5.68 -6.38 -5.12 
2072 -5.49 -6.22 -5.12 
2073 -5.48 -6.28 -5.12 
2074 -5.66 -6.32 -5.12 
2075 -5.58 -6.36 -5.12 
2076 -5.62 -6.38 -5.12 
2077 -5.71 -6.41 -5.12 
2078 -5.68 -6.35 -5.12 
2079 -5.46 -6.47 -5.12 
2080 -5.53 -6.31 -5.12 
2081 -5.44 -6.28 -5.12 
2082 -5.62 -6.33 -5.12 
2083 -5.81 -6.36 -5.12 
2084 -5.26 -6.27 -5.12 
2085 -5.62 -6.27 -5.12 
2086 -5.64 -6.22 -5.12 
2087 -5.67 -6.23 -5.12 
2088 -5.40 -6.39 -5.12 
2089 -5.55 -6.53 -5.12 
2090 -5.57 -6.25 -5.12 
2091 -5.61 -6.37 -5.12 
2092 -5.50 -6.26 -5.12 
2093 -5.49 -6.33 -5.12 
2094 -5.55 -6.38 -5.12 
2095 -5.58 -6.21 -5.12 
2096 -5.47 -6.19 -5.12 
2097 -5.57 -6.19 -5.12 
2098 -5.61 -6.15 -5.12 
2099 -5.50 -6.34 -5.12 
2100 -5.67 -6.26 -5.12 
2101 -5.39 -6.11 -5.12 
2102 -5.23 -6.49 -5.12 
2103 -5.78 -6.43 -5.12 
2104 -5.56 -6.38 -5.12 
2105 -5.38 -6.29 -5.12 
2106 -5.44 -6.35 -5.12 
2107 -5.73 -6.25 -5.12 
2108 -5.85 -6.44 -5.12 
2109 -5.58 -6.38 -5.12 
2110 -5.43 -6.39 -5.12 
2111 -5.78 -6.40 -5.12 
2112 -5.66 -6.18 -5.12 
2113 -5.32 -6.21 -5.12 
2114 -5.71 -6.23 -5.12 
2115 -5.50 -6.23 -5.12 
2116 -5.39 -6.25 -5.12 
2117 -5.63 -6.22 -5.12 
2118 -5.48 -6.26 -5.12 
2119 -5.70 -6.19 -5.12 
2120 -5.54 -6.20 -5.12 
2121 -5.47 -6.35 -5.12 
2122 -5.37 -6.25 -5.12 
2123 -5.44 -6.32 -5.12 
2124 -5.50 -6.25 -5.12 
2125 -5.43 -6.19 -5.12 
2126 -5.37 -6.27 -5.12 
2127 -5.48 -6.33 -5.12 
2128 -5.40 -6.18 -5.12 
2129 -5.63 -6.14 -5.12 
2130 -5.62 -6.21 -5.12 
2131 -5.60 -6.18 -5.12 
2132 -5.59 -6.16 -5.12 
2133 -5.57 -6.28 -5.12 
2134 -5.46 -6.31 -5.12 
2135 -5.15 -6.30 -5.12 
2136 -5.73 -6.30 -5.12 
2137 -5.47 -6.36 -5.12 
2138 -5.63 -6.45 -5.12 
2139 -5.65 -6.14 -5.12 
2140 -5.46 -6.34 -5.12 
2141 -5.51 -6.13 -5.12 
2142 -5.54 -6.16 -5.12 
2143 -5.37 -6.22 -5.12 
2144 -5.51 -6.12 -5.12 
2145 -5.45 -6.11 -5.12 
2146 -5.31 -6.14 -5.12 
2147 -5.66 -6.25 -5.12 
2148 -5.55 -6.31 -5.12 
2149 -5.77 -6.27 -5.12 
2150 -5.72 -6.07 -5.12 
2151 -5.52 -6.09 -5.12 
2152 -5.58 -6.09 -5.12 
2153 -5.25 -6.17 -5.12 
2154 -5.84 -6.32 -5.12 
2155 -5.51 -6.21 -5.12 
2156 -5.52 -6.24 -5.12 
2157 -5.69 -6.33 -5.12 
2158 -5.41 -6.21 -5.12 
2159 -5.35 -6.29 -5.12 
2160 -5.68 -6.39 -5.12 
2161 -5.39 -6.17 -5.12 
2162 -5.56 -6.15 -5.12 
2163 -5.41 -6.26 -5.12 
2164 -5.45 -6.24 -5.12 
2165 -5.27 -6.21 -5.12 
2166 -5.57 -6.14 -5.12 
2167 -5.34 -6.03 -5.12 
2168 -5.26 -6.34 -5.12 
2169 -5.84 -6.13 -5.12 
2170 -5.45 -6.40 -5.12 
2171 -5.30 -6.37 -5.12 
2172 -5.29 -6.22 -5.12 
2173 -5.55 -6.22 -5.12 
2174 -5.40 -6.32 -5.12 
2175 -5.57 -6.35 -5.12 
2176 -5.53 -6.48 -5.12 
2177 -5.40 -6.35 -5.12 
2178 -5.55 -6.40 -5.12 
2179 -5.10 -6.38 -5.12 
2180 -5.59 -6.52 -5.10 
2181 -5.56 -6.51 -5.10 
2182 -5.57 -6.48 -5.10 
2183 -5.42 -6.18 -5.10 
2184 -5.45 -6.53 -5.10 
2185 -5.57 -6.36 -5.10 
2186 -5.42 -6.43 -5.10 
2187 -5.39 -6.37 -5.10 
2188 -5.64 -6.34 -5.10 
2189 -5.49 -6.35 -5.10 
2190 -5.77 -6.35 -5.10 
2191 -5.47 -6.34 -5.10 
2192 -5.32 -6.25 -5.10 
2193 -5.40 -6.23 -5.10 
2194 -5.66 -6.11 -5.10 
2195 -5.30 -6.16 -5.10 
2196 -5.30 -6.22 -5.10 
2197 -5.47 -6.20 -5.10 
2198 -5.83 -6.11 -5.10 
2199 -5.46 -6.20 -5.10 
2200 -5.33 -6.30 -5.10 
2201 -5.45 -6.25 -5.10 
2202 -5.46 -6.24 -5.10 
2203 -5.70 -6.11 -5.10 
2204 -5.51 -6.14 -5.10 
2205 -5.28 -6.04 -5.10 
2206 -5.47 -6.19 -5.10 
2207 -5.36 -6.10 -5.10 
2208 -5.47 -6.07 -5.10 
2209 -5.60 -6.01 -5.10 
2210 -5.57 -6.08 -5.10 
2211 -5.54 -6.02 -5.10 
2212 -5.64 -6.17 -5.10 
2213 -5.45 -6.23 -5.10 
2214 -5.53 -6.23 -5.10 
2215 -5.73 -6.15 -5.10 
2216 -5.40 -6.26 -5.10 
2217 -5.51 -6.20 -5.10 
2218 -5.35 -6.30 -5.10 
2219 -5.59 -6.22 -5.10 
2220 -5.40 -6.13 -5.10 
2221 -5.61 -6.18 -5.10 
2222 -5.52 -6.26 -5.10 
2223 -5.56 -6.30 -5.10 
2224 -5.48 -6.24 -5.10 
2225 -5.80 -6.09 -5.10 
2226 -5.66 -6.03 -5.10 
2227 -5.50 -6.05 -5.10 
2228 -5.16 -6.03 -5.10 
2229 -5.39 -6.06 -5.10 
2230 -5.50 -6.02 -5.10 
2231 -5.62 -6.11 -5.10 
2232 -5.28 -6.14 -5.10 
2233 -5.54 -6.17 -5.10 
2234 -5.69 -6.14 -5.10 
2235 -5.54 -6.15 -5.10 
2236 -5.60 -6.15 -5.10 
2237 -5.48 -6.09 -5.10 
2238 -5.41 -6.08 -5.10 
2239 -5.31 -6.07 -5.10 
2240 -5.81 -6.14 -5.10 
2241 -5.73 -6.10 -5.10 
2242 -5.55 -6.18 -5.10 
2243 -5.72 -6.11 -5.10 
2244 -5.47 -6.16 -5.10 
2245 -5.65 -6.20 -5.10 
2246 -5.48 -6.16 -5.10 
2247 -5.63 -6.09 -5.10 
2248 -5.37 -6.18 -5.10 
2249 -5.51 -6.22 -5.10 
2250 -5.46 -6.12 -5.10 
2251 -5.70 -6.17 -5.10 
2252 -5.52 -6.11 -5.10 
2253 -5.29 -6.15 -5.10 
2254 -5.26 -6.17 -5.10 
2255 -5.61 -6.11 -5.10 
2256 -5.63 -6.27 -5.10 
2257 -5.56 -6.25 -5.10 
2258 -5.53 -6.16 -5.10 
2259 -5.37 -6.14 -5.10 
2260 -5.43 -6.06 -5.10 
2261 -5.82 -6.22 -5.10 
2262 -5.24 -6.25 -5.10 
2263 -5.43 -6.16 -5.10 
2264 -5.75 -6.29 -5.10 
2265 -5.68 -6.19 -5.10 
2266 -5.34 -6.16 -5.10 
2267 -5.60 -6.23 -5.10 
2268 -5.47 -6.12 -5.10 
2269 -5.53 -5.95 -5.10 
2270 -5.29 -6.09 -5.10 
2271 -5.47 -6.28 -5.10 
2272 -5.45 -6.04 -5.10 
2273 -5.41 -6.17 -5.10 
2274 -5.49 -6.16 -5.10 
2275 -5.36 -6.04 -5.10 
2276 -5.55 -6.08 -5.10 
2277 -5.86 -6.19 -5.10 
2278 -5.47 -6.24 -5.10 
2279 -5.54 -6.34 -5.10 
2280 -5.28 -6.05 -5.10 
2281 -5.33 -6.05 -5.10 
2282 -5.48 -6.13 -5.10 
2283 -5.49 -6.06 -5.10 
2284 -5.32 -6.06 -5.10 
2285 -5.54 -6.21 -5.10 
2286 -5.45 -6.14 -5.10 
2287 -5.38 -5.76 -5.10 
2288 -5.57 -5.97 -5.10 
2289 -5.53 -6.01 -5.10 
2290 -5.59 -6.20 -5.10 
2291 -5.70 -6.06 -5.10 
2292 -5.58 -6.11 -5.10 
2293 -5.41 -6.08 -5.10 
2294 -5.58 -5.90 -5.10 
2295 -5.67 -6.17 -5.10 
2296 -5.42 -6.12 -5.10 
2297 -5.86 -6.25 -5.10 
2298 -5.49 -6.24 -5.10 
2299 -5.62 -6.04 -5.10 
2300 -5.63 -6.08 -5.10 
2301 -5.60 -6.27 -5.10 
2302 -5.46 -6.17 -5.10 
2303 -5.50 -6.06 -5.10 
2304 -5.81 -6.30 -5.10 
2305 -5.48 -6.14 -5.10 
2306 -5.28 -6.23 -5.10 
2307 -5.45 -6.19 -5.10 
2308 -5.50 -6.06 -5.10 
2309 -5.72 -5.97 -5.10 
2310 -5.35 -6.07 -5.10 
2311 -5.55 -5.98 -5.10 
2312 -5.44 -6.24 -5.10 
2313 -5.48 -6.06 -5.10 
2314 -5.54 -6.10 -5.10 
2315 -5.49 -6.13 -5.10 
2316 -5.64 -6.12 -5.10 
2317 -5.38 -6.10 -5.10 
2318 -5.44 -6.04 -5.10 
2319 -5.63 -6.10 -5.10 
2320 -5.54 -5.97 -5.10 
2321 -5.49 -6.10 -5.10 
2322 -5.63 -6.07 -5.10 
2323 -5.38 -6.20 -5.10 
2324 -5.46 -6.31 -5.10 
2325 -5.37 -6.07 -5.10 
2326 -5.57 -6.11 -5.10 
2327 -5.51 -6.34 -5.10 
2328 -5.51 -6.15 -5.10 
2329 -5.61 -6.23 -5.10 
2330 -5.10 -5.99 -5.10 
2331 -5.47 -6.09 -5.10 
2332 -5.47 -6.21 -5.10 
2333 -5.69 -5.88 -5.10 
2334 -5.27 -6.05 -5.10 
2335 -5.57 -5.99 -5.10 
2336 -5.78 -6.21 -5.10 
2337 -5.43 -6.05 -5.10 
2338 -5.48 -6.25 -5.10 
2339 -5.48 -6.18 -5.10 
2340 -5.49 -6.10 -5.10 
2341 -5.44 -6.01 -5.10 
2342 -5.58 -6.08 -5.10 
2343 -5.51 -6.04 -5.10 
2344 -5.46 -6.19 -5.10 
2345 -5.47 -6.12 -5.10 
2346 -5.84 -6.07 -5.10 
2347 -5.53 -6.17 -5.10 
2348 -5.45 -5.93 -5.10 
2349 -5.37 -5.90 -5.10 
2350 -5.51 -5.94 -5.10 
2351 -5.47 -6.16 -5.10 
2352 -5.53 -6.20 -5.10 
2353 -5.67 -6.04 -5.10 
2354 -5.47 -6.05 -5.10 
2355 -5.59 -6.09 -5.10 
2356 -5.36 -6.11 -5.10 
2357 -5.50 -6.15 -5.10 
2358 -5.53 -6.11 -5.10 
2359 -5.45 -6.26 -5.10 
2360 -5.51 -6.03 -5.10 
2361 -5.15 -6.11 -5.10 
2362 -5.40 -6.10 -5.10 
2363 -5.41 -6.18 -5.10 
2364 -5.18 -5.90 -5.10 
2365 -5.40 -6.21 -5.10 
2366 -5.56 -6.10 -5.10 
2367 -5.73 -6.25 -5.10 
2368 -5.67 -6.22 -5.10 
2369 -5.43 -6.14 -5.10 
2370 -5.34 -6.17 -5.10 
2371 -5.39 -5.96 -5.10 
2372 -5.26 -6.13 -5.10 
2373 -5.62 -6.15 -5.10 
2374 -5.22 -6.11 -5.10 
2375 -5.71 -6.17 -5.10 
2376 -5.77 -6.24 -5.10 
2377 -5.75 -6.15 -5.10 
2378 -5.19 -6.04 -5.10 
2379 -5.55 -6.00 -5.10 
2380 -5.49 -6.10 -5.10 
2381 -5.28 -6.07 -5.10 
2382 -5.27 -6.00 -5.10 
2383 -5.51 -5.95 -5.10 
2384 -5.27 -6.16 -5.10 
2385 -5.53 -6.06 -5.10 
2386 -5.48 -6.16 -5.10 
2387 -5.32 -6.08 -5.10 
2388 -5.75 -6.07 -5.10 
2389 -5.52 -6.10 -5.10 
2390 -5.38 -6.05 -5.10 
2391 -5.55 -5.98 -5.10 
2392 -5.49 -5.92 -5.10 
2393 -5.32 -6.02 -5.10 
2394 -5.27 -6.07 -5.10 
2395 -5.40 -6.09 -5.10 
2396 -5.51 -5.96 -5.10 
2397 -5.15 -6.19 -5.10 
2398 -5.20 -6.02 -5.10 
2399 -5.68 -5.98 -5.10 
2400 -5.17 -6.13 -5.10 
2401 -5.18 -6.25 -5.10 
2402 -5.41 -6.28 -5.10 
2403 -5.48 -5.90 -5.10 
2404 -5.56 -6.03 -5.10 
2405 -5.50 -6.16 -5.10 
2406 -5.48 -6.12 -5.10 
2407 -5.69 -6.07 -5.10 
2408 -5.50 -6.06 -5.10 
2409 -5.44 -6.13 -5.10 
2410 -5.42 -5.89 -5.10 
2411 -5.39 -6.10 -5.10 
2412 -5.34 -6.02 -5.10 
2413 -5.49 -6.12 -5.10 
2414 -5.49 -6.04 -5.10 
2415 -5.67 -5.99 -5.10 
2416 -5.59 -6.07 -5.10 
2417 -5.37 -6.02 -5.10 
2418 -5.65 -6.34 -5.10 
2419 -5.49 -6.12 -5.10 
2420 -5.59 -6.04 -5.10 
2421 -5.66 -6.19 -5.10 
2422 -5.50 -6.22 -5.10 
2423 -5.41 -6.02 -5.10 
2424 -5.52 -6.20 -5.10 
2425 -5.58 -6.21 -5.10 
2426 -5.50 -6.27 -5.10 
2427 -5.54 -6.32 -5.10 
2428 -5.57 -6.30 -5.10 
2429 -5.56 -6.14 -5.10 
2430 -5.18 -6.14 -5.10 
2431 -5.51 -6.01 -5.10 
2432 -5.50 -6.12 -5.10 
2433 -5.41 -5.89 -5.10 
2434 -5.32 -5.95 -5.10 
2435 -5.49 -5.98 -5.10 
2436 -5.46 -5.99 -5.10 
2437 -5.69 -6.02 -5.10 
2438 -5.40 -5.96 -5.10 
2439 -5.45 -5.97 -5.10 
2440 -5.54 -5.98 -5.10 
2441 -5.46 -5.99 -5.10 
2442 -5.45 -6.17 -5.10 
2443 -5.40 -6.10 -5.10 
2444 -5.36 -6.04 -5.10 
2445 -5.29 -6.13 -5.10 
2446 -5.72 -6.25 -5.10 
2447 -5.81 -6.00 -5.10 
2448 -5.77 -5.96 -5.10 
2449 -5.41 -6.05 -5.10 
2450 -5.53 -6.26 -5.10 
2451 -5.61 -6.01 -5.10 
2452 -5.29 -6.09 -5.10 
2453 -5.42 -6.10 -5.10 
2454 -5.39 -6.20 -5.10 
2455 -5.32 -6.25 -5.10 
2456 -5.48 -6.03 -5.10 
2457 -5.25 -6.18 -5.10 
2458 -5.52 -6.07 -5.10 
2459 -5.24 -6.05 -5.10 
2460 -5.30 -6.09 -5.10 
2461 -5.54 -6.18 -5.10 
2462 -5.47 -5.97 -5.10 
2463 -5.45 -6.35 -5.10 
2464 -5.42 -6.09 -5.10 
2465 -5.31 -6.30 -5.10 
2466 -5.35 -6.18 -5.10 
2467 -5.49 -6.20 -5.10 
2468 -5.18 -6.21 -5.10 
2469 -5.50 -6.13 -5.10 
2470 -5.49 -6.08 -5.10 
2471 -5.35 -6.26 -5.10 
2472 -5.32 -6.26 -5.10 
2473 -5.51 -6.37 -5.10 
2474 -5.22 -6.09 -5.10 
2475 -5.29 -6.03 -5.10 
2476 -5.46 -6.16 -5.10 
2477 -5.70 -6.30 -5.10 
2478 -5.55 -6.31 -5.10 
2479 -5.66 -6.27 -5.10 
2480 -5.28 -6.14 -5.10 
2481 -5.62 -6.13 -5.10 
2482 -5.49 -6.02 -5.10 
2483 -5.42 -6.23 -5.10 
2484 -5.42 -6.27 -5.10 
2485 -5.32 -6.23 -5.10 
2486 -5.38 -6.21 -5.10 
2487 -5.07 -6.29 -5.10 
2488 -5.21 -6.16 -5.07 
2489 -5.48 -6.13 -5.07 
2490 -5.35 -5.93 -5.07 
2491 -5.63 -5.93 -5.07 
2492 -5.41 -6.09 -5.07 
2493 -5.44 -6.14 -5.07 
2494 -5.44 -6.14 -5.07 
2495 -5.17 -6.24 -5.07 
2496 -5.28 -6.06 -5.07 
2497 -5.67 -5.99 -5.07 
2498 -5.49 -6.21 -5.07 
2499 -5.47 -6.10 -5.07 
2500 -5.51 -6.09 -5.07 
2501 -5.48 -6.10 -5.07 
2502 -5.42 -6.04 -5.07 
2503 -5.17 -5.96 -5.07 
2504 -5.23 -6.12 -5.07 
2505 -5.32 -6.09 -5.07 
2506 -5.49 -6.14 -5.07 
2507 -5.44 -6.11 -5.07 
2508 -5.48 -6.17 -5.07 
2509 -5.56 -6.08 -5.07 
2510 -5.43 -6.14 -5.07 
2511 -5.40 -6.16 -5.07 
2512 -5.48 -6.01 -5.07 
2513 -5.47 -6.12 -5.07 
2514 -5.53 -5.86 -5.07 
2515 -5.53 -6.02 -5.07 
2516 -5.22 -6.15 -5.07 
2517 -5.81 -6.05 -5.07 
2518 -5.19 -6.14 -5.07 
2519 -5.66 -5.94 -5.07 
2520 -5.28 -6.24 -5.07 
2521 -5.14 -5.93 -5.07 
2522 -5.53 -6.14 -5.07 
2523 -5.38 -6.11 -5.07 
2524 -5.38 -6.28 -5.07 
2525 -5.33 -5.96 -5.07 
2526 -5.26 -6.05 -5.07 
2527 -5.38 -6.20 -5.07 
2528 -5.21 -6.24 -5.07 
2529 -5.45 -6.06 -5.07 
2530 -5.25 -6.24 -5.07 
2531 -5.62 -6.26 -5.07 
2532 -5.47 -6.34 -5.07 
2533 -5.36 -6.19 -5.07 
2534 -5.29 -6.20 -5.07 
2535 -5.70 -6.16 -5.07 
2536 -5.33 -6.33 -5.07 
2537 -5.38 -6.31 -5.07 
2538 -5.49 -6.37 -5.07 
2539 -5.48 -6.27 -5.07 
2540 -5.49 -6.19 -5.07 
2541 -5.31 -6.33 -5.07 
2542 -5.39 -6.16 -5.07 
2543 -5.36 -6.23 -5.07 
2544 -5.29 -6.24 -5.07 
2545 -5.25 -6.25 -5.07 
2546 -5.42 -6.29 -5.07 
2547 -5.29 -6.20 -5.07 
2548 -5.42 -6.17 -5.07 
2549 -5.19 -6.13 -5.07 
2550 -5.54 -6.20 -5.07 
2551 -5.47 -6.16 -5.07 
2552 -5.28 -6.06 -5.07 
2553 -5.55 -6.15 -5.07 
2554 -5.53 -6.34 -5.07 
2555 -5.60 -6.19 -5.07 
2556 -5.45 -6.09 -5.07 
2557 -5.45 -5.85 -5.07 
2558 -5.32 -6.21 -5.07 
2559 -5.33 -6.22 -5.07 
2560 -5.37 -6.23 -5.07 
2561 -5.50 -6.16 -5.07 
2562 -5.54 -6.37 -5.07 
2563 -5.39 -6.08 -5.07 
2564 -5.58 -6.13 -5.07 
2565 -5.58 -6.30 -5.07 
2566 -5.23 -6.43 -5.07 
2567 -5.27 -6.37 -5.07 
2568 -5.29 -6.26 -5.07 
2569 -5.41 -6.19 -5.07 
2570 -5.37 -6.11 -5.07 
2571 -5.31 -6.24 -5.07 
2572 -5.56 -6.51 -5.07 
2573 -5.38 -6.11 -5.07 
2574 -5.36 -6.34 -5.07 
2575 -5.13 -6.20 -5.07 
2576 -5.49 -6.30 -5.07 
2577 -5.28 -6.35 -5.07 
2578 -5.31 -6.48 -5.07 
2579 -5.54 -6.22 -5.07 
2580 -5.16 -6.36 -5.07 
2581 -5.56 -6.15 -5.07 
2582 -5.63 -6.37 -5.07 
2583 -5.28 -6.14 -5.07 
2584 -5.14 -6.20 -5.07 
2585 -5.58 -6.48 -5.07 
2586 -5.70 -6.22 -5.07 
2587 -5.72 -6.19 -5.07 
2588 -5.11 -6.30 -5.07 
2589 -5.49 -6.42 -5.07 
2590 -5.34 -6.39 -5.07 
2591 -5.31 -6.10 -5.07 
2592 -5.33 -6.23 -5.07 
2593 -5.50 -6.46 -5.07 
2594 -5.72 -6.33 -5.07 
2595 -5.38 -6.19 -5.07 
2596 -5.51 -6.31 -5.07 
2597 -5.44 -6.36 -5.07 
2598 -5.34 -6.21 -5.07 
2599 -5.42 -6.25 -5.07 
2600 -5.54 -6.35 -5.07 
2601 -5.29 -6.28 -5.07 
2602 -5.45 -6.20 -5.07 
2603 -5.45 -6.29 -5.07 
2604 -5.49 -6.12 -5.07 
2605 -5.36 -6.42 -5.07 
2606 -5.40 -6.10 -5.07 
2607 -5.37 -6.15 -5.07 
2608 -5.55 -6.09 -5.07 
2609 -5.35 -6.21 -5.07 
2610 -5.46 -6.11 -5.07 
2611 -5.51 -6.01 -5.07 
2612 -5.18 -6.16 -5.07 
2613 -5.46 -6.13 -5.07 
2614 -5.35 -6.26 -5.07 
2615 -5.36 -6.05 -5.07 
2616 -5.46 -6.04 -5.07 
2617 -5.52 -5.96 -5.07 
2618 -5.52 -6.24 -5.07 
2619 -5.34 -6.22 -5.07 
2620 -5.34 -6.18 -5.07 
2621 -5.49 -6.10 -5.07 
2622 -5.25 -6.19 -5.07 
2623 -5.32 -6.07 -5.07 
2624 -5.35 -6.25 -5.07 
2625 -5.51 -6.16 -5.07 
2626 -5.27 -6.40 -5.07 
2627 -5.08 -6.30 -5.07 
2628 -5.36 -6.01 -5.07 
2629 -5.31 -6.21 -5.07 
2630 -5.35 -6.21 -5.07 
2631 -5.30 -6.07 -5.07 
2632 -5.35 -6.00 -5.07 
2633 -5.10 -6.15 -5.07 
2634 -5.43 -6.23 -5.07 
2635 -5.43 -6.12 -5.07 
2636 -5.28 -6.16 -5.07 
2637 -5.22 -6.08 -5.07 
2638 -5.27 -6.18 -5.07 
2639 -5.50 -5.98 -5.07 
2640 -5.32 -6.13 -5.07 
2641 -5.39 -6.18 -5.07 
2642 -5.43 -6.05 -5.07 
2643 -5.53 -6.00 -5.07 
2644 -5.42 -6.11 -5.07 
2645 -5.49 -6.10 -5.07 
2646 -5.25 -5.90 -5.07 
2647 -5.44 -5.88 -5.07 
2648 -5.44 -6.19 -5.07 
2649 -5.10 -5.98 -5.07 
2650 -5.34 -6.20 -5.07 
2651 -5.13 -6.18 -5.07 
2652 -5.28 -6.20 -5.07 
2653 -5.26 -6.23 -5.07 
2654 -5.23 -6.30 -5.07 
2655 -5.28 -6.15 -5.07 
2656 -5.27 -6.26 -5.07 
2657 -5.17 -6.09 -5.07 
2658 -5.57 -6.03 -5.07 
2659 -5.39 -6.24 -5.07 
2660 -5.14 -6.08 -5.07 
2661 -5.40 -6.15 -5.07 
2662 -5.14 -6.12 -5.07 
2663 -5.34 -6.05 -5.07 
2664 -5.73 -6.18 -5.07 
2665 -5.43 -6.13 -5.07 
2666 -5.45 -6.07 -5.07 
2667 -5.29 -6.15 -5.07 
2668 -5.38 -6.10 -5.07 
2669 -5.38 -5.96 -5.07 
2670 -5.41 -5.96 -5.07 
2671 -5.37 -5.95 -5.07 
2672 -5.60 -6.14 -5.07 
2673 -5.31 -6.08 -5.07 
2674 -5.35 -6.06 -5.07 
2675 -5.29 -5.94 -5.07 
2676 -5.31 -5.95 -5.07 
2677 -5.37 -5.99 -5.07 
2678 -5.37 -6.16 -5.07 
2679 -5.27 -5.95 -5.07 
2680 -5.57 -6.03 -5.07 
2681 -5.14 -6.36 -5.07 
2682 -5.19 -5.90 -5.07 
2683 -5.20 -6.01 -5.07 
2684 -5.39 -6.30 -5.07 
2685 -5.45 -6.00 -5.07 
2686 -5.29 -6.15 -5.07 
2687 -5.47 -6.08 -5.07 
2688 -5.12 -6.07 -5.07 
2689 -5.23 -6.01 -5.07 
2690 -5.51 -5.92 -5.07 
2691 -5.55 -6.04 -5.07 
2692 -5.36 -6.03 -5.07 
2693 -5.43 -6.07 -5.07 
2694 -5.38 -5.98 -5.07 
2695 -5.22 -6.00 -5.07 
2696 -5.24 -5.86 -5.07 
2697 -5.36 -5.90 -5.07 
2698 -5.70 -6.07 -5.07 
2699 -5.36 -6.21 -5.07 
2700 -5.39 -5.97 -5.07 
2701 -5.30 -6.31 -5.07 
2702 -5.39 -5.99 -5.07 
2703 -5.64 -6.48 -5.07 
2704 -5.37 -6.34 -5.07 
2705 -5.20 -6.21 -5.07 
2706 -5.10 -6.13 -5.07 
2707 -5.52 -6.30 -5.07 
2708 -5.49 -6.04 -5.07 
2709 -5.26 -6.07 -5.07 
2710 -5.59 -6.04 -5.07 
2711 -5.55 -6.07 -5.07 
2712 -5.38 -6.27 -5.07 
2713 -5.45 -6.18 -5.07 
2714 -5.36 -6.19 -5.07 
2715 -5.22 -6.00 -5.07 
2716 -5.43 -5.99 -5.07 
2717 -5.26 -6.01 -5.07 
2718 -5.31 -6.12 -5.07 
2719 -5.03 -5.89 -5.07 
2720 -5.35 -5.95 -5.03 
2721 -5.36 -6.08 -5.03 
2722 -5.60 -5.79 -5.03 
2723 -5.46 -6.06 -5.03 
2724 -5.26 -6.14 -5.03 
2725 -5.16 -5.86 -5.03 
2726 -5.64 -5.95 -5.03 
2727 -5.53 -5.90 -5.03 
2728 -5.51 -5.94 -5.03 
2729 -5.37 -6.04 -5.03 
2730 -5.53 -6.01 -5.03 
2731 -5.26 -5.92 -5.03 
2732 -5.37 -5.84 -5.03 
2733 -5.38 -5.97 -5.03 
2734 -5.30 -5.94 -5.03 
2735 -5.30 -6.05 -5.03 
2736 -5.69 -5.94 -5.03 
2737 -5.36 -6.02 -5.03 
2738 -5.32 -6.18 -5.03 
2739 -5.51 -6.20 -5.03 
2740 -5.61 -6.30 -5.03 
2741 -5.35 -5.91 -5.03 
2742 -5.43 -6.13 -5.03 
2743 -5.66 -5.92 -5.03 
2744 -5.34 -6.07 -5.03 
2745 -5.38 -6.26 -5.03 
2746 -5.46 -6.38 -5.03 
2747 -5.43 -6.17 -5.03 
2748 -5.10 -6.18 -5.03 
2749 -5.50 -6.04 -5.03 
2750 -5.41 -6.04 -5.03 
2751 -5.25 -6.12 -5.03 
2752 -5.49 -6.13 -5.03 
2753 -5.14 -6.25 -5.03 
2754 -5.42 -6.34 -5.03 
2755 -5.09 -6.11 -5.03 
2756 -5.31 -6.39 -5.03 
2757 -5.33 -6.35 -5.03 
2758 -5.33 -5.84 -5.03 
2759 -5.46 -6.18 -5.03 
2760 -5.41 -5.99 -5.03 
2761 -5.38 -6.14 -5.03 
2762 -5.43 -6.06 -5.03 
2763 -5.34 -6.04 -5.03 
2764 -5.32 -6.31 -5.03 
2765 -5.27 -6.05 -5.03 
2766 -5.64 -6.03 -5.03 
2767 -5.29 -6.00 -5.03 
2768 -5.36 -6.33 -5.03 
2769 -5.43 -6.29 -5.03 
2770 -5.15 -6.10 -5.03 
2771 -5.46 -6.16 -5.03 
2772 -5.33 -6.25 -5.03 
2773 -5.54 -5.95 -5.03 
2774 -5.39 -6.29 -5.03 
2775 -5.37 -6.24 -5.03 
2776 -5.42 -5.82 -5.03 
2777 -5.21 -6.16 -5.03 
2778 -5.32 -5.94 -5.03 
2779 -5.59 -5.96 -5.03 
2780 -5.47 -5.88 -5.03 
2781 -5.32 -5.90 -5.03 
2782 -5.40 -6.06 -5.03 
2783 -5.10 -5.93 -5.03 
2784 -5.44 -5.94 -5.03 
2785 -5.40 -5.87 -5.03 
2786 -5.22 -5.94 -5.03 
2787 -5.23 -5.85 -5.03 
2788 -5.36 -5.81 -5.03 
2789 -5.13 -5.64 -5.03 
2790 -5.29 -5.89 -5.03 
2791 -5.18 -5.88 -5.03 
2792 -5.44 -5.95 -5.03 
2793 -5.27 -5.97 -5.03 
2794 -5.47 -5.86 -5.03 
2795 -5.53 -6.01 -5.03 
2796 -5.23 -5.95 -5.03 
2797 -5.37 -6.15 -5.03 
2798 -5.12 -6.03 -5.03 
2799 -5.31 -5.88 -5.03 
2800 -5.36 -5.85 -5.03 
2801 -5.50 -5.95 -5.03 
2802 -5.15 -5.86 -5.03 
2803 -5.40 -6.12 -5.03 
2804 -5.20 -5.97 -5.03 
2805 -5.15 -5.98 -5.03 
2806 -5.31 -6.05 -5.03 
2807 -5.26 -6.00 -5.03 
2808 -5.39 -6.00 -5.03 
2809 -5.48 -6.01 -5.03 
2810 -5.55 -5.89 -5.03 
2811 -5.42 -5.91 -5.03 
2812 -5.37 -6.06 -5.03 
2813 -5.13 -6.08 -5.03 
2814 -5.02 -6.03 -5.03 
2815 -5.39 -5.92 -5.02 
2816 -5.40 -6.15 -5.02 
2817 -5.21 -5.95 -5.02 
2818 -5.46 -5.85 -5.02 
2819 -5.25 -5.93 -5.02 
2820 -5.54 -5.95 -5.02 
2821 -5.33 -6.12 -5.02 
2822 -5.23 -6.02 -5.02 
2823 -5.53 -6.01 -5.02 
2824 -5.41 -5.89 -5.02 
2825 -5.34 -6.05 -5.02 
2826 -5.27 -6.11 -5.02 
2827 -5.50 -5.95 -5.02 
2828 -5.37 -5.88 -5.02 
2829 -5.25 -6.04 -5.02 
2830 -5.32 -5.97 -5.02 
2831 -5.70 -6.05 -5.02 
2832 -5.36 -6.09 -5.02 
2833 -5.38 -5.84 -5.02 
2834 -5.28 -6.07 -5.02 
2835 -5.21 -6.03 -5.02 
2836 -5.31 -6.06 -5.02 
2837 -5.07 -5.79 -5.02 
2838 -5.30 -6.05 -5.02 
2839 -5.12 -5.86 -5.02 
2840 -5.42 -5.98 -5.02 
2841 -5.38 -5.92 -5.02 
2842 -5.12 -5.90 -5.02 
2843 -5.33 -5.89 -5.02 
2844 -5.32 -5.90 -5.02 
2845 -5.42 -5.70 -5.02 
2846 -5.46 -5.87 -5.02 
2847 -5.28 -5.85 -5.02 
2848 -5.21 -5.87 -5.02 
2849 -5.47 -5.95 -5.02 
2850 -5.34 -5.70 -5.02 
2851 -5.48 -5.87 -5.02 
2852 -5.42 -5.88 -5.02 
2853 -5.42 -5.92 -5.02 
2854 -5.63 -5.83 -5.02 
2855 -5.39 -5.90 -5.02 
2856 -5.44 -6.00 -5.02 
2857 -5.21 -5.84 -5.02 
2858 -5.14 -5.91 -5.02 
2859 -5.35 -5.75 -5.02 
2860 -5.25 -5.89 -5.02 
2861 -5.30 -5.84 -5.02 
2862 -5.39 -5.83 -5.02 
2863 -5.06 -5.77 -5.02 
2864 -5.32 -5.97 -5.02 
2865 -5.29 -6.02 -5.02 
2866 -5.32 -6.06 -5.02 
2867 -5.16 -5.67 -5.02 
2868 -5.25 -5.83 -5.02 
2869 -5.52 -5.91 -5.02 
2870 -5.39 -5.92 -5.02 
2871 -5.50 -5.97 -5.02 
2872 -5.41 -5.83 -5.02 
2873 -5.43 -5.91 -5.02 
2874 -5.27 -5.86 -5.02 
2875 -5.50 -6.06 -5.02 
2876 -5.22 -5.94 -5.02 
2877 -5.27 -5.99 -5.02 
2878 -5.20 -6.07 -5.02 
2879 -5.28 -5.87 -5.02 
2880 -5.58 -5.96 -5.02 
2881 -5.35 -5.80 -5.02 
2882 -5.26 -5.79 -5.02 
2883 -5.47 -5.94 -5.02 
2884 -5.55 -5.74 -5.02 
2885 -5.29 -5.67 -5.02 
2886 -5.30 -5.94 -5.02 
2887 -5.27 -5.85 -5.02 
2888 -5.28 -6.03 -5.02 
2889 -5.31 -6.07 -5.02 
2890 -5.50 -5.92 -5.02 
2891 -5.25 -5.93 -5.02 
2892 -5.21 -5.98 -5.02 
2893 -5.46 -5.86 -5.02 
2894 -5.26 -6.01 -5.02 
2895 -5.41 -5.88 -5.02 
2896 -5.10 -5.86 -5.02 
2897 -5.24 -6.13 -5.02 
2898 -5.30 -5.99 -5.02 
2899 -5.22 -5.88 -5.02 
2900 -4.96 -6.06 -5.02 
2901 -5.27 -5.91 -4.96 
2902 -5.32 -5.80 -4.96 
2903 -5.35 -6.01 -4.96 
2904 -5.36 -6.10 -4.96 
2905 -5.16 -5.91 -4.96 
2906 -5.42 -5.83 -4.96 
2907 -5.27 -5.87 -4.96 
2908 -5.33 -5.84 -4.96 
2909 -5.59 -6.09 -4.96 
2910 -5.20 -5.85 -4.96 
2911 -5.13 -5.92 -4.96 
2912 -5.18 -5.79 -4.96 
2913 -5.45 -5.85 -4.96 
2914 -5.58 -5.66 -4.96 
2915 -5.32 -5.97 -4.96 
2916 -5.23 -5.98 -4.96 
2917 -5.21 -6.13 -4.96 
2918 -5.45 -6.15 -4.96 
2919 -5.41 -6.02 -4.96 
2920 -5.44 -6.00 -4.96 
2921 -5.60 -5.87 -4.96 
2922 -5.19 -5.99 -4.96 
2923 -5.63 -6.00 -4.96 
2924 -5.42 -6.04 -4.96 
2925 -5.27 -5.95 -4.96 
2926 -5.31 -5.97 -4.96 
2927 -5.34 -6.05 -4.96 
2928 -5.33 -5.90 -4.96 
2929 -5.08 -5.86 -4.96 
2930 -5.26 -5.92 -4.96 
2931 -5.35 -5.75 -4.96 
2932 -5.25 -5.87 -4.96 
2933 -5.33 -5.90 -4.96 
2934 -5.61 -5.97 -4.96 
2935 -4.92 -5.80 -4.96 
2936 -5.38 -5.90 -4.92 
2937 -5.27 -5.83 -4.92 
2938 -5.35 -6.02 -4.92 
2939 -5.23 -5.99 -4.92 
2940 -5.29 -5.83 -4.92 
2941 -5.08 -6.12 -4.92 
2942 -5.21 -5.91 -4.92 
2943 -5.28 -5.75 -4.92 
2944 -5.33 -6.02 -4.92 
2945 -5.38 -5.94 -4.92 
2946 -5.21 -5.98 -4.92 
2947 -5.41 -5.86 -4.92 
2948 -5.17 -5.77 -4.92 
2949 -5.06 -6.00 -4.92 
2950 -5.25 -5.90 -4.92 
2951 -5.48 -6.05 -4.92 
2952 -5.67 -6.15 -4.92 
2953 -5.39 -5.98 -4.92 
2954 -5.10 -6.02 -4.92 
2955 -5.16 -6.02 -4.92 
2956 -5.34 -5.94 -4.92 
2957 -5.48 -5.79 -4.92 
2958 -5.60 -5.95 -4.92 
2959 -5.45 -5.99 -4.92 
2960 -5.41 -6.04 -4.92 
2961 -5.34 -6.00 -4.92 
2962 -5.17 -5.86 -4.92 
2963 -5.36 -6.03 -4.92 
2964 -5.38 -5.93 -4.92 
2965 -5.27 -5.87 -4.92 
2966 -5.28 -6.01 -4.92 
2967 -5.43 -6.06 -4.92 
2968 -5.41 -6.08 -4.92 
2969 -5.43 -5.99 -4.92 
2970 -5.25 -6.00 -4.92 
2971 -5.40 -6.00 -4.92 
2972 -5.57 -5.90 -4.92 
2973 -5.12 -5.95 -4.92 
2974 -5.25 -5.91 -4.92 
2975 -5.41 -5.97 -4.92 
2976 -5.27 -5.92 -4.92 
2977 -5.39 -6.02 -4.92 
2978 -5.08 -5.82 -4.92 
2979 -5.21 -6.02 -4.92 
2980 -5.37 -5.89 -4.92 
2981 -5.28 -5.92 -4.92 
2982 -5.34 -5.84 -4.92 
2983 -5.31 -6.06 -4.92 
2984 -5.25 -6.00 -4.92 
2985 -5.20 -5.99 -4.92 
2986 -5.34 -5.90 -4.92 
2987 -5.23 -5.76 -4.92 
2988 -5.22 -5.90 -4.92 
2989 -5.07 -5.80 -4.92 
2990 -5.41 -5.86 -4.92 
2991 -5.23 -5.94 -4.92 
2992 -5.47 -5.85 -4.92 
2993 -5.11 -5.79 -4.92 
2994 -5.38 -5.87 -4.92 
2995 -5.38 -5.96 -4.92 
2996 -5.48 -5.85 -4.92 
2997 -5.06 -5.76 -4.92 
2998 -5.20 -5.86 -4.92 
2999 -5.41 -5.66 -4.92 
3000 -5.26 -5.88 -4.92 
3001 -5.46 -5.77 -4.92 
3002 -5.07 -5.84 -4.92 
3003 -5.32 -5.85 -4.92 
3004 -5.38 -5.84 -4.92 
3005 -5.28 -5.82 -4.92 
3006 -5.41 -5.63 -4.92 
3007 -5.32 -5.82 -4.92 
3008 -5.04 -5.82 -4.92 
3009 -5.52 -5.90 -4.92 
3010 -5.47 -5.90 -4.92 
3011 -5.43 -5.80 -4.92 
3012 -5.40 -5.81 -4.92 
3013 -5.02 -5.79 -4.92 
3014 -5.24 -5.77 -4.92 
3015 -5.24 -5.89 -4.92 
3016 -5.36 -5.86 -4.92 
3017 -5.39 -5.88 -4.92 
3018 -5.17 -5.76 -4.92 
3019 -5.34 -6.08 -4.92 
3020 -5.38 -5.87 -4.92 
3021 -5.28 -5.92 -4.92 
3022 -5.42 -5.78 -4.92 
3023 -4.84 -5.80 -4.92 
3024 -5.26 -5.87 -4.84 
3025 -5.15 -5.84 -4.84 
3026 -5.31 -5.97 -4.84 
3027 -5.24 -5.78 -4.84 
3028 -5.19 -5.84 -4.84 
3029 -5.18 -5.78 -4.84 
3030 -5.24 -5.87 -4.84 
3031 -5.27 -5.72 -4.84 
3032 -5.33 -5.89 -4.84 
3033 -5.28 -5.80 -4.84 
3034 -5.35 -5.87 -4.84 
3035 -5.30 -5.97 -4.84 
3036 -5.49 -5.89 -4.84 
3037 -5.27 -5.85 -4.84 
3038 -5.38 -5.90 -4.84 
3039 -5.18 -5.92 -4.84 
3040 -5.20 -5.75 -4.84 
3041 -5.32 -5.76 -4.84 
3042 -5.12 -5.95 -4.84 
3043 -5.11 -5.71 -4.84 
3044 -5.37 -5.73 -4.84 
3045 -5.36 -5.77 -4.84 
3046 -5.30 -5.97 -4.84 
3047 -5.42 -5.73 -4.84 
3048 -5.16 -5.81 -4.84 
3049 -5.35 -5.80 -4.84 
3050 -5.29 -5.60 -4.84 
3051 -5.29 -5.76 -4.84 
3052 -5.21 -5.74 -4.84 
3053 -5.44 -5.69 -4.84 
3054 -5.33 -5.83 -4.84 
3055 -5.50 -5.70 -4.84 
3056 -5.36 -5.52 -4.84 
3057 -5.42 -5.88 -4.84 
3058 -5.01 -5.72 -4.84 
3059 -5.25 -5.65 -4.84 
3060 -5.45 -5.75 -4.84 
3061 -5.14 -5.91 -4.84 
3062 -5.38 -5.72 -4.84 
3063 -5.46 -5.71 -4.84 
3064 -5.27 -5.60 -4.84 
3065 -5.11 -5.78 -4.84 
3066 -5.19 -5.78 -4.84 
3067 -5.21 -5.73 -4.84 
3068 -5.37 -5.72 -4.84 
3069 -5.18 -5.68 -4.84 
3070 -5.38 -5.81 -4.84 
3071 -5.21 -5.87 -4.84 
3072 -5.33 -5.88 -4.84 
3073 -5.01 -5.82 -4.84 
3074 -5.50 -5.90 -4.84 
3075 -5.30 -6.04 -4.84 
3076 -5.16 -5.82 -4.84 
3077 -5.23 -5.87 -4.84 
3078 -5.10 -5.85 -4.84 
3079 -5.34 -5.87 -4.84 
3080 -5.22 -5.88 -4.84 
3081 -4.94 -5.79 -4.84 
3082 -5.14 -5.80 -4.84 
3083 -5.32 -5.98 -4.84 
3084 -5.47 -5.70 -4.84 
3085 -5.10 -5.95 -4.84 
3086 -5.12 -5.91 -4.84 
3087 -5.20 -5.85 -4.84 
3088 -5.21 -5.83 -4.84 
3089 -5.42 -5.82 -4.84 
3090 -5.43 -5.82 -4.84 
3091 -5.51 -5.92 -4.84 
3092 -5.39 -5.81 -4.84 
3093 -5.69 -5.81 -4.84 
3094 -5.30 -5.81 -4.84 
3095 -5.19 -5.82 -4.84 
3096 -5.29 -5.83 -4.84 
3097 -5.17 -5.78 -4.84 
3098 -5.20 -5.88 -4.84 
3099 -5.21 -5.73 -4.84 
3100 -5.20 -5.90 -4.84 
3101 -5.29 -5.88 -4.84 
3102 -5.16 -5.88 -4.84 
3103 -5.38 -5.71 -4.84 
3104 -5.35 -5.82 -4.84 
3105 -5.00 -5.88 -4.84 
3106 -5.31 -5.90 -4.84 
3107 -5.27 -5.95 -4.84 
3108 -5.11 -5.78 -4.84 
3109 -5.04 -6.00 -4.84 
3110 -5.02 -5.81 -4.84 
3111 -5.15 -5.79 -4.84 
3112 -5.10 -5.83 -4.84 
3113 -5.22 -5.88 -4.84 
3114 -5.55 -5.79 -4.84 
3115 -5.23 -5.78 -4.84 
3116 -5.17 -5.75 -4.84 
3117 -5.27 -5.90 -4.84 
3118 -5.25 -5.93 -4.84 
3119 -5.36 -5.80 -4.84 
3120 -4.82 -5.78 -4.84 
3121 -5.02 -5.95 -4.82 
3122 -5.33 -5.77 -4.82 
3123 -5.28 -5.71 -4.82 
3124 -5.29 -5.70 -4.82 
3125 -4.94 -5.92 -4.82 
3126 -5.27 -5.83 -4.82 
3127 -5.45 -5.98 -4.82 
3128 -5.13 -5.77 -4.82 
3129 -5.22 -5.80 -4.82 
3130 -5.16 -5.91 -4.82 
3131 -5.39 -5.74 -4.82 
3132 -5.47 -5.84 -4.82 
3133 -5.49 -5.82 -4.82 
3134 -5.29 -5.87 -4.82 
3135 -5.05 -5.89 -4.82 
3136 -5.20 -5.72 -4.82 
3137 -5.35 -5.64 -4.82 
3138 -5.39 -5.85 -4.82 
3139 -5.26 -5.89 -4.82 
3140 -5.34 -5.83 -4.82 
3141 -5.31 -5.76 -4.82 
3142 -5.05 -5.78 -4.82 
3143 -5.26 -5.83 -4.82 
3144 -5.09 -5.78 -4.82 
3145 -5.13 -5.93 -4.82 
3146 -5.43 -5.88 -4.82 
3147 -5.32 -5.68 -4.82 
3148 -5.14 -5.97 -4.82 
3149 -5.11 -5.89 -4.82 
3150 -5.26 -5.83 -4.82 
3151 -5.17 -5.72 -4.82 
3152 -5.26 -5.78 -4.82 
3153 -5.08 -5.80 -4.82 
3154 -5.20 -5.87 -4.82 
3155 -5.51 -5.85 -4.82 
3156 -5.18 -5.82 -4.82 
3157 -5.24 -5.61 -4.82 
3158 -5.12 -5.79 -4.82 
3159 -5.29 -5.80 -4.82 
3160 -5.25 -5.74 -4.82 
3161 -5.00 -5.78 -4.82 
3162 -5.43 -5.87 -4.82 
3163 -5.36 -5.75 -4.82 
3164 -5.35 -5.83 -4.82 
3165 -5.22 -5.70 -4.82 
3166 -5.26 -5.76 -4.82 
3167 -5.27 -5.93 -4.82 
3168 -4.96 -5.77 -4.82 
3169 -5.42 -5.66 -4.82 
3170 -5.11 -5.64 -4.82 
3171 -5.35 -5.58 -4.82 
3172 -5.31 -5.69 -4.82 
3173 -5.31 -5.68 -4.82 
3174 -5.19 -5.80 -4.82 
3175 -5.33 -5.67 -4.82 
3176 -5.19 -5.66 -4.82 
3177 -5.15 -5.77 -4.82 
3178 -5.08 -5.80 -4.82 
3179 -5.22 -5.65 -4.82 
3180 -5.42 -5.56 -4.82 
3181 -5.32 -5.70 -4.82 
3182 -5.43 -5.87 -4.82 
3183 -5.36 -5.79 -4.82 
3184 -5.34 -5.62 -4.82 
3185 -5.30 -5.68 -4.82 
3186 -5.19 -5.65 -4.82 
3187 -5.26 -5.81 -4.82 
3188 -5.11 -5.77 -4.82 
3189 -5.44 -5.83 -4.82 
3190 -5.22 -5.76 -4.82 
3191 -5.28 -5.75 -4.82 
3192 -5.46 -5.66 -4.82 
3193 -5.37 -5.82 -4.82 
3194 -5.40 -5.74 -4.82 
3195 -5.09 -5.85 -4.82 
3196 -5.20 -5.76 -4.82 
3197 -5.31 -5.67 -4.82 
3198 -5.32 -5.74 -4.82 
3199 -5.31 -5.69 -4.82 
3200 -5.25 -5.69 -4.82 
3201 -5.13 -5.70 -4.82 
3202 -5.20 -5.90 -4.82 
3203 -5.38 -5.83 -4.82 
3204 -5.07 -5.93 -4.82 
3205 -5.43 -5.68 -4.82 
3206 -5.30 -5.68 -4.82 
3207 -5.37 -5.71 -4.82 
3208 -5.24 -5.58 -4.82 
3209 -5.14 -5.72 -4.82 
3210 -5.21 -5.73 -4.82 
3211 -5.40 -5.68 -4.82 
3212 -5.03 -5.78 -4.82 
3213 -5.43 -5.71 -4.82 
3214 -5.45 -5.66 -4.82 
3215 -5.36 -5.77 -4.82 
3216 -5.20 -5.68 -4.82 
3217 -5.35 -5.74 -4.82 
3218 -5.50 -5.70 -4.82 
3219 -5.28 -5.76 -4.82 
3220 -5.10 -5.68 -4.82 
3221 -5.54 -5.74 -4.82 
3222 -5.27 -5.70 -4.82 
3223 -5.34 -5.70 -4.82 
3224 -5.12 -5.69 -4.82 
3225 -5.50 -5.87 -4.82 
3226 -5.26 -5.82 -4.82 
3227 -5.24 -5.79 -4.82 
3228 -5.31 -5.86 -4.82 
3229 -5.45 -5.68 -4.82 
3230 -5.41 -5.78 -4.82 
3231 -5.22 -5.83 -4.82 
3232 -5.49 -5.92 -4.82 
3233 -5.49 -5.94 -4.82 
3234 -5.33 -5.63 -4.82 
3235 -5.45 -5.86 -4.82 
3236 -5.36 -5.88 -4.82 
3237 -5.29 -5.74 -4.82 
3238 -5.56 -5.93 -4.82 
3239 -5.32 -5.77 -4.82 
3240 -5.11 -5.74 -4.82 
3241 -5.23 -5.93 -4.82 
3242 -5.00 -5.87 -4.82 
3243 -5.25 -5.88 -4.82 
3244 -5.18 -5.92 -4.82 
3245 -5.35 -5.93 -4.82 
3246 -5.49 -6.01 -4.82 
3247 -5.32 -6.02 -4.82 
3248 -5.15 -5.78 -4.82 
3249 -5.44 -5.90 -4.82 
3250 -5.45 -5.87 -4.82 
3251 -5.23 -5.96 -4.82 
3252 -5.24 -5.97 -4.82 
3253 -5.07 -5.86 -4.82 
3254 -5.10 -6.01 -4.82 
3255 -4.81 -5.84 -4.82 
3256 -5.45 -5.99 -4.81 
3257 -5.32 -6.00 -4.81 
3258 -4.94 -5.88 -4.81 
3259 -5.29 -6.04 -4.81 
3260 -5.29 -5.88 -4.81 
3261 -5.26 -6.02 -4.81 
3262 -5.35 -5.92 -4.81 
3263 -5.10 -5.87 -4.81 
3264 -5.30 -5.86 -4.81 
3265 -5.03 -5.95 -4.81 
3266 -5.35 -5.97 -4.81 
3267 -5.03 -5.82 -4.81 
3268 -5.51 -5.82 -4.81 
3269 -5.22 -5.90 -4.81 
3270 -5.42 -5.87 -4.81 
3271 -5.37 -5.92 -4.81 
3272 -5.45 -5.76 -4.81 
3273 -5.25 -5.84 -4.81 
3274 -5.10 -5.95 -4.81 
3275 -5.59 -5.81 -4.81 
3276 -5.28 -5.95 -4.81 
3277 -5.29 -5.85 -4.81 
3278 -5.34 -5.97 -4.81 
3279 -5.00 -5.86 -4.81 
3280 -5.38 -5.81 -4.81 
3281 -5.42 -5.96 -4.81 
3282 -5.44 -5.81 -4.81 
3283 -5.27 -5.87 -4.81 
3284 -5.09 -5.97 -4.81 
3285 -5.36 -5.94 -4.81 
3286 -5.40 -5.95 -4.81 
3287 -5.33 -5.93 -4.81 
3288 -5.29 -5.84 -4.81 
3289 -5.15 -5.96 -4.81 
3290 -5.20 -5.86 -4.81 
3291 -5.07 -5.84 -4.81 
3292 -5.12 -6.00 -4.81 
3293 -5.06 -5.77 -4.81 
3294 -5.16 -5.78 -4.81 
3295 -5.18 -6.10 -4.81 
3296 -5.31 -6.01 -4.81 
3297 -5.16 -6.02 -4.81 
3298 -5.47 -5.95 -4.81 
3299 -5.37 -6.00 -4.81 
3300 -5.20 -5.87 -4.81 
3301 -5.24 -5.90 -4.81 
3302 -5.36 -5.91 -4.81 
3303 -5.11 -5.83 -4.81 
3304 -5.14 -5.99 -4.81 
3305 -5.51 -6.08 -4.81 
3306 -5.38 -6.02 -4.81 
3307 -5.30 -5.86 -4.81 
3308 -5.02 -6.00 -4.81 
3309 -5.28 -5.89 -4.81 
3310 -5.14 -5.97 -4.81 
3311 -5.38 -5.93 -4.81 
3312 -5.44 -5.96 -4.81 
3313 -5.25 -5.94 -4.81 
3314 -5.34 -6.02 -4.81 
3315 -5.56 -5.81 -4.81 
3316 -5.11 -5.65 -4.81 
3317 -5.21 -5.71 -4.81 
3318 -5.37 -5.94 -4.81 
3319 -5.38 -5.93 -4.81 
3320 -5.27 -5.80 -4.81 
3321 -5.21 -5.79 -4.81 
3322 -5.34 -5.99 -4.81 
3323 -5.51 -5.82 -4.81 
3324 -5.34 -5.88 -4.81 
3325 -5.24 -5.97 -4.81 
3326 -5.24 -6.13 -4.81 
3327 -5.27 -5.89 -4.81 
3328 -5.37 -5.82 -4.81 
3329 -5.49 -6.00 -4.81 
3330 -5.39 -5.99 -4.81 
3331 -5.45 -5.87 -4.81 
3332 -5.23 -5.97 -4.81 
3333 -5.21 -5.81 -4.81 
3334 -5.21 -5.76 -4.81 
3335 -5.21 -5.72 -4.81 
3336 -5.09 -5.80 -4.81 
3337 -5.44 -5.82 -4.81 
3338 -5.39 -5.78 -4.81 
3339 -5.19 -5.74 -4.81 
3340 -5.16 -5.95 -4.81 
3341 -5.13 -5.84 -4.81 
3342 -5.26 -5.94 -4.81 
3343 -5.18 -5.86 -4.81 
3344 -5.35 -5.83 -4.81 
3345 -5.42 -6.06 -4.81 
3346 -5.13 -5.85 -4.81 
3347 -5.37 -5.77 -4.81 
3348 -5.26 -6.06 -4.81 
3349 -5.22 -5.87 -4.81 
3350 -5.34 -5.97 -4.81 
3351 -5.15 -5.87 -4.81 
3352 -5.16 -5.81 -4.81 
3353 -5.18 -5.90 -4.81 
3354 -5.28 -5.99 -4.81 
3355 -5.43 -5.97 -4.81 
3356 -5.31 -5.94 -4.81 
3357 -5.32 -5.78 -4.81 
3358 -5.32 -5.91 -4.81 
3359 -5.25 -5.89 -4.81 
3360 -5.45 -6.09 -4.81 
3361 -5.35 -5.81 -4.81 
3362 -5.70 -5.86 -4.81 
3363 -5.35 -5.94 -4.81 
3364 -5.38 -5.96 -4.81 
3365 -5.27 -5.98 -4.81 
3366 -5.22 -5.80 -4.81 
3367 -5.39 -6.05 -4.81 
3368 -5.32 -5.90 -4.81 
3369 -5.11 -5.85 -4.81 
3370 -5.35 -5.57 -4.81 
3371 -5.13 -5.88 -4.81 
3372 -5.28 -5.92 -4.81 
3373 -5.21 -5.76 -4.81 
3374 -5.39 -6.04 -4.81 
3375 -5.04 -5.89 -4.81 
3376 -5.36 -6.10 -4.81 
3377 -5.59 -5.97 -4.81 
3378 -5.36 -5.97 -4.81 
3379 -5.26 -6.01 -4.81 
3380 -5.24 -5.88 -4.81 
3381 -5.30 -5.95 -4.81 
3382 -5.17 -5.99 -4.81 
3383 -5.40 -5.90 -4.81 
3384 -5.23 -6.02 -4.81 
3385 -5.20 -5.90 -4.81 
3386 -5.35 -5.88 -4.81 
3387 -5.56 -5.87 -4.81 
3388 -5.22 -5.92 -4.81 
3389 -5.23 -5.95 -4.81 
3390 -5.19 -6.02 -4.81 
3391 -5.35 -5.87 -4.81 
3392 -4.96 -6.02 -4.81 
3393 -5.05 -5.82 -4.81 
3394 -5.21 -6.04 -4.81 
3395 -5.30 -5.75 -4.81 
3396 -5.39 -5.96 -4.81 
3397 -5.62 -5.98 -4.81 
3398 -5.35 -5.97 -4.81 
3399 -5.00 -6.07 -4.81 
3400 -5.37 -5.90 -4.81 
3401 -5.31 -5.94 -4.81 
3402 -5.40 -6.00 -4.81 
3403 -5.13 -5.79 -4.81 
3404 -5.05 -5.99 -4.81 
3405 -4.92 -5.94 -4.81 
3406 -5.21 -6.09 -4.81 
3407 -5.31 -5.99 -4.81 
3408 -5.39 -5.76 -4.81 
3409 -5.36 -5.82 -4.81 
3410 -5.29 -5.95 -4.81 
3411 -5.30 -5.93 -4.81 
3412 -5.14 -5.95 -4.81 
3413 -5.16 -6.10 -4.81 
3414 -5.02 -6.03 -4.81 
3415 -5.19 -5.99 -4.81 
3416 -5.42 -5.90 -4.81 
3417 -5.52 -6.09 -4.81 
3418 -5.10 -5.93 -4.81 
3419 -5.38 -5.73 -4.81 
3420 -5.04 -5.87 -4.81 
3421 -5.26 -5.87 -4.81 
3422 -5.08 -6.20 -4.81 
3423 -5.22 -5.84 -4.81 
3424 -5.33 -5.84 -4.81 
3425 -5.38 -6.01 -4.81 
3426 -4.99 -5.69 -4.81 
3427 -5.22 -5.97 -4.81 
3428 -5.15 -5.86 -4.81 
3429 -5.17 -5.92 -4.81 
3430 -5.24 -5.95 -4.81 
3431 -4.97 -5.92 -4.81 
3432 -4.97 -6.04 -4.81 
3433 -5.16 -6.01 -4.81 
3434 -5.20 -6.12 -4.81 
3435 -5.45 -5.99 -4.81 
3436 -4.96 -5.95 -4.81 
3437 -5.31 -5.75 -4.81 
3438 -5.16 -6.16 -4.81 
3439 -5.22 -5.96 -4.81 
3440 -5.34 -5.93 -4.81 
3441 -5.00 -5.86 -4.81 
3442 -5.70 -5.93 -4.81 
3443 -5.05 -5.77 -4.81 
3444 -5.11 -5.98 -4.81 
3445 -5.20 -5.77 -4.81 
3446 -5.12 -5.77 -4.81 
3447 -5.08 -5.70 -4.81 
3448 -5.31 -5.83 -4.81 
3449 -5.08 -5.60 -4.81 
3450 -5.34 -5.97 -4.81 
3451 -5.13 -5.86 -4.81 
3452 -5.34 -5.76 -4.81 
3453 -5.42 -6.04 -4.81 
3454 -5.36 -5.97 -4.81 
3455 -5.21 -6.03 -4.81 
3456 -5.34 -5.96 -4.81 
3457 -5.41 -6.02 -4.81 
3458 -5.23 -5.97 -4.81 
3459 -5.13 -5.73 -4.81 
3460 -5.12 -5.93 -4.81 
3461 -5.44 -5.85 -4.81 
3462 -5.05 -5.83 -4.81 
3463 -5.18 -5.68 -4.81 
3464 -5.19 -6.02 -4.81 
3465 -5.02 -5.75 -4.81 
3466 -5.35 -5.88 -4.81 
3467 -5.28 -5.83 -4.81 
3468 -5.34 -5.96 -4.81 
3469 -5.12 -5.80 -4.81 
3470 -5.26 -6.13 -4.81 
3471 -5.26 -5.91 -4.81 
3472 -5.17 -5.82 -4.81 
3473 -5.33 -5.83 -4.81 
3474 -5.26 -5.94 -4.81 
3475 -4.99 -5.85 -4.81 
3476 -5.14 -6.01 -4.81 
3477 -5.27 -5.94 -4.81 
3478 -5.15 -6.01 -4.81 
3479 -5.13 -5.80 -4.81 
3480 -5.35 -6.05 -4.81 
3481 -5.06 -5.84 -4.81 
3482 -5.03 -5.96 -4.81 
3483 -5.36 -5.98 -4.81 
3484 -5.19 -6.02 -4.81 
3485 -5.12 -6.06 -4.81 
3486 -5.15 -5.85 -4.81 
3487 -5.40 -5.95 -4.81 
3488 -5.16 -5.75 -4.81 
3489 -5.21 -6.05 -4.81 
3490 -5.03 -5.77 -4.81 
3491 -5.16 -5.85 -4.81 
3492 -5.33 -5.94 -4.81 
3493 -5.24 -5.92 -4.81 
3494 -5.13 -5.91 -4.81 
3495 -5.01 -6.00 -4.81 
3496 -5.45 -5.81 -4.81 
3497 -5.20 -5.88 -4.81 
3498 -5.42 -5.99 -4.81 
3499 -5.30 -5.91 -4.81 
3500 -5.08 -5.86 -4.81 
3501 -5.25 -5.83 -4.81 
3502 -5.31 -5.78 -4.81 
3503 -5.34 -5.96 -4.81 
3504 -5.36 -5.97 -4.81 
3505 -5.39 -6.01 -4.81 
3506 -5.19 -5.83 -4.81 
3507 -5.27 -6.05 -4.81 
3508 -5.12 -5.75 -4.81 
3509 -5.29 -5.86 -4.81 
3510 -5.35 -5.93 -4.81 
3511 -5.19 -5.88 -4.81 
3512 -4.99 -5.81 -4.81 
3513 -5.13 -5.64 -4.81 
3514 -4.98 -5.82 -4.81 
3515 -5.14 -5.79 -4.81 
3516 -5.42 -5.60 -4.81 
3517 -5.06 -5.81 -4.81 
3518 -4.98 -5.69 -4.81 
3519 -5.19 -5.86 -4.81 
3520 -5.18 -5.82 -4.81 
3521 -5.23 -5.82 -4.81 
3522 -5.26 -6.02 -4.81 
3523 -5.11 -5.95 -4.81 
3524 -4.86 -5.96 -4.81 
3525 -5.35 -5.84 -4.81 
3526 -5.30 -6.02 -4.81 
3527 -5.32 -5.84 -4.81 
3528 -4.99 -5.82 -4.81 
3529 -5.21 -6.02 -4.81 
3530 -5.51 -5.89 -4.81 
3531 -5.13 -5.96 -4.81 
3532 -5.30 -5.95 -4.81 
3533 -5.30 -5.87 -4.81 
3534 -5.29 -5.94 -4.81 
3535 -5.07 -6.07 -4.81 
3536 -5.22 -5.85 -4.81 
3537 -5.18 -6.00 -4.81 
3538 -5.34 -5.95 -4.81 
3539 -5.23 -6.04 -4.81 
3540 -5.38 -6.11 -4.81 
3541 -5.06 -5.99 -4.81 
3542 -5.21 -5.92 -4.81 
3543 -5.34 -5.90 -4.81 
3544 -5.49 -6.02 -4.81 
3545 -5.04 -5.89 -4.81 
3546 -4.95 -5.94 -4.81 
3547 -5.12 -5.92 -4.81 
3548 -5.20 -5.84 -4.81 
3549 -5.36 -5.86 -4.81 
3550 -5.06 -5.78 -4.81 
3551 -5.20 -5.97 -4.81 
3552 -5.32 -5.91 -4.81 
3553 -5.09 -6.06 -4.81 
3554 -5.15 -5.96 -4.81 
3555 -5.19 -5.93 -4.81 
3556 -5.03 -5.92 -4.81 
3557 -5.27 -5.81 -4.81 
3558 -5.16 -5.94 -4.81 
3559 -5.18 -6.05 -4.81 
3560 -5.43 -5.97 -4.81 
3561 -5.19 -6.02 -4.81 
3562 -5.53 -6.03 -4.81 
3563 -4.97 -5.98 -4.81 
3564 -5.19 -5.99 -4.81 
3565 -5.41 -5.91 -4.81 
3566 -5.35 -5.83 -4.81 
3567 -5.17 -5.91 -4.81 
3568 -5.10 -5.95 -4.81 
3569 -5.34 -5.92 -4.81 
3570 -5.34 -5.88 -4.81 
3571 -5.05 -5.85 -4.81 
3572 -5.30 -5.95 -4.81 
3573 -5.31 -5.95 -4.81 
3574 -5.23 -5.90 -4.81 
3575 -5.28 -5.79 -4.81 
3576 -5.11 -5.82 -4.81 
3577 -5.43 -5.93 -4.81 
3578 -5.48 -5.82 -4.81 
3579 -5.36 -5.77 -4.81 
3580 -5.35 -5.91 -4.81 
3581 -5.07 -5.85 -4.81 
3582 -5.17 -5.96 -4.81 
3583 -5.03 -5.93 -4.81 
3584 -4.93 -5.92 -4.81 
3585 -5.05 -5.88 -4.81 
3586 -5.27 -5.88 -4.81 
3587 -5.12 -5.86 -4.81 
3588 -5.19 -5.90 -4.81 
3589 -5.24 -5.73 -4.81 
3590 -5.18 -5.82 -4.81 
3591 -5.18 -5.60 -4.81 
3592 -5.06 -5.98 -4.81 
3593 -5.31 -5.91 -4.81 
3594 -5.28 -5.89 -4.81 
3595 -5.18 -5.99 -4.81 
3596 -5.22 -5.86 -4.81 
3597 -5.08 -6.11 -4.81 
3598 -5.27 -5.77 -4.81 
3599 -5.06 -6.05 -4.81 
3600 -5.27 -5.92 -4.81 
3601 -5.07 -5.82 -4.81 
3602 -5.05 -6.10 -4.81 
3603 -5.07 -5.78 -4.81 
3604 -5.31 -5.95 -4.81 
3605 -5.32 -5.97 -4.81 
3606 -5.20 -5.90 -4.81 
3607 -5.36 -5.94 -4.81 
3608 -4.85 -5.81 -4.81 
3609 -5.11 -5.90 -4.81 
3610 -5.32 -6.02 -4.81 
3611 -5.30 -5.86 -4.81 
3612 -5.20 -6.07 -4.81 
3613 -5.12 -5.86 -4.81 
3614 -5.17 -5.76 -4.81 
3615 -5.27 -6.01 -4.81 
3616 -5.09 -5.86 -4.81 
3617 -5.33 -6.15 -4.81 
3618 -5.55 -5.68 -4.81 
3619 -5.38 -5.84 -4.81 
3620 -5.34 -6.12 -4.81 
3621 -5.25 -5.98 -4.81 
3622 -5.29 -5.91 -4.81 
3623 -5.35 -5.85 -4.81 
3624 -5.21 -5.74 -4.81 
3625 -5.15 -5.93 -4.81 
3626 -5.37 -5.89 -4.81 
3627 -5.27 -5.83 -4.81 
3628 -5.20 -5.98 -4.81 
3629 -5.08 -5.96 -4.81 
3630 -5.07 -5.81 -4.81 
3631 -5.26 -6.05 -4.81 
3632 -5.19 -5.67 -4.81 
3633 -5.46 -5.82 -4.81 
3634 -5.24 -5.80 -4.81 
3635 -5.26 -5.77 -4.81 
3636 -5.34 -5.90 -4.81 
3637 -5.09 -5.89 -4.81 
3638 -5.01 -5.99 -4.81 
3639 -5.13 -5.80 -4.81 
3640 -4.93 -5.94 -4.81 
3641 -5.22 -6.12 -4.81 
3642 -5.07 -5.94 -4.81 
3643 -5.04 -6.03 -4.81 
3644 -5.31 -5.78 -4.81 
3645 -5.43 -6.00 -4.81 
3646 -5.11 -5.90 -4.81 
3647 -5.14 -5.72 -4.81 
3648 -5.34 -5.66 -4.81 
3649 -5.36 -5.64 -4.81 
3650 -5.04 -5.75 -4.81 
3651 -5.38 -5.72 -4.81 
3652 -5.21 -5.83 -4.81 
3653 -5.36 -5.91 -4.81 
3654 -5.18 -5.89 -4.81 
3655 -5.27 -5.79 -4.81 
3656 -5.22 -5.81 -4.81 
3657 -5.46 -5.73 -4.81 
3658 -5.14 -5.79 -4.81 
3659 -5.30 -5.73 -4.81 
3660 -5.31 -5.63 -4.81 
3661 -5.39 -5.82 -4.81 
3662 -5.25 -5.83 -4.81 
3663 -5.34 -5.84 -4.81 
3664 -4.95 -5.85 -4.81 
3665 -5.07 -5.65 -4.81 
3666 -5.11 -5.76 -4.81 
3667 -5.06 -5.73 -4.81 
3668 -5.18 -5.87 -4.81 
3669 -5.19 -5.84 -4.81 
3670 -5.16 -5.94 -4.81 
3671 -5.09 -5.98 -4.81 
3672 -5.17 -5.93 -4.81 
3673 -5.09 -5.75 -4.81 
3674 -5.48 -5.79 -4.81 
3675 -4.98 -5.81 -4.81 
3676 -5.15 -5.78 -4.81 
3677 -5.34 -5.97 -4.81 
3678 -5.29 -5.80 -4.81 
3679 -5.21 -5.82 -4.81 
3680 -5.10 -5.93 -4.81 
3681 -5.32 -5.93 -4.81 
3682 -5.15 -5.76 -4.81 
3683 -5.22 -5.87 -4.81 
3684 -4.98 -5.76 -4.81 
3685 -5.36 -5.74 -4.81 
3686 -5.14 -5.81 -4.81 
3687 -5.16 -5.79 -4.81 
3688 -5.43 -5.79 -4.81 
3689 -5.20 -5.81 -4.81 
3690 -5.10 -5.79 -4.81 
3691 -5.15 -5.87 -4.81 
3692 -5.29 -5.83 -4.81 
3693 -5.33 -5.76 -4.81 
3694 -5.05 -5.63 -4.81 
3695 -5.13 -5.96 -4.81 
3696 -5.42 -5.91 -4.81 
3697 -5.03 -5.78 -4.81 
3698 -4.99 -5.87 -4.81 
3699 -5.33 -5.64 -4.81 
3700 -5.28 -5.80 -4.81 
3701 -5.33 -5.77 -4.81 
3702 -5.18 -5.85 -4.81 
3703 -4.97 -5.83 -4.81 
3704 -5.47 -5.96 -4.81 
3705 -4.92 -5.83 -4.81 
3706 -5.37 -5.92 -4.81 
3707 -5.24 -5.81 -4.81 
3708 -5.06 -5.82 -4.81 
3709 -5.13 -5.76 -4.81 
3710 -5.11 -5.67 -4.81 
3711 -5.49 -5.87 -4.81 
3712 -5.09 -5.72 -4.81 
3713 -5.31 -5.82 -4.81 
3714 -5.29 -5.82 -4.81 
3715 -5.33 -5.83 -4.81 
3716 -5.12 -6.01 -4.81 
3717 -5.18 -5.79 -4.81 
3718 -5.09 -5.89 -4.81 
3719 -5.52 -5.83 -4.81 
3720 -5.21 -5.75 -4.81 
3721 -5.17 -6.01 -4.81 
3722 -5.08 -5.91 -4.81 
3723 -5.03 -5.87 -4.81 
3724 -5.17 -5.74 -4.81 
3725 -5.21 -5.86 -4.81 
3726 -5.23 -5.91 -4.81 
3727 -5.19 -5.67 -4.81 
3728 -5.04 -5.91 -4.81 
3729 -5.19 -6.04 -4.81 
3730 -5.13 -5.75 -4.81 
3731 -5.58 -5.72 -4.81 
3732 -5.18 -5.79 -4.81 
3733 -5.10 -5.81 -4.81 
3734 -5.31 -6.04 -4.81 
3735 -5.01 -5.87 -4.81 
3736 -5.46 -5.76 -4.81 
3737 -5.27 -5.91 -4.81 
3738 -5.13 -5.83 -4.81 
3739 -5.11 -5.94 -4.81 
3740 -5.42 -5.90 -4.81 
3741 -5.16 -6.02 -4.81 
3742 -5.26 -5.85 -4.81 
3743 -5.57 -5.94 -4.81 
3744 -5.33 -5.87 -4.81 
3745 -5.46 -5.98 -4.81 
3746 -4.99 -5.88 -4.81 
3747 -5.16 -5.98 -4.81 
3748 -4.99 -5.87 -4.81 
3749 -5.13 -5.74 -4.81 
3750 -5.11 -5.93 -4.81 
3751 -5.16 -5.95 -4.81 
3752 -5.23 -5.89 -4.81 
3753 -5.18 -5.97 -4.81 
3754 -5.28 -5.92 -4.81 
3755 -5.13 -5.77 -4.81 
3756 -5.32 -6.06 -4.81 
3757 -5.10 -5.94 -4.81 
3758 -5.14 -5.73 -4.81 
3759 -5.25 -6.09 -4.81 
3760 -5.47 -5.91 -4.81 
3761 -5.06 -5.81 -4.81 
3762 -5.18 -5.98 -4.81 
3763 -5.26 -5.77 -4.81 
3764 -5.32 -5.85 -4.81 
3765 -5.12 -5.82 -4.81 
3766 -5.38 -5.91 -4.81 
3767 -5.02 -5.85 -4.81 
3768 -4.85 -5.81 -4.81 
3769 -5.40 -5.85 -4.81 
3770 -5.31 -5.60 -4.81 
3771 -4.99 -5.74 -4.81 
3772 -5.05 -5.88 -4.81 
3773 -5.27 -5.79 -4.81 
3774 -5.03 -5.96 -4.81 
3775 -5.33 -5.83 -4.81 
3776 -5.27 -5.89 -4.81 
3777 -5.29 -5.85 -4.81 
3778 -5.04 -6.02 -4.81 
3779 -5.13 -5.76 -4.81 
3780 -5.12 -5.99 -4.81 
3781 -5.30 -5.76 -4.81 
3782 -5.30 -5.80 -4.81 
3783 -5.26 -5.89 -4.81 
3784 -5.34 -5.83 -4.81 
3785 -5.36 -5.97 -4.81 
3786 -5.15 -6.10 -4.81 
3787 -5.20 -5.86 -4.81 
3788 -5.34 -5.81 -4.81 
3789 -5.15 -5.91 -4.81 
3790 -5.14 -5.87 -4.81 
3791 -5.12 -5.61 -4.81 
3792 -5.03 -5.87 -4.81 
3793 -5.13 -5.70 -4.81 
3794 -5.36 -5.95 -4.81 
3795 -4.83 -5.80 -4.81 
3796 -5.09 -5.91 -4.81 
3797 -5.09 -5.84 -4.81 
3798 -5.31 -5.91 -4.81 
3799 -5.16 -5.76 -4.81 
3800 -5.12 -5.72 -4.81 
3801 -5.28 -5.83 -4.81 
3802 -5.25 -5.69 -4.81 
3803 -5.24 -5.82 -4.81 
3804 -5.25 -5.87 -4.81 
3805 -5.24 -5.82 -4.81 
3806 -5.16 -5.70 -4.81 
3807 -5.27 -5.80 -4.81 
3808 -5.22 -5.73 -4.81 
3809 -5.40 -5.81 -4.81 
3810 -5.35 -5.67 -4.81 
3811 -4.99 -5.79 -4.81 
3812 -5.27 -5.66 -4.81 
3813 -5.07 -5.79 -4.81 
3814 -5.20 -5.70 -4.81 
3815 -5.29 -5.76 -4.81 
3816 -5.39 -5.85 -4.81 
3817 -5.25 -5.64 -4.81 
3818 -5.32 -5.51 -4.81 
3819 -5.02 -5.86 -4.81 
3820 -5.18 -5.72 -4.81 
3821 -5.05 -5.84 -4.81 
3822 -5.05 -5.63 -4.81 
3823 -5.15 -5.60 -4.81 
3824 -5.23 -5.60 -4.81 
3825 -5.27 -5.77 -4.81 
3826 -5.11 -5.74 -4.81 
3827 -5.20 -5.72 -4.81 
3828 -5.46 -5.61 -4.81 
3829 -5.33 -5.67 -4.81 
3830 -5.25 -5.71 -4.81 
3831 -5.40 -5.75 -4.81 
3832 -5.18 -5.70 -4.81 
3833 -4.97 -5.67 -4.81 
3834 -5.17 -5.63 -4.81 
3835 -5.19 -5.61 -4.81 
3836 -5.16 -5.80 -4.81 
3837 -5.30 -5.69 -4.81 
3838 -5.15 -5.73 -4.81 
3839 -5.10 -5.80 -4.81 
3840 -5.33 -5.79 -4.81 
3841 -5.35 -5.82 -4.81 
3842 -5.31 -5.68 -4.81 
3843 -5.16 -5.64 -4.81 
3844 -5.07 -5.82 -4.81 
3845 -5.09 -5.75 -4.81 
3846 -5.17 -5.82 -4.81 
3847 -5.19 -5.66 -4.81 
3848 -5.17 -5.60 -4.81 
3849 -5.08 -5.90 -4.81 
3850 -5.27 -5.81 -4.81 
3851 -5.11 -5.65 -4.81 
3852 -5.37 -5.89 -4.81 
3853 -5.03 -5.87 -4.81 
3854 -5.11 -5.68 -4.81 
3855 -5.40 -5.73 -4.81 
3856 -5.16 -5.70 -4.81 
3857 -5.11 -5.83 -4.81 
3858 -5.21 -5.61 -4.81 
3859 -5.24 -5.70 -4.81 
3860 -5.30 -5.71 -4.81 
3861 -5.26 -5.76 -4.81 
3862 -5.29 -5.67 -4.81 
3863 -5.48 -5.82 -4.81 
3864 -5.47 -5.77 -4.81 
3865 -4.98 -5.78 -4.81 
3866 -5.37 -5.73 -4.81 
3867 -5.17 -5.69 -4.81 
3868 -5.22 -5.53 -4.81 
3869 -5.28 -5.67 -4.81 
3870 -5.35 -5.76 -4.81 
3871 -5.11 -5.79 -4.81 
3872 -5.16 -5.81 -4.81 
3873 -5.14 -5.78 -4.81 
3874 -5.09 -5.79 -4.81 
3875 -5.33 -5.68 -4.81 
3876 -5.10 -5.81 -4.81 
3877 -5.13 -5.79 -4.81 
3878 -5.02 -5.74 -4.81 
3879 -5.37 -5.68 -4.81 
3880 -4.89 -5.80 -4.81 
3881 -5.20 -5.75 -4.81 
3882 -5.27 -5.87 -4.81 
3883 -5.39 -5.69 -4.81 
3884 -4.91 -5.74 -4.81 
3885 -5.23 -5.46 -4.81 
3886 -5.16 -5.60 -4.81 
3887 -5.15 -5.72 -4.81 
3888 -5.48 -5.57 -4.81 
3889 -5.22 -5.79 -4.81 
3890 -5.39 -5.69 -4.81 
3891 -5.39 -5.71 -4.81 
3892 -5.05 -5.62 -4.81 
3893 -5.32 -5.79 -4.81 
3894 -5.20 -5.68 -4.81 
3895 -5.10 -5.84 -4.81 
3896 -5.16 -5.88 -4.81 
3897 -5.26 -5.64 -4.81 
3898 -5.38 -5.48 -4.81 
3899 -5.51 -5.75 -4.81 
3900 -5.22 -5.65 -4.81 
3901 -5.13 -5.66 -4.81 
3902 -5.12 -5.51 -4.81 
3903 -5.34 -5.86 -4.81 
3904 -5.40 -5.72 -4.81 
3905 -5.10 -5.83 -4.81 
3906 -5.23 -5.75 -4.81 
3907 -5.17 -5.75 -4.81 
3908 -5.25 -5.76 -4.81 
3909 -4.96 -5.97 -4.81 
3910 -5.35 -5.86 -4.81 
3911 -4.98 -5.62 -4.81 
3912 -5.39 -5.83 -4.81 
3913 -5.12 -5.74 -4.81 
3914 -5.30 -5.77 -4.81 
3915 -5.30 -5.60 -4.81 
3916 -5.22 -5.75 -4.81 
3917 -5.29 -5.77 -4.81 
3918 -5.04 -5.90 -4.81 
3919 -5.21 -5.64 -4.81 
3920 -5.26 -5.92 -4.81 
3921 -5.36 -5.85 -4.81 
3922 -5.24 -5.70 -4.81 
3923 -5.08 -5.71 -4.81 
3924 -5.22 -5.87 -4.81 
3925 -5.33 -5.64 -4.81 
3926 -5.19 -5.80 -4.81 
3927 -5.42 -5.84 -4.81 
3928 -5.03 -5.94 -4.81 
3929 -5.33 -5.57 -4.81 
3930 -5.28 -5.67 -4.81 
3931 -4.97 -5.66 -4.81 
3932 -5.02 -5.63 -4.81 
3933 -5.14 -5.72 -4.81 
3934 -5.33 -5.92 -4.81 
3935 -5.14 -5.84 -4.81 
3936 -5.32 -5.96 -4.81 
3937 -5.38 -5.55 -4.81 
3938 -5.29 -5.83 -4.81 
3939 -5.38 -5.69 -4.81 
3940 -5.12 -5.70 -4.81 
3941 -5.13 -5.92 -4.81 
3942 -4.93 -5.80 -4.81 
3943 -5.12 -5.76 -4.81 
3944 -5.11 -5.77 -4.81 
3945 -4.99 -5.99 -4.81 
3946 -5.04 -5.63 -4.81 
3947 -5.05 -5.64 -4.81 
3948 -5.37 -5.76 -4.81 
3949 -5.36 -5.62 -4.81 
3950 -5.08 -5.73 -4.81 
3951 -5.25 -5.75 -4.81 
3952 -5.19 -5.77 -4.81 
3953 -5.01 -5.61 -4.81 
3954 -5.16 -5.87 -4.81 
3955 -5.17 -5.75 -4.81 
3956 -5.37 -5.83 -4.81 
3957 -4.88 -5.74 -4.81 
3958 -5.42 -5.67 -4.81 
3959 -5.43 -5.44 -4.81 
3960 -5.29 -5.73 -4.81 
3961 -5.38 -5.63 -4.81 
3962 -5.20 -5.84 -4.81 
3963 -5.11 -5.69 -4.81 
3964 -5.19 -5.86 -4.81 
3965 -5.42 -5.60 -4.81 
3966 -5.24 -5.71 -4.81 
3967 -5.01 -5.59 -4.81 
3968 -5.35 -5.57 -4.81 
3969 -5.10 -5.70 -4.81 
3970 -5.08 -5.73 -4.81 
3971 -5.06 -5.80 -4.81 
3972 -5.27 -5.80 -4.81 
3973 -5.40 -5.46 -4.81 
3974 -5.09 -5.72 -4.81 
3975 -5.24 -5.71 -4.81 
3976 -4.98 -5.61 -4.81 
3977 -5.22 -5.66 -4.81 
3978 -5.26 -5.72 -4.81 
3979 -5.10 -5.62 -4.81 
3980 -4.96 -5.74 -4.81 
3981 -5.31 -5.83 -4.81 
3982 -4.89 -5.65 -4.81 
3983 -5.28 -5.75 -4.81 
3984 -5.48 -5.80 -4.81 
3985 -5.05 -5.87 -4.81 
3986 -5.37 -5.77 -4.81 
3987 -5.25 -5.76 -4.81 
3988 -5.12 -5.75 -4.81 
3989 -5.32 -5.71 -4.81 
3990 -5.15 -5.61 -4.81 
3991 -4.98 -5.70 -4.81 
3992 -5.37 -5.47 -4.81 
3993 -5.10 -5.74 -4.81 
3994 -5.14 -5.74 -4.81 
3995 -5.01 -5.63 -4.81 
3996 -5.13 -5.60 -4.81 
3997 -5.29 -5.76 -4.81 
3998 -5.51 -5.56 -4.81 
3999 -5.15 -5.60 -4.81 
4000 -5.01 -5.58 -4.81 
4001 -5.06 -5.75 -4.81 
4002 -5.35 -5.81 -4.81 
4003 -5.16 -5.86 -4.81 
4004 -5.13 -5.69 -4.81 
4005 -5.41 -5.68 -4.81 
4006 -5.35 -5.66 -4.81 
4007 -5.33 -5.77 -4.81 
4008 -4.94 -5.49 -4.81 
4009 -5.19 -5.97 -4.81 
4010 -5.28 -5.72 -4.81 
4011 -5.18 -5.50 -4.81 
4012 -5.08 -5.57 -4.81 
4013 -4.89 -5.72 -4.81 
4014 -5.04 -5.62 -4.81 
4015 -5.16 -5.70 -4.81 
4016 -5.18 -5.78 -4.81 
4017 -5.28 -5.77 -4.81 
4018 -5.31 -5.97 -4.81 
4019 -5.28 -5.81 -4.81 
4020 -4.98 -5.78 -4.81 
4021 -5.28 -5.71 -4.81 
4022 -5.03 -5.75 -4.81 
4023 -5.04 -5.58 -4.81 
4024 -4.93 -5.64 -4.81 
4025 -5.15 -5.62 -4.81 
4026 -5.23 -5.62 -4.81 
4027 -5.43 -5.53 -4.81 
4028 -5.18 -5.74 -4.81 
4029 -4.98 -5.68 -4.81 
4030 -5.02 -5.72 -4.81 
4031 -5.01 -5.80 -4.81 
4032 -5.06 -5.90 -4.81 
4033 -5.33 -5.78 -4.81 
4034 -5.15 -5.74 -4.81 
4035 -5.28 -5.71 -4.81 
4036 -5.12 -5.68 -4.81 
4037 -5.14 -5.51 -4.81 
4038 -5.26 -5.56 -4.81 
4039 -5.38 -5.71 -4.81 
4040 -5.42 -5.71 -4.81 
4041 -5.16 -5.59 -4.81 
4042 -5.06 -5.56 -4.81 
4043 -5.45 -5.75 -4.81 
4044 -5.18 -5.56 -4.81 
4045 -5.34 -5.76 -4.81 
4046 -5.33 -5.70 -4.81 
4047 -5.41 -5.81 -4.81 
4048 -5.10 -5.57 -4.81 
4049 -5.24 -5.65 -4.81 
4050 -4.85 -5.75 -4.81 
4051 -5.14 -5.73 -4.81 
4052 -5.01 -5.83 -4.81 
4053 -5.32 -5.75 -4.81 
4054 -5.27 -5.78 -4.81 
4055 -5.10 -5.75 -4.81 
4056 -5.27 -5.80 -4.81 
4057 -5.28 -5.56 -4.81 
4058 -5.04 -5.79 -4.81 
4059 -5.36 -5.68 -4.81 
4060 -5.07 -5.74 -4.81 
4061 -5.22 -5.55 -4.81 
4062 -5.39 -5.79 -4.81 
4063 -5.13 -5.72 -4.81 
4064 -5.18 -5.78 -4.81 
4065 -5.22 -5.72 -4.81 
4066 -5.11 -5.62 -4.81 
4067 -5.12 -5.66 -4.81 
4068 -5.26 -5.74 -4.81 
4069 -4.98 -5.64 -4.81 
4070 -5.01 -5.54 -4.81 
4071 -5.19 -5.72 -4.81 
4072 -5.20 -5.61 -4.81 
4073 -5.05 -5.67 -4.81 
4074 -5.24 -5.75 -4.81 
4075 -5.04 -5.73 -4.81 
4076 -5.21 -6.00 -4.81 
4077 -5.15 -5.69 -4.81 
4078 -5.03 -5.69 -4.81 
4079 -4.88 -5.65 -4.81 
4080 -5.09 -5.73 -4.81 
4081 -5.32 -5.77 -4.81 
4082 -5.44 -5.77 -4.81 
4083 -5.04 -5.86 -4.81 
4084 -5.04 -5.67 -4.81 
4085 -4.89 -5.75 -4.81 
4086 -5.16 -5.99 -4.81 
4087 -5.47 -5.72 -4.81 
4088 -5.45 -5.76 -4.81 
4089 -4.99 -5.70 -4.81 
4090 -4.88 -5.79 -4.81 
4091 -5.27 -5.89 -4.81 
4092 -5.16 -5.79 -4.81 
4093 -5.34 -5.99 -4.81 
4094 -4.82 -5.95 -4.81 
4095 -5.21 -5.72 -4.81 
4096 -5.08 -6.08 -4.81 
4097 -5.11 -5.84 -4.81 
4098 -5.06 -5.94 -4.81 
4099 -5.10 -5.80 -4.81 
4100 -5.27 -5.68 -4.81 
4101 -5.18 -5.79 -4.81 
4102 -5.34 -5.79 -4.81 
4103 -5.40 -5.74 -4.81 
4104 -5.36 -5.95 -4.81 
4105 -5.27 -5.72 -4.81 
4106 -5.36 -5.84 -4.81 
4107 -5.03 -5.92 -4.81 
4108 -5.09 -5.72 -4.81 
4109 -5.02 -5.81 -4.81 
4110 -5.35 -5.91 -4.81 
4111 -5.11 -5.99 -4.81 
4112 -5.24 -5.82 -4.81 
4113 -5.26 -5.96 -4.81 
4114 -5.32 -5.91 -4.81 
4115 -5.16 -5.82 -4.81 
4116 -5.35 -5.87 -4.81 
4117 -5.13 -5.98 -4.81 
4118 -5.31 -5.68 -4.81 
4119 -5.19 -5.85 -4.81 
4120 -5.16 -5.96 -4.81 
4121 -5.07 -5.73 -4.81 
4122 -4.90 -5.59 -4.81 
4123 -5.13 -5.69 -4.81 
4124 -5.24 -5.65 -4.81 
4125 -4.94 -5.75 -4.81 
4126 -5.08 -5.54 -4.81 
4127 -5.13 -5.72 -4.81 
4128 -5.46 -5.70 -4.81 
4129 -5.31 -5.93 -4.81 
4130 -5.08 -5.72 -4.81 
4131 -5.14 -5.63 -4.81 
4132 -5.32 -5.55 -4.81 
4133 -5.16 -5.91 -4.81 
4134 -5.17 -5.71 -4.81 
4135 -5.20 -5.57 -4.81 
4136 -4.88 -5.83 -4.81 
4137 -5.19 -5.68 -4.81 
4138 -5.09 -5.82 -4.81 
4139 -5.39 -5.90 -4.81 
4140 -5.37 -5.62 -4.81 
4141 -5.20 -5.67 -4.81 
4142 -5.24 -5.63 -4.81 
4143 -5.03 -5.53 -4.81 
4144 -5.14 -5.80 -4.81 
4145 -5.32 -5.65 -4.81 
4146 -5.28 -5.69 -4.81 
4147 -5.13 -5.43 -4.81 
4148 -4.94 -5.55 -4.81 
4149 -5.26 -5.51 -4.81 
4150 -5.23 -5.63 -4.81 
4151 -5.20 -5.67 -4.81 
4152 -5.07 -5.82 -4.81 
4153 -5.22 -5.54 -4.81 
4154 -5.06 -5.82 -4.81 
4155 -5.03 -5.74 -4.81 
4156 -5.19 -5.74 -4.81 
4157 -5.09 -5.82 -4.81 
4158 -4.97 -5.52 -4.81 
4159 -5.26 -5.61 -4.81 
4160 -5.10 -5.58 -4.81 
4161 -5.18 -5.57 -4.81 
4162 -4.98 -5.71 -4.81 
4163 -5.20 -5.64 -4.81 
4164 -5.13 -5.64 -4.81 
4165 -5.34 -5.61 -4.81 
4166 -5.34 -5.64 -4.81 
4167 -5.20 -5.55 -4.81 
4168 -5.03 -5.77 -4.81 
4169 -5.11 -5.53 -4.81 
4170 -5.35 -5.75 -4.81 
4171 -5.41 -5.64 -4.81 
4172 -4.91 -5.71 -4.81 
4173 -5.37 -5.80 -4.81 
4174 -5.25 -5.52 -4.81 
4175 -5.19 -5.56 -4.81 
4176 -5.32 -5.65 -4.81 
4177 -5.25 -5.66 -4.81 
4178 -5.03 -5.83 -4.81 
4179 -5.10 -5.63 -4.81 
4180 -5.27 -5.82 -4.81 
4181 -5.22 -5.58 -4.81 
4182 -5.34 -5.66 -4.81 
4183 -4.95 -5.70 -4.81 
4184 -5.20 -5.60 -4.81 
4185 -5.12 -5.77 -4.81 
4186 -5.44 -5.78 -4.81 
4187 -5.18 -5.75 -4.81 
4188 -5.32 -5.93 -4.81 
4189 -5.18 -5.64 -4.81 
4190 -5.09 -5.47 -4.81 
4191 -5.23 -5.55 -4.81 
4192 -4.99 -5.72 -4.81 
4193 -5.07 -5.73 -4.81 
4194 -5.21 -5.88 -4.81 
4195 -5.39 -5.91 -4.81 
4196 -5.01 -5.46 -4.81 
4197 -5.08 -5.69 -4.81 
4198 -5.18 -5.73 -4.81 
4199 -5.18 -5.87 -4.81 
4200 -4.97 -5.81 -4.81 
4201 -5.21 -5.69 -4.81 
4202 -5.29 -5.72 -4.81 
4203 -5.41 -5.74 -4.81 
4204 -5.12 -5.84 -4.81 
4205 -5.10 -5.89 -4.81 
4206 -5.16 -5.72 -4.81 
4207 -5.03 -5.72 -4.81 
4208 -5.16 -5.79 -4.81 
4209 -5.24 -5.75 -4.81 
4210 -5.16 -5.75 -4.81 
4211 -4.94 -5.86 -4.81 
4212 -5.02 -5.67 -4.81 
4213 -5.24 -5.70 -4.81 
4214 -5.10 -5.83 -4.81 
4215 -5.27 -5.87 -4.81 
4216 -4.80 -5.63 -4.81 
4217 -5.36 -5.74 -4.80 
4218 -5.13 -5.60 -4.80 
4219 -5.25 -5.87 -4.80 
4220 -5.36 -5.77 -4.80 
4221 -5.38 -5.72 -4.80 
4222 -5.21 -5.65 -4.80 
4223 -5.13 -5.96 -4.80 
4224 -4.95 -5.84 -4.80 
4225 -5.24 -5.72 -4.80 
4226 -5.43 -5.60 -4.80 
4227 -5.14 -5.63 -4.80 
4228 -5.03 -5.68 -4.80 
4229 -5.06 -5.94 -4.80 
4230 -5.11 -5.66 -4.80 
4231 -4.97 -5.77 -4.80 
4232 -5.21 -5.77 -4.80 
4233 -5.20 -5.74 -4.80 
4234 -5.13 -5.75 -4.80 
4235 -4.98 -5.88 -4.80 
4236 -5.49 -5.73 -4.80 
4237 -5.08 -5.58 -4.80 
4238 -5.01 -5.92 -4.80 
4239 -5.18 -5.82 -4.80 
4240 -5.13 -5.67 -4.80 
4241 -5.31 -5.68 -4.80 
4242 -5.20 -5.81 -4.80 
4243 -4.99 -5.81 -4.80 
4244 -5.16 -5.65 -4.80 
4245 -5.24 -5.73 -4.80 
4246 -5.25 -5.66 -4.80 
4247 -4.87 -5.71 -4.80 
4248 -5.28 -5.52 -4.80 
4249 -5.18 -5.54 -4.80 
4250 -5.51 -6.01 -4.80 
4251 -5.41 -6.04 -4.80 
4252 -5.09 -5.82 -4.80 
4253 -5.23 -5.91 -4.80 
4254 -5.24 -5.78 -4.80 
4255 -5.02 -5.71 -4.80 
4256 -5.20 -5.74 -4.80 
4257 -4.94 -5.80 -4.80 
4258 -5.19 -5.73 -4.80 
4259 -5.55 -5.72 -4.80 
4260 -5.29 -5.65 -4.80 
4261 -5.09 -5.58 -4.80 
4262 -5.03 -5.79 -4.80 
4263 -5.14 -5.74 -4.80 
4264 -5.28 -5.79 -4.80 
4265 -5.30 -5.94 -4.80 
4266 -5.18 -5.80 -4.80 
4267 -4.94 -5.62 -4.80 
4268 -5.18 -5.63 -4.80 
4269 -5.30 -5.72 -4.80 
4270 -5.02 -5.67 -4.80 
4271 -4.97 -5.73 -4.80 
4272 -5.12 -5.88 -4.80 
4273 -5.33 -5.85 -4.80 
4274 -5.49 -5.77 -4.80 
4275 -5.24 -5.82 -4.80 
4276 -5.11 -5.90 -4.80 
4277 -5.15 -5.65 -4.80 
4278 -4.92 -5.67 -4.80 
4279 -5.00 -5.66 -4.80 
4280 -5.48 -5.73 -4.80 
4281 -4.91 -5.74 -4.80 
4282 -5.11 -6.01 -4.80 
4283 -5.06 -5.83 -4.80 
4284 -5.12 -5.88 -4.80 
4285 -5.14 -5.83 -4.80 
4286 -4.84 -5.81 -4.80 
4287 -4.99 -5.91 -4.80 
4288 -4.95 -5.88 -4.80 
4289 -5.05 -5.70 -4.80 
4290 -5.01 -5.91 -4.80 
4291 -5.32 -5.90 -4.80 
4292 -4.98 -5.90 -4.80 
4293 -5.17 -5.79 -4.80 
4294 -5.21 -5.89 -4.80 
4295 -5.10 -5.88 -4.80 
4296 -5.14 -5.76 -4.80 
4297 -5.16 -5.83 -4.80 
4298 -5.04 -5.81 -4.80 
4299 -5.24 -5.80 -4.80 
4300 -5.15 -5.85 -4.80 
4301 -5.49 -5.69 -4.80 
4302 -5.06 -5.68 -4.80 
4303 -4.90 -5.73 -4.80 
4304 -5.25 -5.75 -4.80 
4305 -5.20 -5.63 -4.80 
4306 -5.06 -5.85 -4.80 
4307 -5.38 -5.67 -4.80 
4308 -5.16 -5.77 -4.80 
4309 -5.13 -5.84 -4.80 
4310 -5.14 -5.69 -4.80 
4311 -5.13 -5.73 -4.80 
4312 -4.97 -5.73 -4.80 
4313 -5.11 -5.60 -4.80 
4314 -5.34 -5.69 -4.80 
4315 -5.08 -5.65 -4.80 
4316 -5.11 -5.85 -4.80 
4317 -4.97 -5.62 -4.80 
4318 -4.98 -5.74 -4.80 
4319 -4.98 -5.83 -4.80 
4320 -4.97 -5.73 -4.80 
4321 -5.10 -5.80 -4.80 
4322 -5.27 -5.76 -4.80 
4323 -5.05 -5.74 -4.80 
4324 -5.02 -5.67 -4.80 
4325 -5.20 -5.81 -4.80 
4326 -5.20 -5.73 -4.80 
4327 -5.02 -5.82 -4.80 
4328 -4.99 -5.64 -4.80 
4329 -5.20 -5.78 -4.80 
4330 -5.38 -5.73 -4.80 
4331 -5.05 -5.87 -4.80 
4332 -5.27 -5.69 -4.80 
4333 -4.81 -5.70 -4.80 
4334 -5.07 -5.69 -4.80 
4335 -5.32 -5.75 -4.80 
4336 -5.11 -5.77 -4.80 
4337 -5.24 -5.63 -4.80 
4338 -5.06 -5.80 -4.80 
4339 -5.31 -5.72 -4.80 
4340 -5.19 -5.68 -4.80 
4341 -5.46 -5.83 -4.80 
4342 -5.09 -5.79 -4.80 
4343 -5.11 -5.73 -4.80 
4344 -5.12 -5.75 -4.80 
4345 -5.23 -5.84 -4.80 
4346 -5.07 -5.79 -4.80 
4347 -5.27 -5.84 -4.80 
4348 -5.24 -5.72 -4.80 
4349 -5.24 -5.61 -4.80 
4350 -5.20 -5.83 -4.80 
4351 -5.36 -5.58 -4.80 
4352 -5.02 -5.73 -4.80 
4353 -4.99 -5.77 -4.80 
4354 -5.28 -5.75 -4.80 
4355 -4.97 -5.64 -4.80 
4356 -4.97 -5.65 -4.80 
4357 -5.07 -5.88 -4.80 
4358 -5.01 -5.75 -4.80 
4359 -5.01 -5.55 -4.80 
4360 -4.96 -5.62 -4.80 
4361 -5.28 -5.80 -4.80 
4362 -5.30 -5.74 -4.80 
4363 -5.19 -5.73 -4.80 
4364 -5.17 -5.72 -4.80 
4365 -5.21 -5.80 -4.80 
4366 -5.17 -5.65 -4.80 
4367 -5.18 -5.74 -4.80 
4368 -4.85 -5.56 -4.80 
4369 -5.23 -5.71 -4.80 
4370 -5.33 -5.70 -4.80 
4371 -5.28 -5.69 -4.80 
4372 -5.23 -5.81 -4.80 
4373 -5.08 -5.56 -4.80 
4374 -5.19 -5.60 -4.80 
4375 -5.20 -5.63 -4.80 
4376 -5.01 -5.73 -4.80 
4377 -5.06 -5.66 -4.80 
4378 -5.24 -5.59 -4.80 
4379 -5.08 -5.72 -4.80 
4380 -5.29 -5.61 -4.80 
4381 -5.08 -5.72 -4.80 
4382 -4.94 -5.77 -4.80 
4383 -5.47 -5.77 -4.80 
4384 -5.09 -5.63 -4.80 
4385 -5.14 -5.65 -4.80 
4386 -5.32 -5.75 -4.80 
4387 -5.19 -5.68 -4.80 
4388 -5.00 -5.69 -4.80 
4389 -5.00 -5.66 -4.80 
4390 -5.38 -5.73 -4.80 
4391 -5.27 -5.58 -4.80 
4392 -5.23 -5.76 -4.80 
4393 -5.29 -5.83 -4.80 
4394 -4.91 -5.61 -4.80 
4395 -5.08 -5.69 -4.80 
4396 -5.23 -5.70 -4.80 
4397 -5.12 -5.85 -4.80 
4398 -4.95 -5.66 -4.80 
4399 -5.32 -5.71 -4.80 
4400 -4.98 -5.77 -4.80 
4401 -4.95 -5.78 -4.80 
4402 -5.35 -5.82 -4.80 
4403 -5.16 -5.76 -4.80 
4404 -5.19 -5.85 -4.80 
4405 -5.32 -5.52 -4.80 
4406 -5.15 -5.67 -4.80 
4407 -5.07 -5.86 -4.80 
4408 -5.07 -5.63 -4.80 
4409 -4.89 -5.59 -4.80 
4410 -5.03 -5.61 -4.80 
4411 -5.43 -5.66 -4.80 
4412 -5.24 -5.85 -4.80 
4413 -5.25 -5.65 -4.80 
4414 -5.13 -5.78 -4.80 
4415 -5.27 -5.89 -4.80 
4416 -5.17 -5.78 -4.80 
4417 -5.18 -5.78 -4.80 
4418 -5.39 -5.77 -4.80 
4419 -5.26 -5.77 -4.80 
4420 -4.96 -5.84 -4.80 
4421 -5.20 -5.72 -4.80 
4422 -5.09 -5.89 -4.80 
4423 -5.47 -5.78 -4.80 
4424 -5.18 -5.83 -4.80 
4425 -5.26 -5.81 -4.80 
4426 -5.04 -5.74 -4.80 
4427 -5.07 -5.73 -4.80 
4428 -5.29 -5.62 -4.80 
4429 -5.21 -5.61 -4.80 
4430 -5.33 -5.70 -4.80 
4431 -5.01 -5.84 -4.80 
4432 -5.30 -5.95 -4.80 
4433 -5.26 -5.88 -4.80 
4434 -5.50 -5.78 -4.80 
4435 -5.11 -5.74 -4.80 
4436 -5.15 -5.85 -4.80 
4437 -5.20 -5.71 -4.80 
4438 -5.23 -5.86 -4.80 
4439 -5.13 -5.92 -4.80 
4440 -5.27 -5.72 -4.80 
4441 -5.18 -5.73 -4.80 
4442 -5.12 -5.84 -4.80 
4443 -5.23 -5.88 -4.80 
4444 -5.30 -5.77 -4.80 
4445 -5.18 -5.68 -4.80 
4446 -5.34 -5.84 -4.80 
4447 -5.21 -5.70 -4.80 
4448 -5.22 -5.72 -4.80 
4449 -5.20 -5.77 -4.80 
4450 -5.10 -5.69 -4.80 
4451 -5.13 -5.83 -4.80 
4452 -5.28 -5.72 -4.80 
4453 -5.05 -5.79 -4.80 
4454 -5.27 -5.75 -4.80 
4455 -4.96 -5.77 -4.80 
4456 -5.08 -5.73 -4.80 
4457 -5.38 -5.68 -4.80 
4458 -5.12 -5.65 -4.80 
4459 -5.26 -5.65 -4.80 
4460 -5.08 -5.88 -4.80 
4461 -5.17 -5.67 -4.80 
4462 -5.10 -5.80 -4.80 
4463 -5.08 -5.74 -4.80 
4464 -5.29 -5.97 -4.80 
4465 -5.00 -5.65 -4.80 
4466 -5.20 -5.51 -4.80 
4467 -5.44 -5.71 -4.80 
4468 -5.18 -5.71 -4.80 
4469 -5.17 -5.57 -4.80 
4470 -5.24 -5.74 -4.80 
4471 -5.35 -5.66 -4.80 
4472 -5.23 -5.55 -4.80 
4473 -5.25 -5.84 -4.80 
4474 -5.05 -5.66 -4.80 
4475 -5.23 -5.88 -4.80 
4476 -5.28 -5.94 -4.80 
4477 -5.28 -5.91 -4.80 
4478 -5.10 -5.72 -4.80 
4479 -4.96 -5.85 -4.80 
4480 -5.01 -5.88 -4.80 
4481 -5.33 -5.78 -4.80 
4482 -5.35 -5.70 -4.80 
4483 -5.26 -5.64 -4.80 
4484 -5.00 -5.95 -4.80 
4485 -5.13 -5.80 -4.80 
4486 -5.21 -5.85 -4.80 
4487 -5.31 -5.65 -4.80 
4488 -5.14 -5.81 -4.80 
4489 -5.31 -5.78 -4.80 
4490 -5.40 -5.69 -4.80 
4491 -5.01 -5.85 -4.80 
4492 -5.25 -5.75 -4.80 
4493 -5.40 -6.05 -4.80 
4494 -5.44 -5.73 -4.80 
4495 -5.03 -5.73 -4.80 
4496 -4.90 -5.74 -4.80 
4497 -5.33 -5.70 -4.80 
4498 -5.26 -5.78 -4.80 
4499 -5.23 -5.73 -4.80 
4500 -5.15 -5.76 -4.80 
4501 -5.21 -5.69 -4.80 
4502 -5.24 -5.55 -4.80 
4503 -5.22 -5.57 -4.80 
4504 -5.11 -5.73 -4.80 
4505 -4.92 -5.93 -4.80 
4506 -5.15 -5.84 -4.80 
4507 -5.15 -5.56 -4.80 
4508 -5.13 -5.64 -4.80 
4509 -5.41 -5.68 -4.80 
4510 -5.04 -5.92 -4.80 
4511 -5.22 -5.76 -4.80 
4512 -5.35 -5.66 -4.80 
4513 -4.92 -5.56 -4.80 
4514 -5.20 -5.77 -4.80 
4515 -5.31 -5.61 -4.80 
4516 -5.23 -5.39 -4.80 
4517 -5.01 -5.62 -4.80 
4518 -5.00 -5.69 -4.80 
4519 -4.95 -5.76 -4.80 
4520 -5.21 -5.71 -4.80 
4521 -5.31 -5.62 -4.80 
4522 -5.12 -5.61 -4.80 
4523 -5.10 -5.75 -4.80 
4524 -5.14 -5.72 -4.80 
4525 -5.17 -5.70 -4.80 
4526 -5.04 -6.01 -4.80 
4527 -5.22 -5.73 -4.80 
4528 -5.20 -5.79 -4.80 
4529 -5.12 -5.75 -4.80 
4530 -5.19 -5.88 -4.80 
4531 -5.06 -5.76 -4.80 
4532 -5.07 -5.91 -4.80 
4533 -5.23 -5.64 -4.80 
4534 -5.13 -5.69 -4.80 
4535 -5.12 -5.76 -4.80 
4536 -5.20 -5.48 -4.80 
4537 -5.31 -5.68 -4.80 
4538 -5.13 -5.78 -4.80 
4539 -5.09 -5.70 -4.80 
4540 -5.11 -5.67 -4.80 
4541 -5.22 -5.75 -4.80 
4542 -5.04 -5.86 -4.80 
4543 -5.14 -5.85 -4.80 
4544 -5.26 -5.65 -4.80 
4545 -5.24 -5.56 -4.80 
4546 -5.41 -5.61 -4.80 
4547 -5.22 -5.76 -4.80 
4548 -5.29 -5.95 -4.80 
4549 -5.17 -5.69 -4.80 
4550 -5.19 -5.60 -4.80 
4551 -4.92 -5.68 -4.80 
4552 -5.24 -5.71 -4.80 
4553 -5.20 -5.66 -4.80 
4554 -5.09 -5.80 -4.80 
4555 -5.19 -5.84 -4.80 
4556 -4.93 -5.39 -4.80 
4557 -5.24 -5.67 -4.80 
4558 -4.91 -5.89 -4.80 
4559 -5.09 -5.84 -4.80 
4560 -4.98 -5.88 -4.80 
4561 -5.43 -5.87 -4.80 
4562 -5.09 -5.78 -4.80 
4563 -5.17 -5.80 -4.80 
4564 -5.15 -5.68 -4.80 
4565 -5.02 -5.85 -4.80 
4566 -4.93 -5.66 -4.80 
4567 -5.13 -5.74 -4.80 
4568 -5.32 -5.85 -4.80 
4569 -5.25 -5.71 -4.80 
4570 -5.13 -5.75 -4.80 
4571 -5.09 -5.65 -4.80 
4572 -5.39 -5.86 -4.80 
4573 -5.23 -5.76 -4.80 
4574 -4.91 -5.94 -4.80 
4575 -4.93 -5.70 -4.80 
4576 -5.02 -5.79 -4.80 
4577 -5.00 -5.55 -4.80 
4578 -4.94 -5.69 -4.80 
4579 -5.20 -5.84 -4.80 
4580 -5.24 -5.63 -4.80 
4581 -4.99 -5.68 -4.80 
4582 -5.24 -5.74 -4.80 
4583 -5.28 -5.89 -4.80 
4584 -5.21 -5.76 -4.80 
4585 -4.96 -5.92 -4.80 
4586 -5.39 -5.66 -4.80 
4587 -5.22 -5.90 -4.80 
4588 -5.12 -5.61 -4.80 
4589 -5.00 -5.83 -4.80 
4590 -5.38 -5.85 -4.80 
4591 -5.43 -5.60 -4.80 
4592 -5.28 -5.80 -4.80 
4593 -5.05 -5.75 -4.80 
4594 -4.99 -5.68 -4.80 
4595 -4.87 -5.94 -4.80 
4596 -5.32 -5.83 -4.80 
4597 -5.24 -5.80 -4.80 
4598 -4.98 -5.83 -4.80 
4599 -5.17 -5.59 -4.80 
4600 -5.08 -5.73 -4.80 
4601 -5.33 -5.73 -4.80 
4602 -5.15 -5.74 -4.80 
4603 -5.09 -5.70 -4.80 
4604 -4.99 -5.63 -4.80 
4605 -5.04 -5.86 -4.80 
4606 -5.13 -5.59 -4.80 
4607 -5.18 -5.60 -4.80 
4608 -5.20 -5.76 -4.80 
4609 -5.17 -5.71 -4.80 
4610 -5.18 -5.79 -4.80 
4611 -5.12 -5.65 -4.80 
4612 -5.13 -5.74 -4.80 
4613 -5.01 -5.59 -4.80 
4614 -4.89 -5.61 -4.80 
4615 -5.04 -5.77 -4.80 
4616 -5.52 -5.59 -4.80 
4617 -5.02 -5.81 -4.80 
4618 -5.22 -5.78 -4.80 
4619 -5.00 -5.74 -4.80 
4620 -5.09 -5.90 -4.80 
4621 -4.97 -5.73 -4.80 
4622 -5.05 -5.65 -4.80 
4623 -5.16 -5.45 -4.80 
4624 -4.96 -5.72 -4.80 
4625 -5.06 -5.89 -4.80 
4626 -4.87 -5.77 -4.80 
4627 -5.07 -5.67 -4.80 
4628 -5.11 -5.85 -4.80 
4629 -5.07 -5.72 -4.80 
4630 -5.27 -5.85 -4.80 
4631 -5.16 -5.94 -4.80 
4632 -5.47 -5.77 -4.80 
4633 -5.18 -5.74 -4.80 
4634 -5.07 -5.78 -4.80 
4635 -5.32 -5.86 -4.80 
4636 -5.01 -5.74 -4.80 
4637 -5.38 -5.70 -4.80 
4638 -5.23 -5.78 -4.80 
4639 -5.21 -5.61 -4.80 
4640 -5.17 -5.63 -4.80 
4641 -5.25 -5.86 -4.80 
4642 -5.15 -5.73 -4.80 
4643 -5.14 -5.61 -4.80 
4644 -4.87 -5.69 -4.80 
4645 -5.13 -5.72 -4.80 
4646 -5.03 -5.72 -4.80 
4647 -5.25 -5.58 -4.80 
4648 -5.20 -5.93 -4.80 
4649 -5.31 -5.86 -4.80 
4650 -5.17 -5.78 -4.80 
4651 -4.99 -5.96 -4.80 
4652 -4.95 -5.86 -4.80 
4653 -5.29 -5.69 -4.80 
4654 -5.16 -5.76 -4.80 
4655 -5.28 -5.59 -4.80 
4656 -5.23 -5.68 -4.80 
4657 -5.12 -5.66 -4.80 
4658 -5.12 -5.79 -4.80 
4659 -5.11 -5.76 -4.80 
4660 -5.24 -5.68 -4.80 
4661 -5.16 -5.70 -4.80 
4662 -5.10 -5.67 -4.80 
4663 -5.09 -5.75 -4.80 
4664 -5.34 -5.65 -4.80 
4665 -5.22 -5.71 -4.80 
4666 -5.20 -5.73 -4.80 
4667 -5.34 -5.66 -4.80 
4668 -4.95 -5.72 -4.80 
4669 -5.14 -5.75 -4.80 
4670 -5.21 -5.60 -4.80 
4671 -5.29 -5.72 -4.80 
4672 -5.28 -5.53 -4.80 
4673 -5.17 -5.69 -4.80 
4674 -5.12 -5.78 -4.80 
4675 -5.18 -5.69 -4.80 
4676 -5.19 -5.84 -4.80 
4677 -5.30 -5.79 -4.80 
4678 -5.31 -5.67 -4.80 
4679 -5.10 -5.66 -4.80 
4680 -5.27 -5.67 -4.80 
4681 -5.07 -5.71 -4.80 
4682 -5.23 -5.72 -4.80 
4683 -5.18 -5.78 -4.80 
4684 -5.25 -5.75 -4.80 
4685 -5.33 -5.73 -4.80 
4686 -5.23 -5.71 -4.80 
4687 -5.27 -5.77 -4.80 
4688 -4.89 -5.90 -4.80 
4689 -5.30 -5.80 -4.80 
4690 -5.11 -5.88 -4.80 
4691 -4.90 -5.72 -4.80 
4692 -5.07 -5.54 -4.80 
4693 -4.97 -5.78 -4.80 
4694 -5.27 -5.78 -4.80 
4695 -5.28 -5.77 -4.80 
4696 -5.08 -5.77 -4.80 
4697 -5.14 -5.91 -4.80 
4698 -5.30 -5.69 -4.80 
4699 -5.11 -5.90 -4.80 
4700 -5.14 -5.73 -4.80 
4701 -5.43 -5.66 -4.80 
4702 -5.20 -5.52 -4.80 
4703 -5.45 -5.66 -4.80 
4704 -5.05 -5.68 -4.80 
4705 -5.13 -5.66 -4.80 
4706 -5.15 -5.75 -4.80 
4707 -5.01 -5.76 -4.80 
4708 -5.40 -5.95 -4.80 
4709 -5.14 -5.83 -4.80 
4710 -4.98 -5.88 -4.80 
4711 -5.08 -5.71 -4.80 
4712 -5.32 -5.75 -4.80 
4713 -5.10 -5.79 -4.80 
4714 -5.27 -5.72 -4.80 
4715 -5.02 -5.80 -4.80 
4716 -5.15 -5.83 -4.80 
4717 -5.24 -5.74 -4.80 
4718 -5.22 -5.74 -4.80 
4719 -5.09 -5.83 -4.80 
4720 -5.01 -5.72 -4.80 
4721 -5.13 -5.76 -4.80 
4722 -5.13 -5.66 -4.80 
4723 -5.43 -5.83 -4.80 
4724 -4.92 -5.66 -4.80 
4725 -5.24 -5.80 -4.80 
4726 -5.47 -5.78 -4.80 
4727 -5.15 -5.75 -4.80 
4728 -5.21 -5.93 -4.80 
4729 -5.20 -5.70 -4.80 
4730 -5.22 -5.71 -4.80 
4731 -4.97 -5.87 -4.80 
4732 -5.54 -5.76 -4.80 
4733 -5.17 -5.67 -4.80 
4734 -5.11 -5.71 -4.80 
4735 -5.02 -5.81 -4.80 
4736 -5.24 -5.84 -4.80 
4737 -5.09 -5.75 -4.80 
4738 -5.21 -5.77 -4.80 
4739 -5.02 -5.75 -4.80 
4740 -5.01 -5.82 -4.80 
4741 -5.20 -5.67 -4.80 
4742 -5.22 -5.90 -4.80 
4743 -5.13 -5.61 -4.80 
4744 -4.99 -5.87 -4.80 
4745 -5.29 -5.55 -4.80 
4746 -5.23 -5.82 -4.80 
4747 -5.01 -5.71 -4.80 
4748 -5.00 -5.83 -4.80 
4749 -5.41 -5.78 -4.80 
4750 -5.32 -5.86 -4.80 
4751 -5.38 -5.68 -4.80 
4752 -5.17 -5.63 -4.80 
4753 -5.34 -5.84 -4.80 
4754 -5.15 -5.68 -4.80 
4755 -4.92 -5.72 -4.80 
4756 -5.39 -5.47 -4.80 
4757 -5.37 -5.61 -4.80 
4758 -5.05 -5.77 -4.80 
4759 -5.23 -5.91 -4.80 
4760 -5.43 -5.78 -4.80 
4761 -5.32 -5.73 -4.80 
4762 -5.07 -5.88 -4.80 
4763 -5.08 -5.61 -4.80 
4764 -5.37 -5.69 -4.80 
4765 -5.17 -5.75 -4.80 
4766 -5.06 -5.65 -4.80 
4767 -5.20 -5.52 -4.80 
4768 -5.09 -5.86 -4.80 
4769 -5.29 -5.72 -4.80 
4770 -5.05 -5.56 -4.80 
4771 -5.22 -5.98 -4.80 
4772 -4.91 -5.89 -4.80 
4773 -4.87 -5.81 -4.80 
4774 -5.06 -5.65 -4.80 
4775 -5.11 -5.84 -4.80 
4776 -5.13 -5.99 -4.80 
4777 -5.14 -5.74 -4.80 
4778 -5.17 -5.71 -4.80 
4779 -5.07 -5.78 -4.80 
4780 -5.11 -5.71 -4.80 
4781 -5.16 -5.69 -4.80 
4782 -5.17 -5.54 -4.80 
4783 -5.32 -5.67 -4.80 
4784 -5.07 -5.54 -4.80 
4785 -5.03 -5.83 -4.80 
4786 -5.22 -5.82 -4.80 
4787 -5.27 -5.90 -4.80 
4788 -5.05 -5.92 -4.80 
4789 -5.08 -5.87 -4.80 
4790 -5.03 -5.59 -4.80 
4791 -5.13 -5.80 -4.80 
4792 -5.05 -5.80 -4.80 
4793 -4.96 -5.56 -4.80 
4794 -4.94 -5.64 -4.80 
4795 -5.12 -5.62 -4.80 
4796 -5.13 -5.66 -4.80 
4797 -5.15 -5.61 -4.80 
4798 -5.13 -5.88 -4.80 
4799 -5.10 -5.87 -4.80 
4800 -5.01 -5.79 -4.80 
4801 -5.07 -5.74 -4.80 
4802 -5.07 -5.72 -4.80 
4803 -5.02 -5.79 -4.80 
4804 -4.82 -5.75 -4.80 
4805 -5.09 -5.53 -4.80 
4806 -4.99 -5.73 -4.80 
4807 -5.16 -5.76 -4.80 
4808 -4.94 -5.98 -4.80 
4809 -5.14 -5.81 -4.80 
4810 -5.23 -5.75 -4.80 
4811 -4.91 -5.55 -4.80 
4812 -5.28 -5.84 -4.80 
4813 -5.22 -5.84 -4.80 
4814 -5.22 -5.75 -4.80 
4815 -5.12 -5.70 -4.80 
4816 -5.13 -5.75 -4.80 
4817 -5.04 -5.84 -4.80 
4818 -4.88 -5.82 -4.80 
4819 -5.16 -5.95 -4.80 
4820 -5.19 -5.73 -4.80 
4821 -4.98 -5.72 -4.80 
4822 -5.15 -5.87 -4.80 
4823 -5.22 -6.10 -4.80 
4824 -5.21 -6.06 -4.80 
4825 -5.10 -5.80 -4.80 
4826 -5.07 -5.73 -4.80 
4827 -4.98 -5.68 -4.80 
4828 -4.92 -5.62 -4.80 
4829 -5.46 -5.78 -4.80 
4830 -5.21 -5.90 -4.80 
4831 -5.12 -5.71 -4.80 
4832 -5.04 -5.83 -4.80 
4833 -5.18 -5.69 -4.80 
4834 -4.97 -5.86 -4.80 
4835 -5.29 -5.64 -4.80 
4836 -5.23 -5.73 -4.80 
4837 -5.02 -5.89 -4.80 
4838 -5.28 -5.88 -4.80 
4839 -4.82 -5.85 -4.80 
4840 -4.95 -5.69 -4.80 
4841 -5.25 -5.68 -4.80 
4842 -4.98 -6.01 -4.80 
4843 -4.85 -5.80 -4.80 
4844 -5.08 -5.71 -4.80 
4845 -5.37 -5.74 -4.80 
4846 -4.80 -5.70 -4.80 
4847 -5.18 -5.76 -4.80 
4848 -5.34 -5.58 -4.80 
4849 -5.15 -5.74 -4.80 
4850 -5.13 -5.69 -4.80 
4851 -5.05 -5.72 -4.80 
4852 -5.07 -5.72 -4.80 
4853 -5.28 -5.79 -4.80 
4854 -5.00 -5.92 -4.80 
4855 -5.08 -5.74 -4.80 
4856 -5.15 -5.74 -4.80 
4857 -5.07 -5.90 -4.80 
4858 -5.04 -5.68 -4.80 
4859 -5.17 -5.62 -4.80 
4860 -5.05 -5.74 -4.80 
4861 -5.10 -5.63 -4.80 
4862 -4.87 -5.71 -4.80 
4863 -4.93 -5.71 -4.80 
4864 -5.19 -5.63 -4.80 
4865 -5.27 -5.76 -4.80 
4866 -5.05 -5.80 -4.80 
4867 -5.21 -5.79 -4.80 
4868 -5.20 -5.75 -4.80 
4869 -5.08 -5.70 -4.80 
4870 -4.85 -5.75 -4.80 
4871 -4.80 -5.78 -4.80 
4872 -5.20 -5.72 -4.80 
4873 -5.09 -5.63 -4.80 
4874 -5.14 -5.69 -4.80 
4875 -5.11 -5.82 -4.80 
4876 -5.37 -5.86 -4.80 
4877 -5.02 -5.62 -4.80 
4878 -4.97 -5.62 -4.80 
4879 -5.19 -5.61 -4.80 
4880 -5.04 -5.84 -4.80 
4881 -5.16 -5.72 -4.80 
4882 -4.95 -5.70 -4.80 
4883 -4.92 -5.70 -4.80 
4884 -5.05 -5.73 -4.80 
4885 -5.24 -5.64 -4.80 
4886 -5.14 -5.67 -4.80 
4887 -4.97 -5.80 -4.80 
4888 -4.88 -5.59 -4.80 
4889 -5.18 -5.66 -4.80 
4890 -5.20 -5.65 -4.80 
4891 -5.08 -5.70 -4.80 
4892 -4.92 -5.82 -4.80 
4893 -5.26 -5.67 -4.80 
4894 -5.24 -5.55 -4.80 
4895 -5.12 -5.62 -4.80 
4896 -5.31 -5.73 -4.80 
4897 -5.36 -5.77 -4.80 
4898 -5.24 -5.78 -4.80 
4899 -5.05 -5.64 -4.80 
4900 -5.14 -5.76 -4.80 
4901 -5.19 -5.71 -4.80 
4902 -4.99 -5.80 -4.80 
4903 -5.27 -5.81 -4.80 
4904 -4.92 -5.65 -4.80 
4905 -4.92 -5.83 -4.80 
4906 -4.83 -5.81 -4.80 
4907 -5.11 -5.70 -4.80 
4908 -5.17 -5.74 -4.80 
4909 -4.99 -5.65 -4.80 
4910 -5.17 -5.81 -4.80 
4911 -5.15 -5.70 -4.80 
4912 -4.98 -5.56 -4.80 
4913 -5.00 -5.72 -4.80 
4914 -5.19 -5.65 -4.80 
4915 -5.31 -5.79 -4.80 
4916 -5.04 -5.68 -4.80 
4917 -5.08 -5.63 -4.80 
4918 -5.05 -5.71 -4.80 
4919 -5.01 -5.69 -4.80 
4920 -4.99 -5.65 -4.80 
4921 -5.25 -5.59 -4.80 
4922 -5.03 -5.61 -4.80 
4923 -4.93 -5.91 -4.80 
4924 -4.99 -5.75 -4.80 
4925 -5.08 -5.62 -4.80 
4926 -5.18 -5.63 -4.80 
4927 -5.13 -5.66 -4.80 
4928 -5.13 -5.83 -4.80 
4929 -4.95 -5.73 -4.80 
4930 -5.31 -5.70 -4.80 
4931 -5.04 -5.79 -4.80 
4932 -5.10 -5.70 -4.80 
4933 -5.05 -5.64 -4.80 
4934 -5.27 -5.83 -4.80 
4935 -5.24 -5.75 -4.80 
4936 -5.22 -5.65 -4.80 
4937 -4.88 -5.63 -4.80 
4938 -5.24 -5.65 -4.80 
4939 -5.32 -5.64 -4.80 
4940 -5.14 -5.92 -4.80 
4941 -4.99 -5.93 -4.80 
4942 -5.11 -5.70 -4.80 
4943 -5.30 -5.66 -4.80 
4944 -4.95 -5.83 -4.80 
4945 -5.23 -5.67 -4.80 
4946 -5.28 -5.67 -4.80 
4947 -5.09 -5.69 -4.80 
4948 -5.05 -5.65 -4.80 
4949 -5.27 -5.62 -4.80 
4950 -5.26 -5.60 -4.80 
4951 -5.13 -5.79 -4.80 
4952 -5.18 -5.64 -4.80 
4953 -5.18 -5.55 -4.80 
4954 -5.08 -5.77 -4.80 
4955 -5.15 -5.65 -4.80 
4956 -5.25 -5.57 -4.80 
4957 -5.06 -5.61 -4.80 
4958 -5.09 -5.50 -4.80 
4959 -5.06 -5.77 -4.80 
4960 -5.29 -5.75 -4.80 
4961 -5.02 -5.66 -4.80 
4962 -5.21 -5.64 -4.80 
4963 -5.09 -5.76 -4.80 
4964 -5.09 -5.65 -4.80 
4965 -5.15 -5.81 -4.80 
4966 -5.14 -5.62 -4.80 
4967 -5.04 -5.66 -4.80 
4968 -4.73 -5.82 -4.80 
4969 -5.31 -5.75 -4.73 
4970 -4.97 -5.79 -4.73 
4971 -5.28 -5.73 -4.73 
4972 -5.04 -5.69 -4.73 
4973 -5.21 -5.82 -4.73 
4974 -5.26 -5.64 -4.73 
4975 -5.29 -5.77 -4.73 
4976 -5.18 -5.71 -4.73 
4977 -5.22 -5.70 -4.73 
4978 -5.05 -5.64 -4.73 
4979 -5.22 -5.71 -4.73 
4980 -5.03 -5.73 -4.73 
4981 -5.12 -5.71 -4.73 
4982 -5.25 -5.80 -4.73 
4983 -5.34 -5.72 -4.73 
4984 -5.03 -5.76 -4.73 
4985 -5.07 -5.85 -4.73 
4986 -5.14 -5.83 -4.73 
4987 -5.17 -5.89 -4.73 
4988 -5.03 -5.92 -4.73 
4989 -4.98 -5.95 -4.73 
4990 -5.06 -5.70 -4.73 
4991 -5.03 -5.71 -4.73 
4992 -5.15 -5.83 -4.73 
4993 -4.89 -5.79 -4.73 
4994 -5.25 -5.71 -4.73 
