iteration,time_sampling,stoc_pol_mean,stoc_pol_std,stoc_pol_max,stoc_pol_min,rollout_success,alpha,delta,time_vpg,time_npg,kl_dist,surr_improvement,running_score,rwd_sparse,rwd_dense,success_percentage,num_samples,time_VF,VF_error_before,VF_error_after,eval_score,eval_success
0,1.4152672290802002,-21.738712229957315,4.709489792179773,-7.698383592142514,-27.436430636828355,0.0,2.825156815102302,0.1,0.04002690315246582,0.22005963325500488,0.04916165,0.03550081,-21.738712229957315,-0.22613930879401836,-0.2169726421273517,0.0,9600,0.9098706245422363,0.9887351696014348,0.13431556030827668,-17.101253097237333,0.0
1,1.2589900493621826,-6.449061993890051,15.41285539778105,70.04490650850988,-26.935621207209255,0.0,3.293342842620405,0.1,0.008984565734863281,0.22449469566345215,0.05142737,0.031813502,-20.20974720635059,-0.13011216975261478,-0.06427883641928145,0.0,9600,0.9269473552703857,1.7466626125521931,0.6536554493740286,-17.99510660532979,0.0
2,1.4341380596160889,4.491575618785686,15.348711013594555,40.75278910860276,-25.740591268024925,0.0,2.6089064478674495,0.1,0.010376930236816406,0.21076321601867676,0.0617682,0.041590918,-17.73961492383696,-0.08954349387339282,0.044623172793273845,0.0,9600,0.9098658561706543,1.019968401503831,0.7786787220436295,-17.930789113328952,0.0
3,1.3676738739013672,16.91755160081838,20.432317138232253,75.50609122920451,-20.061302395723384,1.0416666666666667,3.110228660482737,0.1,0.008821964263916016,0.18503451347351074,0.048153367,0.031798135,-14.273898271371426,-0.08273805312312807,0.1689286135435386,1.0416666666666667,9600,0.8831915855407715,0.7989403321571975,0.6458637181491924,-7.393203814824753,0.0
4,1.384289026260376,24.326752776065728,27.99883214364301,90.90709777574006,-23.600704916643632,1.0416666666666667,3.344301368333106,0.1,0.00901651382446289,0.20217347145080566,0.06724608,0.033489008,-10.413833166627711,-0.0960934656536813,0.24348986767965206,1.0416666666666667,9600,1.0798189640045166,0.6121768824301479,0.533619114652675,-6.560064423719061,0.0
5,1.4902074337005615,45.83747414108637,40.94077592716014,148.1753109890926,-20.13660645768231,6.25,3.3648875601763324,0.1,0.010981321334838867,0.208052396774292,0.06388835,0.031501815,-4.788702435856304,-0.09141427958997521,0.4581690537433581,6.25,9600,1.2329330444335938,0.5919193454244516,0.4736207223998686,-6.153762646106325,0.0
6,1.3601136207580566,63.938090115992615,43.04430821704522,220.48533606828747,-23.48295311038272,12.5,3.3788584940214785,0.1,0.008648872375488281,0.18716001510620117,0.061982576,0.032038115,2.083976819328589,-0.07132781651659621,0.6386721834834038,12.5,9600,1.2006480693817139,0.40084007223050927,0.32696668271030516,-5.5164759097363785,0.0
7,1.4118154048919678,84.93479417487764,48.50915853710613,195.8623451910752,-15.640960651770737,19.791666666666668,3.1388814915375813,0.1,0.02004837989807129,0.1909017562866211,0.06064422,0.034633256,10.369058554883495,-0.06473170386108677,0.8481849628055799,19.791666666666668,9600,1.288520336151123,0.31952518628424104,0.25849397692442005,-5.265524470829568,0.0
8,1.441936731338501,123.23180564636766,47.278020093775325,220.67866594725865,6.413937430802102,41.666666666666664,2.6080288206410205,0.1,0.011846542358398438,0.183182954788208,0.05649723,0.042408366,21.65533326403191,-0.04351781964861976,1.2293988470180468,41.666666666666664,9600,1.3107326030731201,0.2261549886755951,0.155877193989101,-4.143654456976698,0.0
9,1.2924535274505615,163.70551763787523,41.22265654150281,268.8929984551845,71.78469028067661,64.58333333333333,2.193890387472194,0.1,0.011894464492797852,0.2155458927154541,0.060669605,0.049723092,35.86035170141625,-0.0346169501906725,1.6341330498093274,64.58333333333333,9600,1.3154609203338623,0.1414376955158856,0.08921230971310483,369.66574816087854,0.0
10,1.414750337600708,224.24059628999953,45.55160164456798,325.523431108833,56.66310601932255,87.5,1.9767941051936637,0.1,0.009871244430541992,0.19301605224609375,0.059497323,0.052524738,54.698376160274584,-0.030516206360894697,2.239483793639105,87.5,9600,1.2743253707885742,0.14508952228760624,0.0574290156182293,510.3485604170675,100.0
11,1.330580472946167,291.9894025006693,40.983048116704786,381.685060301141,184.96687171201495,100.0,1.8997565650038915,0.1,0.008901119232177734,0.19756102561950684,0.06155712,0.055756584,78.42747879431406,-0.02636907898120652,2.915714254352127,100.0,9600,1.2761120796203613,0.07332631192494081,0.0279105694243868,738.5035608833317,100.0
12,1.4826040267944336,377.3114796790499,38.43850540342125,486.1060702994761,257.174875705076,100.0,2.148743763395321,0.1,0.009062051773071289,0.21512198448181152,0.05772003,0.04659162,108.31587888278764,-0.022740367845089426,3.7660096321549106,100.0,9600,1.2823007106781006,0.06248639992572546,0.016897574949955994,750.6693624749932,100.0
13,1.3867747783660889,437.03540915597574,28.25330523955784,510.09898811311655,325.70452838555167,100.0,2.2109102036335644,0.1,0.008298635482788086,0.1796863079071045,0.057495154,0.04272911,141.18783191010647,-0.02049921108569899,4.3645007889143015,100.0,9600,1.2621498107910156,0.027658010522186655,0.00805103673188779,750.8480288113898,100.0
14,1.375877857208252,491.6232862558529,31.64813683552134,574.2879795722095,421.9669942441355,100.0,2.2234919491190914,0.1,0.008915424346923828,0.1893606185913086,0.05720556,0.04382012,176.2313773446811,-0.018791680393289618,4.9082916529400435,100.0,9600,1.2990522384643555,0.016048230686732178,0.006182824199241668,755.0805459243064,100.0
15,1.433718204498291,531.8985199644717,32.06040881166622,602.5229647136916,458.0959862925552,100.0,2.076828850539068,0.1,0.011614322662353516,0.19000816345214844,0.05738826,0.046326634,211.79809160666017,-0.017296149755793525,5.309370516910874,100.0,9600,1.3060929775238037,0.010125222381312388,0.005204135468267189,755.0746419521386,100.0
16,1.5619146823883057,561.2292336016047,27.34693093525558,622.6110546231278,478.19561848903686,100.0,2.1155605989778334,0.1,0.008318185806274414,0.19130682945251465,0.05676707,0.046019588,246.74120580615462,-0.016072711394100436,5.602260621939233,100.0,9600,1.2858498096466064,0.0054691598874227944,0.003420227563961122,755.11751623643,100.0
17,1.3929791450500488,600.1454140351433,25.918024586988956,670.6454308517036,534.3885657996483,100.0,2.4120059095893214,0.1,0.00919651985168457,0.20555782318115234,0.0561061,0.039266083,282.0816266290535,-0.014828806700869154,5.991837859965798,100.0,9600,1.2576377391815186,0.0069145898946033355,0.002705298931513684,759.1899093296418,100.0
18,1.3981845378875732,628.2667567241397,23.049079447402768,686.7014248162762,578.4990318249911,100.0,2.3244138508878343,0.1,0.0095367431640625,0.21125078201293945,0.05588599,0.044443317,316.7001396385621,-0.01403734814449851,6.270545985188835,100.0,9600,1.2411932945251465,0.0035291811166773194,0.001924060686042358,759.1959131379501,100.0
19,1.4710206985473633,652.7567167267603,20.658375223411998,706.7656167022323,594.645141240773,100.0,2.61231426090546,0.1,0.00820302963256836,0.18621063232421875,0.03897248,0.028154101,350.30579734738194,-0.013302257369835898,6.516281075963498,100.0,9600,1.269263505935669,0.002918443107621924,0.0015486837125418258,755.1744067985471,100.0
20,1.279357671737671,666.0604944635593,21.34604246022152,714.842991384863,610.5345544810281,100.0,2.428634609017004,0.1,0.011209964752197266,0.18296027183532715,0.04871416,0.036387004,381.8812670589997,-0.012766248527511176,6.648483751472489,100.0,9600,1.1748192310333252,0.001947169320889536,0.0014954694661420262,759.2427491261101,100.0
21,1.429701328277588,681.5262487465769,18.560720367989934,730.913030301853,626.6404134358414,100.0,2.451162234475203,0.1,0.008403301239013672,0.18581151962280273,0.0380017,0.028010894,411.84576522775745,-0.012275820925721645,6.803140845740946,100.0,9600,1.214935064315796,0.0016356362612166924,0.0011236344540108785,755.198682041425,100.0
22,1.265993595123291,695.7428160011258,15.217896909828005,731.0085624098592,654.8328679354332,100.0,2.5969472434915595,0.1,0.008751869201660156,0.190993070602417,0.03060237,0.023959812,440.2354703050943,-0.011775554366911306,6.945724445633089,100.0,9600,1.257392406463623,0.0010328334904087214,0.0007630565770447602,759.2219408601052,100.0
23,1.4871084690093994,699.1824225209772,17.273496608573094,738.9301184190979,646.750896601145,100.0,2.782974125766402,0.1,0.00839376449584961,0.2196815013885498,0.033849042,0.023600401,466.1301655266826,-0.01154620851084577,6.9805371248224874,100.0,9600,1.2249157428741455,0.0009230175486581735,0.0009036843389838878,751.1858666080128,100.0
24,1.3583471775054932,704.3183668712971,18.51879151364421,742.9190154459156,658.7131451184623,100.0,2.3800676462018826,0.1,0.008685588836669922,0.19328713417053223,0.031587657,0.025317075,489.9489856611441,-0.01143660326647423,7.0310633967335265,100.0,9600,1.2098348140716553,0.0009150923661873837,0.0008256469696984425,755.1405060114823,100.0
25,1.3398592472076416,704.9860395800006,16.21863367458342,746.9958380319978,662.75525328,100.0,2.6039102380917556,0.1,0.008166790008544922,0.18305444717407227,0.025786493,0.01938815,511.45269105302975,-0.011427592031168624,7.037739074635499,100.0,9600,1.2301790714263916,0.0007441019210939441,0.0007372537673038407,759.1186123648,100.0
26,1.4175782203674316,709.9697685745681,17.191271078460673,747.0217408353531,666.763824863273,100.0,2.8364193355972893,0.1,0.008900165557861328,0.20230388641357422,0.026208535,0.017910238,531.3043988051836,-0.011175765324053238,7.087157568009281,100.0,9600,1.2646889686584473,0.000815411555426964,0.0007259919947241312,751.1196935879575,100.0
27,1.3693666458129883,709.9291620510716,15.611511244307534,743.0454669548726,670.7634463704544,100.0,2.8046613368252813,0.1,0.008592367172241211,0.18124008178710938,0.025149867,0.017357342,549.1668751297724,-0.011166267407358335,7.086333732592642,100.0,9600,1.2315266132354736,0.0006690044449812135,0.0006694478126335952,755.1484141349129,100.0
28,1.3646717071533203,711.642918888588,16.538702465325827,747.0288624386909,662.814067142846,100.0,2.7736825768095144,0.1,0.008455276489257812,0.18430662155151367,0.02140068,0.014344333,565.414479505654,-0.011110122187785704,7.104306544478881,100.0,9600,1.238434076309204,0.0007562789201340201,0.0007458915685593969,763.1016505458422,100.0
29,1.3441414833068848,714.3162236329593,15.697790521650937,750.9606759625585,670.8242152117169,100.0,2.7444171005669906,0.1,0.010312318801879883,0.21228957176208496,0.028641548,0.018068762,580.3046539183845,-0.011043898534883448,7.130206101465117,100.0,9600,1.319096326828003,0.0006407127674824459,0.0006840144033259677,763.179384280114,100.0
30,1.5954322814941406,718.8005300110395,14.899171700836652,751.0443192304657,658.7764873987737,100.0,3.037652533306788,0.1,0.008481740951538086,0.18723011016845703,0.02622476,0.015557196,594.15424152765,-0.010782597167014435,7.1763007361663185,100.0,9600,1.2591087818145752,0.0007256975868842307,0.0006382819139327897,763.2136410465671,100.0
31,1.483062505722046,718.1022753327535,14.512737241839767,747.0839199897348,682.7883419317113,100.0,2.9302212383179143,0.1,0.009357929229736328,0.20154237747192383,0.026948115,0.015973138,606.5490449081603,-0.010682903211236917,7.16848376345543,100.0,9600,1.3155956268310547,0.0006622763453749904,0.0006017114323997577,763.2275554155977,100.0
32,1.408416748046875,720.9137536605159,13.79316511707809,751.0732962337514,686.8950103530182,100.0,2.8093471124517144,0.1,0.009066581726074219,0.2237396240234375,0.019522257,0.014926377,617.985515783396,-0.010486615043825474,7.197013384956175,100.0,9600,1.377659797668457,0.0005260228320915241,0.0005153224256397325,763.2244233187043,100.0
33,1.4179134368896484,721.6204718713248,13.332941233008341,747.0544370124071,666.8415676546775,100.0,2.8639991127437137,0.1,0.008874893188476562,0.20533537864685059,0.026281646,0.016680017,628.3490113921888,-0.010499718318137249,7.204083615015196,100.0,9600,1.28068208694458,0.000490111832817087,0.0004952305136120837,763.2511417973478,100.0
34,1.3988611698150635,720.6942800741775,14.125851612610143,747.0057434449283,674.8273323888011,100.0,2.867962201742012,0.1,0.008592844009399414,0.1842184066772461,0.024903418,0.016568284,637.5835382603876,-0.010597433577051209,7.193985899756282,100.0,9600,1.2676317691802979,0.0005478484125689729,0.000519642054778704,767.2064946754741,100.0
35,1.4097344875335693,725.8890618744798,12.783763186471298,751.0540512466683,686.8713820350403,100.0,3.032128925957799,0.1,0.00970315933227539,0.18017959594726562,0.027562618,0.01754473,646.4140906217968,-0.010314971852769887,7.246351694813896,100.0,9600,1.2833600044250488,0.0005032601926119582,0.00047120958371968386,763.2343722882283,100.0
36,1.4078316688537598,727.1062251915109,14.267640587509518,759.020502580966,690.8886165820303,100.0,2.870085383927915,0.1,0.008945941925048828,0.20121121406555176,0.03129708,0.01968758,654.4833040787682,-0.0102241439961972,7.25894252267047,100.0,9600,1.3133587837219238,0.0005494536651130019,0.0005676700884833797,763.2584546358285,100.0
37,1.3465323448181152,729.7428542987042,14.326976005798995,755.054329671011,686.912332362539,100.0,2.984368820644996,0.1,0.03314042091369629,0.19737911224365234,0.028476397,0.018378817,662.0092591007618,-0.010113216504595136,7.28405345016207,100.0,9600,1.365645408630371,0.0005479162910589833,0.0005101394727308519,763.2698989243657,100.0
38,1.5595638751983643,733.3478138136674,11.146869038730205,755.1089110821861,698.9630798470292,100.0,2.8745184576976506,0.1,0.009056806564331055,0.2033379077911377,0.029934559,0.017655194,669.1431145720524,-0.009895812155440796,7.320937521177892,100.0,9600,1.3228487968444824,0.0003199129533413851,0.00034725344999351354,759.2706251390642,100.0
39,1.3771345615386963,730.9282179777201,13.985467101892626,755.0852794170818,694.9016111922905,100.0,2.960230374542073,0.1,0.008743047714233398,0.21395349502563477,0.028710693,0.018831907,675.3216249126191,-0.009925986119404389,7.296740680547262,100.0,9600,1.3713397979736328,0.0005582611772812897,0.0004554514444999087,763.2080824278175,100.0
40,1.4484708309173584,729.8785559198371,13.129340326022648,751.1037455305308,690.9140851326894,100.0,2.9510811197356337,0.1,0.009290695190429688,0.20075774192810059,0.02345631,0.01603179,680.7773180133408,-0.010008980222328703,7.285407686444337,100.0,9600,1.3956396579742432,0.0004928547096121616,0.0004897080948792592,763.2018061486882,100.0
41,1.415980577468872,731.0006152344413,14.652983048361113,759.0682060858003,682.8061158300893,100.0,3.2778697434544175,0.1,0.008243560791015625,0.18602418899536133,0.022646021,0.011908678,685.7996477354509,-0.010033290592993314,7.297050042740341,100.0,9600,1.2919819355010986,0.0005246466861833243,0.0005140147003397267,763.2310339853284,100.0
42,1.4283099174499512,731.4653416961243,12.75091352152981,759.1197408112714,694.9029541219602,100.0,3.1907349738104567,0.1,0.008561134338378906,0.18593907356262207,0.018393772,0.010565347,690.3662171315183,-0.00997106387897941,7.301695602787688,100.0,9600,1.3654615879058838,0.0004130560310634519,0.00040907142442054726,763.2261210961569,100.0
43,1.3741717338562012,730.4621088170428,12.110193864818562,755.0802708983128,702.9062663610027,100.0,2.9558690876842157,0.1,0.009416818618774414,0.21615242958068848,0.029530678,0.018056748,694.3758063000707,-0.010002716325031665,7.292080617008303,100.0,9600,1.3534884452819824,0.00040330968570714566,0.00040268699409003325,763.2527306918794,100.0
44,1.3366918563842773,732.8045351771698,12.758094123785197,759.0266246716704,702.9438155788721,100.0,3.260247522100857,0.1,0.018897294998168945,0.18467974662780762,0.021819126,0.012334711,698.2186791877807,-0.009912784225930242,7.314670549107404,100.0,9600,1.3317949771881104,0.0004540500858691215,0.00043019032590140417,763.2465985739774,100.0
45,1.443251132965088,735.3463291628032,12.097253623690065,763.1167107377622,706.9509560936283,100.0,2.7553679948804297,0.1,0.009205818176269531,0.21551108360290527,0.034925397,0.023397624,701.931444185283,-0.009909359224432125,7.340507307442235,100.0,9600,1.4536809921264648,0.0003694977988199995,0.00034017247269953297,763.245047122973,100.0
46,1.5075650215148926,733.2178747482473,13.270784844235484,759.0626234558598,702.8851766285952,100.0,2.5985391427546927,0.1,0.008755683898925781,0.20728802680969238,0.02145813,0.015250718,705.0600872415795,-0.009945720369265726,7.319637612964068,100.0,9600,1.442251443862915,0.0004526280952854845,0.0004570603176855365,763.2252663029221,100.0
47,1.627551555633545,734.9317120045397,11.40421034939827,759.0644147444312,706.8137564389422,100.0,3.018957088830818,0.1,0.008758783340454102,0.19994902610778809,0.025012694,0.015696941,708.0472497178755,-0.009890618532858194,7.336776048133807,100.0,9600,1.3701393604278564,0.00037042230986725563,0.0003588275454146885,755.2040131533238,100.0
48,1.391599178314209,738.9898039539431,9.934270260074836,759.108346584198,706.831696366002,100.0,2.88854713115303,0.1,0.00860142707824707,0.18627166748046875,0.03096839,0.021097286,711.1415051414823,-0.00972669739907883,7.376939969267588,100.0,9600,1.3645656108856201,0.00028696019250868467,0.0002926361402371785,763.3466838455362,100.0
49,1.4097800254821777,738.6590814715249,11.646095304852334,763.1567871969183,710.9576485870416,100.0,3.216717778536045,0.1,0.008964776992797852,0.19732046127319336,0.024082102,0.0143930195,713.8932627744865,-0.00969792256735523,7.374052077432645,100.0,9600,1.3443737030029297,0.0003731842923271939,0.0004007303693555205,763.3586944335589,100.0
50,1.373098373413086,739.7467343746179,12.24227503639813,759.1348401558324,690.8080519905061,100.0,2.5379423003102426,0.1,0.009006977081298828,0.21496272087097168,0.03397403,0.022994336,716.4786099344997,-0.009657642977742577,7.384509023688925,100.0,9600,1.3785865306854248,0.0004603378637985987,0.0003989686767263789,763.3634927046926,100.0
51,1.3200578689575195,741.4101872875714,10.790575624463063,759.1224754483272,706.9509131020011,100.0,2.9434300566436646,0.1,0.009291410446166992,0.19699764251708984,0.025549175,0.01408875,718.9717676698068,-0.009690609049064871,7.400726057617601,100.0,9600,1.3480465412139893,0.0002945353127944609,0.00029685607363964914,763.3318595497142,100.0
52,1.465672492980957,741.5857980768791,11.465849471635485,763.1316141166751,706.9768452738338,100.0,3.151318923973134,0.1,0.008644819259643555,0.2368786334991455,0.029193811,0.018280935,721.2331707105141,-0.009603451907557297,7.402479881425776,100.0,9600,1.396723747253418,0.0003032132442676337,0.0002979923580878816,763.3416426504972,100.0
53,1.3425734043121338,739.5420386248479,10.066532243483755,759.1049192907801,710.9116948315609,100.0,2.93587566735107,0.1,0.008410930633544922,0.19798731803894043,0.026726417,0.0170185,723.0640575019474,-0.009621467312829231,7.382045199353837,100.0,9600,1.3518502712249756,0.0002738606845012101,0.0003010098604313582,763.3508564344131,100.0
54,1.3908519744873047,743.710896643142,10.08746360052743,763.0924294064902,698.8830657465759,100.0,3.577741604653075,0.1,0.008494138717651367,0.21393799781799316,0.03285569,0.016530428,725.128741416067,-0.009602556506389949,7.423730776826943,100.0,9600,1.3457188606262207,0.00025541380665527964,0.00024404985483122583,763.3492177693547,100.0
55,1.5563938617706299,743.2210438137869,10.597441499754616,759.1189166208658,711.0183354671527,100.0,3.369066810305199,0.1,0.012331008911132812,0.16976094245910645,0.035233393,0.017787697,726.9379716558391,-0.00950106570137431,7.4188322676319585,100.0,9600,1.3239326477050781,0.000306152679730038,0.0003047581799745146,763.3282029373103,100.0
56,1.4496347904205322,742.6768152430119,10.161700201776215,759.1523985926478,710.9590616504621,100.0,3.2410303752078597,0.1,0.017498254776000977,0.23317694664001465,0.032431796,0.018220875,728.5118560145564,-0.00952392246109119,7.4138094108722425,100.0,9600,1.3472270965576172,0.0002786739854045918,0.0002774617142593236,763.3720125093859,100.0
57,1.407712697982788,745.1594319738806,9.314114847366378,759.1707827270504,714.9811314145012,100.0,2.9452486058791596,0.1,0.00870370864868164,0.1984553337097168,0.022913633,0.015251524,730.1766136104889,-0.009278855036844709,7.439054478296488,100.0,9600,1.3370821475982666,0.0002617889059850383,0.00023646606092326013,763.3617395966663,100.0
58,1.3797011375427246,743.8107918673192,10.05350199270998,759.1624628635581,706.9664056478002,100.0,2.6220886800945875,0.1,0.009303569793701172,0.21034622192382812,0.03464175,0.019824188,731.5400314361718,-0.009434199694427695,7.425565800305573,100.0,9600,1.3094751834869385,0.00025599943041730035,0.00027142969716288185,763.3497089321414,100.0
59,1.3878974914550781,745.7883031171851,10.835501074414106,763.168535793699,710.9706186137244,100.0,3.1182274834485173,0.1,0.008998870849609375,0.19289064407348633,0.023817051,0.014461,732.9648586042732,-0.009242236893088073,7.4445077631069125,100.0,9600,1.356114149093628,0.0002904161567923126,0.00032269171780747395,763.3678723747811,100.0
60,1.3059730529785156,746.7881257067351,8.823142991032736,763.112902865697,723.0031156621691,100.0,3.064675633028255,0.1,0.00900721549987793,0.20250725746154785,0.032963958,0.020909423,734.3471853145194,-0.009244277805978163,7.454922388860688,100.0,9600,1.3618090152740479,0.00024390210110710101,0.00017348488469432172,763.3563157300688,100.0
61,1.443739414215088,745.8748577269143,10.42353411276604,763.1410610282054,702.9078343612767,100.0,3.236041472859672,0.1,0.009038448333740234,0.19714856147766113,0.02957227,0.016474148,735.4999525557589,-0.009210267500289625,7.445789732499709,100.0,9600,1.3334214687347412,0.0002750255327868634,0.00029713951845383187,763.4008668052168,100.0
62,1.4475011825561523,747.209683445145,9.125760778716103,763.1434243624798,718.9834035060024,100.0,3.175335570444496,0.1,0.008271932601928711,0.18146204948425293,0.020279272,0.014021878,736.6709256446976,-0.00919609119248869,7.458720575474178,100.0,9600,1.320188283920288,0.00023493634778948825,0.00024023664119880277,763.4064876323746,100.0
63,1.5088293552398682,744.5855073737133,9.75758720394834,759.1922855212157,719.0038079144603,100.0,3.3996387843572022,0.1,0.008985280990600586,0.20141339302062988,0.028917614,0.01488704,737.4623838175992,-0.009185221827022992,7.433314778172977,100.0,9600,1.3701088428497314,0.00026884601646851865,0.00024096575696593635,763.3835323530917,100.0
64,1.3327932357788086,748.4380074682452,9.1509902964392,763.1784794355907,714.9946275807185,100.0,2.97743882060656,0.1,0.009266853332519531,0.19063544273376465,0.03853849,0.021911249,738.5599461826638,-0.008996071614585687,7.471003928385414,100.0,9600,1.3637616634368896,0.0002688566558721149,0.00020056629322013196,763.3967110346548,100.0
65,1.419135332107544,747.8905862119009,9.91910279752816,763.2044951314999,723.0182803314151,100.0,3.1309940424500837,0.1,0.008880376815795898,0.18983697891235352,0.03542572,0.02037048,739.4930101855875,-0.009053548338776826,7.465946451661222,100.0,9600,1.3770670890808105,0.0002530967436031313,0.000251196299033878,763.3682836662819,100.0
66,1.4418635368347168,748.6840178067733,8.59130526626032,767.1427413251394,723.1307753470313,100.0,3.090154741063958,0.1,0.008705377578735352,0.21966028213500977,0.032711554,0.01968452,740.4121109477062,-0.009037061988397788,7.473462938011603,100.0,9600,1.3514213562011719,0.00016646433011949433,0.00016833618384747869,763.3814613062882,100.0
67,1.375307321548462,749.9386245561973,9.62103310802442,763.1845846756487,707.02501101429,100.0,3.6487989142632182,0.1,0.008740901947021484,0.19762825965881348,0.031139899,0.013489337,741.3647623085553,-0.008990182376679087,7.486426484289988,100.0,9600,1.4124982357025146,0.0002055317030921188,0.0002386563891282452,763.3740431415505,100.0
68,1.4844090938568115,751.0766509317773,7.241869530719279,763.2043210440518,735.048629516988,100.0,3.510624437365615,0.1,0.008496761322021484,0.1930391788482666,0.022500481,0.011907911,742.3359511708776,-0.008861447390498095,7.497388552609503,100.0,9600,1.3556327819824219,0.00019778054327371103,0.00015048888612008096,759.415415736496,100.0
69,1.3537986278533936,750.331229552784,7.8646155553112544,763.2094086650127,726.9942515073076,100.0,3.114624584054568,0.1,0.008381366729736328,0.18615221977233887,0.030830704,0.017788416,743.1354790090683,-0.008813688513566936,7.4903529781531,100.0,9600,1.3439457416534424,0.0001717981343744868,0.00015961901430172493,759.3770825766034,100.0
70,1.6245112419128418,750.1572882920949,7.744866960306506,767.2211613464825,727.0719455131906,100.0,3.114519347446272,0.1,0.009431600570678711,0.20253205299377441,0.032168962,0.019207442,743.837659937371,-0.008884247677343162,7.488615752322656,100.0,9600,1.3659193515777588,0.00016614842702684677,0.00017152075130784765,767.406855150514,100.0
71,1.3196444511413574,752.2559782491238,8.164210378383101,767.182637530611,723.0271565946665,100.0,3.054272906475177,0.1,0.010283470153808594,0.2093672752380371,0.031799413,0.0170215,744.6794917685463,-0.008734321655103057,7.509182345011564,100.0,9600,1.3392291069030762,0.00018368975709332188,0.00018962886890834844,767.3943961508438,100.0
72,1.4434804916381836,751.1365830209435,8.375844164675613,767.1709122893267,723.0139592816166,100.0,2.9755546298693303,0.1,0.009183645248413086,0.20896244049072266,0.028408509,0.017513705,745.325200893786,-0.008677082719411033,7.498406250613923,100.0,9600,1.3548290729522705,0.00023649974765442135,0.00020028823081308142,767.3981070768897,100.0
73,1.4519922733306885,751.6350139541552,8.373273974841629,767.2027617054375,727.0224492714149,100.0,3.145750677672547,0.1,0.015905380249023438,0.18824291229248047,0.031483065,0.016196363,745.9561821998229,-0.008693883013103143,7.50338945032023,100.0,9600,1.387544870376587,0.00017730458049779698,0.00019722675402891081,767.4132493952527,100.0
74,1.4514834880828857,751.5058016326772,8.704720472483517,767.2005597602623,727.0412449461229,100.0,2.6081622382473553,0.1,0.00834798812866211,0.1935868263244629,0.03590567,0.020848276,746.5111441431084,-0.008734888679429903,7.501681777987237,100.0,9600,1.3519954681396484,0.0001854367258007902,0.00016655244839126657,767.3846998973161,100.0
75,1.4251642227172852,752.7699798274052,7.99102445871585,767.2047290854528,731.0491192848042,100.0,3.0009049899169353,0.1,0.008335113525390625,0.18279075622558594,0.034337405,0.020723125,747.1370277115382,-0.00859207249568507,7.514324594170982,100.0,9600,1.2820863723754883,0.00014849529944083645,0.00014096889168093568,767.4012315696532,100.0
76,1.4177627563476562,751.9347644907152,8.812104288710797,767.2159992697523,723.0725079143286,100.0,3.0610595676357475,0.1,0.008824825286865234,0.18420004844665527,0.034675255,0.019916557,747.616801389456,-0.008610226357874413,7.506389773642124,100.0,9600,1.360121488571167,0.00016186331645302683,0.00016253013646217379,763.3769876832254,100.0
77,1.3520913124084473,753.7292015494235,8.109311183873599,767.2295385972257,722.9940989979402,100.0,3.4485593796937613,0.1,0.009298086166381836,0.20514965057373047,0.029027939,0.016190311,748.2280414054527,-0.00858511082626297,7.523914889173736,100.0,9600,1.315598964691162,0.00016131074824976012,0.0001637273415026751,767.372793986287,100.0
78,1.391082525253296,753.6099545720436,7.748716317844798,767.1499574654412,731.0798789265439,100.0,3.5773648444759254,0.1,0.008787870407104492,0.18541765213012695,0.037589926,0.017922806,748.7662327221118,-0.008529625985034045,7.522720374014966,100.0,9600,1.3174099922180176,0.00015366702169773374,0.0001423446137772208,767.3417925696805,100.0
79,1.33262038230896,754.4933035928274,8.116041458241586,767.2412634886377,731.0995198449629,100.0,2.9832073897470996,0.1,0.010058879852294922,0.20922088623046875,0.03225287,0.016995974,749.3389398091833,-0.008444762114828688,7.531555237885171,100.0,9600,1.2927000522613525,0.00012964483273988504,0.00012677425127486093,767.3169204921176,100.0
80,1.3425381183624268,754.7841605971838,7.941194019891131,767.2353476418501,723.0533313826727,100.0,3.3772930248130235,0.1,0.010231256484985352,0.20659375190734863,0.028495321,0.0143822655,749.8834618879833,-0.008451939291602102,7.534464727375064,100.0,9600,1.2802221775054932,0.0001597345251397672,0.00016196390878549336,767.3454699605908,100.0
81,1.4437634944915771,753.1525734568155,8.063751858982458,767.1993860207576,727.1120158119909,100.0,3.120147557955509,0.1,0.00918722152709961,0.2198176383972168,0.03525448,0.01904545,750.2103730448665,-0.00851707098567748,7.518149595680988,100.0,9600,1.3332483768463135,0.00015428513219296587,0.00014090482837889303,763.3085749374122,100.0
82,1.4871306419372559,755.4904652284309,7.200003259743203,767.2337842837503,735.0746901575184,100.0,3.2027831677577296,0.1,0.008525609970092773,0.1820049285888672,0.035254076,0.01756726,750.738382263223,-0.00846959016999665,7.541530409830003,100.0,9600,1.2717833518981934,0.0001498273337146065,0.00015575888558267122,759.311091060185,100.0
83,1.4397149085998535,754.5390680629502,7.1215959376994995,767.2141518506583,735.0924869423674,100.0,3.3721493903684903,0.1,0.00879359245300293,0.18137907981872559,0.037468106,0.018194543,751.1184508431957,-0.008400941853917912,7.532432391479415,100.0,9600,1.335432767868042,0.00012467596885211419,0.0001250924211811905,755.2836081365829,100.0
84,1.2970430850982666,753.783610485087,7.634611917320414,763.2208770191738,727.1241580562038,100.0,2.8084528859979008,0.1,0.008810281753540039,0.19771146774291992,0.03177295,0.021046821,751.3849668073849,-0.008455047270264486,7.5248782860630685,100.0,9600,1.3321375846862793,0.0001678388893899371,0.0001522257642072862,767.3223866727594,100.0
85,1.5305242538452148,756.4284787386014,6.379396346239589,767.2376927450559,739.1105826107799,100.0,2.719419629812326,0.1,0.009105205535888672,0.20895957946777344,0.036360536,0.022109386,751.8893180005065,-0.008258823916887101,7.551741176083112,100.0,9600,1.3565833568572998,0.00014775165529236188,9.6095204020376e-05,767.3199405406474,100.0
86,1.4812545776367188,756.0902824532113,7.033421697175015,767.2529045143947,735.1636335646652,100.0,3.5137442154684533,0.1,0.008684635162353516,0.18114113807678223,0.036672134,0.0155958235,752.309414445777,-0.008308265754841214,7.5475250675784915,100.0,9600,1.3481254577636719,0.00012635250766456415,0.00012262055265595696,767.3050126871223,100.0
87,1.4515483379364014,755.9219718077669,6.952981425624787,767.21338051142,727.0987911422558,100.0,2.646483626963095,0.1,0.00882720947265625,0.18594908714294434,0.03144761,0.021406928,752.670670181976,-0.008325053190955113,7.545841613475711,100.0,9600,1.3611397743225098,0.00010115939874203433,9.836424162088619e-05,763.3085200623833,100.0
88,1.509943962097168,756.0401229994935,6.877486296679604,767.1937341828485,735.1291548803069,100.0,3.3691795364126786,0.1,0.008957624435424805,0.21384000778198242,0.037776705,0.018652374,753.0076154637277,-0.00839063069958524,7.5470260359670815,100.0,9600,1.345233678817749,9.595008336922217e-05,9.30008454467917e-05,767.3044109197688,100.0
89,1.4154648780822754,754.7002837104682,7.438359691228667,767.2679175009704,731.1406940362498,100.0,2.7522054405426175,0.1,0.008493661880493164,0.18073463439941406,0.031199738,0.019754361,753.1768822884018,-0.008456754339611558,7.533626578993721,100.0,9600,1.3135356903076172,0.00011761816187280268,0.00012787909166019426,767.3168251666258,100.0
90,1.4489669799804688,755.2131640147671,7.202068804443839,767.2479390267381,739.0498588250144,100.0,2.97241079070095,0.1,0.008671998977661133,0.18870162963867188,0.03470515,0.0181624,753.3805104610383,-0.00832934061156941,7.539170659388431,100.0,9600,1.375631332397461,0.00014137982192615123,0.00012734305738658472,767.3331519395849,100.0
91,1.3119723796844482,756.217458939644,6.133022199905015,767.2266870285007,739.0820574832172,100.0,2.889056115940052,0.1,0.01112818717956543,0.19388699531555176,0.038473256,0.016084708,753.6642053088989,-0.008286248189483663,7.54879708514385,100.0,9600,1.3499488830566406,9.131816909076965e-05,8.415550139351515e-05,767.3064920430588,100.0
92,1.3831827640533447,756.422552608192,5.916422836944167,767.272175663576,739.0399646821729,100.0,2.9997925330981663,0.1,0.016216516494750977,0.18733668327331543,0.04559403,0.02920847,753.9400400388282,-0.008318968576846284,7.550847698089821,100.0,9600,1.3591511249542236,7.992711737751913e-05,8.511199121054258e-05,763.3242236622052,100.0
93,1.5518674850463867,756.0863791327598,5.800156206828306,767.2075527305906,739.1309729817748,100.0,3.4725162595364787,0.1,0.008417129516601562,0.25049757957458496,0.035015684,0.013382887,754.1546739482213,-0.008347043839949423,7.547486289493384,100.0,9600,1.3503367900848389,8.492154472342045e-05,8.231338617772727e-05,763.2753772614282,100.0
94,1.3439109325408936,757.1740947377598,6.234425959845357,767.2353700771948,735.0981437974591,100.0,3.34341638712225,0.1,0.009031295776367188,0.20762109756469727,0.04248166,0.025195973,754.4566160271752,-0.00830193929566836,7.558781394037664,100.0,9600,1.3009045124053955,9.105549078947559e-05,9.085773778599308e-05,767.3338686076753,100.0
95,1.352940320968628,756.6394603096572,6.681497868616283,767.2968318749438,739.0447163628388,100.0,2.747626065672807,0.1,0.00902867317199707,0.20267796516418457,0.036323503,0.021423072,754.6749004554234,-0.008232748567120236,7.5530172514328795,100.0,9600,1.3176050186157227,8.982522737639494e-05,8.892038422420659e-05,763.2828723508435,100.0
96,1.2954332828521729,756.0947306041702,6.984443397764148,767.2596833244854,731.1205510938123,100.0,3.7957207281509215,0.1,0.008712053298950195,0.18046069145202637,0.040112182,0.017529318,754.8168834702981,-0.00826395078993239,7.547569382543401,100.0,9600,1.2439117431640625,0.00011074048407117078,0.00010541842754378969,767.2853134945918,100.0
97,1.4249961376190186,757.680179580245,6.242329443019101,767.2824037196555,735.079767642457,100.0,3.979663005870116,0.1,0.008992433547973633,0.22297024726867676,0.036392894,0.015659465,755.1032130812928,-0.008241445861917952,7.563425220804748,100.0,9600,1.346287727355957,8.979665678643664e-05,8.817099156663184e-05,763.327226077438,100.0
98,1.4212794303894043,757.185151925852,6.4012524021441095,767.2618658114336,735.0908165740245,100.0,2.9509936391578386,0.1,0.0090179443359375,0.20194244384765625,0.03845914,0.021363743,755.3114069657487,-0.008194207287315259,7.5584724593793515,100.0,9600,1.3038971424102783,9.496195312404227e-05,0.00010017719867233981,767.3270452318673,100.0
99,1.2947824001312256,758.7312576577473,5.877961429119371,767.2427196238843,739.0897581947185,100.0,2.990509558393045,0.1,0.008396148681640625,0.1816089153289795,0.033456683,0.021380035,755.6533920349485,-0.00814894571198174,7.573934387621352,100.0,9600,1.2933332920074463,6.974992601467112e-05,6.414143366311461e-05,767.3053811861337,100.0
100,1.4987413883209229,758.7304818323241,5.982085567640224,767.2335589824735,739.1533985919357,100.0,3.456955542241533,0.1,0.009136676788330078,0.21203231811523438,0.04255557,0.019235887,755.961101014686,-0.008153604434644442,7.5739297288986895,100.0,9600,1.41200590133667,7.397277977633687e-05,7.371347986130258e-05,767.2880984027199,100.0
101,1.344233512878418,758.0668319993601,5.860671581884655,767.2178593316136,739.1409352612029,100.0,3.2301267422311324,0.1,0.008772850036621094,0.1979823112487793,0.04184919,0.02163651,756.1716741131535,-0.008125498920926608,7.567707834412407,100.0,9600,1.3392391204833984,7.571157006806653e-05,7.448463930038618e-05,767.2928517808359,100.0
102,1.4797062873840332,757.72465179676,6.681165947727889,767.2283072782731,739.0953429189436,100.0,3.1936250577066088,0.1,0.009300947189331055,0.19833636283874512,0.04021908,0.026419146,756.3269718815142,-0.0082126435621456,7.5638706897711865,100.0,9600,1.3826313018798828,8.993498239322514e-05,9.386896261691563e-05,767.3301642804525,100.0
103,1.3997249603271484,759.7759267318494,5.212366854612229,767.2650661437357,747.1253900784968,100.0,3.292628171893952,0.1,0.008534669876098633,0.18222665786743164,0.038237046,0.022813942,756.6718673665478,-0.008118214849099213,7.5843817851509,100.0,9600,1.319382905960083,7.011449910835886e-05,5.6956970347885364e-05,767.3134286680241,100.0
104,1.4459407329559326,758.3145416201108,6.369523090940338,767.2548801294989,735.11594675638,100.0,2.923095066640626,0.1,0.008484601974487305,0.2124805450439453,0.03377607,0.019399365,756.836134791904,-0.008146236753803453,7.570187096579531,100.0,9600,1.3522298336029053,7.717955752193063e-05,7.533747950919232e-05,767.3262809936261,100.0
105,1.4309313297271729,758.9387076738576,5.520074197926962,767.2646934798169,747.1051843316824,100.0,3.9098218782020866,0.1,0.009006023406982422,0.18924355506896973,0.036791533,0.0170274,757.0463920800994,-0.008154910796300728,7.576428422537032,100.0,9600,1.3330800533294678,7.222387349958521e-05,7.059826135114022e-05,767.2988967015859,100.0
106,1.423274040222168,758.3525783982055,6.552123671956672,767.2160933016929,739.0363170571529,100.0,3.1527654093079773,0.1,0.008845090866088867,0.20819783210754395,0.04368351,0.024242071,757.17701071191,-0.008185327223529106,7.570148006109804,100.0,9600,1.3449692726135254,9.102387186929536e-05,9.08188542547416e-05,763.253913205567,100.0
107,1.3896713256835938,759.1404655621594,5.693002367499135,767.2667215545001,743.1177815886986,100.0,3.5125779659228424,0.1,0.008646726608276367,0.21535158157348633,0.04244569,0.023491887,757.373356196935,-0.008222941072498435,7.5780270589275025,100.0,9600,1.3910317420959473,7.143986304502498e-05,8.43807402609778e-05,767.3231958211886,100.0
108,1.3802587985992432,758.9716219253501,6.667141677197225,767.2667443768469,723.0692372026317,100.0,3.2904308747339943,0.1,0.008812189102172852,0.20090579986572266,0.03299892,0.0148602845,757.5331827697765,-0.008245068996526777,7.576338264336807,100.0,9600,1.3932549953460693,9.674870731270383e-05,8.511508383330868e-05,763.2931125546961,100.0
109,1.6355836391448975,759.0176897951075,5.271977525907127,767.2577992211964,743.1442740592819,100.0,3.2411012417439595,0.1,0.00897526741027832,0.19944381713867188,0.042645343,0.028533345,757.6816334723096,-0.008200938582162181,7.576799061417837,100.0,9600,1.3212087154388428,7.173376656871992e-05,7.101367303021052e-05,763.3125713561425,100.0
110,1.427807331085205,758.842101245231,6.2878228125143965,767.2827882948664,739.0733382937135,100.0,3.131494981828489,0.1,0.008165121078491211,0.1866140365600586,0.0405974,0.02262316,757.7976802496017,-0.008289914181264686,7.5750434191520695,100.0,9600,1.3487403392791748,9.958432362625077e-05,8.84540120942485e-05,767.2735789000229,100.0
111,1.5118718147277832,758.1723116004323,6.49896003115661,767.2344103436571,735.0761677167128,100.0,3.2393449007096837,0.1,0.008479595184326172,0.1919715404510498,0.045283414,0.025941176,757.8351433846848,-0.008320547897706351,7.56834611876896,100.0,9600,1.338494062423706,9.826656332231689e-05,9.592352402849978e-05,767.2863243828351,100.0
112,1.284654140472412,757.2643791909744,6.8982585814304,767.2635018498819,739.1092980329803,100.0,3.6528800957994765,0.1,0.008605241775512695,0.18782806396484375,0.028693672,0.009609236,757.7780669653138,-0.008233298864275781,7.559266701135724,100.0,9600,1.3232789039611816,0.00010873641377303837,0.00010485418962636819,767.317613332635,100.0
113,1.4110498428344727,759.3954911155256,6.7137016269926475,767.2593517599847,735.1047232488368,100.0,3.1645744286555133,0.1,0.01335000991821289,0.204695463180542,0.041105725,0.027370214,757.939809380335,-0.008174594200317064,7.580575405799682,100.0,9600,1.3274950981140137,9.854253138958929e-05,9.167877613793814e-05,763.3053316424019,100.0
114,1.3878796100616455,759.8928859777934,4.850412018813646,767.242302216897,747.0827604782457,100.0,3.74244905286931,0.1,0.00892496109008789,0.19809603691101074,0.036227692,0.01749465,758.1351170400809,-0.008199272748383904,7.585550727251618,100.0,9600,1.3266630172729492,6.075256159199512e-05,5.649066774978317e-05,767.3263214430453,100.0
115,1.4503083229064941,758.3516403429712,6.319637169200322,767.2608108317228,731.0949040706726,100.0,3.8597320619819615,0.1,0.008594274520874023,0.18351435661315918,0.041228887,0.01708999,758.15676937037,-0.00819635740714471,7.5701369759261885,100.0,9600,1.3297131061553955,9.584199466998771e-05,9.962539667610121e-05,755.2931679809216,100.0
116,1.5672593116760254,760.2757545625694,5.261765423445762,767.247505889976,743.0636886169893,100.0,4.391979169159346,0.1,0.008452892303466797,0.18438005447387695,0.03623317,0.014060627,758.3686678895899,-0.008119916518513246,7.589380083481487,100.0,9600,1.298957109451294,8.582674727387062e-05,6.808475135210089e-05,767.32258737377,100.0
117,1.441723108291626,759.6408560437313,6.100502798771937,767.248248724604,743.1109083304285,100.0,3.0921354509473202,0.1,0.008523702621459961,0.1984407901763916,0.032634825,0.017178608,758.4958867050041,-0.008219267071924406,7.5830307329280755,100.0,9600,1.340214490890503,9.173180280890378e-05,9.120899387833065e-05,767.3226242216423,100.0
118,1.2476239204406738,758.8558028948995,5.9806011166477235,767.2682444962643,739.1267700816209,100.0,3.946813874920282,0.1,0.008341789245605469,0.18210411071777344,0.04377805,0.017510327,758.5318783239936,-0.008152504950617883,7.575180828382716,100.0,9600,1.334979772567749,7.714347951553698e-05,7.729165197978992e-05,759.3245981382056,100.0
119,1.4828624725341797,759.2347433186975,5.880195346819316,767.2294668254754,739.1737181229355,100.0,2.9037835332928617,0.1,0.01099395751953125,0.23965740203857422,0.04248344,0.024150645,758.602164823464,-0.00811392982716066,7.578969403506172,100.0,9600,1.370943546295166,6.865532461358624e-05,6.788813217907702e-05,767.344261829508,100.0
120,1.4512252807617188,758.1018954999981,6.642117097325426,767.2390088782914,739.0851148428147,100.0,3.1579541880928224,0.1,0.00887441635131836,0.2073071002960205,0.04433044,0.028600166,758.5521378911175,-0.00819059966459646,7.567642733668737,100.0,9600,1.3692753314971924,0.00011661103094760911,0.00011436750961175569,767.3236842254668,100.0
121,1.3538150787353516,759.3546425001969,5.6647689448970215,767.2452011560558,735.1144169733278,100.0,3.23350038599231,0.1,0.008875370025634766,0.20060443878173828,0.046702683,0.023003668,758.6323883520254,-0.008165092349621301,7.580168240983713,100.0,9600,1.3776907920837402,9.831751424831482e-05,7.949231742812513e-05,763.2906272928572,100.0
122,1.4570319652557373,759.9018849489412,6.075315523940984,767.2649503199812,743.0921972502312,100.0,3.3959571103540895,0.1,0.00843501091003418,0.19805216789245605,0.04616678,0.02332151,758.759338011717,-0.008111626626541036,7.585638373373459,100.0,9600,1.3655657768249512,6.530567779018404e-05,7.379537775729863e-05,763.2608032464115,100.0
123,1.417759895324707,759.3596503496492,6.28728894633936,767.2473173060372,735.1182911270506,100.0,3.686777170836968,0.1,0.00847482681274414,0.181931734085083,0.04585488,0.024786824,758.8193692455103,-0.008111899442655378,7.580221433890678,100.0,9600,1.3417103290557861,0.00011760454109522834,0.00013507772631555744,767.2799346985248,100.0
124,1.625561237335205,760.9451289248168,5.073099253377769,767.2714009742446,747.1223107412586,100.0,3.184787815264295,0.1,0.00843954086303711,0.1831073760986328,0.045824546,0.026885815,759.031945213441,-0.008093593600486455,7.596073073066179,100.0,9600,1.3543658256530762,7.761889970615059e-05,5.400698095833905e-05,767.3265484368995,100.0
125,1.3724162578582764,760.1102834137932,5.66012406024754,767.2687423014636,735.1315052935519,100.0,3.348359011554611,0.1,0.008949756622314453,0.21431922912597656,0.041839607,0.020538485,759.1397790334762,-0.00810949128420721,7.587723842049127,100.0,9600,1.3490493297576904,6.51823839736738e-05,7.137171203706403e-05,767.3424043958706,100.0
126,1.3852264881134033,761.1916378910631,5.1442826068997665,767.2454412000604,747.1703597137918,100.0,3.8021771445462647,0.1,0.008668661117553711,0.19992733001708984,0.044915732,0.028950425,759.3449649192349,-0.008127655251685052,7.598955678081649,100.0,9600,1.4024980068206787,5.474405946161815e-05,4.905516486378496e-05,767.3117074126113,100.0
127,1.242638111114502,760.023369113081,6.094665859852405,767.2755885236979,739.167489654838,100.0,3.165307694005707,0.1,0.008671045303344727,0.18351244926452637,0.044356033,0.027738627,759.4128053386196,-0.008144358338572065,7.586855641661427,100.0,9600,1.3622195720672607,8.18305471619162e-05,8.082072965833973e-05,767.3196071975588,100.0
128,1.3944947719573975,760.2435413280481,6.131896225453244,767.2510996606487,735.1293858543959,100.0,3.295814017413613,0.1,0.008920907974243164,0.1833488941192627,0.037565697,0.02145483,759.4958789375625,-0.00802516431661093,7.589058169016721,100.0,9600,1.4031517505645752,8.346926633603333e-05,8.095720359466838e-05,767.3117200855314,100.0
129,1.4476406574249268,761.7835148856515,4.523974786841875,767.2690123282312,747.1490407130296,100.0,3.634570899884442,0.1,0.009153127670288086,0.2457740306854248,0.04573578,0.02158736,759.7246425323714,-0.008043045006938932,7.604456954993061,100.0,9600,1.388486623764038,5.626730308963324e-05,5.385977132768395e-05,767.3188158411949,100.0
130,1.3635027408599854,761.618253200314,4.791717067667939,767.2667068393055,747.1244517415213,100.0,3.252020034006751,0.1,0.008522272109985352,0.18215441703796387,0.043111596,0.02274665,759.9140035991657,-0.00802713281415362,7.602806200519178,100.0,9600,1.2966930866241455,5.412428319960507e-05,5.387719498364025e-05,767.3338623438159,100.0
131,1.3988916873931885,760.8255449505177,5.449808405773494,767.251419137175,747.1291665484769,100.0,3.9446890109208765,0.1,0.008171558380126953,0.18160104751586914,0.034316078,0.015672503,760.005157734301,-0.008037163212092418,7.594879503454574,100.0,9600,1.3056058883666992,7.249752007148137e-05,8.154819306831786e-05,767.3364937794493,100.0
132,1.516965389251709,761.0777172024278,5.0166113203119265,767.2662968615305,739.0743816422058,100.0,3.047889085479344,0.1,0.008848190307617188,0.21108198165893555,0.030816475,0.015883729,760.1124136811137,-0.00801585876075363,7.597400807905913,100.0,9600,1.367293119430542,7.62697299351126e-05,6.108194811306757e-05,767.352575332126,100.0
133,1.3353426456451416,761.4572810543472,5.603886180837038,767.2591051206616,743.1698140690282,100.0,3.1396561239629954,0.1,0.008326530456542969,0.18387722969055176,0.041246586,0.019424193,760.2469004184371,-0.007970575805547766,7.6011960908611185,100.0,9600,1.3137812614440918,6.92347713916746e-05,7.069751680639544e-05,767.3438204405415,100.0
134,1.334089756011963,760.8248218302425,5.538441548910663,767.2701294508162,735.1314352741225,100.0,3.5924554463584757,0.1,0.010406255722045898,0.26985669136047363,0.046611767,0.021718008,760.3046925596177,-0.008046670739088305,7.594869995927578,100.0,9600,1.3241558074951172,8.626973417723238e-05,9.414080996537793e-05,767.3342435564779,100.0
135,1.4291257858276367,760.8694979504062,5.388036212814586,767.2618251749158,743.1738098344592,100.0,3.684810657866625,0.1,0.008387565612792969,0.18995976448059082,0.037856076,0.014667602,760.3611730986966,-0.008014048057768302,7.595319285275565,100.0,9600,1.3341445922851562,6.730556582770371e-05,5.9998972983334185e-05,763.3124443160543,100.0
136,1.5525519847869873,761.951615601845,5.912148255585812,767.2866719194888,739.1949807367309,100.0,3.305669016603427,0.1,0.008833169937133789,0.19923615455627441,0.043661237,0.02291941,760.5202173490114,-0.008029784695278049,7.606136881971388,100.0,9600,1.3563470840454102,6.942899173255925e-05,6.584318170197766e-05,767.3342154213632,100.0
137,1.473949909210205,762.0356418572231,5.007217156929183,767.2822665008964,747.1474774583482,100.0,3.278439629824897,0.1,0.008997678756713867,0.18019819259643555,0.036375143,0.019683907,760.6717597998327,-0.008020738510325054,7.606979261489674,100.0,9600,1.3255274295806885,5.990385630745638e-05,5.83160717113595e-05,767.3031120050416,100.0
138,1.4713289737701416,761.5024417796498,5.36173294490862,767.2735324937056,743.1314671489204,100.0,3.0154461344847734,0.1,0.00912332534790039,0.19837260246276855,0.045268267,0.022697212,760.7548279978143,-0.007936039221177497,7.602063960778824,100.0,9600,1.3631207942962646,7.199683547103463e-05,8.322206063354426e-05,767.2978923914666,100.0
139,1.4687283039093018,762.1249809460128,4.688427230647945,767.2744672615012,743.0921588475663,100.0,2.867299391727895,0.1,0.016555309295654297,0.1812891960144043,0.048167285,0.025033956,760.8918432926342,-0.007959758578462683,7.60787357475487,100.0,9600,1.3216056823730469,6.045229231240759e-05,3.640402744360978e-05,767.3485860099405,100.0
140,1.3238673210144043,761.4090284764496,5.453926665728749,767.2565772471796,747.1465851349574,100.0,3.971040472669485,0.1,0.01094675064086914,0.19140982627868652,0.04393021,0.01885018,760.9435618110158,-0.008038892555678016,7.600711107444322,100.0,9600,1.342278242111206,6.802384678256252e-05,7.326635544055492e-05,767.3114004855522,100.0
141,1.4268255233764648,761.4557073572383,5.392615013708651,767.2593406097474,743.2041523520335,100.0,3.2654854285398134,0.1,0.009275197982788086,0.20125818252563477,0.033528473,0.015501063,760.994776365638,-0.007987362271332612,7.601179304395335,100.0,9600,1.407914161682129,6.32838347374931e-05,5.8925034983021616e-05,767.315165603358,100.0
142,1.4229416847229004,762.2503826224521,4.61724766717151,767.2549939296824,747.1765936977582,100.0,4.202616947800904,0.1,0.009098291397094727,0.20128583908081055,0.045792177,0.015058653,761.1203369913195,-0.007957272749061104,7.6091260605842725,100.0,9600,1.3730335235595703,5.509054715579484e-05,5.2891455658171383e-05,767.3383657317033,100.0
143,1.4146265983581543,762.6647921221319,4.973586075704085,767.2762381107298,751.1355536661857,100.0,3.477781518259536,0.1,0.009290933609008789,0.2154850959777832,0.041195028,0.021167655,761.2747825044007,-0.00798059367837236,7.613269406321628,100.0,9600,1.365285873413086,5.202598256555731e-05,5.564157705728124e-05,767.3282440680883,100.0
144,1.4031295776367188,762.8329388740252,4.214131121754019,767.2730009014067,743.1510962032222,100.0,3.773711391036288,0.1,0.0083770751953125,0.18024039268493652,0.044132873,0.020948926,761.4305981413631,-0.007963872560313836,7.614952794106354,100.0,9600,1.303541898727417,5.9990112365299194e-05,5.299956371812249e-05,767.3312629618298,100.0
145,1.387648105621338,762.7567181058384,4.171764730729129,767.269319026703,747.2254924081133,100.0,4.16733291550564,0.1,0.009057283401489258,0.19929289817810059,0.039288394,0.0155163305,761.5632101378106,-0.007892921387685116,7.614190411945647,100.0,9600,1.4645054340362549,4.284316228405238e-05,4.33092346493612e-05,767.3058453596199,100.0
146,1.459160566329956,761.3332631839036,6.179221631522382,767.2691826766722,739.1612165943335,100.0,3.4336260214002903,0.1,0.008472681045532227,0.19890999794006348,0.037977725,0.016153887,761.5402154424199,-0.00796163974524998,7.599955026921417,100.0,9600,1.416914463043213,8.88655171414612e-05,9.36606555364677e-05,767.3316391379118,100.0
147,1.4078106880187988,762.5348889439571,4.321248939438801,767.2551024070682,751.1531799741157,100.0,3.68444097678063,0.1,0.008707046508789062,0.18418025970458984,0.040726133,0.018575586,761.6396827925736,-0.008029250379532801,7.611970749620467,100.0,9600,1.3386032581329346,6.688511281943163e-05,6.303153952547019e-05,767.3508370762319,100.0
148,1.5384156703948975,763.4132645561408,4.0660625022222945,767.2615304135333,751.1837776801294,100.0,3.46270806875149,0.1,0.008786439895629883,0.1984846591949463,0.044563446,0.019568428,761.8170409689303,-0.007996562639276198,7.620753437360723,100.0,9600,1.3720061779022217,5.7518205779287396e-05,3.770723118648333e-05,767.3150083390808,100.0
149,1.5831146240234375,762.921458814299,4.777041374632966,767.291328801768,747.1873951779274,100.0,3.5677956977799026,0.1,0.009027481079101562,0.2089240550994873,0.0415477,0.016437387,761.9274827534672,-0.007912042684760052,7.615837957315239,100.0,9600,1.3766543865203857,6.0255746877650504e-05,6.464805493985422e-05,767.3692685454444,100.0
150,1.4306702613830566,763.0412346538491,5.01145413672881,767.2565997300757,743.1643130106264,100.0,4.237545877257809,0.1,0.009095191955566406,0.2102949619293213,0.040844083,0.01821833,762.0388579435054,-0.007965260160655248,7.617451406506011,100.0,9600,1.380889892578125,6.665792354102451e-05,6.302153296017815e-05,767.3591630734138,100.0
151,1.3997044563293457,762.4084369734104,5.388287989195415,767.2618324237999,739.0588449877584,100.0,3.073360863738702,0.1,0.008426427841186523,0.1812279224395752,0.048277732,0.024132013,762.0758158464959,-0.008044224720554466,7.610705775279446,100.0,9600,1.3376238346099854,5.7893201423405376e-05,5.8488564644642836e-05,767.3684875452182,100.0
152,1.4532725811004639,762.0797744272923,4.69073314027446,767.2670785051087,747.1635853303716,100.0,3.6416691214030465,0.1,0.008774280548095703,0.18780136108398438,0.04280514,0.021634905,762.0762117045755,-0.007994680292731579,7.608255319707268,100.0,9600,1.3707022666931152,6.131012003443035e-05,5.45094505466854e-05,767.365536060602,100.0
153,1.4020891189575195,761.7472904603292,5.404587197860837,767.267759231379,747.0822962348359,100.0,2.987682300954983,0.1,0.05033397674560547,0.19363975524902344,0.04333742,0.020018805,762.0433195801509,-0.007987861132116398,7.604095472201216,100.0,9600,1.3617336750030518,7.171336981639094e-05,9.255648849708228e-05,767.334099224125,100.0
154,1.2855854034423828,762.8338745542145,4.218650818801949,767.2661045580043,751.1204320677649,100.0,4.059358563663152,0.1,0.010872602462768555,0.20063543319702148,0.04115884,0.016624074,762.1223750775573,-0.007955192830486965,7.614961473836179,100.0,9600,1.4091181755065918,7.697612072977121e-05,4.770580939716368e-05,767.337476590407,100.0
155,1.454376220703125,762.5013720268186,5.048453222741194,767.2661474139414,739.0935995053921,100.0,4.038861443319711,0.1,0.009403228759765625,0.19913768768310547,0.04093811,0.017078498,762.1602747724835,-0.00794659571158039,7.611636737621754,100.0,9600,1.3994252681732178,5.7008365058884726e-05,6.209312409992294e-05,767.3359963804282,100.0
156,1.2959694862365723,760.8304476083076,6.169693841809826,767.2655978861098,731.1460315104756,100.0,2.826033149847642,0.1,0.008920907974243164,0.20258831977844238,0.042549107,0.023238586,762.0272920560659,-0.00799025306859035,7.594926413598077,100.0,9600,1.40565824508667,8.530817600950244e-05,7.495674653625831e-05,767.3403125350814,100.0
157,1.6383981704711914,762.0434948309215,4.291584091201545,767.2931898200738,747.182850123862,100.0,3.436310877806159,0.1,0.009043693542480469,0.21459555625915527,0.03868894,0.021168182,762.0289123335515,-0.007941692553961,7.607058307446039,100.0,9600,1.3695645332336426,5.371430531408507e-05,6.812423758008327e-05,767.3647238480027,100.0
158,1.4030065536499023,762.7960447732939,5.622836665378989,767.2679796877445,735.1740242743778,100.0,2.505740153289711,0.1,0.008933782577514648,0.20176362991333008,0.049308985,0.024026198,762.1056255775258,-0.007917547684714364,7.614582452315285,100.0,9600,1.289724349975586,7.430502300088645e-05,5.828290860643624e-05,767.3373151492918,100.0
159,1.403503656387329,762.8788431540853,4.120482217109744,767.2534575110611,747.2002138708958,100.0,3.6135779755735324,0.1,0.009180545806884766,0.19893836975097656,0.04595879,0.018436704,762.1829473351817,-0.007919744955312906,7.615830255044686,100.0,9600,1.343698501586914,4.8797031444218764e-05,3.782574300877869e-05,767.3442487937249,100.0
160,1.3318486213684082,762.999157306626,3.9863806296271993,767.2629371128205,751.1515514267796,100.0,4.412680621724438,0.1,0.009009122848510742,0.21154093742370605,0.043024845,0.016929,762.2645683323261,-0.007970823973286698,7.616612509360046,100.0,9600,1.370936632156372,4.229100055265307e-05,5.028646788618415e-05,767.3363633484738,100.0
161,1.3923473358154297,762.9585645513906,4.325444217073581,767.2836952164779,743.1782805664649,100.0,3.954485204644607,0.1,0.010073423385620117,0.2005753517150879,0.039516095,0.016882997,762.3339679542325,-0.007957872469230614,7.616208794197436,100.0,9600,1.399324893951416,5.2973407915878304e-05,6.96039179810826e-05,767.3511902684476,100.0
162,1.34381103515625,762.9174116530239,4.603417907237636,767.2867373425863,751.1459063688926,100.0,3.7682648509053984,0.1,0.009727001190185547,0.18532180786132812,0.044581052,0.020043887,762.3923123241117,-0.007955146931686396,7.615794853068313,100.0,9600,1.39031982421875,7.97724002007976e-05,5.2207663410509595e-05,767.3492396218483,100.0
163,1.2678062915802002,763.0001889918321,4.7195302514065745,767.2835106937224,751.1039229570838,100.0,4.388339471744095,0.1,0.017327547073364258,0.22005271911621094,0.04357272,0.013114854,762.4530999908837,-0.007958610745093991,7.616624722588239,100.0,9600,1.420210599899292,4.970123722033893e-05,4.902534751793287e-05,767.3479274503529,100.0
164,1.5441815853118896,762.9181537510191,5.24986442524066,767.2883098491745,743.151954632821,100.0,3.633239999152092,0.1,0.008549213409423828,0.19530081748962402,0.038272467,0.01641438,762.4996053668973,-0.007945796668585787,7.615804203331415,100.0,9600,1.3024652004241943,5.547895467502813e-05,5.6399496373807874e-05,767.3462969194386,100.0
165,1.5820400714874268,762.7115918036592,4.263168129607941,767.2793982625353,751.1402173453306,100.0,3.0891966312885426,0.1,0.008900165557861328,0.19704198837280273,0.04569379,0.024674423,762.5208040105734,-0.00792828240081244,7.614155050932521,100.0,9600,1.3246746063232422,3.789288546178684e-05,3.826324225986958e-05,767.3420327982062,100.0
166,1.401369571685791,763.0008923175004,4.783300661717084,767.2732847201124,743.2053623448583,100.0,2.9960523492386657,0.1,0.034008026123046875,0.21229243278503418,0.03482407,0.018221866,762.5688128412661,-0.00795119595859175,7.616632137374743,100.0,9600,1.4108726978302002,5.450811104932978e-05,5.330626536021327e-05,767.3140267474157,100.0
167,1.3452215194702148,763.5031847371434,4.457976117532586,767.2556773223314,747.1848401504517,100.0,3.743452516077127,0.1,0.009649515151977539,0.1945178508758545,0.046624146,0.020525591,762.6622500308538,-0.007930125483191407,7.621653207850142,100.0,9600,1.387308120727539,4.474180376712992e-05,4.606801724296634e-05,767.3379202163286,100.0
168,1.3383302688598633,763.503035077035,4.104944070913998,767.3036418394288,747.1406189594018,100.0,3.655063841403321,0.1,0.008759260177612305,0.21122097969055176,0.039826483,0.014672367,762.746328535472,-0.007930937676853015,7.62165239565648,100.0,9600,1.3399813175201416,4.5870502761047014e-05,4.3538877311604e-05,767.329443151905,100.0
169,1.4297428131103516,764.0476322915514,3.8827822419341476,767.2942944004116,751.1757720407509,100.0,3.846464456285903,0.1,0.009203910827636719,0.20040178298950195,0.045241866,0.021795275,762.87645891108,-0.00790129662102008,7.627515370045647,100.0,9600,1.4119758605957031,4.213819006502437e-05,4.189123759536687e-05,767.3013390303604,100.0
170,1.4307425022125244,763.5439117381002,4.5106826031746845,767.263938222955,743.1253420941192,100.0,4.213179433897849,0.1,0.008811712265014648,0.19703173637390137,0.04186586,0.016744832,762.943204193782,-0.007938642619911396,7.622061357380088,100.0,9600,1.3784239292144775,4.923728464972468e-05,4.877949039639697e-05,767.3144514356268,100.0
171,1.4680328369140625,763.3744586288839,4.248462914465951,767.2999697472866,743.1903066275445,100.0,4.149149526793566,0.1,0.008524656295776367,0.206770658493042,0.044703655,0.02070615,762.9863296372921,-0.007967533308912568,7.6203658000244205,100.0,9600,1.370774745941162,5.1787399016268205e-05,5.123193281264032e-05,767.3189709765913,100.0
172,1.4858262538909912,763.1272104122125,4.6637627662780465,767.2835760238797,743.1771866801671,100.0,3.5397684500314366,0.1,0.008880376815795898,0.19759893417358398,0.047035377,0.022176307,763.0004177147841,-0.00793892165577638,7.617894411677557,100.0,9600,1.3951432704925537,4.867481494677942e-05,4.828832814051191e-05,767.3077962682904,100.0
173,1.4748666286468506,764.3418297550315,3.207407139138653,767.2849557412914,755.1752280182475,100.0,3.9011146543317974,0.1,0.008769512176513672,0.23420429229736328,0.044859674,0.019753521,763.1345589188089,-0.007876007411684274,7.630040659254983,100.0,9600,1.4448277950286865,2.6996118874979634e-05,2.636281494269493e-05,767.332339791445,100.0
174,1.3290278911590576,763.4636214938787,4.001680505240314,767.2941147044354,751.1305941517317,100.0,3.3855116690751808,0.1,0.01674818992614746,0.18482637405395508,0.047176197,0.017328344,763.167465176316,-0.007905971568870533,7.621260695097796,100.0,9600,1.4149019718170166,3.5065693385503505e-05,3.548376183449835e-05,767.3387094976961,100.0
175,1.3669285774230957,762.7491730937583,5.010710467117255,767.263878324004,747.1124545572418,100.0,3.3713436475744887,0.1,0.009000778198242188,0.19627046585083008,0.03600758,0.0206836,763.1256359680602,-0.0079677242941331,7.6141156090391995,100.0,9600,1.3912365436553955,5.844069276412582e-05,5.56566441263989e-05,767.3002437021928,100.0
176,1.3819401264190674,763.6328320894048,3.6345893712160233,767.2680522294658,755.1719593408262,100.0,3.2972655079767828,0.1,0.008349895477294922,0.21286725997924805,0.039097965,0.013853039,763.1763555801947,-0.007881931390113473,7.62295140194322,100.0,9600,1.4041643142700195,3.8375588141732234e-05,4.750782855458136e-05,767.3542897423101,100.0
177,1.4693586826324463,763.672301732037,3.8799810149305567,767.2780202699737,751.1833733511007,100.0,3.6902786934296623,0.1,0.008994579315185547,0.2020883560180664,0.035851613,0.019085815,763.2259501953789,-0.007903401507383423,7.623763265159283,100.0,9600,1.4481663703918457,5.184619177733903e-05,4.16830122351621e-05,767.3308448873555,100.0
178,1.4255430698394775,763.4238640990197,4.149435262305202,767.2744690802272,747.1491018890683,100.0,3.288105860465443,0.1,0.00914454460144043,0.18405556678771973,0.043499727,0.019295232,763.2457415857431,-0.007887747783536734,7.620862252216463,100.0,9600,1.4289507865905762,3.7840446563940276e-05,3.728046237850414e-05,767.3164848429448,100.0
179,1.403709888458252,763.8408880566029,3.679966972337147,767.2868488609902,755.1527416661662,100.0,3.0849386559465777,0.1,0.02061915397644043,0.21916532516479492,0.03635029,0.019935396,763.3052562328292,-0.007886721257291287,7.625029945409376,100.0,9600,1.5347473621368408,3.6840985139431565e-05,3.752348341099782e-05,767.321673681174,100.0
180,1.3515303134918213,763.5882881944627,4.846392415522569,767.258211272022,747.1289774479995,100.0,4.377465840168797,0.1,0.009649515151977539,0.19339299201965332,0.04527575,0.01878282,763.3335594289924,-0.007911466983588444,7.622505199683078,100.0,9600,1.5054881572723389,5.461245672877732e-05,5.426630303385383e-05,767.3211372891876,100.0
181,1.6050939559936523,763.720236113832,4.262812059539601,767.2722432078992,751.1703410179504,100.0,3.3424260348057615,0.1,0.00910496711730957,0.2153630256652832,0.035621487,0.017166333,763.3722270974764,-0.007841674153930247,7.623824992512737,100.0,9600,1.4508464336395264,5.46977727283213e-05,5.420451075759048e-05,767.3196251168569,100.0
182,1.3502213954925537,763.6752114780512,3.749396632459506,767.3086163306634,751.1580136437178,100.0,3.835316482835624,0.1,0.00917959213256836,0.20186662673950195,0.04520322,0.019641092,763.4025255355339,-0.007875821676364655,7.623374178323636,100.0,9600,1.4462363719940186,3.438125254541907e-05,4.0664288146428276e-05,767.3273014786965,100.0
183,1.2449216842651367,762.8345337989613,4.880911724737561,767.2770489816976,747.1519237646609,100.0,4.1931163877938875,0.1,0.008720159530639648,0.19760942459106445,0.04324617,0.016642246,763.3457263618767,-0.007950197114020665,7.614966469552646,100.0,9600,1.414717197418213,7.895212592641082e-05,8.809961586681439e-05,767.3395255107779,100.0
184,1.4494357109069824,763.2949042922031,4.372706293276981,767.264561530021,747.155735958416,100.0,4.420631406235266,0.1,0.008520364761352539,0.1991424560546875,0.042624656,0.017673254,763.3406441549093,-0.007930487415598207,7.619569512584401,100.0,9600,1.4411871433258057,7.26018225404049e-05,5.2683465976427695e-05,767.3409598297924,100.0
185,1.4326379299163818,763.7222006845327,4.226728055351383,767.2980140794384,743.1550884802766,100.0,3.8215701835177445,0.1,0.009090662002563477,0.18355965614318848,0.04026134,0.01813672,763.3787998078717,-0.00782141123305721,7.6238452554336105,100.0,9600,1.4589827060699463,4.704536190102496e-05,4.772451239785795e-05,767.3200695127462,100.0
186,1.4327421188354492,763.7570654328941,3.6918680245995183,767.3031048394864,751.149500665508,100.0,4.213148961730657,0.1,0.00851297378540039,0.1915264129638672,0.045582276,0.02133261,763.4166263703739,-0.007888048940963116,7.625028617725703,100.0,9600,1.40242600440979,4.2072920370826426e-05,5.273032571772893e-05,767.356959753961,100.0
187,1.3836822509765625,764.2559222643522,4.140937818629292,767.265252552791,747.1486949181201,100.0,3.609133978826286,0.1,0.009432077407836914,0.2010202407836914,0.04149642,0.021024015,763.5005559597718,-0.00790121982638857,7.629182113506945,100.0,9600,1.4262406826019287,3.760433091177355e-05,3.603516677406666e-05,767.3329828329154,100.0
188,1.457357406616211,763.7597553481013,3.732891171517061,767.2775870752167,755.1706329153885,100.0,3.9108411983079328,0.1,0.009798765182495117,0.20054316520690918,0.04355093,0.018907204,763.5264758986046,-0.007863424220733814,7.6242199091125995,100.0,9600,1.3995459079742432,5.646078586235226e-05,4.3145505435005136e-05,767.3331064374656,100.0
189,1.570629358291626,764.000936984799,4.238017957170636,767.2650030406013,747.1855279093879,100.0,3.886748133526568,0.1,0.009695053100585938,0.20406007766723633,0.04548069,0.021749848,763.573922007224,-0.007951700710977594,7.626631632622356,100.0,9600,1.429100751876831,4.8046267980990006e-05,4.791097977896823e-05,767.3116947520468,100.0
190,1.3352859020233154,763.6699612356102,3.919348761634134,767.2938437504299,747.2027015786122,100.0,3.7503935567205597,0.1,0.011616945266723633,0.20279312133789062,0.038577113,0.01820875,763.5835259300627,-0.00792943230581302,7.623320567694186,100.0,9600,1.441279411315918,3.9376703226197885e-05,3.434145774326239e-05,767.313243764545,100.0
191,1.4609203338623047,763.5849460526885,4.595735054106298,767.2931421923621,743.1848854567236,100.0,3.6440270275924362,0.1,0.009463310241699219,0.19258594512939453,0.039791133,0.017227719,763.5836679423253,-0.007945429352391844,7.622471237314275,100.0,9600,1.3638997077941895,5.388551227338075e-05,6.259683251203096e-05,767.3076767915788,100.0
192,1.3741447925567627,764.086395105437,3.626848335071489,767.2753712277557,751.1547674546912,100.0,4.121556898007686,0.1,0.008725881576538086,0.1868448257446289,0.047861397,0.020747874,763.6339406586364,-0.007930890244243833,7.627485776422422,100.0,9600,1.3663020133972168,4.456206288865192e-05,3.482003875393953e-05,767.3393460566065,100.0
193,1.2996690273284912,764.3403861018982,4.040068272922114,767.2668145580768,747.1234269393045,100.0,3.805156656318319,0.1,0.009602069854736328,0.18433928489685059,0.043990817,0.018360624,763.7045852029626,-0.007890409015530722,7.630026257651136,100.0,9600,1.360468864440918,3.5006880292354334e-05,3.898150566564369e-05,767.3075818768982,100.0
194,1.3770053386688232,763.0859170711997,4.30958396518497,767.2592503031055,747.1562634408676,100.0,4.134749088057487,0.1,0.008542299270629883,0.24195289611816406,0.039831724,0.014830964,763.6427183897863,-0.007934422418522193,7.617482244248144,100.0,9600,1.5026042461395264,4.822159382881507e-05,5.49592069952255e-05,767.2926880185657,100.0
195,1.4759349822998047,764.0485929274269,4.046190960709668,767.2640938672486,747.2365659533679,100.0,3.6189482836430322,0.1,0.008900165557861328,0.18726277351379395,0.03837242,0.018293949,763.6833058435503,-0.007889214205357419,7.627110785794643,100.0,9600,1.3917655944824219,5.964773256046168e-05,4.6599856309246986e-05,767.2899780503403,100.0
196,1.395447015762329,764.7121849968844,3.234771712557597,767.2683843967487,755.1490655976181,100.0,3.8769698118699054,0.1,0.008959293365478516,0.20076203346252441,0.03967623,0.015610462,763.7861937588838,-0.007920866325071553,7.633745800341594,100.0,9600,1.443570613861084,2.4906642478308922e-05,2.7288060226802654e-05,767.2907416602102,100.0
197,1.4304680824279785,764.1265655625593,3.862729853029706,767.2693407021088,751.1646754114367,100.0,3.9308612693013205,0.1,0.00860142707824707,0.18918728828430176,0.04363018,0.018941892,763.8202309392514,-0.00794464612743688,7.627888687205896,100.0,9600,1.4681341648101807,4.2918481788031574e-05,4.4191657276997183e-05,767.321266034191,100.0
198,1.4689693450927734,764.1656580817234,3.7453769400573753,767.2624259043877,751.148991825821,100.0,4.054915473335429,0.1,0.00888824462890625,0.18210673332214355,0.039207958,0.017975941,763.8547736534986,-0.007971477788075354,7.628278522211924,100.0,9600,1.3530220985412598,3.7327554104059054e-05,3.314350621330562e-05,767.3446813867753,100.0
199,1.4402146339416504,763.9176711556717,3.8372571474718318,767.2754498415187,747.1435643047632,100.0,3.9848011291225296,0.1,0.008733272552490234,0.2170424461364746,0.04033599,0.017528398,763.8610634037159,-0.00795055421573059,7.62579944578427,100.0,9600,1.3962690830230713,3.94058296412266e-05,3.983157168325287e-05,767.3287099133529,100.0
200,1.4023981094360352,762.9168863640886,4.145279244289651,767.2767056128193,751.1889117567431,100.0,4.230008964914516,0.1,0.01196742057800293,0.20778965950012207,0.037293553,0.015771871,763.7666456997531,-0.007958908173880425,7.615791091826118,100.0,9600,1.433290958404541,5.259596522087628e-05,5.298997801403369e-05,767.3167876081152,100.0
201,1.2806682586669922,763.8351610748672,4.105695555169602,767.2857429636236,751.1627955830928,100.0,3.7606887218311793,0.1,0.00988459587097168,0.24100852012634277,0.041476715,0.018649668,763.7734972372645,-0.007942979320895606,7.624973687345771,100.0,9600,1.3863732814788818,4.582157915351041e-05,4.5732303037788834e-05,767.350279244374,100.0
202,1.289170503616333,764.0461339022326,3.518776822631877,767.2729630962674,751.1818100487367,100.0,4.078962258079356,0.1,0.00966024398803711,0.20175981521606445,0.04427306,0.018956669,763.8007609037613,-0.00791535926638416,7.627084640733616,100.0,9600,1.4456241130828857,3.3153967972505826e-05,5.297113513517352e-05,767.3387312163675,100.0
203,1.2786054611206055,763.7067996269043,3.8074241119044867,767.2624263132049,751.1329672555395,100.0,3.688811111922005,0.1,0.009764432907104492,0.20186305046081543,0.042417254,0.019434672,763.7913647760757,-0.007976670761714042,7.623689995904953,100.0,9600,1.4441070556640625,5.609134042767966e-05,4.129183053065956e-05,767.2984421902188,100.0
204,1.719874620437622,763.8751321603928,3.907607568307894,767.2557124088648,755.1504638281824,100.0,4.276733650733503,0.1,0.00894784927368164,0.19813323020935059,0.043690607,0.015258939,763.7997415145076,-0.00795861053799025,7.625374722795343,100.0,9600,1.4386913776397705,4.045940166979626e-05,3.88103169461394e-05,767.3209849353689,100.0
205,1.3978326320648193,763.2076389268609,4.634623456727919,767.2631720487457,747.2033837426941,100.0,3.857138234739282,0.1,0.008425474166870117,0.1931447982788086,0.043521795,0.018046,763.7405312557429,-0.00796841187968035,7.618698254786987,100.0,9600,1.385523796081543,5.814960058113544e-05,5.905931602251525e-05,767.3170882018954,100.0
206,1.4372353553771973,764.6763154794781,3.12315957943041,767.2975722713537,755.1622375578089,100.0,3.6675867050180755,0.1,0.01114797592163086,0.20433425903320312,0.043647286,0.02365873,763.8341096781164,-0.007864457369708137,7.633385542630292,100.0,9600,1.439983606338501,2.692280227982922e-05,2.4553367773000612e-05,767.3114665767062,100.0
207,1.4320952892303467,764.464386970299,3.897348006823486,767.3105904455626,747.1775816173773,100.0,3.814096442658141,0.1,0.008735179901123047,0.2457733154296875,0.04826573,0.022399766,763.8971374073346,-0.00790059614521399,7.631266070521453,100.0,9600,1.4154598712921143,3.2840337502098586e-05,3.3502817629176636e-05,767.3188748315376,100.0
208,1.2923779487609863,763.5061158131488,4.142964129173299,767.3043782810589,743.1599018480407,100.0,3.739346468885065,0.1,0.008558511734008789,0.1839900016784668,0.045929622,0.019012783,763.8580352479161,-0.007900272737913761,7.62168306059542,100.0,9600,1.474287509918213,5.394766179707271e-05,4.884386040875359e-05,767.3095144086303,100.0
209,1.3803834915161133,763.916661455993,4.451110305235376,767.2533862892382,743.0856154492132,100.0,4.145610168823854,0.1,0.008922576904296875,0.1982557773590088,0.041506022,0.013932603,763.8638978687237,-0.007959325608449813,7.62579067439155,100.0,9600,1.4457950592041016,4.6141012256479574e-05,5.141052005446354e-05,767.3222646270642,100.0
210,1.3526215553283691,763.3338622476031,3.949098621344537,767.253030984386,751.1596320487064,100.0,3.8658078720766245,0.1,0.008611202239990234,0.18572711944580078,0.046643637,0.022616083,763.8108943066117,-0.007955318510827444,7.619961348155839,100.0,9600,1.4632346630096436,5.426648118364496e-05,4.4181609534966896e-05,767.3258804089131,100.0
211,1.472245454788208,763.1247350217787,4.049038410474528,767.2579616897024,755.1490889727532,100.0,3.7879387735251804,0.1,0.00916743278503418,0.21805906295776367,0.046579763,0.021149345,763.7422783781284,-0.007963855247364664,7.617869478085969,100.0,9600,1.4978342056274414,4.4397316528522884e-05,4.3218542902190026e-05,767.3238957250854,100.0
212,1.5612690448760986,764.1301035898365,3.4992555225695314,767.2733437062724,755.1608937792325,100.0,3.8835376605021543,0.1,0.008614301681518555,0.18031907081604004,0.04660041,0.019110031,763.7810608992993,-0.007909628859155159,7.628340371140844,100.0,9600,1.3933331966400146,3.782841131117518e-05,3.8349321433547864e-05,767.3408702083801,100.0
213,1.4418723583221436,764.296819625155,3.7273320624393946,767.2762646926795,747.1738444175006,100.0,3.7873123988593416,0.1,0.008631467819213867,0.1839616298675537,0.04378228,0.018741837,763.8326367718848,-0.00790891627881842,7.629591083721181,100.0,9600,1.4420466423034668,4.6079389258165106e-05,5.876634529351465e-05,767.3235322107757,100.0
214,1.4494853019714355,763.9248582718495,3.751801866094259,767.2767930121986,755.1362582106083,100.0,3.5035334748832563,0.1,0.008558511734008789,0.1882002353668213,0.048010793,0.020147774,763.8418589218813,-0.00787735721493406,7.626289309451733,100.0,9600,1.5093679428100586,4.895585716142657e-05,3.4998379974726006e-05,767.2906649449384,100.0
215,1.3423855304718018,764.1687036036343,3.875139406592664,767.2627722595905,751.1503231253984,100.0,3.4607936755057205,0.1,0.008760213851928711,0.19882416725158691,0.041188054,0.018662617,763.8745433900566,-0.007941053453721878,7.628308946546279,100.0,9600,1.502089500427246,3.9497311979963054e-05,4.5095568969058426e-05,767.2894436830131,100.0
216,1.3312160968780518,764.7959874321691,3.247404831758075,767.2802465463336,751.1943768132397,100.0,3.8978187028203393,0.1,0.009305000305175781,0.20624589920043945,0.043730747,0.018153014,763.9666877942678,-0.007916942473955755,7.634583057526044,100.0,9600,1.557450771331787,3.856570313646335e-05,3.320987697483937e-05,767.315368480293,100.0
217,1.2658703327178955,763.3294474218548,4.503066388527511,767.2731437077792,743.1328501321718,100.0,3.773550364691086,0.1,0.009793519973754883,0.21179938316345215,0.046141345,0.021349875,763.9029637570266,-0.008000586570583544,7.619916080096083,100.0,9600,1.4990928173065186,6.546639395905592e-05,5.332688765219657e-05,767.3127273198082,100.0
218,1.5023016929626465,764.1289433291349,4.116003785222111,767.2607221461426,751.140942584826,100.0,3.4855440659141768,0.1,0.012766599655151367,0.20562744140625,0.048462193,0.020866007,763.9255617142375,-0.007921170693569558,7.627912162639763,100.0,9600,1.4845218658447266,4.1900904502512035e-05,4.103990934826798e-05,767.3366621966611,100.0
219,1.4664673805236816,764.2092052537388,3.887592300120971,767.2921442040865,747.136143629273,100.0,2.9659949273300654,0.1,0.008574247360229492,0.18634939193725586,0.049664874,0.028543577,763.9539260681876,-0.007953316082190463,7.628713350584476,100.0,9600,1.4983594417572021,4.451814217627323e-05,6.130482440806084e-05,767.2851385615193,100.0
220,1.324218511581421,764.7169872529527,2.967565182429006,767.2730883441637,755.1422812393507,100.0,3.466543883648221,0.1,0.011380910873413086,0.18366265296936035,0.038931277,0.018764446,764.0302321866641,-0.007873881301662333,7.633792785365004,100.0,9600,1.4863178730010986,4.5007877914952566e-05,2.4555835023762996e-05,767.334593219318,100.0
221,1.437957763671875,764.2986796971494,3.636248740168838,767.2566682070642,751.1893471304874,100.0,3.7325726524589227,0.1,0.00848078727722168,0.20678400993347168,0.038992856,0.017962659,764.0570769377126,-0.007891916616054774,7.630024750050612,100.0,9600,1.518646001815796,3.621587764719906e-05,3.711655490097961e-05,767.3179304721036,100.0
222,1.4781274795532227,763.92846838816,4.414675831782158,767.2788225849072,747.1802297353561,100.0,4.248111117970507,0.1,0.008331775665283203,0.18638205528259277,0.043427,0.017289473,764.0442160827574,-0.007841107401366522,7.625908892598634,100.0,9600,1.4913671016693115,4.937392320107738e-05,4.997334057627363e-05,767.2999383697738,100.0
223,1.3912744522094727,764.3848400513792,3.5226094541416155,767.2660089073507,751.184925704173,100.0,3.854121545789508,0.1,0.009031057357788086,0.19852614402770996,0.044886142,0.021714872,764.0782784796197,-0.007862382096083287,7.63047095123725,100.0,9600,1.477750539779663,3.4595827586186894e-05,3.819174075844688e-05,767.347173247931,100.0
224,1.4705836772918701,764.8420408972711,3.4057961954548177,767.2653371049233,751.1785565357987,100.0,2.9009107419295908,0.1,0.00886392593383789,0.19732427597045898,0.04735617,0.025160523,764.1546547213849,-0.007870900703007423,7.635462432630326,100.0,9600,1.4964218139648438,2.5583162026806633e-05,2.3491185436770803e-05,767.315069675066,100.0
225,1.453545093536377,764.7219593575109,3.5733369108786457,767.268364898591,751.2301760576894,100.0,4.301309320299756,0.1,0.008496284484863281,0.18142247200012207,0.047423244,0.020882573,764.2113851849974,-0.0078251157892708,7.6338415508773965,100.0,9600,1.4269921779632568,3.5597800046887976e-05,3.4649374261047155e-05,767.3053627547785,100.0
226,1.4176676273345947,764.6411656060997,3.322492835987828,767.2762944727681,755.1682478557537,100.0,4.664479732495946,0.1,0.009055376052856445,0.20046591758728027,0.042931184,0.015941205,764.2543632271077,-0.007799958607103831,7.633033374726229,100.0,9600,1.5755832195281982,3.441405889577435e-05,3.398547433239479e-05,767.2915347522238,100.0
227,1.4514422416687012,764.2174135054752,4.056159947090988,767.271421301162,747.1533217806275,100.0,3.179395072335233,0.1,0.009171247482299805,0.19432330131530762,0.040808976,0.02299824,764.2506682549445,-0.007870169652035144,7.628796497014631,100.0,9600,1.5011787414550781,4.0488306229538834e-05,4.6884015336316886e-05,767.3239666464951,100.0
228,1.440049409866333,764.1346597737803,3.5478493713651447,767.2758664387097,755.1686084235567,100.0,4.5101177891437345,0.1,0.008348703384399414,0.19236278533935547,0.042801563,0.017833002,764.239067406828,-0.007865823781062722,7.6279675095522705,100.0,9600,1.4798789024353027,3.764030163479859e-05,5.0980245090698824e-05,767.3138454246102,100.0
229,1.307631015777588,764.0938104879348,4.22495653633208,767.2804519966705,751.1443496080101,100.0,3.640226854742323,0.1,0.011029243469238281,0.19987225532531738,0.045079663,0.023365932,764.2245417149386,-0.00785520675188933,7.627561459914777,100.0,9600,1.5273292064666748,5.5817364406826516e-05,4.04635206570999e-05,767.2948308514092,100.0
230,1.2942774295806885,764.0580453845305,3.7875598174365943,767.2866672541918,751.1893741775759,100.0,3.418196298596678,0.1,0.008472442626953125,0.19664430618286133,0.03126195,0.015873265,764.2078920818977,-0.007797179364556199,7.627202820635444,100.0,9600,1.476722240447998,3.610355455086867e-05,3.618118177794895e-05,767.3288704902792,100.0
231,1.429919958114624,765.100385367818,3.2726012980443007,767.2862720815618,751.1836406028888,100.0,4.708940381121928,0.1,0.009067296981811523,0.1997230052947998,0.048118785,0.018835297,764.2971414104899,-0.007791716786857889,7.63762494987981,100.0,9600,1.5058307647705078,3.7255255437903395e-05,3.840376271458793e-05,767.3130138545868,100.0
232,1.4267644882202148,764.429298690757,3.431703447521039,767.2786882906923,755.1790643773735,100.0,3.423388143391363,0.1,0.008384466171264648,0.1806323528289795,0.039640065,0.017998347,764.3103571385166,-0.007832664492970638,7.630917335507029,100.0,9600,1.4293136596679688,3.288587067569858e-05,3.39184028589247e-05,767.3182000437693,100.0
233,1.4616947174072266,764.2652289488587,3.7617961511241833,767.3078142566734,751.2018386290772,100.0,3.7921918026045742,0.1,0.009071826934814453,0.20113205909729004,0.04440322,0.022310002,764.3058443195508,-0.007807467700873695,7.629275865632461,100.0,9600,1.5075187683105469,3.999610453499035e-05,3.640441512703705e-05,767.3119148940307,100.0
234,1.3616256713867188,764.3857062646547,3.659154470893374,767.2807382125487,747.1754129470957,100.0,3.5142901833849045,0.1,0.008877992630004883,0.21550226211547852,0.04737884,0.022224313,764.3138305140612,-0.007854264422290624,7.630479068911043,100.0,9600,1.511777400970459,3.652918352890553e-05,3.9665833819185945e-05,767.3222071429451,100.0
235,1.2575058937072754,764.261968681314,3.7182094122739344,767.2780860143693,755.1681230083908,100.0,3.608103103489271,0.1,0.00906062126159668,0.20193886756896973,0.045687903,0.020974375,764.3086443307866,-0.007841243928370533,7.629242089404962,100.0,9600,1.5072429180145264,3.80378961781707e-05,3.76317791134075e-05,767.3190648385798,100.0
236,1.4783051013946533,764.6422384418884,3.222413655279083,767.28625608397,755.1758267625847,100.0,3.6326186235784905,0.1,0.008996248245239258,0.20131635665893555,0.049489833,0.023600796,764.3420037418967,-0.00778782960609212,7.633045503727241,100.0,9600,1.5470266342163086,3.4390107685802334e-05,3.9526555474868746e-05,767.2965432466742,100.0
237,1.2897627353668213,764.7717632626606,3.300856148200403,767.2872110477989,755.1511977745666,100.0,4.17817002604164,0.1,0.008794307708740234,0.2007138729095459,0.04473313,0.018958999,764.3849796939732,-0.00774276087952136,7.634340572453811,100.0,9600,1.466620683670044,4.126508438308438e-05,3.2864253686749636e-05,767.3215629417748,100.0
238,1.47285795211792,764.560386099668,3.6925860991624044,767.2785555977867,751.1195726680876,100.0,3.7026956668706306,0.1,0.009972333908081055,0.19919943809509277,0.04741335,0.020690935,764.4025203345426,-0.007774100438761068,7.632225899561238,100.0,9600,1.4511816501617432,3.3762222589873155e-05,2.9770239368085525e-05,767.3245806664546,100.0
239,1.4154129028320312,764.095612564393,3.8989029980254104,767.2767479076966,751.1688859448955,100.0,3.6239653386148003,0.1,0.008912086486816406,0.18785429000854492,0.04009441,0.017227696,764.3718295575277,-0.007838588437070334,7.627578078229597,100.0,9600,1.5043556690216064,3.479381618627767e-05,3.460223523236576e-05,767.3211676286651,100.0
240,1.337374210357666,764.9728193981045,2.7673079122185515,767.2874792472288,755.1805809780822,100.0,4.399850109428586,0.1,0.008553266525268555,0.18670201301574707,0.044240996,0.015527757,764.4319285415854,-0.007814749754461904,7.636351916912204,100.0,9600,1.5018861293792725,2.1295040437997896e-05,2.5937613809707996e-05,767.3361319694673,100.0
241,1.4777238368988037,764.4717485220198,3.391727310038621,767.274328465029,751.2063025980298,100.0,3.657352195450846,0.1,0.015863656997680664,0.1816728115081787,0.03826052,0.020774042,764.4359105396289,-0.00782566570329383,7.631341000963373,100.0,9600,1.5761446952819824,3.7931999437733447e-05,3.343531265521017e-05,767.2897854691196,100.0
242,1.371708869934082,764.6757948932254,3.126014725398161,767.2677837345273,755.1555901275404,100.0,4.503995649321006,0.1,0.009271860122680664,0.2264869213104248,0.047723535,0.01869801,764.4598989749886,-0.007868606893899016,7.633381393106101,100.0,9600,1.6635260581970215,2.8051361877207622e-05,2.5726059835293452e-05,767.3127407055831,100.0
243,1.3410348892211914,765.3412305011484,2.8328953981198466,767.2786588399899,755.2003104470407,100.0,4.434664734910098,0.1,0.009943485260009766,0.1969013214111328,0.046632223,0.018696105,764.5480321276046,-0.00788153137772791,7.640035135288939,100.0,9600,1.476485013961792,2.136086997990129e-05,2.1493612354414872e-05,767.3425991334595,100.0
244,1.4651339054107666,764.7598951873312,3.3946170642729885,767.2683814908934,751.1754094017913,100.0,3.8213707307636664,0.1,0.008791208267211914,0.20006608963012695,0.045044847,0.019486925,764.5692184335774,-0.007861220678585789,7.634222112654747,100.0,9600,1.5117874145507812,3.135274949608726e-05,3.271185352092187e-05,767.3278059771665,100.0
245,1.4438607692718506,763.9211393686604,4.009639341027798,767.2745930159462,747.1956313030297,100.0,4.037159812072794,0.1,0.008468866348266602,0.18377208709716797,0.048070904,0.017578414,764.5044105270857,-0.007914196290284283,7.625835803709716,100.0,9600,1.4970557689666748,4.1562348664236215e-05,3.854055322223886e-05,767.3255161812938,100.0
246,1.462510108947754,764.9703367756123,3.512772108412089,767.2709635234322,751.1395679643343,100.0,3.5163856904691038,0.1,0.008531332015991211,0.18777251243591309,0.048910454,0.020425005,764.5510031519384,-0.00784236394821853,7.636324302718449,100.0,9600,1.544057846069336,2.6559982532905104e-05,2.4058375940276186e-05,767.3009815603061,100.0
247,1.3072450160980225,764.7593786413216,3.442340047763214,767.2776720256087,751.1389425238157,100.0,4.009028512413272,0.1,0.008391618728637695,0.21174407005310059,0.04655871,0.021096716,764.5718407008767,-0.007868467470771301,7.634214865862563,100.0,9600,1.5168156623840332,2.901050317799018e-05,3.164544302214448e-05,767.3046034590114,100.0
248,1.4128613471984863,764.5113919342735,3.8611261373560954,767.2811641730955,747.2150753789869,100.0,3.90524006602543,0.1,0.008626222610473633,0.1828174591064453,0.045659162,0.018131468,764.5657958242164,-0.007845963047473934,7.631737370285859,100.0,9600,1.5391709804534912,3.849371965548163e-05,3.403115714981269e-05,767.324781584913,100.0
249,1.4267544746398926,764.5068364052145,3.3523252679252082,767.2705855312776,755.1926782904256,100.0,3.982676273631995,0.1,0.008905649185180664,0.19948577880859375,0.046139967,0.017855681,764.5598998823162,-0.007894280043057695,7.631689053290276,100.0,9600,1.5983400344848633,3.413940876768002e-05,3.5143153932107484e-05,767.3143238846883,100.0
250,1.4260365962982178,764.2650972533028,4.3765945736976475,767.287323249106,747.1475460728748,100.0,3.7056179151949498,0.1,0.008799552917480469,0.22197461128234863,0.04573675,0.020299727,764.5304196194149,-0.007810321602382905,7.629273011730951,100.0,9600,1.5214409828186035,5.283427065545465e-05,5.353783152109069e-05,767.3105503398065,100.0
251,1.6671380996704102,765.1873126915146,2.8958352509482106,767.2873653943568,747.1540058851125,100.0,3.861477283276594,0.1,0.00857853889465332,0.20980215072631836,0.04010408,0.01720005,764.5961089266249,-0.007754721118728429,7.6384952788812726,100.0,9600,1.521235466003418,2.8188475279433633e-05,2.0478018455907558e-05,767.2955909565392,100.0
252,1.5047225952148438,764.6400089831671,3.1719920902476395,767.2679397864666,755.1504175953644,100.0,3.749693185132571,0.1,0.008480072021484375,0.17966270446777344,0.04544465,0.020503426,764.6004989322792,-0.007812115463363055,7.63302121786997,100.0,9600,1.4721949100494385,2.597504821855575e-05,2.5355587595397456e-05,767.2907081124372,100.0
253,1.358933687210083,763.9269025987073,4.092822333147548,767.2665131589315,751.1490629676628,100.0,3.43401007602376,0.1,0.008915901184082031,0.20921730995178223,0.044471942,0.020110343,764.533139298922,-0.007858230839002283,7.625891769160998,100.0,9600,1.5171289443969727,4.737022756929948e-05,4.5210625483194294e-05,767.3429550418596,100.0
254,1.458446741104126,764.3906540990047,4.44042224531812,767.2700658760037,747.132232497787,100.0,3.960011155445626,0.1,0.008719921112060547,0.2158794403076172,0.043584377,0.02019799,764.5188907789303,-0.007804030009916099,7.630529303323417,100.0,9600,1.502211332321167,4.56541531572024e-05,4.5564449316685264e-05,767.3053566925639,100.0
255,1.4749698638916016,764.9330345759721,2.940149728045318,767.2952386116724,755.1875992967897,100.0,3.6417661656389777,0.1,0.008856058120727539,0.19316840171813965,0.045410585,0.02405605,764.5603051586345,-0.007796586366998678,7.635953413633001,100.0,9600,1.4987971782684326,2.335996223127662e-05,2.5096038576929833e-05,763.2537673587997,100.0
256,1.4590625762939453,765.4764297525926,2.9990411713566334,767.2876739908156,755.2067253068532,100.0,4.167235522595861,0.1,0.009229660034179688,0.19932341575622559,0.044339504,0.019351773,764.6519176180303,-0.007780061616248277,7.6413866050504184,100.0,9600,1.5024428367614746,2.3628448999781106e-05,2.2360393662304844e-05,767.3334876670347,100.0
257,1.4886460304260254,764.8945795639155,3.101945006398065,767.3036613481435,755.1610933095527,100.0,4.615436047836181,0.1,0.0092010498046875,0.21184659004211426,0.04222472,0.017255321,764.6761838126189,-0.007765434255704554,7.635567899077629,100.0,9600,1.4951307773590088,3.1155857765610164e-05,3.015711627882017e-05,767.3003052445436,100.0
258,1.3749969005584717,764.7238337240788,3.8978556962433193,767.269008279138,747.1312899681819,100.0,4.496427235587737,0.1,0.008462190628051758,0.19043302536010742,0.0457989,0.015045673,764.6809488037649,-0.007805098764047352,7.634278234569286,100.0,9600,1.4982573986053467,3.532753905976632e-05,3.411591366427645e-05,767.3051531046896,100.0
259,1.3138751983642578,764.637947583823,2.9511161783349777,767.2902953020848,755.1754269491091,100.0,3.9330668337706385,0.1,0.00949406623840332,0.20018744468688965,0.04413482,0.018373698,764.6766486817706,-0.007830513366597314,7.633002819966737,100.0,9600,1.5092284679412842,2.5639158009002546e-05,2.749778011130634e-05,767.3064676453472,100.0
260,1.4637441635131836,764.6386514871932,3.47475833123061,767.27426781715,751.2046148181536,100.0,3.3083884331423,0.1,0.00919198989868164,0.21460533142089844,0.048213933,0.02430532,764.6728489623129,-0.007824477765718612,7.633008855567614,100.0,9600,1.5210645198822021,3.467619531502703e-05,3.201800300618105e-05,767.2981257963729,100.0
261,1.3078784942626953,764.4724865133288,3.4371592534967306,767.2794517583815,755.1778900176995,100.0,3.829475922780079,0.1,0.008523225784301758,0.18279480934143066,0.041025996,0.016183808,764.6528127174145,-0.007818928471140282,7.631347738195525,100.0,9600,1.4968984127044678,3.0112217213781933e-05,3.383510263135969e-05,767.3191257385072,100.0
262,1.4063997268676758,764.2123449776644,3.3745560045352283,767.2645168681627,751.1504118204947,100.0,3.198290250641453,0.1,0.00881338119506836,0.21532535552978516,0.047215454,0.024677083,764.6087659434395,-0.007920703345862846,7.628745963320804,100.0,9600,1.5205063819885254,3.590968576730731e-05,3.583972170299887e-05,767.2969827119604,100.0
263,1.3373370170593262,764.8457062526785,3.0407985025150186,767.2780245841234,755.2289560190837,100.0,3.8198734290516745,0.1,0.010400056838989258,0.19233083724975586,0.040735483,0.015410225,764.6324599743634,-0.007838503898956732,7.63507816276771,100.0,9600,1.5232934951782227,3.1577796968940237e-05,2.5012783116814045e-05,767.2890939280292,100.0
264,1.4010350704193115,764.42778475269,3.1233811757910273,767.2729304000801,751.1906958289619,100.0,3.5366318387701043,0.1,0.009911775588989258,0.20092225074768066,0.04720416,0.020335877,764.6119924521961,-0.007850259440516878,7.6308997405594825,100.0,9600,1.5028212070465088,2.9614503687819892e-05,2.9836494580293627e-05,767.3005086229059,100.0
265,1.3991992473602295,764.6737599512957,3.380988938722792,767.2588663808422,755.1608211299784,100.0,3.9804272080580763,0.1,0.00841665267944336,0.18104887008666992,0.048455596,0.019377124,764.6181692021061,-0.007888494773034172,7.633361505226965,100.0,9600,1.4152603149414062,2.8052984387741986e-05,3.264157383744306e-05,767.2764207823524,100.0
266,1.458225965499878,764.5094920437477,3.77107918582282,767.275644875323,747.2188688246918,100.0,3.6467505739054467,0.1,0.010042190551757812,0.20377469062805176,0.041058075,0.017197507,764.6073014862702,-0.00786778208069523,7.631715551252639,100.0,9600,1.4424924850463867,3.7012505613928625e-05,3.453424189231179e-05,767.3048581465131,100.0
267,1.5941832065582275,764.4656528658397,3.7271609556760827,767.2781756304067,751.1333589316301,100.0,3.8805080408780186,0.1,0.008931875228881836,0.19422388076782227,0.04287888,0.016888082,764.5931366242272,-0.007887464016222851,7.631279202650443,100.0,9600,1.4529244899749756,4.3175284177477915e-05,4.26603407788742e-05,767.2860310030474,100.0
268,1.5937144756317139,764.8435162210261,3.301602355730011,767.2829397453403,751.18814410988,100.0,4.5276426468281015,0.1,0.011598587036132812,0.19509243965148926,0.043262564,0.018291427,764.6181745839071,-0.007858768376239568,7.635057898290427,100.0,9600,1.4578990936279297,3.9869223715623664e-05,3.4799933802169585e-05,767.3041761273498,100.0
269,1.371941089630127,764.8834656068675,3.5498714807313685,767.2672047106054,751.1769043175127,100.0,4.056782047578815,0.1,0.008476972579956055,0.1842975616455078,0.04563446,0.018626172,764.6447036862032,-0.007877377498606121,7.635455955834726,100.0,9600,1.5055170059204102,3.578110704831963e-05,3.378782107888694e-05,767.2581206887205,100.0
270,1.4092941284179688,764.9686905071277,2.880576455176896,767.276115067339,755.1933805477784,100.0,4.68252846942712,0.1,0.009212017059326172,0.20168614387512207,0.050443374,0.018361889,764.6771023682958,-0.007858713011490173,7.636307953655177,100.0,9600,1.48642897605896,2.3806242636727085e-05,2.5109320402682538e-05,767.3293402264392,100.0
271,1.4614253044128418,764.3057231518565,3.4959487645210174,767.2728410084311,751.1590145160263,100.0,4.5811682476975335,0.1,0.009568452835083008,0.20744919776916504,0.04628319,0.02078735,764.6399644466518,-0.007821600576643524,7.629678399423358,100.0,9600,1.481102466583252,4.071277852107413e-05,3.671782912702193e-05,767.2967980772537,100.0
272,1.4617226123809814,765.1821193357151,3.1709071183003465,767.2832355334801,751.1838644896226,100.0,3.5969072763886363,0.1,0.008301973342895508,0.18944311141967773,0.046510395,0.023147514,764.694179935558,-0.0078062468233834155,7.638443753176617,100.0,9600,1.4998524188995361,3.022590460626255e-05,2.5465935802432734e-05,767.3129585414663,100.0
273,1.4216985702514648,764.8907903856434,3.362101362369455,767.2991562776456,755.18906952825,100.0,4.78102460035884,0.1,0.010272026062011719,0.20064163208007812,0.047487617,0.018044077,764.7138409805666,-0.0078040343986593335,7.6355292989346735,100.0,9600,1.5974395275115967,2.950045879332426e-05,3.2574581905679245e-05,767.2851271894727,100.0
274,1.3192954063415527,764.2659054943514,4.225693450973506,767.3006241354617,747.1604871270206,100.0,4.165025798512563,0.1,0.011567831039428711,0.18694543838500977,0.042981736,0.016473673,764.669047431945,-0.007804163016233108,7.6292791703171,100.0,9600,1.520390272140503,4.5045656441097274e-05,4.322950943715804e-05,767.3192597352568,100.0
275,1.3787415027618408,764.3887198240545,3.7089497824631916,767.277732638972,751.1439676584241,100.0,4.062193742695645,0.1,0.009006261825561523,0.18674731254577637,0.046881683,0.018567411,764.641014671156,-0.00782364187064509,7.630509691462689,100.0,9600,1.4901351928710938,3.772609886438884e-05,3.860988496429362e-05,767.3190117805098,100.0
276,1.5307321548461914,764.0561415189976,3.7018738189025386,767.2749973096895,751.1850260495726,100.0,4.041243965228278,0.1,0.008776426315307617,0.1857609748840332,0.047749978,0.024003495,764.5825273559401,-0.0078148960789524,7.627185103921048,100.0,9600,1.514397382736206,4.123220719320556e-05,4.550224070118941e-05,767.2957191126666,100.0
277,1.3837611675262451,764.638087940751,4.813798973509825,767.2899125683248,735.1023078403178,100.0,2.508997123341604,0.1,0.009090185165405273,0.19719219207763672,0.044499602,0.025220444,764.5880834144212,-0.007831186084448624,7.6330021472488845,100.0,9600,1.4909610748291016,5.2512578968081276e-05,4.8740636230174865e-05,767.3173205367755,100.0
278,1.357506275177002,764.5146181755696,3.2482497886760644,767.2846973311306,755.1334379672359,100.0,3.8758535080879093,0.1,0.008546590805053711,0.18367362022399902,0.04822498,0.02027948,764.5807368905361,-0.007815552850690901,7.631767780482643,100.0,9600,1.481236219406128,3.910559080450204e-05,2.9252749328892142e-05,767.3206310884736,100.0
279,1.4530305862426758,764.8408805170084,3.1464171143254127,767.2747468047454,751.2066774508513,100.0,3.9133593617189515,0.1,0.009081840515136719,0.19809699058532715,0.043926124,0.017430622,764.6067512531833,-0.007885184998602938,7.635031481668064,100.0,9600,1.4920895099639893,3.038653463202677e-05,2.8140106609890727e-05,767.3195451831467,100.0
280,1.3784551620483398,764.0146637547141,3.551272414783803,767.2839471235084,755.1633503022086,100.0,4.180573236098965,0.1,0.009225606918334961,0.20645928382873535,0.042112276,0.017333275,764.5475425033364,-0.007816342189183076,7.626766991144151,100.0,9600,1.5457661151885986,3.3415723753165294e-05,3.4560777389873545e-05,767.3134943126881,100.0
281,1.2845358848571777,764.34612031979,3.7801600065084293,767.2662189129956,751.1655709057302,100.0,3.960010287923671,0.1,0.009143829345703125,0.20032286643981934,0.040918883,0.019021457,764.5274002849818,-0.00783321861426591,7.6300834480524005,100.0,9600,1.546309471130371,4.270906685749012e-05,4.083295635842561e-05,767.3125328084236,100.0
282,1.4277267456054688,764.9685661207819,3.3196297322771793,767.2737991749758,755.1765328867599,100.0,3.6381675691653745,0.1,0.008400201797485352,0.1884162425994873,0.045922466,0.02012832,764.5715168685618,-0.007859277079425185,7.636307389587242,100.0,9600,1.5177745819091797,3.692235219077808e-05,2.908589351649163e-05,767.3272564578788,100.0
283,1.403188705444336,764.4715809895583,3.680457934781785,767.2687325198527,751.1481822782919,100.0,5.35992550020572,0.1,0.008407354354858398,0.18632054328918457,0.047718342,0.017831897,764.5615232806615,-0.00782748321513019,7.631339183451537,100.0,9600,1.4895350933074951,3.6917797644682495e-05,4.011907679495977e-05,767.3042071057779,100.0
284,1.4751677513122559,764.556648983436,3.0447366900629653,767.2902251399689,751.1675769136219,100.0,3.3055862610723232,0.1,0.009298086166381836,0.21178936958312988,0.043919995,0.024477767,764.561035850939,-0.007812439466082469,7.632187560533918,100.0,9600,1.5292272567749023,2.646627497213161e-05,2.4536646645100402e-05,767.315524711443,100.0
285,1.3833565711975098,763.8463296652117,3.134791771364758,767.2755267387282,755.194916989948,100.0,3.776507424048852,0.1,0.008422374725341797,0.1826186180114746,0.045421433,0.020618878,764.4895652323663,-0.007830819424350832,7.625085847242317,100.0,9600,1.4747765064239502,2.9412221992592236e-05,2.805227144630697e-05,767.3257604785587,100.0
286,1.4457595348358154,763.7206774905818,4.229027937176243,767.2796673280425,751.1846788241905,100.0,3.2455573963578166,0.1,0.00838923454284668,0.18207979202270508,0.03992238,0.023257535,764.4126764581879,-0.007836827864376514,7.624246505468956,100.0,9600,1.513197422027588,4.736900234054206e-05,4.739009415484694e-05,767.3279151984258,100.0
287,1.404628038406372,764.680530338208,3.015618033166687,767.2706523514378,755.197494971313,100.0,3.985696396412099,0.1,0.009133338928222656,0.1977999210357666,0.0482205,0.019315677,764.4394618461898,-0.007822657625030215,7.6334273423749694,100.0,9600,1.5475480556488037,2.425738880988741e-05,2.3801762025319413e-05,767.3359057119986,100.0
288,1.422544002532959,764.7218920046698,2.967215529902332,767.2808288269879,755.1755915066568,100.0,4.736038534669523,0.1,0.009919166564941406,0.21042323112487793,0.050168958,0.01937272,764.4677048620379,-0.007825947790747693,7.634257385542585,100.0,9600,1.5781612396240234,2.360330441463192e-05,3.503391154253418e-05,767.2948475459575,100.0
289,1.3424410820007324,765.392724100614,2.8328946116815312,767.2803664225378,755.190453034149,100.0,5.07423080170489,0.1,0.008708477020263672,0.22524142265319824,0.047812577,0.01863677,764.5602067858955,-0.00778274738639773,7.640550585946936,100.0,9600,1.5687570571899414,3.665686932435725e-05,2.4570699473903068e-05,767.2838359878359,100.0
290,1.4260973930358887,764.2626225155649,3.808310388341884,767.2776009193567,751.1727281633542,100.0,3.2408647210154613,0.1,0.008903026580810547,0.2150270938873291,0.04571956,0.02102622,764.5304483588625,-0.007834485208015676,7.629248848125317,100.0,9600,1.5350267887115479,3.831299028658682e-05,3.7056549668965453e-05,763.2990552989393,100.0
291,1.6690974235534668,765.0990239718521,3.057204575217362,767.287430814901,755.1838216523977,100.0,3.341206048836638,0.1,0.008495092391967773,0.18175458908081055,0.049361642,0.022558587,764.5873059201615,-0.007803943422383286,7.637612723244284,100.0,9600,1.4820678234100342,2.586715941823833e-05,2.3485013402290297e-05,767.2927644221814,100.0
292,1.6137914657592773,764.5543666576172,3.691771688791701,767.2934061100633,751.1743056790967,100.0,4.607517169647696,0.1,0.008779525756835938,0.18747472763061523,0.046301845,0.017927531,764.5840119939071,-0.00783274124509658,7.632583925421571,100.0,9600,1.5452587604522705,3.664462947369092e-05,3.6640207369510386e-05,767.3093964017321,100.0
293,1.4514734745025635,764.1875072884632,3.917599391766886,767.276950354489,751.1835716113525,100.0,3.0287036912557563,0.1,0.008908271789550781,0.1852250099182129,0.04240651,0.019944206,764.5443615233628,-0.007750719628117201,7.628499280371883,100.0,9600,1.5806806087493896,3.330203789698997e-05,3.526851846118542e-05,767.365417121933,100.0
294,1.3007094860076904,764.3952573701376,3.6152346823264643,767.2929771990518,751.1912167652722,100.0,3.624466873303284,0.1,0.008421897888183594,0.18357372283935547,0.039028354,0.018239595,764.5294511080403,-0.007757777938326382,7.630992222061674,100.0,9600,1.5637848377227783,3.487436078197785e-05,3.536622867409961e-05,767.3101517238945,100.0
295,1.3735072612762451,764.2746089394504,4.0248988732182305,767.3068706363888,743.1349117169019,100.0,3.6961774010045834,0.1,0.01042938232421875,0.18681693077087402,0.046846323,0.021719499,764.5039668911814,-0.007714129077687613,7.629369204255646,100.0,9600,1.4899754524230957,4.4595300520013594e-05,4.172512085695245e-05,767.3209075890321,100.0
296,1.412736415863037,764.4398535589606,3.756711360818926,767.2818100877322,751.2159870582872,100.0,3.5780229197658344,0.1,0.008840560913085938,0.18906211853027344,0.047379337,0.024578929,764.4975555579593,-0.007727158207920831,7.6310228417920785,100.0,9600,1.5216712951660156,3.250718584013791e-05,3.3723631345974634e-05,767.2996844392857,100.0
297,1.485276699066162,765.2711422312537,2.840034403479074,767.2785923846205,755.1711204346573,100.0,4.416924684415426,0.1,0.008766412734985352,0.20281147956848145,0.047219295,0.016012112,764.5749142252888,-0.007750052906523204,7.63933328042681,100.0,9600,1.4918358325958252,3.0430170450625966e-05,2.718084217444747e-05,767.2979754918379,100.0
298,1.3541860580444336,765.0992256020294,3.169839326497822,767.2955937811428,755.194526044565,100.0,3.593193605842192,0.1,0.008632898330688477,0.1830756664276123,0.043067172,0.018242545,764.6273453629628,-0.007799213373083998,7.637617453293583,100.0,9600,1.441669225692749,2.8171904274777483e-05,2.499966859374143e-05,767.3101655094882,100.0
299,1.4760756492614746,764.8922807304265,3.045811913672202,767.2872666903199,751.210438732093,100.0,4.137068710504071,0.1,0.008416414260864258,0.23099827766418457,0.042509202,0.01799634,764.6538388997093,-0.007790278130856129,7.635543055202477,100.0,9600,1.465414047241211,2.765555581075421e-05,2.8583195040423523e-05,767.3426135827114,100.0
300,1.5320672988891602,764.727285510355,3.6286479477212765,767.2839875348318,751.1713266651433,100.0,3.9628831728910354,0.1,0.011062145233154297,0.21015000343322754,0.046972953,0.015042065,764.6611835607739,-0.007769971521094117,7.633896695145572,100.0,9600,1.4515776634216309,3.249535468369853e-05,4.076653076284699e-05,767.3408131145281,100.0
301,1.381455659866333,764.2667825751269,3.5357449117046866,767.2898913616688,751.199374607925,100.0,4.317761375437829,0.1,0.008599042892456055,0.19791936874389648,0.04736949,0.019418351,764.6217434622092,-0.007791285854248657,7.629292047479086,100.0,9600,1.4747719764709473,4.05156090676294e-05,3.412375569482621e-05,767.3090836202147,100.0
302,1.3713998794555664,764.2177645757956,3.219926124131112,767.2782954641897,755.1766087549892,100.0,4.00135114672753,0.1,0.008844852447509766,0.21219778060913086,0.04497079,0.018502742,764.5813455735679,-0.007866623019940974,7.628800043646726,100.0,9600,1.5061547756195068,3.4726526489104794e-05,3.693965066273207e-05,767.2900271747927,100.0
303,1.472733497619629,764.1317952142787,3.4480685441023797,767.2993615682972,747.1832898975015,100.0,3.490150832913385,0.1,0.00859689712524414,0.200347900390625,0.042552445,0.020137267,764.536390537639,-0.007892976331969658,7.627940357001363,100.0,9600,1.4268102645874023,3.9000445725886985e-05,4.268513926272624e-05,767.3368299127394,100.0
304,1.492671251296997,764.5546521034036,3.6001108867998384,767.288446980932,751.1761379022009,100.0,3.9863791206925128,0.1,0.008831262588500977,0.18320083618164062,0.044626407,0.017577307,764.5382166942154,-0.007830115021258799,7.632169884978741,100.0,9600,1.3937585353851318,4.7119294365262086e-05,3.470600128170426e-05,767.3082298102037,100.0
305,1.3618910312652588,764.4274621711369,3.7578450970855024,767.2911480682887,751.154402899697,100.0,3.433891282478566,0.1,0.008773088455200195,0.20731282234191895,0.042375516,0.016841646,764.5271412419077,-0.007852769865246969,7.631313896801419,100.0,9600,1.501432180404663,4.0617096021326714e-05,4.188363679901912e-05,767.3104208936838,100.0
306,1.3923487663269043,764.2625784412415,4.104022993404415,767.2834318544004,747.1335298696995,100.0,4.446878043123822,0.1,0.008185148239135742,0.2179419994354248,0.047420207,0.018783424,764.5006849618411,-0.007835929217015317,7.629247404116318,100.0,9600,1.4295148849487305,4.8189087576963485e-05,4.591490564745934e-05,767.2852527717735,100.0
307,1.5108225345611572,765.0132404935039,3.1138367394402504,767.2729770137421,755.185696441445,100.0,4.551364191204533,0.1,0.00835418701171875,0.18009233474731445,0.04463862,0.015376642,764.5519405150073,-0.007827024724768577,7.6367563086085655,100.0,9600,1.4517507553100586,2.6870604688809172e-05,2.690023212748241e-05,767.3003450192269,100.0
308,1.3854844570159912,764.8864808803288,3.046731925961783,767.2681863815025,751.1726673950951,100.0,4.451017135466916,0.1,0.008804559707641602,0.20777392387390137,0.04422664,0.016976846,764.5853945515395,-0.007844398211685295,7.635488935121647,100.0,9600,1.4937489032745361,2.3185023369830606e-05,2.7714855028348497e-05,767.2977063184799,100.0
309,1.3672995567321777,764.2580840490214,3.237568688835489,767.2696597480532,751.1024396384768,100.0,3.4127138723766905,0.1,0.008791208267211914,0.2056293487548828,0.043736205,0.021597607,764.5526635012876,-0.007881014676219936,7.629202318657114,100.0,9600,1.4968204498291016,3.798185114711116e-05,2.7645532169560172e-05,767.3255905606753,100.0
310,1.4487049579620361,764.9268810281852,2.9961238706834252,767.2705703501991,755.1503282294791,100.0,4.392969708145596,0.1,0.00971078872680664,0.21056246757507324,0.045972064,0.017165735,764.5900852539773,-0.007856227403994963,7.636310439262672,100.0,9600,1.4731011390686035,2.4598632142909684e-05,3.684342464122794e-05,767.307586784906,100.0
311,1.3803820610046387,764.804623167819,3.548488132010262,767.2758736988651,751.1447239162515,100.0,4.112225828362404,0.1,0.008212566375732422,0.17947149276733398,0.044399597,0.019100297,764.6115390453615,-0.007831523092794347,7.634668476907206,100.0,9600,1.4718804359436035,4.383962985941316e-05,3.422849809081528e-05,767.2695448632848,100.0
312,1.4918043613433838,764.2206130010478,4.21559517789315,767.2856814818019,747.16815707977,100.0,3.5920140207068485,0.1,0.008682012557983398,0.19852709770202637,0.04063421,0.02049162,764.5724464409302,-0.007839587395971154,7.628827079270695,100.0,9600,1.515526294708252,4.259651551716381e-05,4.2265714319400765e-05,767.2983590612006,100.0
313,1.370739459991455,764.6830335411072,3.889752965212594,767.2707926115825,751.1823757386824,100.0,3.3156384117258955,0.1,0.009029388427734375,0.21279287338256836,0.045947738,0.022868454,764.583505150948,-0.0077976285835450534,7.633452371416456,100.0,9600,1.4773635864257812,3.9521222568741333e-05,4.210698842162824e-05,767.3303494111207,100.0
314,1.6137590408325195,765.3494395187026,2.7099540202636487,767.2779044981754,751.1566761786256,100.0,4.448494538981481,0.1,0.008434295654296875,0.187669038772583,0.048060708,0.017863983,764.6600985877234,-0.007800989821469277,7.640115676845197,100.0,9600,1.4919283390045166,2.4789596223559987e-05,1.9193711912179595e-05,767.3324324656706,100.0
315,1.4894020557403564,764.8109887091524,3.640294491124182,767.2954071509243,755.1595365587309,100.0,4.109948205104439,0.1,0.008816242218017578,0.20397019386291504,0.04407207,0.017905002,764.6751875998664,-0.007769058417971961,7.634730941582028,100.0,9600,1.5655708312988281,4.0141672744394115e-05,3.812377255167251e-05,767.3091105832012,100.0
316,1.5073530673980713,764.1829876732041,4.513138891305515,767.272252772839,743.151403623312,100.0,3.9062637162577647,0.1,0.00890970230102539,0.19848251342773438,0.045209352,0.018751137,764.6259676072001,-0.007796787592950116,7.628869879073716,100.0,9600,1.5066587924957275,5.981552685548611e-05,8.223149881672563e-05,767.3290354456016,100.0
317,1.410064697265625,764.7211903506326,3.18613313387966,767.2729514480982,755.165558820641,100.0,3.748226182258396,0.1,0.008571624755859375,0.1821749210357666,0.048898663,0.024123086,764.6354898815434,-0.007832039668482118,7.633834626998184,100.0,9600,1.4275357723236084,5.954410304169548e-05,2.7567192655386912e-05,767.3269973344431,100.0
318,1.4156794548034668,765.3094618311674,3.2724465997382857,767.283774607082,755.1710257102529,100.0,3.85047455807999,0.1,0.009197711944580078,0.21501445770263672,0.043905485,0.01804506,764.7028870765058,-0.007784343986965206,7.639715656013035,100.0,9600,1.479388952255249,2.5255713584319666e-05,3.4251396859795536e-05,767.2796723865297,100.0
319,1.3537261486053467,764.0166563283923,3.690715969818834,767.2983375850346,751.1969751738334,100.0,3.553221858048097,0.1,0.008790016174316406,0.18695569038391113,0.041925088,0.019475907,764.6342640016945,-0.007794423886430713,7.626788909446902,100.0,9600,1.4870874881744385,4.1604733388563424e-05,5.7687138134177645e-05,767.3327571223036,100.0
320,1.292618751525879,764.5143883607808,2.929504661283367,767.2813791681405,755.1906560488629,100.0,3.8667204553074455,0.1,0.008274555206298828,0.18197417259216309,0.044550158,0.018782329,764.6222764376032,-0.0078176503273417,7.631765683005992,100.0,9600,1.5672619342803955,4.869862789903838e-05,2.5917122108597393e-05,767.3511072135345,100.0
321,1.328751564025879,765.3161333549061,2.8981754850929176,767.298807039176,755.1657398195305,100.0,3.946238552680214,0.1,0.008830070495605469,0.21207833290100098,0.047535572,0.020287964,764.6916621293335,-0.007715312815614261,7.6397846871843855,100.0,9600,1.512026309967041,2.3958407824966794e-05,2.422187625849939e-05,767.309693308586,100.0
322,1.4295949935913086,764.6844315193745,3.4237389211861515,767.294537511492,751.1878571835158,100.0,4.890792845263915,0.1,0.008443117141723633,0.19989013671875,0.043451615,0.014519678,764.6909390683376,-0.007782227238685139,7.633467772761314,100.0,9600,1.5564899444580078,2.9499861122984215e-05,3.680230414899586e-05,767.3409665893168,100.0
323,1.6930434703826904,765.3905196288541,3.0009538172010926,767.2791737046434,755.190290270751,100.0,5.260459614078519,0.1,0.008844375610351562,0.19829249382019043,0.04899061,0.015977345,764.7608971243892,-0.007806536706572162,7.640526796626761,100.0,9600,1.5169613361358643,3.5875254524330436e-05,2.374959620836065e-05,767.3174916837946,100.0
324,1.4245011806488037,765.2695190316422,3.006538748612782,767.3025676313911,755.2342181856665,100.0,4.526908730576,0.1,0.008401632308959961,0.18154692649841309,0.04762501,0.018650481,764.8117593151145,-0.007765291148353014,7.639318042184981,100.0,9600,1.4718215465545654,2.7065407966541872e-05,2.824328544978942e-05,767.3022811203224,100.0
325,1.3470861911773682,765.4754126683086,2.703145015704925,767.2820180462555,755.1784444506052,100.0,4.9069366839806605,0.1,0.008598804473876953,0.20211267471313477,0.049160656,0.015821924,764.878124650434,-0.007788843406504867,7.641377823260162,100.0,9600,1.4848568439483643,2.1189282274055472e-05,1.8671056428775445e-05,767.3078201632247,100.0
326,1.37481689453125,764.7251152549662,3.6742913032587095,767.2795265481732,751.167615706485,100.0,4.436409636002205,0.1,0.010164022445678711,0.20177960395812988,0.040755607,0.0137529895,764.8628237108873,-0.007794156540389008,7.633872510126277,100.0,9600,1.500382423400879,4.211567340453631e-05,4.425923909009751e-05,767.3190975778099,100.0
327,1.3654801845550537,765.8095341869142,2.5191118963830896,767.2945916080921,759.1776645250815,100.0,4.865374877214799,0.1,0.008852243423461914,0.21820998191833496,0.047049303,0.016098175,764.9574947584899,-0.007783807684272014,7.644716192315728,100.0,9600,1.463385820388794,3.1187890004501824e-05,1.975696884720953e-05,767.2975160837242,100.0
328,1.3431248664855957,764.6402918095647,3.373747838484893,767.2872589442633,751.2195466447399,100.0,4.112391309355387,0.1,0.009086370468139648,0.21447181701660156,0.048053164,0.022077896,764.9257744635975,-0.007809195077474328,7.633440804922525,100.0,9600,1.4508466720581055,3.881820194789736e-05,3.4466204935679366e-05,767.2505327117128,100.0
329,1.4935150146484375,764.5574319297666,3.358445313227325,767.293657906367,755.1598519639177,100.0,4.235632704668528,0.1,0.008432149887084961,0.18529725074768066,0.046701465,0.018957758,764.8889402102144,-0.007803858453876548,7.632196141546124,100.0,9600,1.4503788948059082,2.6710339607783356e-05,2.803210506287954e-05,767.3301106044714,100.0
330,1.459740400314331,764.7257001085591,3.6234578605521763,767.2841860953796,755.1860061386735,100.0,3.913707692532676,0.1,0.008475542068481445,0.22015714645385742,0.045792542,0.019619633,764.8726162000488,-0.007788821687765411,7.633877844978901,100.0,9600,1.4309604167938232,3.480560785970358e-05,3.203586392920028e-05,767.327018442688,100.0
331,1.4838836193084717,764.550420934428,3.459400655304456,767.280363439049,751.1399856343126,100.0,3.589101134469159,0.1,0.008692502975463867,0.19265270233154297,0.04763392,0.023809535,764.8403966734867,-0.007872628763920123,7.632544037902747,100.0,9600,1.5113589763641357,3.273434431531799e-05,3.266899063327099e-05,767.3420098120835,100.0
332,1.2720680236816406,764.2199443107356,3.7526923009465567,767.2762781347739,751.1323790763407,100.0,3.703908929917801,0.1,0.00973820686340332,0.20769715309143066,0.045260366,0.021388857,764.7783514372117,-0.007845792006360689,7.628820874660306,100.0,9600,1.4658093452453613,3.559887677638001e-05,3.538427108946174e-05,767.2981853183841,100.0
333,1.3887922763824463,765.4763566921207,2.823898344874255,767.2979569769357,755.243710677688,100.0,5.372408629191491,0.1,0.008430957794189453,0.19602108001708984,0.045211572,0.013547843,764.8481519627026,-0.007781368933266982,7.641385297733399,100.0,9600,1.4866678714752197,2.399528399382452e-05,1.8392482862583037e-05,767.2888351237704,100.0
334,1.4059791564941406,765.5585156317135,2.4980896497115226,767.2879380678843,755.202056697635,100.0,4.024810462038382,0.1,0.008953332901000977,0.1981489658355713,0.045362677,0.02222506,764.9191883296037,-0.007790943944858019,7.642209056055141,100.0,9600,1.5494675636291504,1.4945982847261012e-05,1.5910074470697795e-05,767.3207763930133,100.0
335,1.3228282928466797,764.9731303213804,3.0540442972098494,767.287949807492,755.2130562331511,100.0,4.552691083009144,0.1,0.013494253158569336,0.21999001502990723,0.047092427,0.019934887,764.9245825287815,-0.007812742534902233,7.636770590798431,100.0,9600,1.453514575958252,3.18751546436868e-05,2.7785489914972728e-05,767.316149401502,100.0
336,1.4895026683807373,764.9713582613331,3.0535102374362983,767.2834960966758,755.1953687247924,100.0,5.167687755543532,0.1,0.00914454460144043,0.1966404914855957,0.046820804,0.015219414,764.9292601020367,-0.007829641430566298,7.6363370252361,100.0,9600,1.464512825012207,2.7775344688905017e-05,2.9909811316641064e-05,767.3111803377361,100.0
337,1.4108037948608398,764.5536600911006,3.2554738102358254,767.2689591930788,755.1561600285972,100.0,3.7059105799683496,0.1,0.00847625732421875,0.17911291122436523,0.045852274,0.018148791,764.8917001009431,-0.007841466013928029,7.632158533986072,100.0,9600,1.42311429977417,2.999530056738425e-05,2.818169692511073e-05,767.3338909801546,100.0
338,1.4319515228271484,764.7645240332031,3.243920922676846,767.292791291549,755.1705715173584,100.0,3.844918020778,0.1,0.008513450622558594,0.18233346939086914,0.044605415,0.018249903,764.8789824941691,-0.007813819253181786,7.6342695140801515,100.0,9600,1.4716451168060303,2.993478488162648e-05,2.872400628199279e-05,767.3187543584899,100.0
339,1.544018268585205,764.8067983727327,3.3016494061184716,767.2769310944291,751.1406982436778,100.0,3.764438340104875,0.1,0.008700370788574219,0.18561887741088867,0.0407344,0.01642297,764.8717640820255,-0.007809165034529696,7.634690834965471,100.0,9600,1.5039763450622559,3.2270924871953614e-05,3.267084169944458e-05,767.2977408767127,100.0
340,1.5298948287963867,764.3902536211768,3.322591710550436,767.2928307597774,751.2011594835186,100.0,4.190018915530075,0.1,0.009837865829467773,0.2108602523803711,0.035983723,0.0112935845,764.8236130359406,-0.007808404394489927,7.63094159560551,100.0,9600,1.521604061126709,3.865815527331212e-05,3.530735547316044e-05,767.2976299104793,100.0
341,1.4741032123565674,764.7602483349425,3.7656757405371204,767.2925449781147,747.196880652499,100.0,3.9668726862090598,0.1,0.008383750915527344,0.18406915664672852,0.045472767,0.021365177,764.8172765658408,-0.007860284749513316,7.63422304858382,100.0,9600,1.4604575634002686,3.575918959318031e-05,3.513219267004624e-05,767.3018380985923,100.0
342,1.3914461135864258,764.7681601152381,3.4392775658857593,767.2869156849379,755.1425261862022,100.0,4.282035770296937,0.1,0.00938868522644043,0.21423983573913574,0.04633098,0.01906432,764.8123649207805,-0.007779773223731828,7.634303560109601,100.0,9600,1.496504783630371,3.6246609033445276e-05,5.375857480557946e-05,767.3168053939992,100.0
343,1.4285595417022705,764.6812888274814,3.011026593782091,767.2849612125527,755.2047434141153,100.0,3.5314316550120948,0.1,0.008654117584228516,0.17926454544067383,0.048963882,0.02898479,764.7992573114507,-0.007814109999167209,7.633435890000833,100.0,9600,1.432774543762207,4.401878932635187e-05,2.7061263878008556e-05,767.3222824145702,100.0
344,1.4054341316223145,765.1817387115289,3.116868315597104,767.2768526766487,755.1538449676941,100.0,3.8702363404500093,0.1,0.015186071395874023,0.1804187297821045,0.047354426,0.020483145,764.8375054514585,-0.007811126098278647,7.638438873901722,100.0,9600,1.4700546264648438,2.491481875322153e-05,3.120972041888149e-05,767.3129219867574,100.0
345,1.3165652751922607,765.1805738389068,2.831863202675276,767.2828032465585,755.2265501079635,100.0,5.014026191803238,0.1,0.008862733840942383,0.19969558715820312,0.046555653,0.01642413,764.8718122902033,-0.007821224340553315,7.638428775659446,100.0,9600,1.4701144695281982,3.2220697974383355e-05,2.3604311162955655e-05,767.3087539967006,100.0
346,1.3530206680297852,764.9289420641247,3.3180310474072865,767.2647941158436,751.1503917550614,100.0,3.837794382218006,0.1,0.009028434753417969,0.18448877334594727,0.047852896,0.023238707,764.8775252675955,-0.007838857437852044,7.635911142562148,100.0,9600,1.4664857387542725,2.5058658679642015e-05,3.178449299694252e-05,767.3474886283483,100.0
347,1.4433283805847168,765.2211775965961,2.7148208989112237,767.2848513635514,755.210814482162,100.0,4.730327771349645,0.1,0.009190797805786133,0.18373394012451172,0.04464807,0.015624491,764.9118905004956,-0.007831708049351613,7.638834958617314,100.0,9600,1.4895670413970947,3.055500608891573e-05,2.0318885931269552e-05,767.283337592212,100.0
