iteration,time_sampling,stoc_pol_mean,stoc_pol_std,stoc_pol_max,stoc_pol_min,rollout_success,alpha,delta,time_vpg,time_npg,kl_dist,surr_improvement,running_score,rwd_sparse,rwd_dense,success_percentage,num_samples,time_VF,VF_error_before,VF_error_after,eval_score,eval_success
0,1.9664170742034912,-255.34025776341096,34.622658902133644,-179.3911342323042,-394.13280622928005,0.0,0.48871187143052314,0.1,0.013399362564086914,0.13054132461547852,0.051774982,0.2547027,-255.34025776341096,-0.10513212620805758,-3.3606360413428678,0.0,2273,0.21133184432983398,0.9991097002152416,0.8722432591012865,-352.1845144407286,0.0
1,1.8371427059173584,-257.77377804999213,36.947406289857625,-182.06044016337557,-382.30673912477386,0.0,0.6335737270961166,0.1,0.005772829055786133,0.12385392189025879,0.04914686,0.17126615,-255.5836097920691,-0.10673123240281845,-3.3927551057462444,0.0,2257,0.1979677677154541,0.87324001348031,0.19371870007768754,-354.34644325093785,0.0
2,1.9423198699951172,-263.6772880606935,53.27561046232849,-183.73161799004288,-496.6346271393374,0.0,0.6630437188063814,0.1,0.006186246871948242,0.12846040725708008,0.053906668,0.16533706,-256.3929776189316,-0.1043632770465513,-3.472132722331361,0.0,2365,0.20668983459472656,0.21488228994174174,0.151808948805412,-369.2227672897892,0.0
3,2.028754234313965,-252.57364019404676,33.78303013390593,-182.15473064224028,-361.43263926518387,0.0,0.6371743127488044,0.1,0.005889892578125,0.12774229049682617,0.05083255,0.17107207,-256.0110438764431,-0.10497194466832895,-3.3224576444599663,0.0,2254,0.20580220222473145,0.13656270781856084,0.10830996339468021,-424.0740147314581,0.0
4,2.038174867630005,-254.66411904650036,33.68096965398888,-187.72390024028735,-380.8873547311489,0.0,0.7036051883087565,0.1,0.005957365036010742,0.12369203567504883,0.052948743,0.13901049,-255.87635139344886,-0.10484273138292433,-3.3507462954600107,0.0,2274,0.1981205940246582,0.10592935360968664,0.08178550390759624,-447.67044589201373,0.0
5,2.045062780380249,-251.84542691189753,37.22163271975455,-183.8582024335396,-382.2485727585455,0.0,0.6699612682120608,0.1,0.005749940872192383,0.12584209442138672,0.051075,0.15338115,-255.47325894529374,-0.10311027564771709,-3.3129691528517653,0.0,2287,0.20612597465515137,0.08295126220661476,0.06222854137625912,-396.86361111243536,0.0
6,1.990530014038086,-260.7016680877708,41.09164695314393,-185.2246946377229,-471.38685233940777,0.0,0.684548529204862,0.1,0.0061187744140625,0.12984228134155273,0.054592438,0.15492563,-255.99609985954146,-0.10639070878684309,-3.432166823500475,0.0,2287,0.20426249504089355,0.0728991351572549,0.051998020623337665,-397.4473677092628,0.0
7,1.9358899593353271,-251.63881736501529,34.32453566086768,-180.20873680953264,-367.1692580418935,0.0,0.690254802084941,0.1,0.004363298416137695,0.1138150691986084,0.050476275,0.15399332,-255.56037161008885,-0.10433196888347814,-3.3099497572419203,0.0,2255,0.20170903205871582,0.04075328667722025,0.030508185330184543,-449.9923899294739,0.0
8,1.975677728652954,-250.84366704916602,31.83637034131158,-162.40676582292164,-328.6092899526003,0.0,0.6969458190327324,0.1,0.005636692047119141,0.12213420867919922,0.050872993,0.15785576,-255.08870115399657,-0.10579140036689595,-3.2998332484067205,0.0,2210,0.18805670738220215,0.027943505238952136,0.025117454075278146,-389.3723101695955,0.0
9,2.0886292457580566,-250.5740550401102,33.26555352092122,-181.74972952985766,-353.36808326114533,0.0,0.6720252560770646,0.1,0.0056650638580322266,0.12514305114746094,0.049270075,0.14968827,-254.63723654260795,-0.10421892079866273,-3.296267842026973,0.0,2234,0.19518232345581055,0.03057211313021597,0.02965156912431241,-391.1981645983775,0.0
10,2.0844106674194336,-252.58704760123828,42.48753523855348,-183.2555797362317,-562.9063834751487,0.0,0.6572461742169768,0.1,0.005994081497192383,0.13390541076660156,0.051712897,0.13599776,-254.43221764847098,-0.10400146959153832,-3.3226747893833086,0.0,2255,0.19665813446044922,0.058106163506027875,0.05600875599810537,-368.50849268947957,6.25
11,2.0967392921447754,-250.44345820865752,34.03054710585498,-190.55369070441938,-369.3708999273753,0.0,0.6932043250239833,0.1,0.005936145782470703,0.12440681457519531,0.049145985,0.14276285,-254.03334170448963,-0.10401688728894981,-3.2940789200084204,0.0,2245,0.19587302207946777,0.031254437371347,0.030311348252879497,-353.2003710215123,6.25
12,2.200632333755493,-250.27694945026653,36.80040344700471,-175.0240300370187,-361.75023161921644,0.0,0.7260976281458222,0.1,0.005493879318237305,0.12451457977294922,0.048941933,0.13535462,-253.65770247906732,-0.10251597282845791,-3.2924610266688856,0.0,2280,0.20113825798034668,0.03335361429758187,0.0323114688773305,-343.197350385925,6.25
13,1.9171266555786133,-248.62729400625162,37.32085065389791,-143.6583350455812,-344.1257846747734,0.0,0.6847007769126229,0.1,0.005602836608886719,0.12393426895141602,0.05186941,0.15840968,-253.15466163178576,-0.10409345022525268,-3.269995298353218,0.0,2248,0.2012193202972412,0.030583332854347937,0.029602616459351874,-286.6164906351458,6.25
14,2.0105156898498535,-248.04607547401613,41.31001264498918,-167.03914891476464,-432.1995497595088,0.0,0.691748608278441,0.1,0.005763053894042969,0.12619400024414062,0.050241202,0.14013727,-252.6438030160088,-0.1004697926975706,-3.262527656164364,0.0,2313,0.20755219459533691,0.040890608796456535,0.037991574193404674,-281.24809192564265,6.25
15,2.0436248779296875,-253.45323108794074,53.99446824108718,-184.18667795014363,-576.5515061291937,0.0,0.6458207216370594,0.1,0.0060384273529052734,0.13034701347351074,0.050933376,0.13005789,-252.724745823202,-0.10078298913039163,-3.3348307410009177,0.0,2343,0.21219611167907715,0.07608008966473448,0.07084307554852003,-266.57121087696135,6.25
16,1.96235990524292,-242.94310967381375,35.08081101838739,-165.76150490464505,-350.9031952548101,0.0,0.7109801887712653,0.1,0.005754709243774414,0.12912726402282715,0.05075528,0.14310877,-251.7465822082632,-0.09885320446059641,-3.1948423392221854,0.0,2305,0.20708584785461426,0.03199672325609621,0.028956732277487466,-276.64331381579655,12.5
17,2.082885265350342,-247.22637235511328,40.74766420203371,-142.41416377902368,-382.95007211279284,1.0416666666666667,0.7796655366776135,0.1,0.005875587463378906,0.12817764282226562,0.04966374,0.12596367,-251.29456122294823,-0.09792520135063305,-3.2524617163530536,1.0416666666666667,2371,0.21216368675231934,0.03742727465633204,0.03435823642742803,-293.78252052660173,12.5
18,2.023205041885376,-256.28306975828224,42.22073317881098,-176.94798819631072,-419.26666010215445,0.0,0.6903471722530455,0.1,0.006524562835693359,0.13372015953063965,0.0505385,0.14126976,-251.79341207648164,-0.09856441279237722,-3.3723215848405705,0.0,2434,0.2384638786315918,0.046290121159910484,0.04291075628399235,-281.0644010147154,12.5
19,2.0590291023254395,-256.39241352520486,50.28949240363831,-166.71578809716928,-518.0498459866049,0.0,0.718997152214453,0.1,0.0057373046875,0.12759685516357422,0.049379576,0.13168505,-252.25331222135398,-0.0987399271327498,-3.374240431514853,0.0,2443,0.23790431022644043,0.05276003336919271,0.052320432933644696,-274.2715841108127,18.75
20,2.181497812271118,-248.38635485838964,41.83795051696788,-171.53028023432523,-394.5697321872048,0.0,0.7704456413020265,0.1,0.0057599544525146484,0.12850117683410645,0.04870517,0.12621765,-251.86661648505753,-0.09594492096095736,-3.267428610086677,0.0,2456,0.26249074935913086,0.045024726407780435,0.040957942262879715,-262.0426566123613,6.25
21,2.1687963008880615,-259.42650118929583,80.55644419042572,-165.76044738461746,-935.6438237242294,0.0,0.7402079076057183,0.1,0.00615382194519043,0.13424110412597656,0.050244614,0.11365291,-252.62260495548136,-0.09834701936057798,-3.4150859829263873,0.0,2464,0.286487340927124,0.13722949253381989,0.1298500515948944,-239.76214911891014,6.25
22,1.99472975730896,-244.77511070227555,38.108220722235664,-155.9154993099026,-361.8144649921242,0.0,0.7565530542173722,0.1,0.005833864212036133,0.13521718978881836,0.050845504,0.13687265,-251.8378555301608,-0.09509144208253129,-3.2193456754264367,0.0,2409,0.2878117561340332,0.03791738293768939,0.033068129345035134,-259.87641537547563,6.25
23,2.08793306350708,-245.57717845750008,38.88631156524871,-158.52013394290017,-363.1216903693654,0.0,0.785867625293122,0.1,0.005838871002197266,0.12326788902282715,0.050240353,0.12785128,-251.21178782289473,-0.09697448946563858,-3.2304923622635022,0.0,2388,0.3045365810394287,0.03105083321463773,0.03040441241317598,-269.8982156390959,18.75
24,2.132920265197754,-246.1771174062907,41.00426864785447,-166.88574249729032,-401.32814605441587,0.0,0.6987853609608561,0.1,0.0057523250579833984,0.12677407264709473,0.04909012,0.14455697,-250.70832078123433,-0.09578241514070636,-3.237340403036868,0.0,2427,0.3237035274505615,0.035544948269444314,0.03488435943499171,-243.24284419894633,6.25
25,2.066173791885376,-243.4616404118382,36.36908028629428,-146.91276746451373,-330.11446994781056,0.0,0.7296306162529574,0.1,0.00555729866027832,0.12419939041137695,0.048960295,0.14959946,-249.98365274429472,-0.09628511991069943,-3.201597016081953,0.0,2390,0.3141775131225586,0.025298552183851467,0.02420602068873796,-250.62145358415887,6.25
26,2.327552556991577,-249.1745141367704,46.11681514379996,-155.54573701467226,-443.89697489380114,0.0,0.7879074527008882,0.1,0.005568504333496094,0.12710094451904297,0.049680598,0.124243826,-249.9027388835423,-0.09425705500836822,-3.2771717635567406,0.0,2495,0.32265424728393555,0.050028501114459466,0.04589539264000176,-244.10795783764428,6.25
27,2.3765335083007812,-236.0582961751376,35.07204257211792,-144.04914120443098,-320.88267110899875,2.0833333333333335,0.7614515516902761,0.1,0.005944013595581055,0.12935566902160645,0.048122026,0.1375698,-248.51829461270182,-0.09421002710635691,-3.1028980482561455,2.0833333333333335,2391,0.32892918586730957,0.024059938740906412,0.022233878860162398,-236.75147130046025,6.25
28,2.139693260192871,-251.47583989149675,44.3114711275358,-163.09241730828674,-371.41278352479605,0.0,0.8110861670293349,0.1,0.0058209896087646484,0.13162446022033691,0.048391405,0.12335718,-248.81404914058132,-0.0945386538049714,-3.3079035878500593,0.0,2505,0.34781312942504883,0.039351858661990875,0.03433783191930685,-241.51756334654652,6.25
29,2.219299077987671,-245.91760935577722,36.90434504480454,-161.11907806144623,-328.22465416566956,0.0,0.783974992564351,0.1,0.006074428558349609,0.1267249584197998,0.05013826,0.13829994,-248.52440516210092,-0.09448480541834668,-3.234304296229221,0.0,2453,0.3320760726928711,0.028859889354464263,0.027611079918203423,-242.85833337264486,6.25
30,2.1383516788482666,-242.2109031807132,35.367700129761154,-175.2133907133864,-360.3621770301177,0.0,0.736332377135603,0.1,0.005758762359619141,0.12864470481872559,0.050640963,0.13715735,-247.89305496396213,-0.09412203417842119,-3.183495241225599,0.0,2415,0.32918715476989746,0.02601412301310085,0.025261789812147713,-252.32399816756973,6.25
31,2.0321812629699707,-243.53673813027413,42.3720652419552,-168.1726351644141,-405.621278345171,0.0,0.7607189093288889,0.1,0.005627870559692383,0.1250460147857666,0.047327142,0.12975444,-247.45742328059333,-0.0956487863470424,-3.2018282103817755,0.0,2395,0.3260459899902344,0.03558771659071952,0.033455602731269636,-242.11951347415845,6.25
32,2.181889295578003,-246.84395001058883,39.31279415745715,-173.2292995548567,-369.43238155454105,0.0,0.8401814863499756,0.1,0.005936622619628906,0.12459111213684082,0.04926737,0.120195314,-247.39607595359288,-0.09439073248399173,-3.246687047242958,0.0,2475,0.33459997177124023,0.02890257156717645,0.028353481842036954,-245.06199073909426,6.25
33,2.131298542022705,-237.12451479729066,38.46719422243321,-160.50065697283972,-402.5319291996541,0.0,0.7939494973547602,0.1,0.005821704864501953,0.12855744361877441,0.0493688,0.12238035,-246.36891983796266,-0.09469106885971786,-3.1172087282120096,0.0,2382,0.33748579025268555,0.033726369125305716,0.028614346057638976,-236.1835837801629,6.25
34,2.033557891845703,-236.4390952612703,33.52018602370872,-155.22589759811217,-367.1718928634873,0.0,0.740101143847094,0.1,0.005576133728027344,0.1252593994140625,0.0514044,0.14339803,-245.37593738029344,-0.095463267298545,-3.1072788500575865,0.0,2329,0.32049012184143066,0.022003093932704,0.02038624260019175,-237.35751260389497,6.25
35,2.196713447570801,-249.9507982769943,37.41671267208671,-151.60817274851996,-350.75518651366065,0.0,0.7368357593231634,0.1,0.005898952484130859,0.13995909690856934,0.050022107,0.1378996,-245.83342346996355,-0.09344582875388836,-3.2887092145548897,0.0,2490,0.3377852439880371,0.02907029569842001,0.026998673598590366,-242.27329200374237,6.25
36,2.1661927700042725,-244.52665016648902,47.81532852646977,-156.37581398642405,-491.4553258598995,0.0,0.7820657097096263,0.1,0.005681514739990234,0.12885427474975586,0.050668932,0.119305626,-245.7027461396161,-0.09421550470795409,-3.2156155303035163,0.0,2429,0.3344845771789551,0.04523429000634112,0.04331522326186686,-237.53228816347672,6.25
37,2.174736499786377,-243.72240983405473,36.951633725662326,-131.92067307626087,-375.44134215743867,0.0,0.7876995176228863,0.1,0.005586147308349609,0.1292424201965332,0.049032487,0.12826063,-245.50471250905997,-0.09344878965612695,-3.2049653021509292,0.0,2433,0.3378298282623291,0.02606298577540307,0.025170678133591164,-235.37197181899873,6.25
38,2.2219831943511963,-238.01597162862353,41.316663880010815,-139.93221765233363,-363.9452934856052,0.0,0.8291549790411822,0.1,0.0064373016357421875,0.1373145580291748,0.048900798,0.12310929,-244.75583842101634,-0.09151620598716248,-3.1286071468315275,0.0,2458,0.3394298553466797,0.02823090352466534,0.027374202550981108,-236.33593559983825,6.25
39,2.292693614959717,-238.7311539783631,38.16187061614013,-154.8105003923005,-361.7981005147026,0.0,0.7734932014801655,0.1,0.005733013153076172,0.1285262107849121,0.0495469,0.13300937,-244.153369976751,-0.0910482486764701,-3.1389722638882476,0.0,2481,0.3466806411743164,0.029070864135910195,0.026445946076928472,-231.7054619076929,6.25
40,2.107401132583618,-230.949661076359,35.42606617515026,-147.9186164632926,-336.82621276130743,1.0416666666666667,0.8280547832943601,0.1,0.0055615901947021484,0.12497138977050781,0.049991816,0.11910093,-242.83299908671182,-0.09038179287123549,-3.034991746931792,1.0416666666666667,2421,0.3265371322631836,0.02345024806731192,0.022339587222883785,-234.4935628503212,6.25
41,2.341008424758911,-236.5423141596078,39.86668667204529,-135.67818273751902,-400.43515963884556,0.0,0.8024391649931611,0.1,0.005583286285400391,0.12511277198791504,0.04931662,0.12096231,-242.2039305940014,-0.09331796951170596,-3.109375442274191,0.0,2413,0.32882189750671387,0.028512813143310757,0.027467438602208884,-233.91740902901685,6.25
42,2.564779758453369,-234.87924375451993,30.939322240722184,-157.75041947381504,-325.031761532875,0.0,0.7764588483087315,0.1,0.005882978439331055,0.1292264461517334,0.04868617,0.1358728,-241.47146191005328,-0.09080788397356282,-3.0865400039264137,0.0,2442,0.3433256149291992,0.017866880244007764,0.01734826170165485,-236.5719562184653,0.0
43,2.1064860820770264,-229.92210388394992,36.961785474550744,-149.87554677111234,-368.2824194078112,0.0,0.8106826773898161,0.1,0.0057032108306884766,0.1281602382659912,0.050369866,0.12889536,-240.31652610744294,-0.08927685080933677,-3.02131022963653,0.0,2446,0.3303701877593994,0.02794790952645931,0.025880365169934156,-240.65862389154262,0.0
44,2.1425862312316895,-233.5470177943357,35.26894385025155,-155.87195337096205,-327.96324757028987,0.0,0.824720015562403,0.1,0.005761861801147461,0.12706327438354492,0.049481705,0.12247023,-239.63957527613223,-0.09125184432909654,-3.069784168110388,0.0,2414,0.32016658782958984,0.022023041732048443,0.02121684754870046,-237.98096037014238,0.0
45,2.1482033729553223,-235.2214723877486,32.486421505956905,-163.2083663370007,-372.2272772845138,0.0,0.7627363471372236,0.1,0.005811452865600586,0.12760019302368164,0.049468532,0.12961927,-239.19776498729388,-0.09246701847226453,-3.0916458003169622,0.0,2391,0.3279531002044678,0.01882831432209587,0.018047576578752188,-247.16676155819664,0.0
46,2.0908570289611816,-231.83739084895737,34.48407500398767,-159.039488890803,-329.20088902393593,0.0,0.8083816693017825,0.1,0.00596165657043457,0.127791166305542,0.049589597,0.12134648,-238.46172757346022,-0.08947591721420782,-3.0467386929956337,0.0,2444,0.3364725112915039,0.021576570672679866,0.020027198408714284,-245.52055857219065,0.0
47,2.2446231842041016,-237.0656222389247,40.632547622095856,-101.67666404597881,-386.32361159787945,1.0416666666666667,0.8436296831752818,0.1,0.005787849426269531,0.1261606216430664,0.049456198,0.11947487,-238.32211704000667,-0.09025989573502247,-3.1169914095668454,1.0416666666666667,2486,0.3300814628601074,0.023748937040280374,0.022544999225634736,-247.42239833269255,6.25
48,2.1325995922088623,-230.3822076941111,42.17332768633532,-120.08383819928105,-475.04675303968946,0.0,0.8372633931968864,0.1,0.005804300308227539,0.12863636016845703,0.049887527,0.11308432,-237.52812610541713,-0.09129309934421433,-3.027612681389068,0.0,2404,0.33351683616638184,0.029363897777938394,0.028046465475343372,-245.13935382487404,0.0
49,2.0570333003997803,-227.74702386720875,28.478111538737807,-133.03401019375752,-285.87276459961845,1.0416666666666667,0.8267384253699204,0.1,0.005629062652587891,0.12743139266967773,0.051256172,0.12817511,-236.55001588159632,-0.08913261617519087,-2.9922493125693634,1.0416666666666667,2409,0.3230576515197754,0.015456674292804546,0.014325151674227925,-247.14217966388622,6.25
50,2.116015911102295,-229.24965105236925,31.329919811877037,-145.30328329659054,-299.3795945773273,0.0,0.798478321117817,0.1,0.005638599395751953,0.1288588047027588,0.049992383,0.12824382,-235.81997939867364,-0.08956326251656781,-3.011800478722264,0.0,2422,0.32923316955566406,0.014915870773514172,0.01422283731654965,-251.8326441435413,0.0
51,2.0936641693115234,-229.0633666916652,28.082587724385494,-140.3312567949809,-301.7410396676505,1.0416666666666667,0.8169007194543833,0.1,0.005557537078857422,0.12449216842651367,0.050469197,0.12347478,-235.14431812797278,-0.09046262589750502,-3.009410574565983,1.0416666666666667,2380,0.32329344749450684,0.013798829251386672,0.013183231361269731,-252.28679893375363,0.0
52,2.1566734313964844,-220.71160098395066,31.52326881533267,-129.41912672344205,-307.0044515496852,1.0416666666666667,0.857289941563574,0.1,0.005468845367431641,0.1346418857574463,0.04733116,0.11870919,-233.70104641357057,-0.0883601225524186,-2.8981766671200426,1.0416666666666667,2383,0.3198256492614746,0.01568367999655337,0.015092387547008675,-255.61544453492118,0.0
53,2.1982016563415527,-235.92059378894362,27.179436105588177,-175.79490770788436,-305.2099522813507,0.0,0.8021908978530585,0.1,0.0059506893157958984,0.13039159774780273,0.05014636,0.13713598,-233.92300115110788,-0.09022356848198494,-3.100311114793134,0.0,2431,0.3192729949951172,0.015460818827975292,0.014029042777441955,-241.98768305065653,0.0
54,2.2066471576690674,-224.5443937638596,27.879241833551347,-157.92137961499958,-295.41154939291147,0.0,0.8067965325420468,0.1,0.00576019287109375,0.13301467895507812,0.04999548,0.12207284,-232.9851404123831,-0.0887771987301737,-2.9503980919870956,0.0,2369,0.3212859630584717,0.015940869255341376,0.013420852483675928,-248.2199049105497,0.0
55,2.259740114212036,-231.5225861237249,30.95413217161975,-150.958007544552,-366.1718827300241,1.0416666666666667,0.8342722947812249,0.1,0.005702018737792969,0.12827348709106445,0.048868235,0.1196624,-232.8388849835173,-0.0902301014589668,-3.042404238345881,1.0416666666666667,2415,0.33276844024658203,0.018146436105192842,0.016123337055899207,-242.16581162523272,0.0
56,2.2646589279174805,-224.48383852599432,30.63205765031204,-151.7847646809329,-315.92604579904594,0.0,0.776336596644021,0.1,0.0056304931640625,0.14056611061096191,0.048602294,0.12992223,-232.003380337765,-0.0889564404223342,-2.947728673615083,0.0,2379,0.33229804039001465,0.016118208456096184,0.015142453112390509,-250.6268152191643,0.0
57,2.0877842903137207,-225.7341390805062,32.92759578824695,-128.56265874641718,-308.07772781866765,0.0,0.7966796456552302,0.1,0.00593256950378418,0.12690114974975586,0.049082857,0.14929019,-231.37645621203913,-0.09006671290152886,-2.965283528211524,0.0,2377,0.3257749080657959,0.01696054030156674,0.015584768209728768,-261.17902373280344,0.0
58,2.1567227840423584,-222.17508316060616,31.572287984915267,-153.9766148681744,-313.26963880619866,0.0,0.8462877655040245,0.1,0.005543947219848633,0.12429022789001465,0.04947433,0.113989934,-230.45631890689583,-0.08742396372887805,-2.918364000030788,0.0,2409,0.3252439498901367,0.015382927998828733,0.013923853484320126,-241.15701458137653,0.0
59,2.118978977203369,-223.79920091999483,30.902894122274706,-144.02927962921726,-292.2349513623763,1.0416666666666667,0.7513265119806679,0.1,0.005512714385986328,0.12409734725952148,0.04839038,0.14965653,-229.79060710820573,-0.09093588166219559,-2.939348762043663,1.0416666666666667,2317,0.31572437286376953,0.01556137660438025,0.01390850125603918,-240.93725938536164,0.0
60,2.110145330429077,-225.24362448678073,30.23206635311284,-159.19209467762872,-306.4492100750235,0.0,0.843160136215394,0.1,0.006037235260009766,0.12348055839538574,0.048609808,0.11705437,-229.33590884606326,-0.08974255329577892,-2.958494718630503,0.0,2352,0.3183474540710449,0.014894064636409429,0.014539734366264104,-250.4692447011669,0.0
61,2.0761547088623047,-216.31525048327845,29.751431871390494,-134.79434988014353,-279.19466742160256,0.0,0.8203192277775403,0.1,0.0059735774993896484,0.12789249420166016,0.05102108,0.12985831,-228.0338430097848,-0.08742244888844579,-2.840305701294269,0.0,2355,0.331127405166626,0.015390262678455254,0.0136367363351073,-247.51710195830083,0.0
62,2.1746397018432617,-222.41348081656483,40.03240221511737,-110.91442389302716,-384.31632575411743,2.0833333333333335,0.8122537415869782,0.1,0.005510807037353516,0.12726974487304688,0.050280727,0.12684374,-227.47180679046278,-0.08853654325814003,-2.9201396105319866,2.0833333333333335,2374,0.3270742893218994,0.02397350694228821,0.02245502275228103,-247.69439030054906,0.0
63,2.2606375217437744,-218.26120961170136,32.37143323918147,-137.1354846482155,-293.6766301392916,0.0,0.8450102259100891,0.1,0.005660057067871094,0.12756109237670898,0.04982964,0.12528096,-226.55074707258666,-0.08734091551756855,-2.86517757583688,0.0,2380,0.32641172409057617,0.017396216861561297,0.016734184359989128,-264.5186679977865,0.0
64,2.2126271724700928,-217.19782940161735,30.718252474378794,-123.44349163766111,-292.92673170447205,1.0416666666666667,0.7967105777784314,0.1,0.006026029586791992,0.1289992332458496,0.048010524,0.12552007,-225.61545530548975,-0.08873350526607254,-2.851117541266488,1.0416666666666667,2325,0.3373453617095947,0.014416285198317854,0.013826885403049742,-263.19205833985257,0.0
65,2.2602667808532715,-220.2565377200858,30.652850662031376,-132.4689917996728,-292.33963609888525,0.0,0.8410102293122027,0.1,0.0056002140045166016,0.12639880180358887,0.050038747,0.11814462,-225.07956354694934,-0.08857759215057896,-2.892703010519995,0.0,2351,0.3128352165222168,0.013618224242938298,0.013165191174306326,-261.52782738354097,0.0
66,2.1947686672210693,-221.27170825669728,33.586838997979534,-130.43475988921762,-288.33776661342165,1.0416666666666667,0.7924277985505732,0.1,0.0055654048919677734,0.1294848918914795,0.048728637,0.1314969,-224.69877801792416,-0.08825724033152664,-2.9058919486591677,1.0416666666666667,2374,0.3234877586364746,0.01592621009636187,0.01533962230795457,-259.6879091393517,0.0
67,2.198089838027954,-222.62556693037564,31.094366986172368,-118.20151646713543,-276.65435024568,2.0833333333333335,0.8109743197680768,0.1,0.005712985992431641,0.13124847412109375,0.04906617,0.1319434,-224.4914569091693,-0.08853874504703413,-2.922912578603348,2.0833333333333335,2369,0.3362550735473633,0.01315219022031832,0.012835078352824023,-258.0330822339479,0.0
68,2.3111164569854736,-217.463540373534,37.48475592154896,-101.0847984946412,-293.21217390158364,3.125,0.843529897503675,0.1,0.005842685699462891,0.12818408012390137,0.049450558,0.12574154,-223.78866525560576,-0.08691088505026605,-2.855760246857326,3.125,2386,0.3232898712158203,0.019063120335167785,0.01814759461453468,-248.81011758859802,0.0
69,2.3027055263519287,-218.61323188407505,33.88268747266121,-122.8632435280961,-307.065260356346,0.0,0.8015967938476578,0.1,0.005655527114868164,0.12437605857849121,0.048880205,0.12975313,-223.2711219184527,-0.08645996754240907,-2.86966452868605,0.0,2394,0.313340425491333,0.01473145474576576,0.014336486206883419,-245.68847110102112,0.0
70,2.258453845977783,-220.66287412535667,33.6403324190552,-114.37723513516829,-298.6147588178006,1.0416666666666667,0.7858830664197847,0.1,0.005968332290649414,0.1267223358154297,0.04985954,0.13687386,-223.01029713914312,-0.08750543952442046,-2.898001317278266,1.0416666666666667,2377,0.31876206398010254,0.018996220648460377,0.018069722919483083,-242.43890396152537,0.0
71,2.4503633975982666,-224.45730564507565,37.08024533340879,-97.34989204801346,-297.9269662509099,2.0833333333333335,0.8172179532314713,0.1,0.0061397552490234375,0.1321401596069336,0.048894826,0.14569972,-223.15499798973636,-0.08705028091854793,-2.9481912339037954,2.0833333333333335,2455,0.3331005573272705,0.01867164184151274,0.01749106271826571,-274.18602744886607,0.0
72,2.0574915409088135,-220.73712442817748,31.637639343242487,-124.03433984045998,-326.7816178631695,0.0,0.8370504234185171,0.1,0.005589723587036133,0.1277904510498047,0.04950722,0.11925895,-222.9132106335805,-0.08689876929747432,-2.898617034349126,0.0,2386,0.3178555965423584,0.018096081103182535,0.01715158950333879,-261.6266564350366,0.0
73,2.1026906967163086,-218.65230862473936,31.125763640943152,-135.31554759751577,-291.5765020587723,1.0416666666666667,0.8174226484011249,0.1,0.005515098571777344,0.12368345260620117,0.044904307,0.117366515,-222.48712043269637,-0.08684312521987171,-2.8710952176490956,1.0416666666666667,2379,0.31436705589294434,0.017934475698319928,0.017010148273668826,-248.93588566852074,0.0
74,2.181943416595459,-213.69132378900983,39.089170234763095,-49.759005110487664,-320.30776476636123,1.0416666666666667,0.8303633378579289,0.1,0.005646944046020508,0.12281322479248047,0.048086025,0.12523292,-221.60754076832774,-0.08610083388496188,-2.804775825376524,1.0416666666666667,2384,0.3124053478240967,0.024115536671096487,0.023160554004402225,-260.11805426704836,0.0
75,2.1838858127593994,-211.07799601458973,36.76188774207288,-115.25735418030331,-292.16191917419053,1.0416666666666667,0.7914952940494655,0.1,0.005528688430786133,0.12952351570129395,0.049865834,0.12795556,-220.55458629295393,-0.08521319553489631,-2.769691265559724,1.0416666666666667,2371,0.31349682807922363,0.01882620691364464,0.018224388202515904,-243.73464023931137,0.0
76,2.191967010498047,-221.8208577712285,35.30936519259711,-121.04219664371672,-307.0591578565861,0.0,0.8269642223797438,0.1,0.0056340694427490234,0.12795329093933105,0.047779277,0.12166619,-220.6812134407814,-0.0866372952625682,-2.913181630846607,0.0,2424,0.3232855796813965,0.021715269828728227,0.018743600311659014,-244.8692937779155,0.0
77,2.256779193878174,-217.10957589682903,34.07524699593471,-121.79455686431213,-313.7515277058532,0.0,0.8028432261278815,0.1,0.00667881965637207,0.1353282928466797,0.049636938,0.13393827,-220.32404968638616,-0.08531831361969357,-2.8503455083601033,0.0,2414,0.32633137702941895,0.018826759678833627,0.01845318784494618,-260.5514281635604,0.0
78,2.1429104804992676,-209.43000804309872,37.17954056523963,-85.3219239580049,-272.2677339563197,2.0833333333333335,0.7893679168488079,0.1,0.006181478500366211,0.12955403327941895,0.050750855,0.13713795,-219.2346455220574,-0.08443216284723752,-2.747584199416449,2.0833333333333335,2389,0.32660651206970215,0.01685526582259699,0.016293250227226573,-262.3614236672637,0.0
79,2.183353900909424,-214.89067958862725,33.46834784724127,-130.55834974350455,-283.8336084689436,1.0416666666666667,0.8301278837527217,0.1,0.005811214447021484,0.12554621696472168,0.049136873,0.12631841,-218.8002489287144,-0.08542625515028816,-2.820586130276007,1.0416666666666667,2396,0.320192813873291,0.01846257578810371,0.01783325231677113,-257.6207536526573,0.0
80,2.1192965507507324,-213.80223256046884,33.902444524053394,-110.68859499509924,-279.146385894731,1.0416666666666667,0.7980653596013982,0.1,0.0058002471923828125,0.12854695320129395,0.049663823,0.1351953,-218.30044729188987,-0.0854645948361941,-2.806034712834825,1.0416666666666667,2381,0.32689738273620605,0.016326054994868076,0.015281952254183863,-247.73521349522707,0.0
81,2.182860851287842,-219.09332783769082,35.964265058623766,-113.0737535452582,-302.3655049649196,0.0,0.8266169480824643,0.1,0.005850553512573242,0.12823915481567383,0.048602443,0.13013802,-218.37973534646997,-0.08741474712419854,-2.8767646258891824,0.0,2378,0.3293781280517578,0.02087178585151951,0.020138870648434143,-245.54853637377795,0.0
82,2.1952555179595947,-216.29746209815085,36.66808610375575,-114.77789067421469,-301.35986165036854,0.0,0.7713632405070978,0.1,0.006028652191162109,0.12761855125427246,0.047981046,0.15026423,-218.17150802163806,-0.0862576434691369,-2.83943291719136,0.0,2375,0.3378455638885498,0.019641060176073262,0.019139457907455287,-245.02497592139957,0.0
83,2.3419992923736572,-216.85436535053773,33.996657164505315,-113.98658805183453,-296.09312675868614,0.0,0.8308712989441541,0.1,0.005597114562988281,0.12270236015319824,0.050136466,0.12675142,-218.03979375452803,-0.08560598713444272,-2.8464850833821305,0.0,2406,0.3224830627441406,0.017269669913828983,0.016703938988107188,-248.8370888327746,0.0
84,2.087315797805786,-214.89388122500728,35.724027999680466,-119.49644389588,-282.2016211006796,0.0,0.8159439448421484,0.1,0.005970001220703125,0.12887835502624512,0.048478782,0.12706253,-217.72520250157595,-0.08693522052571444,-2.820837450101568,0.0,2359,0.32204699516296387,0.017689619487459757,0.017384491911421326,-237.76732213517073,0.0
85,2.3374619483947754,-213.70098204066858,33.847996432646035,-116.94686105162509,-287.2361210460158,0.0,0.799657660054689,0.1,0.006180524826049805,0.12879514694213867,0.050488897,0.13214146,-217.32278045548523,-0.08569297410927361,-2.8048192525953097,0.0,2374,0.33160948753356934,0.017115954356117288,0.016843505482565885,-249.78382355244491,0.0
86,2.141322135925293,-216.84297805942592,31.03334767940792,-147.52561994454322,-278.3695300167541,0.0,0.8135271229740876,0.1,0.005484342575073242,0.12413763999938965,0.04953809,0.1269212,-217.27480021587928,-0.08692691167710347,-2.8476546485816265,0.0,2360,0.3159337043762207,0.01636061251626955,0.015079812956542772,-242.93876025271834,0.0
87,2.128716468811035,-207.60479625272828,34.14778407390479,-114.16353756080613,-281.2639704297747,2.0833333333333335,0.8156495379052554,0.1,0.005652427673339844,0.12467479705810547,0.05014866,0.14003824,-216.3077998195642,-0.08456017628117075,-2.722805123961056,2.0833333333333335,2356,0.3168659210205078,0.018482162638911826,0.016841600809032797,-233.5839317578643,0.0
88,2.1224162578582764,-220.76196552068123,29.585303378737173,-111.72803841259612,-283.08223168752687,0.0,0.8239234150841777,0.1,0.005474567413330078,0.12318992614746094,0.05073258,0.12603928,-216.7532163896759,-0.08692061946819236,-2.898755414866264,0.0,2376,0.3242785930633545,0.01573152874882041,0.013159590655902905,-238.8008937474113,0.0
89,2.1568541526794434,-220.01335742133483,32.29716042434825,-110.0604684433031,-305.39536793655896,2.0833333333333335,0.7555491198013281,0.1,0.026686906814575195,0.12531089782714844,0.050644923,0.14026968,-217.07923049284182,-0.08771716933647367,-2.8886670825227685,2.0833333333333335,2359,0.31319355964660645,0.015276488956712448,0.014574071157286605,-231.51925983838285,0.0
90,2.077636957168579,-213.55276845783843,32.25211270544441,-115.73100458010023,-276.5843348776759,0.0,0.822059782416392,0.1,0.0056934356689453125,0.12803363800048828,0.04865699,0.1277159,-216.72658428934147,-0.08662140551629675,-2.8032700167132156,0.0,2323,0.3230574131011963,0.016027304837610126,0.01521802877999811,-235.96677926926756,0.0
91,2.235907554626465,-217.46543563066038,33.44931122872488,-130.46835666673417,-306.8749427337181,1.0416666666666667,0.8383554888161716,0.1,0.005591154098510742,0.12897539138793945,0.050168257,0.12758048,-216.80046942347337,-0.08642194521205278,-2.854716062362838,1.0416666666666667,2385,0.3265416622161865,0.01645386956286806,0.016005668778159253,-237.9472899404864,0.0
92,2.2193448543548584,-218.9374701620521,29.765349552447006,-137.88460240483025,-275.248365992967,0.0,0.8428952030634329,0.1,0.005656003952026367,0.13057661056518555,0.049373686,0.11418179,-217.01416949733124,-0.0877504389615293,-2.873778762216435,0.0,2343,0.31749582290649414,0.012825236632825157,0.012191187845337109,-231.7124963275065,0.0
93,2.2075328826904297,-220.89948040457975,30.398241362485738,-120.97411638543453,-284.49433030088426,0.0,0.7960774327714306,0.1,0.0058498382568359375,0.1225888729095459,0.04923758,0.12732469,-217.4027005880561,-0.08845045409335477,-2.900006880619875,0.0,2337,0.31676435470581055,0.013437299714928928,0.012749418411319819,-228.4645609994743,0.0
94,2.2958521842956543,-214.57564569213716,34.19478726581939,-117.89076008167542,-278.40874730515884,0.0,0.7960478897829433,0.1,0.005691051483154297,0.12868380546569824,0.050094206,0.14035073,-217.1199950984642,-0.08612645272982138,-2.8154653519576534,0.0,2364,0.32511281967163086,0.016815535468656464,0.016438872809410213,-232.4395892964741,0.0
95,2.0827224254608154,-219.80141145640218,31.57037799587563,-127.35849624674981,-278.99439656731244,1.0416666666666667,0.7944802640652155,0.1,0.00568699836730957,0.1277480125427246,0.050258305,0.14022198,-217.388136734258,-0.08710035846342427,-2.8860212463470964,1.0416666666666667,2369,0.3342142105102539,0.014536320082151253,0.014006760786871289,-229.45193688774137,0.0
96,2.122589588165283,-218.68158394163575,28.81083489701739,-133.9874814690882,-286.18504757293465,2.0833333333333335,0.7570604199982756,0.1,0.0058040618896484375,0.12365031242370605,0.049461212,0.14518282,-217.5174814549958,-0.0879883681091584,-2.87094747890742,2.0833333333333335,2337,0.3133666515350342,0.012764859988550755,0.012333019209901153,-230.8368845059922,0.0
97,2.0983989238739014,-211.58252174711666,27.423066671286705,-135.98450211695803,-263.32466033891933,0.0,0.7913237115087107,0.1,0.005913496017456055,0.12550759315490723,0.050686248,0.1286995,-216.9239854842079,-0.08523665127527717,-2.776821616776099,0.0,2354,0.31302642822265625,0.015099914355779034,0.013593374434472538,-228.93536323605417,0.0
98,2.2876808643341064,-217.58620296721952,27.26381670204723,-142.2334486612203,-278.00794342033277,0.0,0.8260285461447494,0.1,0.004233360290527344,0.12456107139587402,0.049841538,0.12705083,-216.99020723250905,-0.08707075726237808,-2.8557780621139677,0.0,2342,0.3185441493988037,0.01221307373555363,0.011724147525310863,-231.06204527016666,0.0
99,2.0737643241882324,-218.06597152000518,30.948623203067076,-144.80265276401244,-302.8726336338571,0.0,0.8516458520985009,0.1,0.0058367252349853516,0.12438082695007324,0.04977768,0.11480794,-217.0977836612587,-0.08761458599668799,-2.8624940174838223,0.0,2339,0.30657100677490234,0.016070733396957897,0.015602249701594531,-229.87434191291763,0.0
100,2.1551711559295654,-211.8693741743879,29.285270091438022,-137.46160657268345,-298.9105335236539,0.0,0.7752506920189048,0.1,0.0043239593505859375,0.12308526039123535,0.049892362,0.13148598,-216.5749427125716,-0.08660878594720685,-2.780082442545013,0.0,2326,0.3077561855316162,0.01548041311463187,0.015267641306912513,-231.23023185381294,0.0
101,2.3910067081451416,-210.52655200426292,32.13587714260088,-99.70087655972597,-279.76618057605833,1.0416666666666667,0.8155464616220521,0.1,0.0055980682373046875,0.12483382225036621,0.050030027,0.13642411,-215.97010364174076,-0.08569146775994234,-2.7633631009494386,1.0416666666666667,2344,0.3089430332183838,0.01465042623750543,0.013297781218840442,-232.47579816719463,0.0
102,2.0797157287597656,-212.6737583157717,34.79938477621455,-102.74277711576966,-283.4901360494935,1.0416666666666667,0.7576941042202489,0.1,0.005895376205444336,0.13200640678405762,0.050459664,0.16016153,-215.64046910914385,-0.08598310969721452,-2.790445714582591,1.0416666666666667,2380,0.3309791088104248,0.01608281687449772,0.015751725818120035,-241.83339557282952,0.0
103,2.1296308040618896,-209.52635076508807,35.169384697844656,-105.6662176555891,-311.5713405828315,2.0833333333333335,0.8158137321979249,0.1,0.0059397220611572266,0.12856245040893555,0.05008718,0.14467525,-215.02905727473828,-0.08509407920508587,-2.7484064585252477,2.0833333333333335,2366,0.32445287704467773,0.01805410142530525,0.0177837589373328,-240.9989413545398,0.0
104,2.1380748748779297,-213.32522314319422,38.16541736867357,-116.01964902953563,-334.0564764216031,1.0416666666666667,0.8830380800841533,0.1,0.005829572677612305,0.13155293464660645,0.049531385,0.12067606,-214.85867386158387,-0.08412796234995551,-2.7993308875947824,1.0416666666666667,2414,0.3193209171295166,0.020904065508896525,0.01983377660989636,-236.23359478360857,0.0
105,2.119235038757324,-214.2031929350112,33.56822359026671,-123.46838464288193,-294.0586869399187,1.0416666666666667,0.8292831026748468,0.1,0.005851268768310547,0.12909507751464844,0.04955512,0.13439903,-214.7931257689266,-0.0857794843491766,-2.811063881986186,1.0416666666666667,2357,0.31882762908935547,0.01690638815096298,0.018415050540155648,-235.45119116124454,0.0
106,2.12298583984375,-208.37521930201183,32.29813773156049,-128.54230152974705,-270.26938882397934,0.0,0.7673961753648106,0.1,0.0056569576263427734,0.13519001007080078,0.05054746,0.14728552,-214.1513351222351,-0.0856847404551343,-2.7342691326769812,0.0,2313,0.31418800354003906,0.017158033172554668,0.01593901171438317,-239.03650942750428,0.0
107,2.2076330184936523,-211.33362235912958,33.23433166894122,-109.1809488305582,-271.7969393144795,1.0416666666666667,0.8122077098178277,0.1,0.005565643310546875,0.11934375762939453,0.05020812,0.1332187,-213.86956384592455,-0.08614703750374315,-2.7737853837376876,1.0416666666666667,2352,0.31032633781433105,0.015282118680114348,0.013851806135768243,-237.55376994251176,0.0
108,2.0927176475524902,-212.9117018863686,33.94343126605075,-111.1389902544642,-286.0159457457146,0.0,0.8135038573026451,0.1,0.00553441047668457,0.12502527236938477,0.050401557,0.12676954,-213.77377764996896,-0.08539493918992302,-2.7939523731266127,0.0,2363,0.30992722511291504,0.017862981730384767,0.017421402592809027,-238.923122543812,0.0
109,2.1705777645111084,-220.29370665109877,28.986601025718493,-115.99482878354713,-283.85522649253164,0.0,0.7914517415497907,0.1,0.004244089126586914,0.09633231163024902,0.046565864,0.12963752,-214.42577055008195,-0.08731659898941257,-2.8925029645457534,0.0,2367,0.3315293788909912,0.013661199273391326,0.01333511129711589,-237.52468637467967,0.0
110,2.270597457885742,-215.73743831617705,33.4613413479355,-111.32706949374011,-291.94443573690586,0.0,0.7598474266761291,0.1,0.006045341491699219,0.13054299354553223,0.049965013,0.15220915,-214.55693732669147,-0.08662980664321256,-2.83215425786349,0.0,2375,0.32790565490722656,0.01543106046942321,0.014715195203608998,-246.4715260635511,0.0
111,2.1005232334136963,-210.736339217913,32.953289148995026,-90.88248506308761,-275.3415607608743,2.0833333333333335,0.8530170740513582,0.1,0.005651950836181641,0.1312849521636963,0.049252868,0.12685856,-214.17487751581362,-0.08508399585314586,-2.7654136641307914,2.0833333333333335,2360,0.3166780471801758,0.016856124149643777,0.015681169247127442,-236.92002319178187,0.0
112,2.199432849884033,-216.64546267956015,26.514607715209156,-139.896195263821,-278.89113122527226,1.0416666666666667,0.7483933597429053,0.1,0.005658626556396484,0.12631869316101074,0.0508065,0.14168325,-214.42193603218828,-0.08578136312294453,-2.843685164593998,1.0416666666666667,2358,0.31566452980041504,0.011428036279390295,0.01075073900782532,-241.28529391297886,0.0
113,2.1454672813415527,-214.59877145334988,29.59558291633227,-136.34987823809135,-282.340788239854,0.0,0.7677433512069617,0.1,0.005562782287597656,0.12538695335388184,0.05005974,0.14242437,-214.43961957430446,-0.08731420565577512,-2.81669843564122,0.0,2322,0.3122856616973877,0.0126951828982936,0.01211663405978682,-242.4070772420206,0.0
114,2.1622698307037354,-214.1277267967217,26.553740223482077,-111.97907399918458,-258.908625108023,0.0,0.8244055733085848,0.1,0.005766630172729492,0.1275489330291748,0.04945156,0.1336877,-214.4084302965462,-0.08603933908912086,-2.8104877077823556,0.0,2338,0.31790733337402344,0.011771965500613768,0.011779640351269837,-235.93227334543616,0.0
115,2.265228033065796,-210.6529555802715,31.184383532431827,-116.79817858917075,-271.72898933633843,1.0416666666666667,0.7905862114859286,0.1,0.008702516555786133,0.12772727012634277,0.04994999,0.13404858,-214.03288282491872,-0.08546434954689201,-2.7650559500535046,1.0416666666666667,2342,0.305905818939209,0.016160699970987607,0.014524211856019681,-233.02949640812795,0.0
116,2.3747751712799072,-210.78506219535544,34.65263146944198,-73.0717951036713,-285.34148083398827,2.0833333333333335,0.7733212066903173,0.1,0.005846500396728516,0.12990379333496094,0.050641138,0.15000404,-213.70810076196238,-0.08558304434026658,-2.7651463608185445,2.0833333333333335,2335,0.31673216819763184,0.0179062161599506,0.01780341039237708,-234.21274381604582,0.0
117,2.45412278175354,-217.8288471697364,28.664495681876364,-116.48224641686213,-277.54926313156983,1.0416666666666667,0.8336379226911728,0.1,0.005725860595703125,0.12837791442871094,0.04646485,0.12179081,-214.1201754027398,-0.08691645712813167,-2.8594998704503536,1.0416666666666667,2344,0.32557225227355957,0.012381894083359607,0.011694510610472724,-236.17342185137602,0.0
118,2.2214810848236084,-212.16530083611715,36.433979579580786,-116.5497415398261,-284.02666932524573,1.0416666666666667,0.8311906335722119,0.1,0.005950927734375,0.1299126148223877,0.050294496,0.1275455,-213.92468794607754,-0.08626385460738235,-2.7841040618594413,1.0416666666666667,2338,0.31705617904663086,0.01887196046038743,0.01813789039089345,-240.1101751177465,0.0
119,2.238574504852295,-212.8679728510668,28.39280565680158,-125.71694460566329,-283.81000524110266,1.0416666666666667,0.8005871937128034,0.1,0.005929708480834961,0.12392401695251465,0.049158778,0.13096038,-213.81901643657648,-0.085142016833522,-2.7936871008670052,1.0416666666666667,2352,0.31006669998168945,0.013052608647844566,0.012717340788888793,-235.04601014396766,0.0
120,2.138204574584961,-207.4836324947255,31.496249799641276,-112.23926771615811,-263.1564989137138,1.0416666666666667,0.7541152991773945,0.1,0.005937099456787109,0.13057184219360352,0.04948421,0.16201918,-213.1854780423914,-0.08528651357201522,-2.7216423392640245,1.0416666666666667,2323,0.32245302200317383,0.014379637169904085,0.01309952863644672,-233.97585715768054,0.0
121,2.2781801223754883,-216.37620573565428,35.34388960546002,-126.45002316568333,-297.7508568622621,0.0,0.8108248251553922,0.1,0.005728244781494141,0.12457466125488281,0.04970637,0.12872417,-213.5045508117177,-0.08727310122714693,-2.839669500860735,0.0,2349,0.29929637908935547,0.016992076947130747,0.015659201533009367,-227.78585026594484,0.0
122,2.131559371948242,-207.93245128518765,32.09831287954197,-125.60086881456132,-274.1209259929119,0.0,0.7745046004730107,0.1,0.005601167678833008,0.12670469284057617,0.050249506,0.13172472,-212.94734085906472,-0.08561130054444677,-2.7284665525209433,0.0,2327,0.30660343170166016,0.015807234665814386,0.014131867776397432,-236.0269978173796,0.0
123,2.170313835144043,-214.37687337524378,30.984187547491636,-126.28980473271481,-278.4807324504505,0.0,0.7733348862433408,0.1,0.005856037139892578,0.12431764602661133,0.049770817,0.1354683,-213.09029411068263,-0.08775985727117462,-2.813181975048199,0.0,2302,0.29061007499694824,0.014020265503649912,0.012920389433613497,-236.07411897620648,0.0
124,2.1492815017700195,-209.72770353964802,28.764050720034867,-122.1382365320578,-261.1084365438033,0.0,0.7913581224771036,0.1,0.005744218826293945,0.1253361701965332,0.046074275,0.1250876,-212.75403505357917,-0.08602144409479123,-2.7526296585693864,0.0,2309,0.30410289764404297,0.012914531074904962,0.01172223036019846,-235.94995588211026,0.0
125,2.110447883605957,-213.18474073435698,35.38445699630826,-111.65098624301297,-297.9662902463727,1.0416666666666667,0.7862962283021725,0.1,0.005783796310424805,0.1302506923675537,0.047829624,0.12734652,-212.79710562165698,-0.0867077995599519,-2.7962466031616438,1.0416666666666667,2333,0.3200795650482178,0.016979893590676146,0.016524222056987992,-238.91582031402578,0.0
126,2.081023931503296,-207.5983542123338,32.97485770121577,-74.59080571784031,-265.7047359155461,2.0833333333333335,0.7756053749646921,0.1,0.0055119991302490234,0.1243598461151123,0.048400767,0.1485356,-212.27723048072468,-0.08533659069161466,-2.7242415094371797,2.0833333333333335,2319,0.31435227394104004,0.015829455031140534,0.014569974017677546,-242.55493178350446,0.0
127,2.06379771232605,-210.74686433553333,29.759754186981922,-129.27905281941636,-263.15414504134014,0.0,0.7741057997889558,0.1,0.005669593811035156,0.12690138816833496,0.05030604,0.12851879,-212.12419386620553,-0.08671830628504658,-2.7656911960937918,0.0,2319,0.31020116806030273,0.013972739798010133,0.013477288043154423,-238.08859298389828,0.0
128,2.1339991092681885,-210.7770600916003,32.168660837665364,-111.4311859973531,-286.58353377006944,1.0416666666666667,0.7860978900982307,0.1,0.0056760311126708984,0.1257326602935791,0.050181724,0.13754323,-211.98948048874502,-0.08559430587161033,-2.765956498363698,1.0416666666666667,2344,0.30472302436828613,0.015217329286496844,0.014573944274587084,-238.2745811550713,0.0
129,2.162048101425171,-212.97054845214743,30.141928654229474,-90.86596635157241,-294.1096664845817,1.0416666666666667,0.7693628591407285,0.1,0.0056607723236083984,0.1247866153717041,0.048716635,0.14137883,-212.08758728508528,-0.0862854816125254,-2.795307261714034,1.0416666666666667,2331,0.297194242477417,0.013841048803693684,0.013206771725741723,-233.28028096140548,0.0
130,2.105699300765991,-215.80190085189528,31.4842287768382,-112.59787792973763,-270.0817638453226,0.0,0.8207613832029199,0.1,0.005731105804443359,0.12619376182556152,0.04906503,0.1305387,-212.4590186417663,-0.08837837257346644,-2.8321226611473347,0.0,2303,0.29810190200805664,0.013803121606496943,0.013156235331208401,-234.1730699460856,0.0
131,2.1655020713806152,-211.67930275831569,30.55030543651412,-114.67764169698057,-272.4916186010596,0.0,0.7906712704105568,0.1,0.005816459655761719,0.1257152557373047,0.049210608,0.1296491,-212.38104705342124,-0.08621919870835248,-2.7778906741179212,0.0,2315,0.2929224967956543,0.012124505556666821,0.011942959085956703,-234.12256679315533,0.0
132,2.2929675579071045,-211.98168327414578,31.862282390733117,-125.85125647717582,-274.3238229114867,0.0,0.7549965547700982,0.1,0.0055084228515625,0.12381577491760254,0.049471192,0.15441841,-212.3411106754937,-0.08695857935304746,-2.7816515764472705,0.0,2331,0.29477953910827637,0.013056970813565653,0.012450329023903082,-228.91761209616718,0.0
133,2.302264451980591,-208.48352465191317,28.522780609747837,-122.24030163938122,-270.8402465800162,1.0416666666666667,0.7785407994665277,0.1,0.0059397220611572266,0.13535046577453613,0.049263638,0.13248292,-211.95535207313563,-0.08651098150274854,-2.734994110758644,1.0416666666666667,2287,0.2878611087799072,0.014438824730123291,0.013243660196359624,-231.27578097691656,0.0
134,2.150420904159546,-214.83671518978284,36.712181127950664,-103.10357997052759,-309.1360274415568,1.0416666666666667,0.8451083343537892,0.1,0.005574464797973633,0.1257619857788086,0.048701275,0.121609874,-212.24348838480034,-0.08685934869554109,-2.8190365127172634,1.0416666666666667,2342,0.30904364585876465,0.0215925118641066,0.018036543875299987,-225.0410491587009,0.0
135,2.239640951156616,-210.4115218394404,29.85084475924825,-128.7423693209257,-281.2481970731718,1.0416666666666667,0.7714742967570073,0.1,0.005724668502807617,0.1290121078491211,0.050120275,0.15545014,-212.06029173026434,-0.08708912400064968,-2.761198926503539,1.0416666666666667,2293,0.2886631488800049,0.014093445856763994,0.01377392519123762,-229.06192342410972,0.0
136,2.2115836143493652,-210.76053615551152,32.88534650396165,-125.8920442014429,-279.65558748533596,1.0416666666666667,0.7517551109748969,0.1,0.005690336227416992,0.13428974151611328,0.049376678,0.15174799,-211.93031617278908,-0.08801683796264982,-2.7658161336875877,1.0416666666666667,2275,0.28936076164245605,0.013805533253852316,0.013322713455479036,-222.219569436222,0.0
137,2.073652505874634,-215.48958143981258,34.465438305128096,-92.59703187508056,-286.6753591061994,2.0833333333333335,0.7792748977752645,0.1,0.0060231685638427734,0.12774991989135742,0.04917169,0.13670357,-212.28624269949142,-0.08652077505315799,-2.8277041270199406,2.0833333333333335,2346,0.3060901165008545,0.0168676117567755,0.015649136022817343,-223.53868324453936,0.0
138,2.1437580585479736,-207.91928624423645,31.026711191977984,-96.12994263358306,-267.51646924331095,1.0416666666666667,0.7646125714997573,0.1,0.005620718002319336,0.12674880027770996,0.049796093,0.15930665,-211.84954705396592,-0.08617576438810655,-2.7285264686479116,1.0416666666666667,2284,0.2885763645172119,0.013297442331629543,0.012596264301226196,-224.86115081004488,0.0
139,2.030930757522583,-208.66688730784867,33.654721255221375,-112.87278080635073,-280.30094136976356,0.0,0.737793857589625,0.1,0.005820035934448242,0.1263103485107422,0.049768403,0.16496448,-211.5312810793542,-0.08696535066113649,-2.7388019334901816,0.0,2294,0.2945067882537842,0.014791002452176554,0.01398453612047164,-226.33672779856897,0.0
140,2.085801601409912,-209.5813786390223,29.839056080220374,-131.62352771453556,-277.3188402789911,1.0416666666666667,0.7652777810436434,0.1,0.005795001983642578,0.12584948539733887,0.04899204,0.14618963,-211.33629083532102,-0.08621208755348887,-2.748707891098898,1.0416666666666667,2294,0.29519009590148926,0.014771113368006709,0.014316225893278304,-227.15466346759456,0.0
141,2.118337869644165,-212.10979304999634,29.07747661004963,-130.39706268996062,-258.370285951099,0.0,0.7689022662716506,0.1,0.005630016326904297,0.12462949752807617,0.04898393,0.13141683,-211.41364105678855,-0.08662475950223401,-2.7837513882484983,0.0,2307,0.30462098121643066,0.013876909946865176,0.0131747802743965,-223.97242697899208,0.0
142,2.044718027114868,-211.81633072405154,28.263200873273956,-115.16540784755296,-260.0320203906397,1.0416666666666667,0.7852302714417454,0.1,0.005728483200073242,0.12170267105102539,0.050526954,0.14468658,-211.45391002351485,-0.08835177286913957,-2.7793129568520634,1.0416666666666667,2256,0.2975137233734131,0.010476161889000838,0.009970983715650198,-223.08045586194618,0.0
143,2.049467086791992,-209.65966371293175,26.943352115502012,-124.53532499510224,-257.9031594680671,0.0,0.7602356154377721,0.1,0.005845069885253906,0.12802910804748535,0.048895936,0.15406449,-211.27448539245654,-0.08689402678618617,-2.7510279116217276,0.0,2280,0.3085601329803467,0.012239030277864627,0.011745545949778988,-226.39252926016468,0.0
144,2.0551679134368896,-205.56562608532542,36.62377127310104,-82.15406755191417,-284.5824846331512,5.208333333333333,0.8093333059178849,0.1,0.005656719207763672,0.12755417823791504,0.048006367,0.14400876,-210.70359946174344,-0.08456638445652243,-2.695720289310893,5.208333333333333,2329,0.3033263683319092,0.0179156119479788,0.017106250381587872,-224.20791420231083,0.0
145,2.039515495300293,-216.83348016098788,31.36301970733518,-110.92389540765745,-290.1868064293311,0.0,0.7350999958017138,0.1,0.0057680606842041016,0.12620067596435547,0.049049184,0.14535603,-211.3165875316679,-0.08829178549612297,-2.846700534006675,0.0,2309,0.3089885711669922,0.014658355968274786,0.012377535145100855,-221.66286866307343,0.0
146,2.088357925415039,-209.38957851982158,34.97282193041535,-123.1682671340845,-304.2119376633648,0.0,0.7682550332288309,0.1,0.005705595016479492,0.12442541122436523,0.049785107,0.14675908,-211.12388663048327,-0.08630153335883822,-2.7478303583924237,0.0,2302,0.29442548751831055,0.01825951458977062,0.017802213989875387,-222.18518999986077,0.0
147,2.1006526947021484,-212.39074655814693,29.220575227574493,-142.50759124805654,-270.39736531931806,1.0416666666666667,0.7795089777176446,0.1,0.005917549133300781,0.12369680404663086,0.05025221,0.13273723,-211.25057262324964,-0.0876297352662553,-2.7881524140884437,1.0416666666666667,2281,0.2971811294555664,0.012967073212439343,0.012685484247236378,-230.52700245564534,0.0
148,2.226133108139038,-206.38116031965646,32.45432145765891,-128.63718608264446,-264.2142383655504,1.0416666666666667,0.7519939541012325,0.1,0.0057337284088134766,0.12336921691894531,0.05013085,0.15184177,-210.76363139289032,-0.08574214213000181,-2.7072605854160963,1.0416666666666667,2298,0.30049967765808105,0.014569581015859309,0.013711363205750778,-225.25006213384913,0.0
149,2.274970054626465,-207.4450200155758,29.930553304442704,-122.83459034748083,-260.98190084275404,1.0416666666666667,0.7650587209200508,0.1,0.005565643310546875,0.12468957901000977,0.050618123,0.13879554,-210.43177025515888,-0.08593942800729786,-2.7210517546389283,1.0416666666666667,2297,0.29871702194213867,0.015484703788269301,0.015748760675882215,-229.80302404327733,0.0
150,2.0902652740478516,-210.03936161647005,32.40846330178007,-115.61111068928409,-269.97687418376074,1.0416666666666667,0.7589694532642617,0.1,0.0065233707427978516,0.1311171054840088,0.050009277,0.13799977,-210.39252939129,-0.08650197448056192,-2.7564647781530827,1.0416666666666667,2297,0.3099668025970459,0.016410511734867298,0.0150821366896292,-226.30105563226823,0.0
151,2.05635404586792,-206.93936161732208,37.506800251938145,-86.98350676030805,-278.1248757679729,3.125,0.7917773956992158,0.1,0.0058841705322265625,0.12959074974060059,0.049044285,0.13107945,-210.0472126138932,-0.08606562985707489,-2.714382349081204,3.125,2303,0.31207942962646484,0.018913524774164026,0.01777352368882998,-225.01995486741782,0.0
152,2.1697254180908203,-210.31361485474358,24.211820553999765,-143.0544160589704,-262.35789556266377,0.0,0.7490041646272619,0.1,0.0056459903717041016,0.127763032913208,0.049350046,0.13864443,-210.07385283797825,-0.08646817898559316,-2.7597344062915776,0.0,2291,0.3100419044494629,0.010626063642836463,0.010018647373839692,-228.88605913450021,0.0
153,2.21309232711792,-213.86514866127143,27.47967232658208,-144.55437574293302,-280.27532287803194,0.0,0.7971546867595107,0.1,0.005837678909301758,0.13018226623535156,0.049445562,0.13003738,-210.4529824203076,-0.08678346689705778,-2.8068449962007214,0.0,2307,0.32758140563964844,0.013161938265972024,0.013324329091585497,-232.15761685859988,0.0
154,2.194063425064087,-208.93166278020692,29.82491091674284,-89.95665719255705,-291.154553766322,1.0416666666666667,0.7923822014896991,0.1,0.006031036376953125,0.12418031692504883,0.049434327,0.14690763,-210.30085045629752,-0.08588577241657862,-2.7412555485766017,1.0416666666666667,2301,0.30213093757629395,0.014066759892586942,0.013282215920777293,-228.30990652840842,0.0
155,2.1931211948394775,-203.14249015640635,33.28289999706868,-90.23020376462682,-256.5164867748888,1.0416666666666667,0.7986187739487095,0.1,0.006369590759277344,0.14139842987060547,0.049545787,0.1273889,-209.5850144263084,-0.08581766879047258,-2.6649504034164324,1.0416666666666667,2263,0.311387300491333,0.016378912189980638,0.016010683106102524,-221.9168202571194,0.0
156,2.0505218505859375,-212.1559483148931,28.337994133049627,-109.07518534746062,-265.9524526268523,0.0,0.7494780085322219,0.1,0.006036996841430664,0.1258094310760498,0.049370077,0.14410916,-209.84210781516686,-0.08803453662660125,-2.7831763160363963,0.0,2264,0.3077998161315918,0.012366187154749072,0.011848270023315273,-227.78047804632246,0.0
157,2.1350812911987305,-213.20370163746733,26.265590464713647,-122.57782031614242,-261.6938132162216,0.0,0.7680446476430811,0.1,0.004420757293701172,0.12436366081237793,0.04859491,0.14613421,-210.1782671973969,-0.08755915995524087,-2.798014908643278,0.0,2278,0.30449771881103516,0.011025125132908799,0.010753101151510217,-223.98138344087482,0.0
158,2.1057682037353516,-214.85962367752902,26.55649681531259,-132.9447644373248,-275.47293476467735,0.0,0.7780891207779101,0.1,0.005727529525756836,0.12591123580932617,0.049857806,0.1309826,-210.64640284541014,-0.08781273728723442,-2.818873405748366,0.0,2300,0.3053929805755615,0.011114836029563155,0.01071735293745727,-222.96814651868127,0.0
159,2.0610814094543457,-212.10162055022602,30.246978154876857,-119.95971663163832,-298.4555817189908,1.0416666666666667,0.7744797136144356,0.1,0.005715608596801758,0.12800025939941406,0.048037082,0.13018268,-210.79192461589173,-0.08765269115089135,-2.7846893871529694,1.0416666666666667,2278,0.3081679344177246,0.014130024103579426,0.013949942522108382,-223.5457710864594,0.0
160,1.9989089965820312,-209.5702807482431,29.245519343105368,-124.53688374827007,-318.5052180096185,1.0416666666666667,0.7882207589030125,0.1,0.005538463592529297,0.12540221214294434,0.04704259,0.12923375,-210.66976022912687,-0.08812342782476779,-2.750100164087492,1.0416666666666667,2233,0.30260300636291504,0.013885970017920126,0.013028583382413693,-220.3130069013045,0.0
161,2.163208484649658,-209.34627098941348,30.817695372269263,-101.90373727686608,-305.2007021520733,1.0416666666666667,0.765909143290989,0.1,0.00584721565246582,0.12108755111694336,0.048936762,0.14699535,-210.53741130515553,-0.08841359962154521,-2.7468737007779502,1.0416666666666667,2241,0.29631710052490234,0.013613747223311812,0.012568760516148194,-226.8423628426176,0.0
162,2.224013328552246,-207.46410377308868,33.737584735786484,-117.42271681000018,-274.41830017333797,0.0,0.7704596458723226,0.1,0.00587773323059082,0.12773680686950684,0.050832782,0.13958539,-210.23008055194884,-0.08714129966950838,-2.721306997585277,0.0,2270,0.30414748191833496,0.01613611539586501,0.01594718081744076,-224.13170448450325,0.0
163,2.2881274223327637,-208.53855181227195,34.2988707328137,-110.17817280929422,-297.6553690841118,2.0833333333333335,0.8157323506138641,0.1,0.005780458450317383,0.12599730491638184,0.04983131,0.13324788,-210.06092767798117,-0.08666000894805333,-2.7348252523142285,2.0833333333333335,2284,0.3036067485809326,0.016061722404266506,0.01571973674636161,-224.63363644783539,0.0
164,2.0663509368896484,-202.90899904950206,28.128960759125384,-128.45240943518127,-274.4119872785991,0.0,0.7349654017009076,0.1,0.0057446956634521484,0.12546181678771973,0.050339904,0.15128912,-209.34573481513326,-0.08535447436358896,-2.66138767006062,0.0,2269,0.3036062717437744,0.013469780348878847,0.012815672167691798,-225.9311981925337,0.0
165,2.1135919094085693,-204.7670012870484,32.646298351955465,-121.84142980615448,-271.24115932232434,1.0416666666666667,0.7604710688331126,0.1,0.0056803226470947266,0.1249077320098877,0.051045254,0.17040072,-208.88786146232476,-0.08532641007475145,-2.6862526264072133,1.0416666666666667,2305,0.3097188472747803,0.014489698166087271,0.01408814789725803,-223.70745575651625,0.0
166,2.0514776706695557,-211.9132672192761,27.878420871154717,-127.53412107217162,-270.90728148043206,0.0,0.7864784783504978,0.1,0.005598545074462891,0.1247243881225586,0.050472047,0.12814783,-209.1904020380199,-0.08744573612254973,-2.780667352893635,0.0,2270,0.2990105152130127,0.012404567773841193,0.011349443922288338,-225.26774399056666,0.0
167,2.100027561187744,-210.06285211846026,31.389759928029353,-112.00814707110268,-268.536152324298,2.0833333333333335,0.8095328037964177,0.1,0.005991220474243164,0.12355852127075195,0.05005352,0.1336194,-209.27764704606395,-0.08749434705006505,-2.756669365814155,2.0833333333333335,2268,0.2990603446960449,0.013031650684458985,0.012760037335619789,-222.18017743340062,0.0
168,2.033175230026245,-212.5369514403452,27.80189353707616,-123.3274207017302,-263.5143498740142,0.0,0.7914924863772155,0.1,0.006075382232666016,0.13088202476501465,0.050055444,0.12982278,-209.60357748549205,-0.08775778097079008,-2.789624192959557,0.0,2278,0.30941152572631836,0.012285362709274258,0.011855381210337823,-220.8159136378439,0.0
169,2.038059711456299,-213.29288335253895,27.145945187676862,-131.38217496851195,-264.29401186842404,0.0,0.7649564149250371,0.1,0.005547523498535156,0.12287497520446777,0.05032151,0.13400872,-209.97250807219675,-0.08834682179374444,-2.799502175866216,0.0,2250,0.3015754222869873,0.012014850393824947,0.011639186549076419,-223.49638863321397,0.0
170,2.0016191005706787,-208.2662438021445,28.08812410396046,-125.17453519262524,-295.4747429837203,0.0,0.8164546332163278,0.1,0.005808115005493164,0.1241750717163086,0.050366856,0.13113813,-209.80188164519151,-0.08677203565545748,-2.7317980181068244,0.0,2260,0.29946184158325195,0.01421360289960574,0.01385994194927976,-219.71266952389527,0.0
171,2.0470588207244873,-205.84481343997467,31.526437114528537,-113.90816413012931,-279.65903389774826,0.0,0.8018698623778534,0.1,0.005530595779418945,0.1220254898071289,0.049395896,0.14665855,-209.40617482466985,-0.08668118325373707,-2.6993660090403218,0.0,2268,0.2990274429321289,0.015457392850396932,0.014613446065072172,-219.36672099747645,0.0
172,2.1043004989624023,-208.16438217947027,28.113561343809288,-124.15055061662164,-270.3056176180292,1.0416666666666667,0.7246817427625469,0.1,0.0057697296142578125,0.12292933464050293,0.048642665,0.19456974,-209.28199556014988,-0.0878431853411709,-2.7307045651527733,1.0416666666666667,2237,0.2897047996520996,0.011734627289614696,0.011374000090717007,-220.6258583301367,0.0
173,2.028225898742676,-205.55164739915327,29.54006299212088,-115.24087443594452,-265.43240677669513,0.0,0.7852921077187639,0.1,0.0057637691497802734,0.12927532196044922,0.04865808,0.15676425,-208.9089607440502,-0.0860928849088091,-2.6968969492637513,0.0,2258,0.3101680278778076,0.01287005473287798,0.013092688576270191,-220.57420450913264,0.0
174,2.107745885848999,-207.1170575076893,28.24767402049045,-131.78098152319978,-276.78252993111545,1.0416666666666667,0.7804322175586154,0.1,0.005677223205566406,0.12398123741149902,0.050440446,0.1405777,-208.72977042041413,-0.08569768784924876,-2.717536177247529,1.0416666666666667,2298,0.3067324161529541,0.012006142466595744,0.011146502285942708,-220.85617382096896,0.0
175,2.061436176300049,-209.87718764387236,28.65656560133249,-118.2497744562236,-266.286237746933,1.0416666666666667,0.7767001037943086,0.1,0.005637645721435547,0.1285538673400879,0.049899805,0.13743047,-208.84451214275995,-0.08865207944627078,-2.753793630277871,1.0416666666666667,2228,0.2879908084869385,0.012434239080250577,0.011828083669865649,-224.14095931630567,0.0
176,2.053182363510132,-206.59151815574884,32.93777708828321,-125.0344180878673,-279.80106181191735,1.0416666666666667,0.7455376381219729,0.1,0.005587339401245117,0.12446475028991699,0.04970135,0.13449419,-208.61921274405884,-0.08712226995722765,-2.7090234819499805,1.0416666666666667,2256,0.29975199699401855,0.014381216245465902,0.013924943585050052,-222.2580460499064,0.0
177,2.0915961265563965,-209.10998242168702,29.47696734005562,-129.782968458569,-280.2877282545214,0.0,0.7335233084548537,0.1,0.0055866241455078125,0.12351417541503906,0.0499763,0.16156146,-208.66828971182167,-0.08830411849094415,-2.7433652424224575,0.0,2223,0.29100847244262695,0.012868636568817196,0.012252098462950861,-222.61418401100855,0.0
178,2.064588785171509,-209.38168299279405,30.019204409614222,-120.47261146783777,-262.3824211249667,0.0,0.7502161802926753,0.1,0.005520820617675781,0.12353968620300293,0.049808696,0.14922841,-208.7396290399189,-0.08887718963538536,-2.746692549177047,0.0,2226,0.2910878658294678,0.011890446039405632,0.01158184774470005,-221.02872461265832,0.0
179,2.1063969135284424,-207.99011816120495,29.328023966592834,-135.90811253950255,-262.0533260010353,0.0,0.7830894732587926,0.1,0.0056989192962646484,0.12846994400024414,0.04920173,0.14306092,-208.6646779520475,-0.08741782561251961,-2.7286719968679036,0.0,2247,0.30402350425720215,0.013827253560934095,0.013599204117111251,-217.3209556220209,0.0
180,2.2043800354003906,-211.23767850003495,29.586752773259,-87.60426725030271,-261.349945631919,2.0833333333333335,0.7678785887964611,0.1,0.00584721565246582,0.1414022445678711,0.049588714,0.15891334,-208.92197800684625,-0.08837026236398704,-2.7721693572949264,2.0833333333333335,2238,0.30206871032714844,0.012873524345168235,0.01239191244464726,-219.40606041953703,0.0
181,2.014932155609131,-206.12175789949302,30.37943247252905,-108.41266606374643,-271.3287515468811,0.0,0.7402072428327157,0.1,0.0058362483978271484,0.12659764289855957,0.049676828,0.15709512,-208.64195599611094,-0.08700210578013441,-2.7035966257416235,0.0,2234,0.3070790767669678,0.014698773149489787,0.013810823886888606,-223.15069757621438,0.0
182,2.0576772689819336,-206.95742113350556,31.773559407100123,-129.5511296037926,-262.90025656061226,0.0,0.7852549464774947,0.1,0.005698442459106445,0.12633943557739258,0.050608516,0.13066605,-208.4735025098504,-0.08737133623346023,-2.714528413573646,0.0,2249,0.30088233947753906,0.013940803580758237,0.013488722311651019,-220.51538342627023,0.0
183,2.0490386486053467,-209.49099466676486,26.768521957718235,-106.11937260500409,-264.2886223249398,1.0416666666666667,0.7325875886987985,0.1,0.0057048797607421875,0.12597441673278809,0.047867857,0.15602152,-208.57525172554182,-0.08847643494194062,-2.748256610335147,1.0416666666666667,2236,0.3002650737762451,0.011770770870020169,0.01128155756060678,-221.2429514287122,0.0
184,2.0442652702331543,-205.48477244162777,29.72778747355543,-103.19826087028127,-258.79669982489486,1.0416666666666667,0.759358222063096,0.1,0.005517482757568359,0.12341570854187012,0.05006374,0.13795057,-208.2662037971504,-0.08683572578586556,-2.695947409565521,1.0416666666666667,2240,0.30486464500427246,0.013479483111709325,0.01302846956169302,-219.5259639991719,0.0
185,2.0516397953033447,-206.58492645263024,30.091173470413004,-113.02836349907604,-276.53667435076477,2.0833333333333335,0.7957674704263502,0.1,0.0057239532470703125,0.12339663505554199,0.049705546,0.15710244,-208.0980760626984,-0.08748785551895359,-2.710440367011199,2.0833333333333335,2228,0.2957916259765625,0.014799950276262762,0.014116075589597103,-221.6148159177391,0.0
186,2.0923633575439453,-211.32343320533934,26.818801548172374,-130.18960569797235,-261.4153886250951,0.0,0.7667642887981628,0.1,0.0056607723236083984,0.1256561279296875,0.05092122,0.14116514,-208.42061177696252,-0.08823961082714837,-2.773506289782874,0.0,2244,0.3048243522644043,0.012071723288907137,0.011406654642268114,-220.45851800831255,0.0
187,2.018436908721924,-205.40496044924575,27.366042623397593,-126.91868968725525,-295.8851998048015,0.0,0.8003482420856708,0.1,0.00584101676940918,0.1304769515991211,0.049824484,0.124235034,-208.11904664419083,-0.0876507670435495,-2.692883520678422,0.0,2232,0.30947279930114746,0.014584831572086628,0.013325109257893595,-221.03273566107296,0.0
188,2.0462698936462402,-211.53721752164256,25.764255045345283,-118.93372407589044,-278.5004897693514,0.0,0.7707805630786737,0.1,0.005529165267944336,0.1250154972076416,0.048439935,0.13318734,-208.460863731936,-0.08907905070478654,-2.7748269225974447,0.0,2214,0.2947661876678467,0.012403684193785397,0.011744317446570798,-219.30646146001237,0.0
189,1.948974609375,-199.65039341220574,30.544856878040935,-93.02923735987912,-257.2983786623678,1.0416666666666667,0.7548081499448558,0.1,0.0055959224700927734,0.12296032905578613,0.04915481,0.13309959,-207.57981669996298,-0.08798167299794966,-2.617505347381066,1.0416666666666667,2164,0.28728342056274414,0.014591261125233068,0.014089083471767495,-219.0267453743217,0.0
190,2.0566048622131348,-203.79809141647624,29.896413545820813,-107.33649400267664,-273.0095178390181,1.0416666666666667,0.7789655841003966,0.1,0.005562782287597656,0.1226038932800293,0.05017016,0.14134625,-207.2016441716143,-0.08836263800921056,-2.672453261229657,1.0416666666666667,2198,0.2953503131866455,0.01367905834780222,0.012126498393791799,-213.86862606038073,0.0
191,2.012714385986328,-207.11110207722012,27.715606448245865,-139.87526165767648,-269.4118434481445,0.0,0.7344380644852737,0.1,0.005582332611083984,0.12262177467346191,0.049921647,0.14061119,-207.1925899621749,-0.08986795261324039,-2.7162131528884648,0.0,2189,0.29664158821105957,0.012461863719586137,0.012111266744203169,-219.62989303657452,0.0
192,2.0401124954223633,-199.5020551076299,27.604289213186938,-110.31477342028418,-263.8444412150806,0.0,0.7494619180085486,0.1,0.006348848342895508,0.12958621978759766,0.049402583,0.13898744,-206.42353647672041,-0.08738105324183078,-2.6146642897054306,0.0,2184,0.3114931583404541,0.013127705539231628,0.011782780988225949,-215.66952680036303,0.0
193,2.004258871078491,-203.78301096295357,26.283281149956622,-126.0410813105181,-254.42049159471873,1.0416666666666667,0.7629037891221191,0.1,0.0055866241455078125,0.12362980842590332,0.049057078,0.1367551,-206.15948392534375,-0.08793953659850812,-2.672427557613488,1.0416666666666667,2187,0.2963852882385254,0.01284545427907397,0.012145489354809736,-211.6095281045175,0.0
194,2.032390594482422,-208.06914418102988,28.434305362043528,-116.87119857574913,-260.6791137079034,0.0,0.7391692131809497,0.1,0.005917549133300781,0.1282351016998291,0.04988867,0.16706234,-206.35044995091238,-0.09004035772262942,-2.729848248970875,0.0,2171,0.2864530086517334,0.012280225165947296,0.011360845596092977,-211.79654890048764,0.0
195,2.111858367919922,-205.45229801967488,28.434682434234173,-120.06683308736218,-265.30514334515857,1.0416666666666667,0.7492288314863444,0.1,0.006053924560546875,0.12960314750671387,0.04977831,0.14861266,-206.26063475778864,-0.0869492339334665,-2.6940119749347304,1.0416666666666667,2242,0.30536699295043945,0.012337299114805736,0.011875090418296546,-211.7003298329831,0.0
196,2.18721604347229,-204.4619841637656,27.752731787343908,-110.99842392800406,-255.9529209000726,1.0416666666666667,0.7709943324276411,0.1,0.005671024322509766,0.12823057174682617,0.04997212,0.1413043,-206.08076969838635,-0.08861665194522966,-2.681814801051837,1.0416666666666667,2182,0.2955284118652344,0.012836985973405416,0.012226648522697591,-213.91239350844313,0.0
197,2.2449512481689453,-208.0000261780649,28.187382605606654,-122.14777392026107,-270.7111308986421,0.0,0.7252162611972951,0.1,0.005840778350830078,0.12811279296875,0.04924653,0.15088493,-206.2726953463542,-0.08902767181520875,-2.72873361203226,0.0,2198,0.296999454498291,0.013305522280752767,0.012703532473601937,-215.15373884285887,0.0
198,1.9765584468841553,-207.3021690331922,26.003217509158418,-130.24278214695184,-262.27009092183863,0.0,0.7443746702901474,0.1,0.00602269172668457,0.12713050842285156,0.04908039,0.14016818,-206.375642715038,-0.08952379837641067,-2.7194465735118754,0.0,2184,0.3123605251312256,0.010448178982896683,0.010171930976741541,-214.1544349287617,0.0
199,1.9999489784240723,-205.16066259358203,25.27863722031324,-127.60268777554975,-255.92278050426762,0.0,0.7977592360776563,0.1,0.005484342575073242,0.1225733757019043,0.049178693,0.14981835,-206.2541447028924,-0.08822288190323746,-2.691021249131289,0.0,2185,0.2971200942993164,0.010788846644402876,0.010974029425876159,-212.43405809631497,0.0
200,1.994863748550415,-203.99222376380666,29.86061087812473,-82.23535993865167,-252.92910365533882,1.0416666666666667,0.7605074101686031,0.1,0.00584864616394043,0.1253201961517334,0.049023632,0.15268913,-206.02795260898384,-0.08791976575425205,-2.6751076858319442,1.0416666666666667,2189,0.3035449981689453,0.01289553633822377,0.01230563170082971,-215.6270140858469,0.0
201,2.0345444679260254,-207.02030032904335,30.143496445710724,-107.59747327912633,-276.51793726506344,1.0416666666666667,0.7703231764502976,0.1,0.00579524040222168,0.12654709815979004,0.04843553,0.15556191,-206.1271873809898,-0.08847383400941145,-2.7156287895916584,1.0416666666666667,2211,0.3033003807067871,0.013885400531043063,0.012549941089465763,-216.52430069201645,0.0
202,1.9979498386383057,-204.66712852174646,27.00605477841685,-127.10490614395162,-279.1742586228546,0.0,0.8020227212809061,0.1,0.0054547786712646484,0.12217473983764648,0.050147213,0.13340843,-205.98118149506547,-0.08885352501451312,-2.6838923072120537,0.0,2167,0.2903742790222168,0.011974377502081881,0.011675866635753433,-216.8667265423706,0.0
203,2.0117132663726807,-206.01077353903645,25.51231927513387,-136.6375353879586,-258.30278307993694,0.0,0.7561308559444392,0.1,0.005537509918212891,0.12048172950744629,0.050227553,0.13399059,-205.98414069946256,-0.08844094856108098,-2.701619721200253,0.0,2190,0.3028130531311035,0.012369311844400158,0.012159587609274039,-215.80084229860364,0.0
204,1.9978561401367188,-202.97137431658624,27.01579223728624,-123.42724838560149,-252.0776500144057,0.0,0.7456557917427322,0.1,0.00566864013671875,0.12533187866210938,0.048254665,0.14398104,-205.68286406117494,-0.08872437415856282,-2.6616526653124453,0.0,2168,0.29353976249694824,0.011911404502091952,0.011465928477499705,-213.94005080835836,0.0
205,1.9573087692260742,-205.46635889508966,27.53471808538027,-114.7752919421074,-257.2446384964446,0.0,0.746052879246112,0.1,0.0056531429290771484,0.12688112258911133,0.04912151,0.15926284,-205.6612135445664,-0.0903158327776329,-2.6950966759340726,0.0,2158,0.3012115955352783,0.011862287400938778,0.011588396474204865,-219.95645992016347,0.0
206,2.0904762744903564,-208.80848133558945,28.414833093170213,-97.65731721390031,-251.77834735937623,1.0416666666666667,0.8401932849328929,0.1,0.005502223968505859,0.12453269958496094,0.049047086,0.13261193,-205.9759403236687,-0.08972840304860923,-2.7383329971593255,1.0416666666666667,2180,0.2863626480102539,0.012409653149517204,0.011972373563743541,-218.1594646458852,0.0
207,1.9911832809448242,-203.3441093402755,30.292569350140095,-100.11029657565413,-258.2994143108791,2.0833333333333335,0.773457586726453,0.1,0.005561113357543945,0.12271714210510254,0.048599057,0.13689913,-205.7127572253294,-0.08803726644119665,-2.6669476176075837,2.0833333333333335,2191,0.28568363189697266,0.014039866766592649,0.013465362091872338,-218.07039867368962,0.0
208,2.0304224491119385,-198.83890064221464,30.515092509033494,-124.53996769096833,-262.4872448208698,0.0,0.7927639396544824,0.1,0.005499124526977539,0.12241315841674805,0.050007284,0.13654794,-205.02537156701794,-0.08639018205483982,-2.6068580091896805,0.0,2211,0.2903015613555908,0.013742876601160164,0.013371902064603725,-213.09586739393183,0.0
209,1.9918456077575684,-202.24117266033977,29.08644270671764,-115.06045638975047,-256.8689842030968,1.0416666666666667,0.7402424480489278,0.1,0.0058591365814208984,0.12985730171203613,0.048871104,0.13371065,-204.74695167635014,-0.08920067717149523,-2.651912481975188,1.0416666666666667,2153,0.2823617458343506,0.01310059912644556,0.01222858703540332,-212.5618543549541,0.0
210,2.288947105407715,-200.15754783975407,30.895883767050606,-85.3837608707164,-250.98912229995992,3.125,0.7683645831969222,0.1,0.005686283111572266,0.1304621696472168,0.05010882,0.14605208,-204.28801129269053,-0.08790095833052437,-2.6241868132854385,3.125,2177,0.2894766330718994,0.013128374575378576,0.012837334938722671,-215.56194525567025,0.0
211,2.233358383178711,-205.32060843348577,26.006683261081307,-108.40480458966242,-279.5689177230207,2.0833333333333335,0.762979261695828,0.1,0.005614519119262695,0.12694072723388672,0.050567377,0.13790587,-204.39127100677004,-0.08827130403571125,-2.693095384544538,2.0833333333333335,2186,0.29213500022888184,0.010930038135632989,0.010458134430274945,-214.70088211247275,0.0
212,2.2545628547668457,-200.76812812590467,29.032195933908813,-117.72216638264281,-257.45086433495436,0.0,0.7516373250012994,0.1,0.005583286285400391,0.1259140968322754,0.04982226,0.13371511,-204.0289567186835,-0.08728021849624625,-2.631935333829787,0.0,2187,0.2909281253814697,0.014029149188417793,0.013614613342085153,-214.21169101133995,0.0
213,2.3932745456695557,-200.30185643558414,25.101181397530528,-129.68961731496313,-252.96500418865006,0.0,0.7617515249520124,0.1,0.0056340694427490234,0.12624049186706543,0.04926355,0.13552977,-203.65624669037356,-0.08773785587764416,-2.625504989083851,0.0,2178,0.29627013206481934,0.009756841405501293,0.00945694831515025,-213.03026653562796,0.0
214,2.0877671241760254,-207.13770480258526,25.792990603833303,-131.11901363723067,-255.17830279847766,0.0,0.7703236191943517,0.1,0.005648136138916016,0.12647008895874023,0.049646188,0.14469577,-204.00439250159474,-0.08932696785703027,-2.717008479460624,0.0,2177,0.2849748134613037,0.011093040699983018,0.010413858198259823,-206.25250589925508,0.0
215,2.041555881500244,-198.00084104961311,29.733009705939832,-119.1963430336083,-254.76984257050157,0.0,0.7603654169082746,0.1,0.005626678466796875,0.1199038028717041,0.049855366,0.13938707,-203.40403735639657,-0.0881242950575948,-2.596983588185982,0.0,2154,0.2740449905395508,0.014725324538027745,0.013749430129522098,-211.01650986890314,0.0
216,2.0406241416931152,-204.0435283808514,27.500253326238457,-109.1626290664901,-251.5409860065907,2.0833333333333335,0.7632041246714193,0.1,0.005431652069091797,0.12092423439025879,0.04944039,0.14580867,-203.46798645884206,-0.08903976607027998,-2.6761890800039954,2.0833333333333335,2168,0.27599263191223145,0.012918382705425087,0.011927324195579951,-206.28310393803605,0.0
217,2.010551929473877,-203.22034892156105,28.131011773314857,-121.4580109873342,-269.016900790323,0.0,0.7348958110266318,0.1,0.005771160125732422,0.12350034713745117,0.049451176,0.1391696,-203.44322270511395,-0.08798366354069864,-2.6652365058362286,0.0,2192,0.29510068893432617,0.01285795208536328,0.012207367517681521,-212.53759358130475,0.0
218,2.117049217224121,-206.1694949743804,23.246474078370312,-147.1457079758514,-261.05028913018293,0.0,0.7668380236678135,0.1,0.005577802658081055,0.124237060546875,0.04919798,0.13416797,-203.7158499320406,-0.08931151186402797,-2.7037032677435224,0.0,2159,0.27918100357055664,0.010342866346410467,0.009971785672995288,-208.6128708999206,0.0
219,1.9988436698913574,-202.27770964339186,27.03021178134832,-132.13471223969788,-262.73642310186546,0.0,0.805721738560016,0.1,0.00548863410949707,0.12421011924743652,0.04972851,0.12713139,-203.57203590317573,-0.08863694818489216,-2.651841648781289,0.0,2164,0.28359508514404297,0.01204592771522119,0.011428579620659785,-207.6522162670223,0.0
220,2.071194887161255,-207.20094019303224,26.315784172882182,-111.96328293330399,-252.1312410008874,2.0833333333333335,0.7164004646124983,0.1,0.005649089813232422,0.12663888931274414,0.048703905,0.16856894,-203.93492633216138,-0.08926319884382998,-2.7175474448996995,2.0833333333333335,2187,0.29012155532836914,0.010717704141642928,0.010114270545324947,-210.9587603129408,0.0
221,2.115849256515503,-204.31173157646904,31.150989157826906,-95.96618596105895,-272.3840686574661,1.0416666666666667,0.7212323686660908,0.1,0.005993843078613281,0.11990046501159668,0.050463043,0.1568216,-203.97260685659214,-0.08883034406304574,-2.679508063897184,1.0416666666666667,2176,0.28167176246643066,0.014133816205047809,0.012876478130622525,-207.441582358036,0.0
222,2.0502638816833496,-196.63577385828168,27.938636252799974,-126.83944366927288,-252.62475365725288,0.0,0.7471106837443239,0.1,0.005628824234008789,0.1254274845123291,0.048464276,0.13952257,-203.2389235567611,-0.08816221071156616,-2.577033782169572,0.0,2138,0.2780632972717285,0.01106916028416669,0.010718792699026699,-208.1116359884051,0.0
223,2.015404462814331,-204.62638089900452,26.938976646919414,-132.59464573680285,-256.9369865193539,0.0,0.7579429694082869,0.1,0.006025552749633789,0.12732625007629395,0.0487144,0.13104983,-203.37766929098547,-0.08904778919731259,-2.6847778337834565,0.0,2162,0.28829383850097656,0.011155395931249007,0.010761963893582792,-209.50483808533212,0.0
224,1.966984748840332,-208.89089083224152,25.34351790607537,-136.0213941007188,-261.7466616349361,0.0,0.7919692580496825,0.1,0.0057141780853271484,0.12311506271362305,0.04876846,0.12869036,-203.92899144511108,-0.09074965495133853,-2.741033110505551,0.0,2145,0.2795696258544922,0.010859227849890572,0.010332092732916407,-208.409639921717,0.0
225,1.9771332740783691,-198.30344432971629,27.19750581776193,-119.89185758991768,-273.1447602569861,0.0,0.7823027067413347,0.1,0.0056989192962646484,0.12344646453857422,0.048950374,0.13878407,-203.36643673357162,-0.08700439517024221,-2.599199366869785,0.0,2168,0.28218507766723633,0.012573516359829322,0.011405229951098616,-209.69567054420014,0.0
226,2.0582869052886963,-203.84434636954066,27.69961253832847,-119.22998753261031,-258.89597942673515,1.0416666666666667,0.7512773484320543,0.1,0.0057239532470703125,0.11949372291564941,0.050599013,0.13983597,-203.41422769716854,-0.08959083878980457,-2.6727866251474883,1.0416666666666667,2144,0.2802262306213379,0.011260038437591073,0.010618854152722491,-205.57296439126813,0.0
227,1.979215383529663,-200.8823927125638,26.54599180576649,-132.01872379813315,-256.755703110571,0.0,0.7453429585477857,0.1,0.0056192874908447266,0.1214759349822998,0.04893432,0.13693559,-203.16104419870808,-0.08955336547335073,-2.6342273958547313,0.0,2129,0.28379392623901367,0.011982902867296676,0.011169701216509766,-203.0313750081695,0.0
228,2.018634080886841,-203.81057809782922,27.134346205291372,-112.87488483987131,-269.58135912098044,1.0416666666666667,0.7157410950581764,0.1,0.005671501159667969,0.12267899513244629,0.04930895,0.15737021,-203.2259975886202,-0.0893043340140229,-2.671122601335295,1.0416666666666667,2140,0.2859330177307129,0.012679144825911967,0.012026498608049411,-202.7510412830507,0.0
229,2.128262519836426,-200.24644330422373,29.113835574458648,-120.5116880905919,-269.445220458046,1.0416666666666667,0.7163055627733039,0.1,0.005514860153198242,0.12221074104309082,0.04892768,0.14721532,-202.92804216018055,-0.0888161907066618,-2.6246357695967135,1.0416666666666667,2129,0.28327298164367676,0.013172073906708524,0.012629842072709575,-211.36189607236662,0.0
230,2.104841709136963,-203.90823781013341,28.054844329930493,-145.81269529131103,-315.19553826506535,0.0,0.7937425554769616,0.1,0.0055027008056640625,0.12025117874145508,0.04982912,0.12929448,-203.02606172517585,-0.08880376933849778,-2.6749121781300658,0.0,2172,0.2802252769470215,0.014692831878828324,0.013092322147600624,-199.7545795807556,0.0
231,2.240150213241577,-205.19347561671316,25.040345156863626,-119.97140258122437,-271.21527002804925,1.0416666666666667,0.7548153912116389,0.1,0.005566596984863281,0.12149167060852051,0.04922705,0.1365618,-203.24280311432958,-0.08942571159462288,-2.6911188340711845,1.0416666666666667,2152,0.2779507637023926,0.01153810150710755,0.01082201363726024,-204.67968459275272,0.0
232,1.9930047988891602,-203.47999054488469,23.76126872592558,-118.08648036967482,-244.42976045958915,0.0,0.7578059416253794,0.1,0.005980253219604492,0.12565064430236816,0.04874438,0.14548172,-203.2665218573851,-0.08842294376955494,-2.6685250644178757,0.0,2154,0.279055118560791,0.010849464430812864,0.01011255133858263,-203.8976913408879,0.0
233,2.005378246307373,-196.2849993901277,30.890155379285606,-122.65028719371584,-261.1782183302561,2.0833333333333335,0.7233163407949231,0.1,0.005888700485229492,0.12442612648010254,0.05039406,0.15731539,-202.56836961065937,-0.08778453330749138,-2.572859435633838,2.0833333333333335,2147,0.27884817123413086,0.013582872291378514,0.013517572973115961,-207.77519395449028,0.0
234,1.967724084854126,-205.20233331088903,23.42302887458355,-113.99015929450957,-236.74051272604353,1.0416666666666667,0.7978046327432792,0.1,0.005853891372680664,0.1273188591003418,0.04894862,0.13349196,-202.83176598068235,-0.08928184630916634,-2.691800699873383,1.0416666666666667,2139,0.293224573135376,0.01269910691859424,0.010069624412182019,-210.19598397566625,0.0
235,1.9724185466766357,-202.04299849737708,25.440554555255368,-117.26013959344378,-244.22989222129434,0.0,0.7307816464616727,0.1,0.005501270294189453,0.12601137161254883,0.048695274,0.17341223,-202.75288923235183,-0.08971964120455085,-2.648539160778254,0.0,2117,0.28572702407836914,0.009590935120272124,0.009070468750070577,-209.96050440197266,0.0
236,1.940272331237793,-202.6925338508404,28.980987640720542,-94.97750414758141,-274.76840044192045,1.0416666666666667,0.7825023977838155,0.1,0.005544424057006836,0.12084698677062988,0.048870698,0.13832027,-202.7468536942007,-0.08891678214039862,-2.659107227528003,1.0416666666666667,2154,0.2793295383453369,0.012541450457986481,0.012075800650416012,-207.43050358431904,0.0
237,1.9675517082214355,-204.40787088627488,25.475666844191483,-137.40578722555023,-249.8770179643918,1.0416666666666667,0.7481328455059157,0.1,0.0055768489837646484,0.12081122398376465,0.04836657,0.13288407,-202.9129554134081,-0.08980961921001823,-2.680900838334481,1.0416666666666667,2134,0.27718424797058105,0.010511040862115625,0.010025036035287128,-207.519341628914,0.0
238,2.06099796295166,-205.81883839812085,25.99385215702787,-132.56645332769375,-260.6401844605731,0.0,0.7276786571835773,0.1,0.005403995513916016,0.11908888816833496,0.04901682,0.1397717,-203.20354371187938,-0.08974135547703092,-2.7010798903327538,0.0,2148,0.2800016403198242,0.010624456356758133,0.010440401520631535,-205.02419318147298,0.0
239,2.0980453491210938,-200.44051715533337,28.289750328179185,-116.04373067112596,-250.62926606879626,0.0,0.741320492789089,0.1,0.00561976432800293,0.12758660316467285,0.05011994,0.14412598,-202.92724105622477,-0.08969871437294759,-2.6276313377164997,0.0,2126,0.28049373626708984,0.013208623209426708,0.012679040923489659,-211.71285999769836,0.0
240,2.130295515060425,-201.81821219451376,26.96603453410654,-126.02893216570116,-258.29942769187886,0.0,0.7581561994104928,0.1,0.005733013153076172,0.1200869083404541,0.049361557,0.14596431,-202.81633817005365,-0.08984973619253367,-2.6459200522690995,0.0,2115,0.27994775772094727,0.013120059556692553,0.012250798241201045,-207.66679236075964,0.0
241,2.129329204559326,-205.50065878859064,28.97690214226728,-95.00555066561137,-263.5381057002641,2.0833333333333335,0.7279653363649985,0.1,0.005605220794677734,0.12360405921936035,0.049383316,0.15315868,-203.08477023190736,-0.08928447764842536,-2.694560387267646,2.0833333333333335,2165,0.28153443336486816,0.012636821288430748,0.012001061866659597,-206.69986748141903,0.0
242,2.148533344268799,-204.196461694635,20.31583160942545,-146.3680015172047,-243.58688194316116,0.0,0.7356156815962437,0.1,0.0055315494537353516,0.12404990196228027,0.050476033,0.14078175,-203.19593937818013,-0.0892462060608804,-2.6767567854454803,0.0,2129,0.27792811393737793,0.008679214074512656,0.008397731360735993,-208.2047518230803,0.0
243,1.9764454364776611,-202.2843024671943,25.03542237544287,-146.06460591350083,-256.4078480204879,0.0,0.6983875307759841,0.1,0.0057468414306640625,0.12524151802062988,0.049403552,0.15917371,-203.10477568708154,-0.08945832534014198,-2.653622936730977,0.0,2117,0.2803921699523926,0.011223193442972422,0.01094347463380445,-208.07888883703941,0.0
244,2.1351215839385986,-204.46714511456722,20.316895801650144,-159.68316696045656,-253.5401603640436,0.0,0.7593812552842077,0.1,0.005819082260131836,0.12690329551696777,0.04953183,0.13120769,-203.24101262983012,-0.08844297325845223,-2.683177721953838,0.0,2157,0.28836584091186523,0.008596430448539303,0.00840682852331098,-208.40267195870328,6.25
245,2.0973870754241943,-205.60684832780888,25.340312497963964,-123.0953418557073,-261.18410196850834,1.0416666666666667,0.7527115021900197,0.1,0.005396604537963867,0.12181997299194336,0.05014536,0.14200173,-203.47759619962798,-0.0905391090797943,-2.6968764626381394,1.0416666666666667,2116,0.2957141399383545,0.010210317641135946,0.009775153405789837,-203.33070052814213,6.25
246,2.1074907779693604,-203.7024873697239,24.87512235189131,-101.77881263324724,-249.6982726355618,0.0,0.7795238000026121,0.1,0.0053386688232421875,0.12037324905395508,0.049830314,0.1352302,-203.50008531663758,-0.0898531914201414,-2.6706224177059013,0.0,2124,0.2850911617279053,0.011112305596959818,0.01097634307351936,-200.62610518421624,6.25
247,2.234252452850342,-201.36959939489284,24.594771163680626,-132.21169480348513,-262.8363384467067,0.0,0.7326600125560893,0.1,0.00548243522644043,0.12456989288330078,0.049596112,0.14480898,-203.28703672446312,-0.08942279371214551,-2.6410030425756954,0.0,2113,0.2947516441345215,0.010601661103677622,0.009464345857972982,-205.90967279394056,0.0
248,2.226008653640747,-200.2573396063956,28.138544793635614,-95.25707183161997,-245.31462795422962,1.0416666666666667,0.7517094077471744,0.1,0.005652189254760742,0.12284374237060547,0.04868161,0.14551762,-202.9840670126564,-0.08866217895309464,-2.625931540238641,1.0416666666666667,2142,0.28635454177856445,0.012686704902207269,0.012368169705421237,-201.59122377641359,6.25
249,2.344085454940796,-203.46781223119214,23.447134862348058,-100.98031230890396,-248.64758798888582,0.0,0.7036465600535556,0.1,0.00575709342956543,0.1183927059173584,0.05003333,0.16315407,-203.03244153450999,-0.09034856415837818,-2.667937536322468,0.0,2100,0.2749655246734619,0.009246095428259656,0.008904069015454014,-209.28392103984163,6.25
250,2.0021615028381348,-201.66622902231674,25.357731687663048,-131.1078898682341,-260.35248465036995,0.0,0.753672190833291,0.1,0.005426883697509766,0.12137866020202637,0.049910244,0.15064128,-202.89582028329065,-0.08933407537455022,-2.643936702787467,0.0,2120,0.28903818130493164,0.010281839263767556,0.009899740666487014,-207.2118682873535,0.0
251,1.9890820980072021,-201.75284606545486,25.97453823093796,-120.79659572739602,-253.84192909360382,0.0,0.7533331727931748,0.1,0.005623340606689453,0.12332820892333984,0.049056046,0.14673862,-202.78152286150709,-0.0890687964224098,-2.6446021767205514,0.0,2126,0.28908753395080566,0.010280226819732025,0.01026050234169524,-204.1621280383241,6.25
252,1.9895882606506348,-211.22299036407162,24.328674625136156,-132.06061755652144,-262.6523263447115,0.0,0.7590250947387951,0.1,0.006099700927734375,0.12711691856384277,0.049340453,0.1392448,-203.62566961176353,-0.09114158155808912,-2.772477606790126,0.0,2151,0.29810047149658203,0.01080247165204175,0.010396650023760052,-198.22009202652552,6.25
253,2.010707139968872,-202.9624677614319,20.50316944097692,-137.8424070198485,-253.81075091962998,0.0,0.7366268194708245,0.1,0.005946159362792969,0.13141202926635742,0.049624644,0.14112186,-203.55934942673036,-0.08942666877656202,-2.6612563466771006,0.0,2113,0.289806604385376,0.008214223269292262,0.007822339753218303,-201.37797313514187,6.25
254,2.0793135166168213,-201.83267328656476,23.699568434930427,-135.79514415940875,-256.0014216470404,0.0,0.7123566599029567,0.1,0.005596637725830078,0.12100338935852051,0.049224414,0.15082227,-203.38668181271382,-0.08926650894520605,-2.6463585535574565,0.0,2112,0.28660154342651367,0.01018848429612062,0.009727686570673676,-204.21541496206174,6.25
255,2.0995566844940186,-197.95119467725053,29.0080771624013,-115.67669184437163,-292.02039095268594,1.0416666666666667,0.7339833228827607,0.1,0.006287813186645508,0.12607908248901367,0.05043513,0.13940668,-202.8431330991675,-0.08826810104828615,-2.594510287230365,1.0416666666666667,2123,0.2920658588409424,0.01284428528281769,0.012443363584206396,-197.9079965635726,6.25
256,2.1053333282470703,-202.24549932698696,26.974996752290146,-112.04500456386376,-271.89217544734527,1.0416666666666667,0.7725933449472644,0.1,0.005997419357299805,0.12297892570495605,0.049675427,0.15201242,-202.78336972194944,-0.09027734005950704,-2.6528883455578858,1.0416666666666667,2097,0.28252720832824707,0.011415831602565072,0.010361765307824082,-200.46143245285157,6.25
257,2.080608367919922,-199.01990580020922,24.950938510035574,-127.12038130075818,-241.64781787493726,0.0,0.7795144830390737,0.1,0.0056171417236328125,0.12269473075866699,0.048905812,0.13070625,-202.40702332977543,-0.08916739564549818,-2.6094364425132963,0.0,2093,0.27538442611694336,0.010097209098213555,0.009732291889244942,-205.16311723983415,6.25
258,2.0627033710479736,-195.83165827464518,26.250450641534677,-104.10740344105254,-235.4827370356623,1.0416666666666667,0.745585127520287,0.1,0.005509614944458008,0.1224832534790039,0.049431887,0.15545473,-201.7494868242624,-0.08860932556585342,-2.5665293608323796,1.0416666666666667,2092,0.2716481685638428,0.012190144253083277,0.011311223936577136,-209.39321622493082,6.25
259,2.101501941680908,-207.98194882338666,23.862036506209723,-135.94241362882408,-273.9477001902332,0.0,0.7531464557900232,0.1,0.00548553466796875,0.12380719184875488,0.049874797,0.12920313,-202.3727330241748,-0.09056723436432501,-2.728978849889374,0.0,2133,0.28052496910095215,0.013091404661115792,0.01030388483673668,-206.52105076449556,0.0
260,2.077258348464966,-197.69490063671046,26.491739208472858,-119.96416259907058,-251.9439518679864,0.0,0.7410011987232542,0.1,0.005506277084350586,0.12693190574645996,0.05042853,0.15825836,-201.90494978542839,-0.08862338323723153,-2.591190210926886,0.0,2119,0.2802891731262207,0.012510191245842605,0.011785821904114748,-204.50184624291074,0.0
261,2.0835933685302734,-201.83032067742724,26.016183149431864,-136.54818325906166,-258.03447220599224,1.0416666666666667,0.7517662531916883,0.1,0.005506277084350586,0.12127304077148438,0.04913134,0.1392127,-201.89748687462827,-0.08976415381197485,-2.645844708559694,1.0416666666666667,2113,0.271787166595459,0.011981356105264948,0.010902806308038835,-206.3459238812041,0.0
262,2.062441349029541,-198.04751565688684,27.080713516235715,-132.91844192657825,-256.92906056861256,0.0,0.7921464086909135,0.1,0.0054950714111328125,0.11826419830322266,0.04977985,0.13602334,-201.51248975285415,-0.088970822883697,-2.5962357902959203,0.0,2109,0.26288390159606934,0.011197658683014746,0.01066541875070746,-212.8336035168714,0.0
263,2.1895971298217773,-202.0983655545083,26.96119028397058,-115.65620498874527,-248.833720488696,1.0416666666666667,0.7953031488097527,0.1,0.005663871765136719,0.12522149085998535,0.049685087,0.13277394,-201.5710773330196,-0.08974329174261696,-2.6496958499919083,1.0416666666666667,2113,0.28340840339660645,0.011805543733028407,0.011562648208878014,-210.55887245363863,0.0
264,2.1874396800994873,-201.68347235971478,26.293484502678794,-115.6998938091097,-253.60201319493507,0.0,0.7504021740465817,0.1,0.005670070648193359,0.12394261360168457,0.050001368,0.1414886,-201.5823168356891,-0.0903909566280174,-2.6451020166305543,0.0,2099,0.28270912170410156,0.010219928316271866,0.009792488853729207,-210.81695060171165,0.0
265,2.279971122741699,-200.34987181960923,29.328824633437808,-114.83669352770555,-258.3176416670214,2.0833333333333335,0.7667871963979638,0.1,0.0056536197662353516,0.13950610160827637,0.049070988,0.1469349,-201.45907233408113,-0.08991148812008103,-2.6263196161646687,2.0833333333333335,2105,0.27386927604675293,0.012460662631969047,0.01190949976690943,-212.00783178849684,0.0
266,2.060206890106201,-200.6865898017461,29.199796271122032,-115.91068302536345,-287.2690239772627,1.0416666666666667,0.7636697774829949,0.1,0.00574946403503418,0.12672901153564453,0.049234197,0.1334278,-201.38182408084762,-0.08948591022861752,-2.6310148399307836,1.0416666666666667,2126,0.28449440002441406,0.013163984837000675,0.012833384246133932,-212.34609379141008,0.0
267,2.1021206378936768,-196.9262897589778,27.256314251160624,-117.46750072435876,-271.2604962651374,1.0416666666666667,0.706704459088325,0.1,0.005599498748779297,0.1242835521697998,0.05013504,0.14070566,-200.93627064866064,-0.08974755328706947,-2.580784214327736,1.0416666666666667,2073,0.27543187141418457,0.012687247579992213,0.011738050328359966,-204.97046169910172,6.25
268,2.079418659210205,-197.60179629853678,26.664293398925295,-121.60884684867774,-254.14995392898953,0.0,0.7347142526542286,0.1,0.006106853485107422,0.13143086433410645,0.04924372,0.14087209,-200.60282321364826,-0.08933965691684553,-2.5901421070838104,0.0,2091,0.2731788158416748,0.011701924950683494,0.011396846487768562,-207.3319964259207,0.0
269,2.0769119262695312,-198.01657201627836,25.771156349944132,-108.46080194024256,-243.69799676886362,1.0416666666666667,0.7571194582262536,0.1,0.00540471076965332,0.11969423294067383,0.05103072,0.13179275,-200.3441980939113,-0.08949731692314755,-2.5955757657478116,1.0416666666666667,2079,0.2724776268005371,0.009503369926272518,0.009364057457036064,-207.62498622711723,0.0
270,1.96412992477417,-195.84655134368577,33.072191876451974,-98.65925767876607,-255.47066877627705,3.125,0.7566408578380729,0.1,0.00540614128112793,0.12103629112243652,0.049609087,0.15498039,-199.89443341888875,-0.08857583840939505,-2.567320578830467,3.125,2118,0.2873075008392334,0.015040081287762776,0.014367607827407017,-206.41250789077202,0.0
271,1.9220190048217773,-198.96797145826824,27.898770254356084,-111.90264659024834,-259.17051992992543,0.0,0.7254837936378896,0.1,0.005350351333618164,0.1262187957763672,0.04867931,0.15728977,-199.8017872228267,-0.08968862143537144,-2.60734837472647,0.0,2096,0.2750122547149658,0.014104477621402158,0.013396334608010749,-200.08409037653655,6.25
272,1.9186017513275146,-199.3316869520271,23.468240887280803,-126.80703198345866,-255.03371756656372,0.0,0.7334275233719361,0.1,0.0054399967193603516,0.12161922454833984,0.04905669,0.13860495,-199.75477719574675,-0.08919105888262209,-2.612296140350311,0.0,2097,0.27749085426330566,0.009058826036383463,0.008589044285702804,-203.7963096720807,6.25
273,2.0591983795166016,-198.70755419415113,23.68036705149228,-142.50673117429264,-251.62680579122463,0.0,0.7315949255401448,0.1,0.0053424835205078125,0.12166213989257812,0.04963905,0.14102873,-199.65005489558717,-0.08873775235734849,-2.604271737830269,0.0,2104,0.27677273750305176,0.010464318153265595,0.010057225067243998,-202.93334145643178,6.25
274,2.0796103477478027,-199.4240972274497,23.626743532199637,-123.48694562892561,-260.4910615237802,1.0416666666666667,0.7601247278014365,0.1,0.005796670913696289,0.1245119571685791,0.049630158,0.13992852,-199.62745912877344,-0.08929345531141408,-2.6146427457842454,1.0416666666666667,2096,0.2820568084716797,0.009977378287478968,0.009666004457613203,-202.1128086199352,6.25
275,2.1425511837005615,-204.9879222953501,26.204246014114528,-132.2414113947696,-277.535403781064,0.0,0.7223357924910149,0.1,0.005393028259277344,0.1197810173034668,0.049575213,0.15543269,-200.1635054454311,-0.09136910646732647,-2.6892461311960223,0.0,2093,0.27689290046691895,0.011047643437278692,0.009983094771068448,-202.8344150633679,6.25
276,2.0588219165802,-199.47647348834246,26.67854682613797,-123.88024472234412,-263.86993875936497,0.0,0.71118383531437,0.1,0.005622386932373047,0.12344789505004883,0.049458157,0.15807998,-200.09480224972222,-0.0893130734878546,-2.6148281030181764,0.0,2102,0.2919900417327881,0.012319934627879697,0.011586377955841696,-202.20042934900025,6.25
277,2.0924296379089355,-196.60923353022568,28.140189815556653,-107.58094293235476,-246.87736098492434,2.0833333333333335,0.690577953291857,0.1,0.005566596984863281,0.12270903587341309,0.0492198,0.15730855,-199.7462453777726,-0.0891330364905295,-2.576797890695031,2.0833333333333335,2085,0.2874939441680908,0.012362597894624757,0.012070131457988308,-199.24771486513808,6.25
278,2.068708658218384,-196.53169043361962,25.98135056689792,-116.3773210506835,-245.58215553964556,2.0833333333333335,0.7304734774926508,0.1,0.005584239959716797,0.12590527534484863,0.049136546,0.16092779,-199.4247898833573,-0.0891843501035095,-2.575910722069134,2.0833333333333335,2086,0.29289722442626953,0.010676920976807253,0.010352343768960746,-201.31689565904182,6.25
279,2.092372179031372,-201.6577813541886,26.76311546290459,-127.9793258831568,-252.6489897331113,0.0,0.702495035044476,0.1,0.0059261322021484375,0.12770724296569824,0.049598925,0.14111693,-199.64808903044045,-0.09126141727656321,-2.643694257966358,0.0,2069,0.29125499725341797,0.011649841602209884,0.011559543609212868,-203.63371393813247,6.25
280,2.0917582511901855,-196.69220002829624,30.722707514494836,-112.90205069678984,-259.51608022849064,0.0,0.7677378892447744,0.1,0.0054242610931396484,0.12220597267150879,0.050172858,0.14695387,-199.35250013022605,-0.08890151970846623,-2.5778331463052235,0.0,2101,0.2855491638183594,0.013754884467276764,0.013048149546178134,-204.5954957771108,0.0
281,2.2786669731140137,-202.36021288401972,22.10303611367698,-136.45594910468927,-238.88366426873705,1.0416666666666667,0.691454204191394,0.1,0.0054743289947509766,0.12224030494689941,0.049388826,0.15546666,-199.65327140560544,-0.09083772548231393,-2.6524663668187434,1.0416666666666667,2085,0.2882561683654785,0.008508007706148075,0.007783864915372418,-210.8853550353371,0.0
282,2.283926486968994,-194.91441837474187,29.046652263035774,-119.60663926250213,-254.55348966888639,0.0,0.7532640929719389,0.1,0.0056078433990478516,0.12379789352416992,0.050584115,0.15046257,-199.1793861025191,-0.0881200545368157,-2.554851711859232,0.0,2104,0.2919127941131592,0.013294832358557098,0.012814920792418725,-203.30400175009567,6.25
283,2.338348627090454,-196.8954722524774,28.88069540719171,-120.57518722411749,-296.799215582481,0.0,0.7122267712871213,0.1,0.0057299137115478516,0.12386679649353027,0.049564723,0.14719634,-198.95099471751493,-0.08970105133712573,-2.5809834425460902,0.0,2082,0.29343461990356445,0.013288371501966656,0.013099232222174646,-200.9606604648171,0.0
284,2.026139497756958,-199.27685514385726,29.723635582066176,-104.61553092901667,-263.60927119948707,3.125,0.7450361265112293,0.1,0.0054242610931396484,0.12430787086486816,0.049706332,0.14113586,-198.98358076014918,-0.0903675381955747,-2.611687869604563,3.125,2078,0.2881338596343994,0.013118365024472918,0.0129689527813179,-209.29100005441433,0.0
285,2.1299705505371094,-202.71745452185405,25.015862477709874,-121.1567760729012,-250.83864040116242,0.0,0.7120440136682521,0.1,0.005540370941162109,0.12577199935913086,0.049166035,0.1634424,-199.35696813631967,-0.0898533136230375,-2.6574339011431243,0.0,2122,0.2971947193145752,0.00983166198453032,0.00928435502019404,-202.90200557939372,0.0
286,2.068254232406616,-200.19757301145367,27.29235016198102,-120.33693588729025,-266.50579775968316,0.0,0.7295890040223395,0.1,0.0056149959564208984,0.12366199493408203,0.049633402,0.14881264,-199.4410286238331,-0.09017135102319618,-2.6235231732181927,0.0,2091,0.290208101272583,0.012036138299828672,0.011718849164947935,-203.0081182116685,0.0
287,2.085956335067749,-195.54242167004918,31.320575495554753,-95.69341580627398,-259.01155637411915,2.0833333333333335,0.701264672771848,0.1,0.005461931228637695,0.12414193153381348,0.049144257,0.21886095,-199.0511679284547,-0.08962362290317945,-2.563384412201595,2.0833333333333335,2081,0.27140331268310547,0.013032771908761712,0.012416539869576993,-207.0381788422053,0.0
288,2.0759871006011963,-197.698815805599,27.534674641293492,-118.66521301367368,-258.7985896721659,1.0416666666666667,0.7251171313049938,0.1,0.005519866943359375,0.12726902961730957,0.049290285,0.16613701,-198.91593271616915,-0.08926970617216774,-2.591495186743448,1.0416666666666667,2090,0.2761502265930176,0.011173651634751158,0.010922551231105028,-210.38315406721125,0.0
289,2.0852115154266357,-205.19284339289194,26.264248101686448,-121.45825061339389,-255.1921686799904,0.0,0.6924801682077812,0.1,0.005860090255737305,0.12420892715454102,0.049922943,0.1677282,-199.54362378384144,-0.09144136875131004,-2.691071311797428,0.0,2092,0.27436280250549316,0.010975953972690826,0.009991100231903258,-210.9036058124347,0.0
290,2.072293758392334,-199.11743100197305,29.937581470326993,-128.28150997026918,-259.65087856084574,1.0416666666666667,0.7325424518446575,0.1,0.005575418472290039,0.1273188591003418,0.049896736,0.15022309,-199.5010045056546,-0.0902126321191647,-2.610178946824508,1.0416666666666667,2089,0.27388572692871094,0.013825699871622604,0.013048118606683708,-204.13801704661944,0.0
291,2.0659916400909424,-198.86557977761308,28.24065233809581,-112.34127156180813,-253.34763102442383,0.0,0.6955843513858435,0.1,0.005263805389404297,0.11934328079223633,0.049798343,0.1597862,-199.43746203285045,-0.09054406925848563,-2.6064100138832385,0.0,2067,0.26836681365966797,0.012149927035074035,0.011678414577073639,-204.417249010855,0.0
292,2.1007134914398193,-197.61583916247068,29.48895999401811,-102.91282565814925,-250.98958477815927,1.0416666666666667,0.7399317278285757,0.1,0.005659818649291992,0.13107967376708984,0.050540008,0.14342745,-199.2552997458125,-0.09048376045800562,-2.589622874043337,1.0416666666666667,2063,0.2752561569213867,0.013328740000618455,0.012835074428938083,-210.13375964733973,0.0
293,2.059727191925049,-197.14032082531082,29.69239842914453,-122.59714930283963,-261.3872335879777,0.0,0.7023254209856659,0.1,0.004235506057739258,0.12475156784057617,0.05006183,0.15674235,-199.04380185376232,-0.08947605989178187,-2.5836738742772467,0.0,2095,0.27886438369750977,0.012067801047823309,0.011629635641807148,-210.40908689860535,0.0
294,2.0923514366149902,-199.05969556204005,29.221915201295026,-97.458289747073,-258.77035645781433,1.0416666666666667,0.8001359904778332,0.1,0.005446434020996094,0.12075114250183105,0.049712002,0.1310858,-199.0453912245901,-0.08910676839033056,-2.609948929259866,1.0416666666666667,2107,0.26532483100891113,0.013982684261056155,0.013435044831919634,-210.44880439797757,0.0
295,2.0976486206054688,-200.81141593809002,26.69233115109301,-122.98854225954298,-254.01688137277665,0.0,0.7221463786344866,0.1,0.005472421646118164,0.12267041206359863,0.049886163,0.17943129,-199.2219936959401,-0.09000118498743415,-2.6328033092765395,0.0,2104,0.27387166023254395,0.010348103263945065,0.010760294301958594,-211.3913054599477,0.0
296,2.064445972442627,-200.45519556564832,27.16978881276906,-108.06981246697106,-255.5152284923538,2.0833333333333335,0.7128596517059158,0.1,0.005490303039550781,0.1229543685913086,0.048935305,0.15907738,-199.34531388291094,-0.0896615418114745,-2.6271138255316226,2.0833333333333335,2096,0.2797987461090088,0.012179260224686014,0.011559758552885949,-210.87363045790303,0.0
297,2.0843241214752197,-197.89465665107068,28.17601772340166,-110.77337013927931,-246.91478177021577,1.0416666666666667,0.7232230609754658,0.1,0.005364894866943359,0.12094545364379883,0.050122444,0.14841123,-199.20024815972693,-0.08999995872620119,-2.5944390298627935,1.0416666666666667,2083,0.2720005512237549,0.010985825894919518,0.010255936249356678,-201.19202207103558,0.0
298,2.0389976501464844,-200.86024452894287,26.59045588507217,-115.73751601708823,-253.59125243810314,1.0416666666666667,0.7497097579746903,0.1,0.005394935607910156,0.127610445022583,0.05038043,0.14668894,-199.36624779664854,-0.09074942581473659,-2.633240466389648,1.0416666666666667,2075,0.26929545402526855,0.011281771012822881,0.011627551587097041,-205.86555947786394,0.0
299,2.1948907375335693,-199.45626315371928,29.70622551617535,-113.32728774925172,-248.90605637873688,1.0416666666666667,0.7470779067718157,0.1,0.005377769470214844,0.12405824661254883,0.049439304,0.16038734,-199.37524933235562,-0.0899017360760201,-2.6145508735371497,1.0416666666666667,2103,0.27663350105285645,0.013901250125326515,0.012435959962202894,-200.78477155376913,0.0
300,2.231038808822632,-202.01099796029143,23.610698156148857,-132.7539767236881,-241.49134507101854,0.0,0.7491593708342537,0.1,0.005641937255859375,0.12624502182006836,0.049605284,0.13996464,-199.63882419514923,-0.09006943517028752,-2.649286258811776,0.0,2095,0.2820417881011963,0.009963255158178076,0.009248510954271379,-206.42919920649084,0.0
301,2.1158790588378906,-200.71266667591485,26.841632476148014,-134.3859108107824,-256.09834153969183,1.0416666666666667,0.7357475175428817,0.1,0.005975008010864258,0.1323084831237793,0.05006181,0.1446656,-199.74620844322578,-0.09083722003235788,-2.631752977528878,1.0416666666666667,2094,0.2741060256958008,0.01056822275126446,0.009848610952852945,-203.02469828550142,0.0
302,2.0464158058166504,-198.9180883633487,23.980257507010872,-124.19454447027265,-250.0004374777686,0.0,0.7059826399737238,0.1,0.005673885345458984,0.12323665618896484,0.05030276,0.14096975,-199.66339643523807,-0.08995209506653667,-2.6074766691158966,0.0,2081,0.2751469612121582,0.010379682687550273,0.009898764514950415,-203.66307140368767,6.25
303,2.113354206085205,-197.45734858461583,27.808377821442335,-111.09504824316275,-263.7746754616193,3.125,0.7795541530340445,0.1,0.0055389404296875,0.12090563774108887,0.049960632,0.14542125,-199.44279165017585,-0.08921433437317013,-2.5883798596630947,3.125,2100,0.27297019958496094,0.012761226981869664,0.012278437826837884,-201.4175979703302,6.25
304,2.0198965072631836,-199.49714599168723,28.37569665552013,-103.13361821468652,-242.2583480013803,2.0833333333333335,0.7241915828521389,0.1,0.005807638168334961,0.12562799453735352,0.050333004,0.19330741,-199.448227084327,-0.09012510895445523,-2.6153974672302334,2.0833333333333335,2077,0.2817540168762207,0.011732441325822879,0.011115376597483483,-205.12800641058186,0.0
305,2.079657554626465,-198.06410409125942,29.00082187850291,-122.83822586521322,-250.19279166916758,0.0,0.770989825155336,0.1,0.005696535110473633,0.12076807022094727,0.04954107,0.1362652,-199.30981478502025,-0.08934930938091516,-2.5963753860945613,0.0,2102,0.2759881019592285,0.011509471811950616,0.011191077207508908,-200.7778057930618,6.25
306,2.108745813369751,-198.0898854887903,28.3200300769787,-93.6084888340029,-255.91606611406738,3.125,0.7140542816655683,0.1,0.0055773258209228516,0.1196293830871582,0.04922992,0.15011518,-199.18782185539726,-0.0893531882042466,-2.5959138316156563,3.125,2094,0.28087353706359863,0.012094151461835135,0.011222208900220586,-199.93914898509212,0.0
307,2.074200391769409,-201.4007599181879,23.388518048049363,-132.35663512616668,-257.88410472220767,0.0,0.7266886909000708,0.1,0.005963325500488281,0.12573456764221191,0.047446694,0.1305886,-199.4091156616763,-0.08952070562252756,-2.640472492373535,0.0,2097,0.28699374198913574,0.009553291323159236,0.009374317851578448,-203.6426341518271,0.0
308,2.0896196365356445,-196.87712637128115,29.852990172430285,-115.5748716463745,-242.0457210452622,0.0,0.7819096952598253,0.1,0.0055887699127197266,0.11913847923278809,0.04946702,0.1395294,-199.1559167326368,-0.08972268496523261,-2.58051517427547,0.0,2085,0.27609753608703613,0.013358455176512454,0.012863029685653766,-207.1669892754412,0.0
309,2.062901020050049,-199.42117376417752,27.853627262745015,-120.43234272026373,-290.1550762913894,2.0833333333333335,0.6833790334892959,0.1,0.006237983703613281,0.1247859001159668,0.049679797,0.1645877,-199.1824424357909,-0.08985332621378155,-2.6143232229561524,2.0833333333333335,2091,0.2817721366882324,0.01146770370224844,0.0108208747099777,-203.04042086289547,0.0
310,2.1325948238372803,-201.4439427245201,22.997186886506665,-125.94408636356494,-252.1839351048962,0.0,0.7871128839298822,0.1,0.005550384521484375,0.12144732475280762,0.05023162,0.1270733,-199.40859246466383,-0.08997755807149745,-2.6405774385615977,0.0,2093,0.2811899185180664,0.010211211265566173,0.009853530746211023,-204.1728894306893,0.0
311,2.1303775310516357,-200.714787734598,28.335236523753256,-120.86205524327494,-263.7708165131868,1.0416666666666667,0.7295229541640722,0.1,0.00591278076171875,0.12674212455749512,0.04934204,0.15346742,-199.53921199165725,-0.08945434115075505,-2.630353193683424,1.0416666666666667,2123,0.29918503761291504,0.010909546527859524,0.01028252092727334,-207.28593229143263,0.0
312,2.095419406890869,-200.58380251924737,25.69707593050756,-138.9136727288519,-248.27066568044262,0.0,0.7493290304689654,0.1,0.005731105804443359,0.13149261474609375,0.04941444,0.14733833,-199.64367104441627,-0.09021480685846735,-2.629974847354672,0.0,2087,0.28659749031066895,0.010981598535556662,0.010277615155641844,-197.46727881983355,0.0
313,2.0714895725250244,-196.55571162520013,26.588174552883586,-120.11815654106437,-244.76331474102483,0.0,0.7423817996168119,0.1,0.005682468414306641,0.12793350219726562,0.050491586,0.13612717,-199.33487510249464,-0.08893287908700476,-2.5761994676653712,0.0,2097,0.29364919662475586,0.011105377913515097,0.010521152248649416,-191.6910937928717,6.25
314,2.092210292816162,-203.1189359543122,24.34623849991845,-113.24844707948031,-265.5307174698266,1.0416666666666667,0.7719977648359668,0.1,0.005768775939941406,0.12494492530822754,0.050154794,0.14052387,-199.71328118767642,-0.09046480286320191,-2.6634184603797806,1.0416666666666667,2095,0.29714059829711914,0.009729645703587555,0.008971301215278041,-199.63841953028822,6.25
315,2.2623729705810547,-192.61780717598674,32.50068495549727,-103.60138640108299,-254.60188764625042,2.0833333333333335,0.7259481921425371,0.1,0.005645751953125,0.1255490779876709,0.05024092,0.15763767,-199.00373378650744,-0.08847311204332657,-2.524018066686605,2.0833333333333335,2101,0.2937600612640381,0.014427513104078147,0.01307889498868284,-200.47894994423632,0.0
316,2.2726199626922607,-200.4221203943812,25.80863834780191,-126.4466616914394,-257.51715529881244,0.0,0.6878419653641734,0.1,0.005562782287597656,0.12293529510498047,0.04959722,0.15223111,-199.14557244729482,-0.08870815739162057,-2.6275556485505356,0.0,2122,0.3019845485687256,0.010418844967708538,0.00973297305047078,-199.25870307056536,6.25
317,2.2694168090820312,-199.21632998275427,28.896107949010467,-119.7734173055959,-256.13856142191764,2.0833333333333335,0.7527482677302502,0.1,0.005732536315917969,0.11998963356018066,0.04995175,0.13644521,-199.15264820084076,-0.09047419245183637,-2.6111507307731023,2.0833333333333335,2083,0.286470890045166,0.011884164611480983,0.011553158557479066,-196.72243977994833,0.0
318,2.3573808670043945,-199.182702660787,26.29005646596708,-102.29856073783857,-238.95553748731484,1.0416666666666667,0.7511116978990042,0.1,0.005872011184692383,0.12650513648986816,0.04922646,0.14610855,-199.1556536468354,-0.0896033016195633,-2.6113008188636857,1.0416666666666667,2086,0.2987632751464844,0.010777739132427371,0.01042843770497688,-201.57041661232358,6.25
319,2.090989828109741,-202.93880911109343,22.936819410218448,-138.06927528618112,-254.29972598867226,0.0,0.7813526324596892,0.1,0.005838155746459961,0.12309122085571289,0.04983045,0.13167018,-199.53396919326119,-0.08944272405399284,-2.6605106765641984,0.0,2122,0.30419206619262695,0.008557968018686177,0.008966714298194888,-203.54912119991775,6.25
320,2.055621862411499,-199.83932736111365,31.053353856697523,-107.65225788051526,-257.7296161817437,0.0,0.7452835172428012,0.1,0.005801677703857422,0.11940431594848633,0.04931272,0.14843524,-199.56450501004645,-0.08925107336372133,-2.619524068631241,0.0,2115,0.30352187156677246,0.013533515683349496,0.01324012191941453,-198.87590716845136,6.25
321,2.112678289413452,-206.4031427304857,24.79587640806125,-125.43688344812111,-259.72152699311494,0.0,0.7677193464156846,0.1,0.00554347038269043,0.12002897262573242,0.04927461,0.12717904,-200.24836878209038,-0.09215757523427641,-2.707218931934886,0.0,2079,0.29935312271118164,0.009484695653289731,0.008385655816736432,-199.7998109287,6.25
322,2.1281633377075195,-196.45245453786416,23.55530234669015,-150.4508737156566,-250.18675200995096,0.0,0.7542194855616244,0.1,0.005897045135498047,0.12337374687194824,0.049317423,0.14452632,-199.86877735766774,-0.08849656955569728,-2.575107864374367,0.0,2104,0.2989463806152344,0.01022932377657469,0.009211076965105794,-198.628358586784,6.25
323,2.096406936645508,-194.1440183584999,31.029024230678036,-107.66539867112121,-254.0592239204737,3.125,0.722533674040147,0.1,0.005939483642578125,0.12569355964660645,0.04963092,0.15947995,-199.29630145775096,-0.08836804511554404,-2.5437955559109007,3.125,2101,0.2908437252044678,0.01285642784833295,0.012412298401996865,-195.6760959561961,6.25
324,2.031740427017212,-199.98160925386662,26.812708095506988,-122.62454743880267,-250.21210736795538,0.0,0.7146732028064985,0.1,0.005578517913818359,0.13324832916259766,0.049343366,0.1384424,-199.36483223736252,-0.0899390678244618,-2.6210889454731303,0.0,2095,0.29409241676330566,0.010657588961426963,0.010552200890141677,-195.14556935201017,6.25
325,2.033555269241333,-200.09186396250414,23.752099825559508,-134.4132206295506,-249.67977990807358,0.0,0.7566703261753851,0.1,0.005754232406616211,0.12117600440979004,0.049794924,0.13980843,-199.4375354098767,-0.0892596915156718,-2.624097837888772,0.0,2107,0.2946963310241699,0.00948825930604646,0.008869599262510602,-204.7067826107704,6.25
326,2.1259560585021973,-203.9400975816545,28.0399659006533,-118.89990792046572,-258.52151200503823,0.0,0.7772694134950866,0.1,0.005622386932373047,0.1252892017364502,0.04981118,0.13339494,-199.88779162705447,-0.0896395870200023,-2.674416385362386,0.0,2134,0.30204248428344727,0.011389749467265509,0.011814077041984755,-200.00683563498052,6.25
327,2.062002420425415,-199.8498196423933,28.339819635985616,-121.42872645855135,-256.86193578471034,1.0416666666666667,0.8015938005479617,0.1,0.005694389343261719,0.12113308906555176,0.049779695,0.13267937,-199.88399442858835,-0.08945209178856911,-2.6194238353865873,1.0416666666666667,2115,0.30057644844055176,0.01258654233903596,0.011241010430299847,-206.13827464706713,6.25
328,2.1801505088806152,-197.86058701708876,27.34553449937461,-105.50865881548735,-279.26303703903966,0.0,0.7281582741847599,0.1,0.005524396896362305,0.12262701988220215,0.04957116,0.14187972,-199.6816536874384,-0.08782588023773823,-2.593747469079757,0.0,2139,0.30254316329956055,0.011922835799349196,0.011048052129189044,-202.7336040747964,6.25
329,2.1780266761779785,-201.41658266682666,31.055741426272427,-99.01820814148537,-271.3572812256982,2.0833333333333335,0.7771067407350198,0.1,0.0059473514556884766,0.12598013877868652,0.049799968,0.1405391,-199.85514658537724,-0.08930621946901308,-2.6420965038152002,2.0833333333333335,2121,0.31409311294555664,0.013891270019189557,0.013226991038859418,-201.26824798355685,6.25
330,2.135773181915283,-199.77003419696393,28.470935822222113,-129.2411033370876,-252.04238567862248,1.0416666666666667,0.7987659077438711,0.1,0.005843639373779297,0.12379717826843262,0.04938402,0.12984084,-199.84663534653592,-0.08942281044859407,-2.618812077151383,1.0416666666666667,2106,0.29758691787719727,0.011855240143951826,0.0107528438960404,-200.25661429847986,6.25
331,2.081836462020874,-202.5453294976949,24.204024878296476,-135.047570382802,-243.6295805521261,0.0,0.7546398652305567,0.1,0.00582575798034668,0.12233567237854004,0.049710575,0.14873457,-200.11650476165184,-0.08930373898041055,-2.655774497154097,0.0,2130,0.30017542839050293,0.010392847566212485,0.009868355570893671,-199.71248240331067,6.25
332,2.1272387504577637,-196.642091750397,33.29047521307495,-101.21737715774944,-253.8281056299543,4.166666666666667,0.7109736820391496,0.1,0.005775928497314453,0.12747883796691895,0.04902367,0.15766189,-199.76906346052635,-0.08805462716672074,-2.5758527458269307,4.166666666666667,2138,0.2943990230560303,0.014168801355750976,0.013405421469235929,-195.74588095882794,6.25
333,2.106769323348999,-199.17090601392195,31.238729765788502,-105.42924283065405,-247.84984444394232,3.125,0.7181662232563429,0.1,0.0058498382568359375,0.13030099868774414,0.049164776,0.15040426,-199.70924771586593,-0.0890929071796432,-2.610070563737598,3.125,2131,0.3042879104614258,0.01218460338024027,0.012179188690835157,-196.11783446749496,6.25
334,2.0711214542388916,-198.36497107987338,28.765553181090354,-126.38330169771913,-262.9886534281528,0.0,0.7382393852134972,0.1,0.005784034729003906,0.12359762191772461,0.049079977,0.13925561,-199.57482005226666,-0.08806208447614515,-2.600924703565557,0.0,2123,0.293581485748291,0.011885199551073417,0.011666580935766526,-197.27896738157364,6.25
